Time,ECG
1604496822.5837,2
1604496822.5849,336
1604496822.5873,1498
1604496822.5901,2984
1604496822.5919,3809
1604496822.5939,4294
1604496822.5960,4935
1604496822.5980,5447
1604496822.6000,5788
1604496822.6020,6165
1604496822.6040,6525
1604496822.6060,6798
1604496822.6080,7058
1604496822.6100,7331
1604496822.6120,7574
1604496822.6140,7763
1604496822.6160,7929
1604496822.6180,8097
1604496822.6200,8263
1604496822.6220,8416
1604496822.6239,8565
1604496822.6259,8700
1604496822.6279,8798
1604496822.6299,8858
1604496822.6319,8887
1604496822.6340,9079
1604496822.6359,9653
1604496822.6379,10380
1604496822.6400,10618
1604496822.6419,9864
1604496822.6440,8858
1604496822.6459,8899
1604496822.6479,9494
1604496822.6499,9622
1604496822.6519,9619
1604496822.6539,9792
1604496822.6559,9869
1604496822.6579,9862
1604496822.6599,9919
1604496822.6619,9972
1604496822.6639,9984
1604496822.6660,10003
1604496822.6679,10032
1604496822.6699,10054
1604496822.6719,10083
1604496822.6739,10097
1604496822.6760,10102
1604496822.6779,10121
1604496822.6799,10157
1604496822.6820,10171
1604496822.6845,10167
1604496822.6859,10169
1604496822.6879,10159
1604496822.6900,10114
1604496822.6919,10063
1604496822.6939,10025
1604496822.6959,9972
1604496822.6979,9886
1604496822.6999,9790
1604496822.7019,9715
1604496822.7039,9643
1604496822.7059,9566
1604496822.7079,9509
1604496822.7099,9466
1604496822.7119,9403
1604496822.7139,9336
1604496822.7159,9293
1604496822.7179,9259
1604496822.7199,9213
1604496822.7219,9163
1604496822.7239,9117
1604496822.7259,9081
1604496822.7279,9038
1604496823.1226,8988
1604496823.1235,8935
1604496823.1260,8880
1604496823.1286,8820
1604496823.1307,8755
1604496823.1326,8697
1604496823.1346,8644
1604496823.1366,8582
1604496823.1386,8512
1604496823.1405,8450
1604496823.1425,8397
1604496823.1445,8320
1604496823.1465,8222
1604496823.1485,8172
1604496823.1505,8140
1604496823.1525,8068
1604496823.1545,8001
1604496823.1565,7958
1604496823.1585,7893
1604496823.1606,7804
1604496823.1625,7727
1604496823.1645,7677
1604496823.1666,7612
1604496823.1685,7535
1604496823.1705,7473
1604496823.1725,7408
1604496823.1745,7276
1604496823.1765,7118
1604496823.1787,7158
1604496823.1806,7579
1604496823.1825,8133
1604496823.1845,8205
1604496823.1866,7319
1604496823.1887,6232
1604496823.1905,6174
1604496823.1925,6637
1604496823.1945,6649
1604496823.1965,6546
1604496823.1984,6597
1604496823.2005,6549
1604496823.2025,6453
1604496823.2045,6438
1604496823.2065,6388
1604496823.2085,6299
1604496823.2105,6253
1604496823.2125,6215
1604496823.2144,6157
1604496823.2165,6105
1604496823.2185,6059
1604496823.2205,6016
1604496823.2225,5977
1604496823.2245,5936
1604496823.2265,5908
1604496823.2284,5879
1604496823.2305,5836
1604496823.2325,5783
1604496823.2345,5723
1604496823.2365,5644
1604496823.2385,5557
1604496823.2405,5473
1604496823.2425,5384
1604496823.2444,5283
1604496823.2465,5178
1604496823.2484,5079
1604496823.2505,4993
1604496823.2524,4921
1604496823.2545,4856
1604496823.2565,4796
1604496823.2585,4736
1604496823.2604,4686
1604496823.2624,4640
1604496823.2645,4594
1604496823.2665,4554
1604496823.6929,4510
1604496823.6937,4462
1604496823.6962,4419
1604496823.6988,4378
1604496823.7009,4326
1604496823.7028,4280
1604496823.7051,4242
1604496823.7069,4194
1604496823.7089,4129
1604496823.7108,4069
1604496823.7128,4030
1604496823.7148,3994
1604496823.7168,3944
1604496823.7187,3889
1604496823.7208,3853
1604496823.7229,3817
1604496823.7248,3771
1604496823.7267,3728
1604496823.7288,3689
1604496823.7308,3644
1604496823.7327,3593
1604496823.7347,3553
1604496823.7368,3529
1604496823.7388,3514
1604496823.7407,3493
1604496823.7427,3445
1604496823.7447,3399
1604496823.7467,3373
1604496823.7487,3334
1604496823.7507,3279
1604496823.7527,3236
1604496823.7548,3207
1604496823.7568,3171
1604496823.7587,3135
1604496823.7608,3104
1604496823.7627,3056
1604496823.7647,2967
1604496823.7668,2842
1604496823.7687,2804
1604496823.7707,3089
1604496823.7727,3668
1604496823.7747,4078
1604496823.7767,3656
1604496823.7787,2518
1604496823.7807,1975
1604496823.7827,2403
1604496823.7847,2671
1604496823.7867,2559
1604496823.7888,2592
1604496823.7908,2659
1604496823.7928,2592
1604496823.7947,2563
1604496823.7967,2575
1604496823.7987,2544
1604496823.8007,2515
1604496823.8027,2506
1604496823.8047,2487
1604496823.8069,2470
1604496823.8088,2463
1604496823.8108,2448
1604496823.8127,2439
1604496823.8147,2439
1604496823.8167,2441
1604496823.8187,2439
1604496823.8207,2431
1604496823.8227,2427
1604496823.8247,2407
1604496823.8267,2367
1604496823.8287,2321
1604496823.8308,2278
1604496823.8327,2225
1604496823.8347,2158
1604496823.8368,2083
1604496824.2321,2014
1604496824.2329,1946
1604496824.2341,1896
1604496824.2362,1860
1604496824.2381,1831
1604496824.2402,1795
1604496824.2421,1766
1604496824.2442,1757
1604496824.2461,1747
1604496824.2481,1726
1604496824.2501,1702
1604496824.2520,1687
1604496824.2540,1668
1604496824.2561,1654
1604496824.2581,1651
1604496824.2601,1637
1604496824.2620,1613
1604496824.2640,1598
1604496824.2660,1582
1604496824.2680,1572
1604496824.2700,1560
1604496824.2720,1541
1604496824.2740,1519
1604496824.2760,1507
1604496824.2780,1493
1604496824.2800,1474
1604496824.2820,1462
1604496824.2840,1445
1604496824.2860,1423
1604496824.2880,1406
1604496824.2901,1394
1604496824.2920,1380
1604496824.2941,1366
1604496824.2961,1344
1604496824.2980,1329
1604496824.3002,1329
1604496824.3021,1325
1604496824.3040,1322
1604496824.3060,1329
1604496824.3080,1313
1604496824.3100,1284
1604496824.3120,1279
1604496824.3140,1274
1604496824.3160,1241
1604496824.3180,1207
1604496824.3200,1205
1604496824.3220,1207
1604496824.3240,1190
1604496824.3260,1178
1604496824.3280,1169
1604496824.3300,1125
1604496824.3320,1020
1604496824.3340,962
1604496824.3360,1197
1604496824.3380,1769
1604496824.3400,2275
1604496824.3420,2074
1604496824.3440,1025
1604496824.3460,280
1604496824.3480,602
1604496824.3500,996
1604496824.3520,933
1604496824.3540,950
1604496824.3560,1056
1604496824.3580,1025
1604496824.3600,998
1604496824.3620,1029
1604496824.3641,1027
1604496824.3661,1013
1604496824.3680,1020
1604496824.3700,1025
1604496824.3720,1020
1604496824.3740,1022
1604496824.8026,1029
1604496824.8035,1041
1604496824.8059,1051
1604496824.8086,1068
1604496824.8106,1087
1604496824.8127,1101
1604496824.8146,1104
1604496824.8166,1092
1604496824.8186,1080
1604496824.8205,1053
1604496824.8225,1015
1604496824.8245,977
1604496824.8265,931
1604496824.8287,871
1604496824.8305,806
1604496824.8325,756
1604496824.8345,717
1604496824.8365,686
1604496824.8385,660
1604496824.8405,645
1604496824.8425,628
1604496824.8445,619
1604496824.8464,619
1604496824.8485,616
1604496824.8505,616
1604496824.8525,619
1604496824.8545,621
1604496824.8565,626
1604496824.8585,628
1604496824.8605,624
1604496824.8624,619
1604496824.8645,619
1604496824.8665,621
1604496824.8685,619
1604496824.8705,614
1604496824.8725,609
1604496824.8745,602
1604496824.8765,595
1604496824.8785,595
1604496824.8805,592
1604496824.8825,585
1604496824.8845,573
1604496824.8865,568
1604496824.8885,568
1604496824.8905,566
1604496824.8925,564
1604496824.8945,559
1604496824.8965,554
1604496824.8985,552
1604496824.9005,549
1604496824.9025,544
1604496824.9044,540
1604496824.9065,535
1604496824.9085,523
1604496824.9105,518
1604496824.9125,520
1604496824.9145,525
1604496824.9165,535
1604496824.9185,552
1604496824.9205,549
1604496824.9225,530
1604496824.9245,528
1604496824.9264,537
1604496824.9285,528
1604496824.9307,499
1604496824.9325,484
1604496824.9345,494
1604496824.9365,499
1604496824.9385,487
1604496824.9405,489
1604496824.9425,475
1604496824.9445,396
1604496824.9465,314
1604496825.3721,448
1604496825.3729,936
1604496825.3754,1514
1604496825.3780,1601
1604496825.3800,765
1604496825.3820,-223
1604496825.3841,-196
1604496825.3860,302
1604496825.3880,355
1604496825.3900,319
1604496825.3919,444
1604496825.3939,458
1604496825.3959,405
1604496825.3979,434
1604496825.3999,460
1604496825.4019,441
1604496825.4039,444
1604496825.4059,465
1604496825.4079,472
1604496825.4099,475
1604496825.4120,494
1604496825.4140,511
1604496825.4160,523
1604496825.4180,544
1604496825.4200,573
1604496825.4219,600
1604496825.4239,619
1604496825.4259,628
1604496825.4279,631
1604496825.4300,616
1604496825.4320,590
1604496825.4339,556
1604496825.4359,518
1604496825.4379,470
1604496825.4400,415
1604496825.4419,362
1604496825.4439,324
1604496825.4459,300
1604496825.4479,278
1604496825.4499,259
1604496825.4520,252
1604496825.4539,247
1604496825.4561,247
1604496825.4580,247
1604496825.4599,242
1604496825.4619,252
1604496825.4639,266
1604496825.4659,268
1604496825.4679,273
1604496825.4700,283
1604496825.4719,280
1604496825.4739,273
1604496825.4759,283
1604496825.4779,290
1604496825.4800,285
1604496825.4820,280
1604496825.4839,285
1604496825.4859,285
1604496825.4879,278
1604496825.4899,273
1604496825.4919,271
1604496825.4939,271
1604496825.4959,268
1604496825.4979,264
1604496825.4999,264
1604496825.5019,264
1604496825.5039,261
1604496825.5059,261
1604496825.5079,266
1604496825.5100,268
1604496825.5119,264
1604496825.5139,264
1604496825.5159,266
1604496825.9430,261
1604496825.9438,261
1604496825.9463,259
1604496825.9489,254
1604496825.9509,249
1604496825.9529,242
1604496825.9549,235
1604496825.9569,235
1604496825.9590,237
1604496825.9609,237
1604496825.9628,252
1604496825.9648,273
1604496825.9668,264
1604496825.9688,247
1604496825.9708,252
1604496825.9728,252
1604496825.9748,235
1604496825.9768,216
1604496825.9788,216
1604496825.9808,223
1604496825.9829,220
1604496825.9848,216
1604496825.9868,220
1604496825.9888,189
1604496825.9908,103
1604496825.9928,76
1604496825.9948,343
1604496825.9968,914
1604496825.9988,1397
1604496826.0010,1159
1604496826.0029,120
1604496826.0048,-561
1604496826.0068,-225
1604496826.0088,146
1604496826.0108,103
1604496826.0128,141
1604496826.0148,244
1604496826.0168,223
1604496826.0187,220
1604496826.0208,259
1604496826.0228,256
1604496826.0248,252
1604496826.0268,276
1604496826.0288,290
1604496826.0309,292
1604496826.0328,307
1604496826.0348,324
1604496826.0368,340
1604496826.0388,360
1604496826.0408,386
1604496826.0428,415
1604496826.0447,441
1604496826.0468,463
1604496826.0488,475
1604496826.0508,472
1604496826.0528,453
1604496826.0548,424
1604496826.0568,393
1604496826.0588,352
1604496826.0608,302
1604496826.0628,244
1604496826.0648,196
1604496826.0668,160
1604496826.0687,134
1604496826.0707,115
1604496826.0728,110
1604496826.0749,103
1604496826.0768,96
1604496826.0788,96
1604496826.0808,100
1604496826.0828,96
1604496826.0849,98
1604496826.0868,110
1604496826.4827,117
1604496826.4835,122
1604496826.4860,129
1604496826.4886,136
1604496826.4905,144
1604496826.4925,148
1604496826.4946,151
1604496826.4966,148
1604496826.4985,148
1604496826.5006,146
1604496826.5025,134
1604496826.5045,127
1604496826.5066,134
1604496826.5085,132
1604496826.5106,127
1604496826.5125,132
1604496826.5145,129
1604496826.5165,124
1604496826.5185,124
1604496826.5205,124
1604496826.5225,122
1604496826.5245,127
1604496826.5265,129
1604496826.5285,127
1604496826.5305,129
1604496826.5325,129
1604496826.5345,129
1604496826.5365,129
1604496826.5385,134
1604496826.5405,136
1604496826.5426,141
1604496826.5445,139
1604496826.5465,134
1604496826.5485,134
1604496826.5505,132
1604496826.5525,129
1604496826.5545,136
1604496826.5565,153
1604496826.5585,180
1604496826.5605,194
1604496826.5626,177
1604496826.5645,163
1604496826.5665,175
1604496826.5685,175
1604496826.5705,153
1604496826.5725,139
1604496826.5745,148
1604496826.5765,156
1604496826.5785,153
1604496826.5807,151
1604496826.5825,139
1604496826.5844,79
1604496826.5865,-4
1604496826.5885,91
1604496826.5905,542
1604496826.5925,1147
1604496826.5945,1339
1604496826.5965,612
1604496826.5985,-417
1604496826.6005,-516
1604496826.6025,-28
1604496826.6045,74
1604496826.6067,28
1604496826.6085,132
1604496826.6105,163
1604496826.6125,132
1604496826.6145,160
1604496826.6165,182
1604496826.6185,170
1604496826.6205,182
1604496826.6225,204
1604496826.6245,208
1604496826.6265,216
1604496827.0829,232
1604496827.0837,249
1604496827.0861,268
1604496827.0888,290
1604496827.0910,319
1604496827.0929,350
1604496827.0950,372
1604496827.0968,384
1604496827.0988,386
1604496827.1008,379
1604496827.1027,355
1604496827.1047,324
1604496827.1067,288
1604496827.1087,242
1604496827.1107,187
1604496827.1127,134
1604496827.1147,96
1604496827.1167,62
1604496827.1187,36
1604496827.1208,24
1604496827.1227,14
1604496827.1247,12
1604496827.1267,12
1604496827.1287,12
1604496827.1307,16
1604496827.1328,24
1604496827.1347,28
1604496827.1368,36
1604496827.1387,43
1604496827.1407,55
1604496827.1427,62
1604496827.1434,64
1604496827.1447,72
1604496827.1467,79
1604496827.1487,79
1604496827.1507,84
1604496827.1527,88
1604496827.1547,88
1604496827.1567,88
1604496827.1587,91
1604496827.1607,93
1604496827.1627,91
1604496827.1647,93
1604496827.1667,91
1604496827.1687,91
1604496827.1707,93
1604496827.1727,96
1604496827.1733,93
1604496827.1747,93
1604496827.1767,91
1604496827.1787,91
1604496827.1807,96
1604496827.1827,100
1604496827.1847,105
1604496827.1867,105
1604496827.1887,100
1604496827.1907,98
1604496827.1926,98
1604496827.1947,103
1604496827.1967,105
1604496827.1987,103
1604496827.2007,100
1604496827.2027,98
1604496827.2034,98
1604496827.2047,100
1604496827.2067,112
1604496827.2087,139
1604496827.2107,165
1604496827.2127,160
1604496827.2147,134
1604496827.2167,132
1604496827.2187,148
1604496827.2207,139
1604496827.5924,115
1604496827.5930,108
1604496827.5954,120
1604496827.5980,124
1604496827.5988,124
1604496827.6013,120
1604496827.6031,88
1604496827.6051,2
1604496827.6070,-33
1604496827.6090,216
1604496827.6110,794
1604496827.6130,1308
1604496827.6150,1104
1604496827.6170,79
1604496827.6189,-621
1604496827.6211,-326
1604496827.6230,33
1604496827.6250,-4
1604496827.6270,28
1604496827.6290,132
1604496827.6297,110
1604496827.6310,100
1604496827.6330,141
1604496827.6350,146
1604496827.6370,136
1604496827.6390,156
1604496827.6410,172
1604496827.6430,177
1604496827.6451,187
1604496827.6471,204
1604496827.6490,218
1604496827.6510,235
1604496827.6530,259
1604496827.6550,288
1604496827.6570,319
1604496827.6590,345
1604496827.6674,360
1604496827.6690,362
1604496827.6710,352
1604496827.6730,328
1604496827.6750,295
1604496827.6770,252
1604496827.6790,199
1604496827.6810,141
1604496827.6830,91
1604496827.6850,57
1604496827.6870,31
1604496827.6890,9
1604496827.6910,-7
1604496827.6930,-12
1604496827.6950,-14
1604496827.6957,-12
1604496827.6970,-7
1604496827.6990,-2
1604496827.7010,4
1604496827.7030,14
1604496827.7052,24
1604496827.7070,31
1604496827.7090,40
1604496827.7110,45
1604496827.7130,52
1604496827.7150,60
1604496827.7170,64
1604496827.7190,64
1604496827.7210,72
1604496827.7230,74
1604496827.7250,72
1604496827.7257,69
1604496827.7270,72
1604496827.7290,72
1604496827.7310,72
1604496827.7330,69
1604496827.7350,67
1604496828.1929,64
1604496828.1937,64
1604496828.1962,67
1604496828.1988,69
1604496828.2008,69
1604496828.2028,64
1604496828.2049,62
1604496828.2069,64
1604496828.2088,69
1604496828.2095,69
1604496828.2117,72
1604496828.2137,74
1604496828.2157,76
1604496828.2178,79
1604496828.2197,81
1604496828.2217,84
1604496828.2237,84
1604496828.2257,84
1604496828.2277,86
1604496828.2298,88
1604496828.2318,88
1604496828.2337,81
1604496828.2357,81
1604496828.2377,93
1604496828.2397,115
1604496828.2404,139
1604496828.2427,144
1604496828.2447,122
1604496828.2467,110
1604496828.2487,122
1604496828.2507,122
1604496828.2527,100
1604496828.2547,86
1604496828.2567,91
1604496828.2589,88
1604496828.2607,81
1604496828.2627,84
1604496828.2647,64
1604496828.2667,-4
1604496828.2687,-74
1604496828.2708,74
1604496828.2715,583
1604496828.2737,1173
1604496828.2757,1229
1604496828.2778,376
1604496828.2797,-547
1604496828.2817,-487
1604496828.2837,-48
1604496828.2857,-21
1604496828.2877,-33
1604496828.2898,84
1604496828.2917,84
1604496828.2937,45
1604496828.2957,79
1604496828.2977,103
1604496828.2998,100
1604496828.3017,115
1604496828.3024,134
1604496828.3047,141
1604496828.3067,151
1604496828.3087,160
1604496828.3107,177
1604496828.3127,201
1604496828.3147,220
1604496828.3167,240
1604496828.3187,273
1604496828.3207,309
1604496828.3227,333
1604496828.3247,338
1604496828.3267,326
1604496828.3287,307
1604496828.3307,280
1604496828.3328,247
1604496828.7022,199
1604496828.7030,144
1604496828.7055,96
1604496828.7082,55
1604496828.7101,28
1604496828.7121,9
1604496828.7142,-19
1604496828.7160,-43
1604496828.7180,-40
1604496828.7200,-28
1604496828.7220,-38
1604496828.7240,-40
1604496828.7262,-26
1604496828.7280,-14
1604496828.7301,-14
1604496828.7320,-12
1604496828.7340,-2
1604496828.7360,7
1604496828.7380,19
1604496828.7400,28
1604496828.7420,31
1604496828.7440,28
1604496828.7460,31
1604496828.7480,36
1604496828.7501,38
1604496828.7520,33
1604496828.7540,31
1604496828.7560,38
1604496828.7580,38
1604496828.7600,38
1604496828.7620,45
1604496828.7640,48
1604496828.7660,45
1604496828.7680,43
1604496828.7700,33
1604496828.7720,33
1604496828.7740,45
1604496828.7761,43
1604496828.7780,40
1604496828.7800,48
1604496828.7820,55
1604496828.7840,55
1604496828.7860,55
1604496828.7880,52
1604496828.7900,57
1604496828.7920,64
1604496828.7940,60
1604496828.7961,57
1604496828.7980,64
1604496828.8000,64
1604496828.8020,64
1604496828.8040,69
1604496828.8060,64
1604496828.8080,55
1604496828.8100,64
1604496828.8120,88
1604496828.8140,108
1604496828.8160,108
1604496828.8180,88
1604496828.8200,81
1604496828.8220,91
1604496828.8240,86
1604496828.8260,60
1604496828.8281,48
1604496828.8300,55
1604496828.8320,57
1604496828.8340,55
1604496828.8360,57
1604496828.8380,48
1604496828.8400,-19
1604496828.8420,-98
1604496828.8440,26
1604496828.8460,499
1604496829.3023,1080
1604496829.3031,1190
1604496829.3055,410
1604496829.3082,-532
1604496829.3102,-540
1604496829.3122,-96
1604496829.3142,-36
1604496829.3162,-69
1604496829.3182,36
1604496829.3202,62
1604496829.3222,33
1604496829.3242,57
1604496829.3262,79
1604496829.3282,81
1604496829.3302,91
1604496829.3321,100
1604496829.3341,105
1604496829.3361,122
1604496829.3381,139
1604496829.3402,151
1604496829.3421,168
1604496829.3441,196
1604496829.3461,225
1604496829.3481,254
1604496829.3501,285
1604496829.3521,309
1604496829.3541,307
1604496829.3561,295
1604496829.3581,283
1604496829.3602,264
1604496829.3621,230
1604496829.3641,182
1604496829.3661,127
1604496829.3681,74
1604496829.3701,31
1604496829.3721,-2
1604496829.3741,-24
1604496829.3761,-28
1604496829.3781,-38
1604496829.3801,-48
1604496829.3821,-48
1604496829.3843,-40
1604496829.3862,-33
1604496829.3881,-28
1604496829.3902,-26
1604496829.3921,-21
1604496829.3941,-16
1604496829.3960,-9
1604496829.3981,0
1604496829.4001,9
1604496829.4021,14
1604496829.4041,14
1604496829.4061,19
1604496829.4081,24
1604496829.4101,24
1604496829.4121,24
1604496829.4141,28
1604496829.4161,31
1604496829.4181,28
1604496829.4201,31
1604496829.4221,33
1604496829.4241,36
1604496829.4261,36
1604496829.4281,33
1604496829.4301,33
1604496829.4321,38
1604496829.4341,40
1604496829.4361,38
1604496829.4381,43
1604496829.4401,43
1604496829.4421,43
1604496829.4441,48
1604496829.4461,52
1604496829.8722,50
1604496829.8730,50
1604496829.8755,55
1604496829.8781,55
1604496829.8801,48
1604496829.8821,48
1604496829.8841,55
1604496829.8861,52
1604496829.8881,45
1604496829.8901,40
1604496829.8920,38
1604496829.8940,48
1604496829.8961,50
1604496829.8980,48
1604496829.9001,48
1604496829.9020,50
1604496829.9040,43
1604496829.9060,40
1604496829.9080,50
1604496829.9103,60
1604496829.9121,69
1604496829.9140,86
1604496829.9160,81
1604496829.9180,62
1604496829.9201,64
1604496829.9220,69
1604496829.9240,60
1604496829.9260,43
1604496829.9280,43
1604496829.9301,50
1604496829.9320,55
1604496829.9340,50
1604496829.9360,43
1604496829.9380,2
1604496829.9400,-81
1604496829.9421,-57
1604496829.9440,295
1604496829.9460,895
1604496829.9480,1272
1604496829.9500,845
1604496829.9520,-192
1604496829.9540,-638
1604496829.9560,-247
1604496829.9580,-4
1604496829.9600,-60
1604496829.9620,7
1604496829.9640,79
1604496829.9660,52
1604496829.9680,62
1604496829.9701,98
1604496829.9720,93
1604496829.9741,93
1604496829.9760,112
1604496829.9780,124
1604496829.9800,134
1604496829.9820,151
1604496829.9840,165
1604496829.9860,182
1604496829.9880,206
1604496829.9900,230
1604496829.9920,256
1604496829.9941,288
1604496829.9960,316
1604496829.9980,331
1604496830.0001,333
1604496830.0021,324
1604496830.0040,304
1604496830.0060,271
1604496830.0080,228
1604496830.0100,175
1604496830.0122,122
1604496830.0141,74
1604496830.0160,36
1604496830.4128,4
1604496830.4136,-14
1604496830.4152,-26
1604496830.4171,-28
1604496830.4192,-31
1604496830.4212,-31
1604496830.4231,-28
1604496830.4252,-21
1604496830.4271,-12
1604496830.4290,-9
1604496830.4310,-12
1604496830.4330,-14
1604496830.4350,-4
1604496830.4370,2
1604496830.4390,4
1604496830.4411,12
1604496830.4430,21
1604496830.4450,24
1604496830.4470,24
1604496830.4490,26
1604496830.4510,28
1604496830.4530,26
1604496830.4550,28
1604496830.4576,33
1604496830.4590,33
1604496830.4610,31
1604496830.4630,31
1604496830.4650,31
1604496830.4670,31
1604496830.4690,31
1604496830.4710,33
1604496830.4730,33
1604496830.4751,38
1604496830.4770,40
1604496830.4790,38
1604496830.4810,38
1604496830.4830,40
1604496830.4850,40
1604496830.4870,40
1604496830.4890,45
1604496830.4910,50
1604496830.4930,48
1604496830.4950,50
1604496830.4971,55
1604496830.4990,50
1604496830.5011,43
1604496830.5030,40
1604496830.5050,40
1604496830.5072,43
1604496830.5090,50
1604496830.5110,69
1604496830.5131,96
1604496830.5150,100
1604496830.5170,76
1604496830.5189,67
1604496830.5210,76
1604496830.5231,72
1604496830.5251,50
1604496830.5270,45
1604496830.5289,52
1604496830.5311,52
1604496830.5330,48
1604496830.5350,48
1604496830.5370,36
1604496830.5390,-31
1604496830.5410,-103
1604496830.5430,50
1604496830.5450,556
1604496830.5470,1135
1604496830.5490,1200
1604496830.5510,374
1604496830.5530,-559
1604496830.5550,-530
1604496831.0126,-91
1604496831.0134,-43
1604496831.0161,-50
1604496831.0185,60
1604496831.0205,69
1604496831.0225,43
1604496831.0245,74
1604496831.0265,84
1604496831.0285,69
1604496831.0304,84
1604496831.0324,105
1604496831.0344,112
1604496831.0364,124
1604496831.0384,141
1604496831.0405,158
1604496831.0424,177
1604496831.0444,204
1604496831.0464,237
1604496831.0484,266
1604496831.0504,292
1604496831.0524,319
1604496831.0544,333
1604496831.0564,331
1604496831.0584,309
1604496831.0604,278
1604496831.0624,240
1604496831.0645,189
1604496831.0664,129
1604496831.0684,72
1604496831.0704,24
1604496831.0724,-9
1604496831.0744,-31
1604496831.0764,-45
1604496831.0784,-50
1604496831.0804,-50
1604496831.0824,-52
1604496831.0844,-52
1604496831.0864,-48
1604496831.0884,-40
1604496831.0905,-31
1604496831.0925,-24
1604496831.0944,-14
1604496831.0964,-9
1604496831.0984,-2
1604496831.1004,7
1604496831.1024,14
1604496831.1044,19
1604496831.1064,24
1604496831.1084,26
1604496831.1104,28
1604496831.1124,28
1604496831.1143,26
1604496831.1164,28
1604496831.1184,28
1604496831.1204,26
1604496831.1224,24
1604496831.1244,26
1604496831.1264,28
1604496831.1284,28
1604496831.1304,31
1604496831.1324,28
1604496831.1344,28
1604496831.1364,31
1604496831.1384,31
1604496831.1405,33
1604496831.1424,33
1604496831.1444,33
1604496831.1464,38
1604496831.1484,45
1604496831.1504,43
1604496831.1524,36
1604496831.1544,31
1604496831.1564,26
1604496831.5222,24
1604496831.5232,24
1604496831.5257,36
1604496831.5283,60
1604496831.5305,79
1604496831.5322,69
1604496831.5342,50
1604496831.5362,55
1604496831.5382,62
1604496831.5402,48
1604496831.5421,26
1604496831.5441,24
1604496831.5461,26
1604496831.5482,16
1604496831.5502,19
1604496831.5521,26
1604496831.5541,-9
1604496831.5561,-96
1604496831.5581,-122
1604496831.5601,134
1604496831.5622,708
1604496831.5641,1209
1604496831.5662,1020
1604496831.5681,24
1604496831.5702,-684
1604496831.5722,-408
1604496831.5741,-45
1604496831.5761,-72
1604496831.5781,-40
1604496831.5802,57
1604496831.5822,43
1604496831.5841,36
1604496831.5861,74
1604496831.5881,81
1604496831.5902,79
1604496831.5921,96
1604496831.5941,105
1604496831.5961,112
1604496831.5981,129
1604496831.6002,144
1604496831.6021,158
1604496831.6041,177
1604496831.6062,204
1604496831.6082,235
1604496831.6102,271
1604496831.6121,300
1604496831.6141,321
1604496831.6161,328
1604496831.6181,319
1604496831.6202,300
1604496831.6221,266
1604496831.6241,220
1604496831.6261,163
1604496831.6283,103
1604496831.6302,50
1604496831.6323,7
1604496831.6342,-21
1604496831.6362,-40
1604496831.6381,-50
1604496831.6402,-55
1604496831.6421,-57
1604496831.6441,-57
1604496831.6462,-55
1604496831.6482,-57
1604496831.6502,-55
1604496831.6521,-43
1604496831.6541,-33
1604496831.6561,-28
1604496831.6581,-19
1604496831.6602,-9
1604496831.6622,-4
1604496831.6641,0
1604496831.6661,7
1604496832.1228,9
1604496832.1240,7
1604496832.1264,9
1604496832.1290,14
1604496832.1310,12
1604496832.1330,4
1604496832.1350,-4
1604496832.1370,-4
1604496832.1390,2
1604496832.1409,0
1604496832.1430,-4
1604496832.1449,0
1604496832.1469,4
1604496832.1489,7
1604496832.1509,4
1604496832.1529,7
1604496832.1550,9
1604496832.1569,14
1604496832.1589,14
1604496832.1609,16
1604496832.1630,21
1604496832.1649,19
1604496832.1669,12
1604496832.1689,7
1604496832.1709,14
1604496832.1729,28
1604496832.1749,52
1604496832.1769,74
1604496832.1789,64
1604496832.1809,43
1604496832.1829,45
1604496832.1849,50
1604496832.1869,31
1604496832.1891,9
1604496832.1910,9
1604496832.1929,19
1604496832.1949,16
1604496832.1969,14
1604496832.1989,16
1604496832.2009,-12
1604496832.2029,-100
1604496832.2049,-141
1604496832.2069,103
1604496832.2089,677
1604496832.2109,1200
1604496832.2129,1034
1604496832.2149,43
1604496832.2169,-691
1604496832.2189,-429
1604496832.2210,-55
1604496832.2229,-84
1604496832.2248,-60
1604496832.2269,43
1604496832.2289,31
1604496832.2309,19
1604496832.2329,52
1604496832.2349,55
1604496832.2369,52
1604496832.2389,72
1604496832.2409,84
1604496832.2429,88
1604496832.2449,105
1604496832.2469,124
1604496832.2489,139
1604496832.2509,158
1604496832.2529,182
1604496832.2549,216
1604496832.2569,254
1604496832.2589,285
1604496832.2609,304
1604496832.2629,309
1604496832.2649,300
1604496832.2669,280
1604496832.6628,252
1604496832.6637,208
1604496832.6662,151
1604496832.6688,91
1604496832.6708,38
1604496832.6727,-4
1604496832.6747,-38
1604496832.6767,-64
1604496832.6788,-76
1604496832.6808,-76
1604496832.6827,-81
1604496832.6850,-93
1604496832.6868,-86
1604496832.6887,-72
1604496832.6907,-69
1604496832.6927,-64
1604496832.6946,-55
1604496832.6967,-45
1604496832.6987,-38
1604496832.7007,-26
1604496832.7027,-19
1604496832.7047,-14
1604496832.7067,-12
1604496832.7088,-9
1604496832.7107,-4
1604496832.7127,-2
1604496832.7147,0
1604496832.7167,0
1604496832.7187,2
1604496832.7207,2
1604496832.7227,0
1604496832.7247,4
1604496832.7267,4
1604496832.7287,7
1604496832.7307,9
1604496832.7327,12
1604496832.7347,14
1604496832.7368,14
1604496832.7387,14
1604496832.7407,16
1604496832.7427,21
1604496832.7447,24
1604496832.7467,24
1604496832.7488,28
1604496832.7507,31
1604496832.7527,28
1604496832.7547,31
1604496832.7567,28
1604496832.7587,21
1604496832.7608,16
1604496832.7627,21
1604496832.7647,36
1604496832.7667,55
1604496832.7687,74
1604496832.7707,64
1604496832.7727,43
1604496832.7747,43
1604496832.7767,48
1604496832.7787,36
1604496832.7807,21
1604496832.7827,21
1604496832.7847,28
1604496832.7870,24
1604496832.7887,19
1604496832.7907,19
1604496832.7927,-16
1604496832.7947,-105
1604496832.7967,-134
1604496832.7987,124
1604496832.8008,701
1604496832.8027,1205
1604496832.8047,1003
1604496832.8067,0
1604496833.2327,-691
1604496833.2337,-408
1604496833.2362,-52
1604496833.2388,-86
1604496833.2407,-55
1604496833.2427,43
1604496833.2448,28
1604496833.2467,16
1604496833.2487,43
1604496833.2508,50
1604496833.2527,57
1604496833.2547,74
1604496833.2567,76
1604496833.2587,84
1604496833.2607,100
1604496833.2626,112
1604496833.2646,122
1604496833.2666,148
1604496833.2686,180
1604496833.2706,211
1604496833.2726,244
1604496833.2746,276
1604496833.2766,302
1604496833.2786,304
1604496833.2806,292
1604496833.2826,276
1604496833.2846,249
1604496833.2866,206
1604496833.2886,151
1604496833.2906,91
1604496833.2926,38
1604496833.2947,-4
1604496833.2966,-36
1604496833.2986,-50
1604496833.3007,-57
1604496833.3026,-67
1604496833.3046,-72
1604496833.3066,-64
1604496833.3086,-60
1604496833.3106,-57
1604496833.3128,-50
1604496833.3147,-45
1604496833.3166,-36
1604496833.3186,-28
1604496833.3206,-33
1604496833.3226,-33
1604496833.3246,-19
1604496833.3266,-16
1604496833.3286,-14
1604496833.3307,-7
1604496833.3326,2
1604496833.3346,2
1604496833.3366,2
1604496833.3386,14
1604496833.3406,21
1604496833.3426,16
1604496833.3447,38
1604496833.3467,50
1604496833.3486,-4
1604496833.3507,-38
1604496833.3526,-4
1604496833.3546,12
1604496833.3566,2
1604496833.3586,7
1604496833.3607,19
1604496833.3626,24
1604496833.3646,26
1604496833.3666,31
1604496833.3687,28
1604496833.3707,31
1604496833.3713,40
1604496833.3726,45
1604496833.3746,40
1604496833.7723,33
1604496833.7733,33
1604496833.7757,40
1604496833.7783,43
1604496833.7804,26
1604496833.7823,28
1604496833.7843,50
1604496833.7863,48
1604496833.7883,45
1604496833.7890,69
1604496833.7902,72
1604496833.7922,52
1604496833.7942,55
1604496833.7962,67
1604496833.7982,60
1604496833.8003,38
1604496833.8023,24
1604496833.8042,21
1604496833.8064,21
1604496833.8083,31
1604496833.8103,38
1604496833.8122,12
1604496833.8142,-60
1604496833.8162,-127
1604496833.8183,14
1604496833.8189,506
1604496833.8203,1094
1604496833.8222,1183
1604496833.8242,379
1604496833.8262,-564
1604496833.8282,-566
1604496833.8303,-129
1604496833.8322,-67
1604496833.8342,-88
1604496833.8362,9
1604496833.8382,21
1604496833.8402,2
1604496833.8422,36
1604496833.8442,45
1604496833.8462,36
1604496833.8482,52
1604496833.8489,62
1604496833.8502,62
1604496833.8522,86
1604496833.8542,103
1604496833.8562,110
1604496833.8582,134
1604496833.8602,165
1604496833.8622,189
1604496833.8643,218
1604496833.8662,256
1604496833.8682,278
1604496833.8703,280
1604496833.8722,280
1604496833.8742,271
1604496833.8763,252
1604496833.8769,216
1604496833.8782,163
1604496833.8802,100
1604496833.8822,43
1604496833.8842,-2
1604496833.8862,-31
1604496833.8882,-50
1604496833.8902,-60
1604496833.8922,-60
1604496833.8942,-67
1604496833.8962,-79
1604496833.8982,-79
1604496833.9002,-67
1604496833.9024,-57
1604496833.9043,-50
1604496833.9062,-55
1604496833.9069,-57
1604496834.3720,-40
1604496834.3726,-26
1604496834.3750,-24
1604496834.3776,-21
1604496834.3797,-14
1604496834.3817,-12
1604496834.3836,-16
1604496834.3856,-19
1604496834.3876,-14
1604496834.3897,-7
1604496834.3916,-7
1604496834.3937,-9
1604496834.3956,-9
1604496834.3976,0
1604496834.3996,-2
1604496834.4016,-9
1604496834.4023,-4
1604496834.4046,2
1604496834.4066,0
1604496834.4087,-2
1604496834.4106,2
1604496834.4126,7
1604496834.4146,12
1604496834.4166,14
1604496834.4186,12
1604496834.4206,14
1604496834.4226,21
1604496834.4246,12
1604496834.4266,2
1604496834.4286,7
1604496834.4306,14
1604496834.4326,19
1604496834.4333,14
1604496834.4346,9
1604496834.4366,16
1604496834.4386,26
1604496834.4406,26
1604496834.4426,14
1604496834.4446,4
1604496834.4466,24
1604496834.4486,57
1604496834.4506,81
1604496834.4526,79
1604496834.4546,57
1604496834.4566,52
1604496834.4586,69
1604496834.4606,60
1604496834.4628,28
1604496834.4633,16
1604496834.4646,24
1604496834.4666,31
1604496834.4686,33
1604496834.4706,33
1604496834.4726,16
1604496834.4746,-50
1604496834.4766,-124
1604496834.4786,7
1604496834.4806,487
1604496834.4826,1073
1604496834.4846,1195
1604496834.4866,434
1604496834.4886,-520
1604496834.4906,-566
1604496834.4926,-129
1604496834.4933,-62
1604496834.4946,-98
1604496834.4966,9
1604496834.4986,40
1604496834.5006,14
1604496834.5026,38
1604496834.5046,52
1604496834.5066,48
1604496834.5086,64
1604496834.8828,79
1604496834.8838,76
1604496834.8862,88
1604496834.8889,115
1604496834.8895,134
1604496834.8917,148
1604496834.8938,168
1604496834.8957,194
1604496834.8977,220
1604496834.8998,252
1604496834.9017,285
1604496834.9037,297
1604496834.9057,288
1604496834.9077,266
1604496834.9097,244
1604496834.9118,218
1604496834.9137,165
1604496834.9157,105
1604496834.9177,57
1604496834.9184,9
1604496834.9198,-33
1604496834.9217,-64
1604496834.9237,-72
1604496834.9257,-76
1604496834.9278,-79
1604496834.9299,-76
1604496834.9318,-76
1604496834.9337,-74
1604496834.9357,-62
1604496834.9377,-55
1604496834.9398,-50
1604496834.9417,-40
1604496834.9437,-33
1604496834.9457,-26
1604496834.9478,-19
1604496834.9484,-14
1604496834.9497,-7
1604496834.9517,-2
1604496834.9537,2
1604496834.9557,7
1604496834.9577,9
1604496834.9597,4
1604496834.9617,4
1604496834.9638,14
1604496834.9658,19
1604496834.9677,14
1604496834.9697,9
1604496834.9717,4
1604496834.9738,2
1604496834.9757,-9
1604496834.9777,-14
1604496834.9798,-12
1604496834.9817,-12
1604496834.9837,-16
1604496834.9857,-12
1604496834.9877,-7
1604496834.9897,-7
1604496834.9917,-7
1604496834.9937,-4
1604496834.9957,0
1604496834.9977,7
1604496834.9997,7
1604496835.0017,4
1604496835.0037,14
1604496835.0057,21
1604496835.0077,19
1604496835.0097,19
1604496835.0117,26
1604496835.0137,28
1604496835.0159,28
1604496835.0177,26
1604496835.0197,26
1604496835.0217,26
1604496835.4527,26
1604496835.4537,31
1604496835.4561,38
1604496835.4591,64
1604496835.4608,76
1604496835.4628,52
1604496835.4650,36
1604496835.4668,48
1604496835.4688,52
1604496835.4708,33
1604496835.4728,14
1604496835.4747,4
1604496835.4768,4
1604496835.4788,7
1604496835.4807,12
1604496835.4827,9
1604496835.4847,-33
1604496835.4867,-120
1604496835.4887,-122
1604496835.4907,184
1604496835.4927,785
1604496835.4947,1250
1604496835.4967,957
1604496835.4987,-79
1604496835.5007,-684
1604496835.5027,-350
1604496835.5047,-45
1604496835.5067,-96
1604496835.5087,-45
1604496835.5108,48
1604496835.5128,24
1604496835.5147,16
1604496835.5167,57
1604496835.5187,64
1604496835.5207,64
1604496835.5227,84
1604496835.5247,96
1604496835.5267,105
1604496835.5286,122
1604496835.5307,136
1604496835.5327,148
1604496835.5347,175
1604496835.5367,201
1604496835.5387,220
1604496835.5406,252
1604496835.5427,290
1604496835.5447,314
1604496835.5467,321
1604496835.5487,316
1604496835.5507,300
1604496835.5527,271
1604496835.5547,225
1604496835.5567,170
1604496835.5587,115
1604496835.5609,64
1604496835.5627,19
1604496835.5646,-12
1604496835.5666,-31
1604496835.5687,-45
1604496835.5707,-50
1604496835.5727,-45
1604496835.5747,-45
1604496835.5767,-48
1604496835.5786,-43
1604496835.5807,-38
1604496835.5827,-36
1604496835.5848,-28
1604496835.5867,-16
1604496835.5887,-4
1604496835.5907,0
1604496835.5927,2
1604496835.5947,4
1604496835.5967,9
1604496836.0528,19
1604496836.0537,26
1604496836.0561,24
1604496836.0588,21
1604496836.0608,16
1604496836.0627,12
1604496836.0648,4
1604496836.0667,2
1604496836.0687,7
1604496836.0708,4
1604496836.0728,2
1604496836.0747,9
1604496836.0768,14
1604496836.0787,14
1604496836.0808,12
1604496836.0827,9
1604496836.0847,14
1604496836.0867,19
1604496836.0888,26
1604496836.0908,28
1604496836.0927,26
1604496836.0947,26
1604496836.0967,28
1604496836.0987,31
1604496836.1007,28
1604496836.1027,28
1604496836.1047,33
1604496836.1067,38
1604496836.1087,38
1604496836.1107,31
1604496836.1127,28
1604496836.1147,33
1604496836.1169,40
1604496836.1187,50
1604496836.1207,67
1604496836.1227,81
1604496836.1247,67
1604496836.1267,48
1604496836.1287,55
1604496836.1307,62
1604496836.1327,45
1604496836.1346,28
1604496836.1367,28
1604496836.1387,36
1604496836.1407,36
1604496836.1426,33
1604496836.1447,33
1604496836.1466,-2
1604496836.1487,-91
1604496836.1507,-103
1604496836.1526,213
1604496836.1546,835
1604496836.1567,1313
1604496836.1587,998
1604496836.1607,-96
1604496836.1626,-722
1604496836.1647,-357
1604496836.1667,-43
1604496836.1686,-100
1604496836.1707,-33
1604496836.1727,64
1604496836.1747,31
1604496836.1767,31
1604496836.1788,74
1604496836.1808,74
1604496836.1827,74
1604496836.1847,91
1604496836.1866,98
1604496836.1887,100
1604496836.1908,115
1604496836.1926,129
1604496836.1947,144
1604496836.1967,172
1604496836.5927,206
1604496836.5936,232
1604496836.5952,261
1604496836.5971,300
1604496836.5991,328
1604496836.6011,333
1604496836.6031,324
1604496836.6051,297
1604496836.6071,266
1604496836.6091,223
1604496836.6113,153
1604496836.6132,74
1604496836.6152,19
1604496836.6172,-16
1604496836.6191,-52
1604496836.6211,-76
1604496836.6232,-81
1604496836.6251,-79
1604496836.6271,-79
1604496836.6292,-84
1604496836.6312,-84
1604496836.6331,-79
1604496836.6352,-72
1604496836.6371,-69
1604496836.6390,-60
1604496836.6411,-52
1604496836.6430,-50
1604496836.6450,-38
1604496836.6471,-21
1604496836.6490,-16
1604496836.6510,-12
1604496836.6531,-2
1604496836.6550,2
1604496836.6570,4
1604496836.6590,7
1604496836.6610,12
1604496836.6630,12
1604496836.6651,7
1604496836.6670,0
1604496836.6690,2
1604496836.6710,7
1604496836.6731,7
1604496836.6750,7
1604496836.6770,9
1604496836.6790,9
1604496836.6811,12
1604496836.6830,14
1604496836.6850,14
1604496836.6870,9
1604496836.6890,9
1604496836.6910,14
1604496836.6930,16
1604496836.6950,16
1604496836.6971,19
1604496836.6990,21
1604496836.7010,21
1604496836.7030,21
1604496836.7050,19
1604496836.7070,12
1604496836.7090,4
1604496836.7110,12
1604496836.7133,28
1604496836.7151,48
1604496836.7170,50
1604496836.7190,33
1604496836.7210,24
1604496836.7230,33
1604496836.7250,36
1604496836.7270,19
1604496836.7290,4
1604496836.7310,4
1604496836.7330,16
1604496836.7350,21
1604496837.1627,19
1604496837.1636,12
1604496837.1661,-24
1604496837.1687,-112
1604496837.1707,-129
1604496837.1726,175
1604496837.1748,794
1604496837.1767,1277
1604496837.1787,965
1604496837.1807,-127
1604496837.1826,-751
1604496837.1846,-379
1604496837.1866,-55
1604496837.1886,-120
1604496837.1906,-64
1604496837.1926,36
1604496837.1946,9
1604496837.1966,2
1604496837.1986,40
1604496837.2005,45
1604496837.2025,48
1604496837.2045,64
1604496837.2065,76
1604496837.2085,84
1604496837.2106,100
1604496837.2127,120
1604496837.2145,136
1604496837.2165,158
1604496837.2185,184
1604496837.2205,218
1604496837.2227,256
1604496837.2247,297
1604496837.2267,319
1604496837.2285,304
1604496837.2306,295
1604496837.2326,292
1604496837.2346,249
1604496837.2365,199
1604496837.2385,148
1604496837.2407,84
1604496837.2426,24
1604496837.2446,-14
1604496837.2466,-43
1604496837.2485,-64
1604496837.2506,-74
1604496837.2525,-76
1604496837.2545,-76
1604496837.2566,-72
1604496837.2585,-74
1604496837.2606,-79
1604496837.2625,-72
1604496837.2645,-60
1604496837.2665,-55
1604496837.2686,-48
1604496837.2706,-36
1604496837.2725,-31
1604496837.2746,-31
1604496837.2765,-33
1604496837.2785,-31
1604496837.2806,-21
1604496837.2825,-12
1604496837.2845,-7
1604496837.2865,4
1604496837.2886,7
1604496837.2905,-9
1604496837.2925,-16
1604496837.2945,-7
1604496837.2965,-7
1604496837.2985,-2
1604496837.3006,2
1604496837.3025,-4
1604496837.3045,-7
1604496837.3065,0
1604496837.7027,4
1604496837.7036,4
1604496837.7061,7
1604496837.7087,9
1604496837.7107,9
1604496837.7127,4
1604496837.7146,4
1604496837.7166,9
1604496837.7186,9
1604496837.7205,0
1604496837.7226,-7
1604496837.7246,-4
1604496837.7266,-2
1604496837.7286,-9
1604496837.7306,-12
1604496837.7326,7
1604496837.7346,31
1604496837.7367,43
1604496837.7386,36
1604496837.7406,16
1604496837.7426,19
1604496837.7446,31
1604496837.7466,24
1604496837.7486,2
1604496837.7506,-4
1604496837.7526,2
1604496837.7546,7
1604496837.7566,9
1604496837.7586,19
1604496837.7606,2
1604496837.7626,-76
1604496837.7647,-156
1604496837.7666,-33
1604496837.7686,448
1604496837.7705,1075
1604496837.7726,1253
1604496837.7747,482
1604496837.7766,-544
1604496837.7786,-619
1604496837.7806,-153
1604496837.7826,-79
1604496837.7846,-117
1604496837.7866,-7
1604496837.7886,24
1604496837.7906,-7
1604496837.7926,21
1604496837.7946,40
1604496837.7966,38
1604496837.7986,52
1604496837.8006,62
1604496837.8026,67
1604496837.8046,81
1604496837.8066,91
1604496837.8086,103
1604496837.8106,127
1604496837.8126,158
1604496837.8146,184
1604496837.8165,220
1604496837.8186,259
1604496837.8206,288
1604496837.8226,300
1604496837.8246,297
1604496837.8266,283
1604496837.8286,259
1604496837.8306,225
1604496837.8326,175
1604496837.8345,112
1604496837.8366,50
1604496837.8388,-2
1604496837.8406,-38
1604496837.8426,-57
1604496837.8446,-79
1604496837.8466,-91
1604496838.2721,-84
1604496838.2731,-79
1604496838.2756,-84
1604496838.2782,-76
1604496838.2802,-57
1604496838.2822,-64
1604496838.2843,-86
1604496838.2862,-79
1604496838.2882,-60
1604496838.2902,-52
1604496838.2921,-48
1604496838.2941,-38
1604496838.2961,-33
1604496838.2981,-31
1604496838.3002,-26
1604496838.3021,-19
1604496838.3041,-16
1604496838.3061,-14
1604496838.3081,-14
1604496838.3101,-7
1604496838.3121,2
1604496838.3141,2
1604496838.3161,-7
1604496838.3181,-12
1604496838.3201,-12
1604496838.3221,-14
1604496838.3241,-16
1604496838.3261,-7
1604496838.3281,0
1604496838.3301,0
1604496838.3321,-4
1604496838.3341,0
1604496838.3361,9
1604496838.3381,12
1604496838.3401,2
1604496838.3421,-2
1604496838.3441,4
1604496838.3462,7
1604496838.3481,0
1604496838.3501,2
1604496838.3521,14
1604496838.3542,14
1604496838.3562,7
1604496838.3581,9
1604496838.3602,16
1604496838.3621,9
1604496838.3643,0
1604496838.3662,0
1604496838.3681,4
1604496838.3701,7
1604496838.3721,16
1604496838.3741,43
1604496838.3761,60
1604496838.3781,38
1604496838.3802,21
1604496838.3821,31
1604496838.3841,31
1604496838.3861,12
1604496838.3881,-2
1604496838.3901,4
1604496838.3921,14
1604496838.3941,12
1604496838.3961,9
1604496838.3981,2
1604496838.4001,-45
1604496838.4021,-139
1604496838.4041,-122
1604496838.4061,228
1604496838.4081,845
1604496838.4102,1272
1604496838.4121,888
1604496838.4141,-175
1604496838.4161,-698
1604496838.8125,-319
1604496838.8130,-52
1604496838.8146,-112
1604496838.8166,-52
1604496838.8186,16
1604496838.8206,-16
1604496838.8227,2
1604496838.8246,40
1604496838.8266,16
1604496838.8286,16
1604496838.8307,52
1604496838.8326,60
1604496838.8346,60
1604496838.8366,81
1604496838.8386,100
1604496838.8407,115
1604496838.8426,139
1604496838.8446,163
1604496838.8466,192
1604496838.8486,228
1604496838.8506,256
1604496838.8526,278
1604496838.8546,290
1604496838.8566,276
1604496838.8588,249
1604496838.8607,228
1604496838.8626,192
1604496838.8646,129
1604496838.8666,69
1604496838.8688,24
1604496838.8706,-12
1604496838.8727,-43
1604496838.8746,-62
1604496838.8766,-74
1604496838.8786,-86
1604496838.8807,-91
1604496838.8826,-86
1604496838.8846,-84
1604496838.8866,-84
1604496838.8887,-74
1604496838.8908,-64
1604496838.8926,-62
1604496838.8946,-60
1604496838.8967,-48
1604496838.8986,-33
1604496838.9007,-28
1604496838.9026,-28
1604496838.9046,-24
1604496838.9066,-19
1604496838.9086,-12
1604496838.9107,-2
1604496838.9126,-2
1604496838.9146,-9
1604496838.9166,-12
1604496838.9186,-16
1604496838.9206,-16
1604496838.9226,-9
1604496838.9247,-7
1604496838.9266,-9
1604496838.9286,-7
1604496838.9306,-4
1604496838.9326,-4
1604496838.9346,-4
1604496838.9366,-4
1604496838.9386,-2
1604496838.9407,0
1604496838.9427,2
1604496838.9446,4
1604496838.9466,9
1604496838.9486,9
1604496838.9507,4
1604496838.9526,9
1604496838.9546,16
1604496839.4126,12
1604496839.4135,4
1604496839.4163,12
1604496839.4187,19
1604496839.4206,16
1604496839.4225,4
1604496839.4246,2
1604496839.4265,4
1604496839.4285,7
1604496839.4306,4
1604496839.4325,7
1604496839.4346,14
1604496839.4365,7
1604496839.4385,-4
1604496839.4405,2
1604496839.4425,12
1604496839.4445,9
1604496839.4465,4
1604496839.4485,0
1604496839.4505,2
1604496839.4525,9
1604496839.4545,16
1604496839.4565,33
1604496839.4585,60
1604496839.4605,60
1604496839.4625,33
1604496839.4645,26
1604496839.4665,36
1604496839.4685,26
1604496839.4705,9
1604496839.4725,2
1604496839.4745,2
1604496839.4765,7
1604496839.4785,12
1604496839.4806,12
1604496839.4825,0
1604496839.4845,-55
1604496839.4865,-136
1604496839.4885,-45
1604496839.4906,400
1604496839.4925,1017
1604496839.4945,1267
1604496839.4965,628
1604496839.4985,-410
1604496839.5005,-628
1604496839.5025,-194
1604496839.5045,-62
1604496839.5065,-115
1604496839.5085,-19
1604496839.5105,21
1604496839.5125,-12
1604496839.5145,14
1604496839.5165,45
1604496839.5187,36
1604496839.5206,43
1604496839.5225,64
1604496839.5245,74
1604496839.5265,88
1604496839.5286,105
1604496839.5306,115
1604496839.5325,127
1604496839.5345,156
1604496839.5365,189
1604496839.5385,213
1604496839.5405,240
1604496839.5425,271
1604496839.5445,300
1604496839.5465,307
1604496839.5485,295
1604496839.5505,271
1604496839.5525,240
1604496839.5545,196
1604496839.5565,144
1604496839.9526,84
1604496839.9533,36
1604496839.9558,-2
1604496839.9583,-40
1604496839.9604,-64
1604496839.9623,-69
1604496839.9644,-69
1604496839.9664,-72
1604496839.9684,-69
1604496839.9703,-69
1604496839.9723,-79
1604496839.9743,-74
1604496839.9763,-62
1604496839.9783,-60
1604496839.9803,-60
1604496839.9823,-50
1604496839.9843,-40
1604496839.9863,-33
1604496839.9883,-26
1604496839.9903,-21
1604496839.9923,-21
1604496839.9943,-21
1604496839.9963,-19
1604496839.9983,-12
1604496840.0004,-2
1604496840.0024,-4
1604496840.0046,-2
1604496840.0064,4
1604496840.0084,-4
1604496840.0103,-14
1604496840.0110,-9
1604496840.0126,-9
1604496840.0144,-9
1604496840.0163,-7
1604496840.0183,-4
1604496840.0203,-7
1604496840.0223,-9
1604496840.0243,-7
1604496840.0263,-4
1604496840.0283,-2
1604496840.0303,0
1604496840.0323,0
1604496840.0343,-2
1604496840.0363,-4
1604496840.0383,-4
1604496840.0403,2
1604496840.0410,4
1604496840.0424,4
1604496840.0443,7
1604496840.0463,9
1604496840.0483,7
1604496840.0503,7
1604496840.0525,12
1604496840.0544,16
1604496840.0563,12
1604496840.0583,12
1604496840.0603,12
1604496840.0624,19
1604496840.0643,36
1604496840.0663,62
1604496840.0683,72
1604496840.0703,50
1604496840.0710,33
1604496840.0724,43
1604496840.0743,50
1604496840.0763,33
1604496840.0783,14
1604496840.0803,12
1604496840.0823,16
1604496840.0843,16
1604496840.0863,21
1604496840.0883,21
1604496840.0903,-21
1604496840.5222,-110
1604496840.5235,-110
1604496840.5259,201
1604496840.5285,801
1604496840.5294,1265
1604496840.5314,972
1604496840.5334,-72
1604496840.5354,-698
1604496840.5374,-376
1604496840.5397,-64
1604496840.5414,-108
1604496840.5434,-60
1604496840.5454,24
1604496840.5474,-9
1604496840.5494,-12
1604496840.5514,36
1604496840.5534,40
1604496840.5554,36
1604496840.5574,55
1604496840.5595,69
1604496840.5601,79
1604496840.5614,96
1604496840.5634,110
1604496840.5654,124
1604496840.5674,151
1604496840.5695,177
1604496840.5714,204
1604496840.5734,235
1604496840.5754,273
1604496840.5774,307
1604496840.5795,316
1604496840.5814,302
1604496840.5834,283
1604496840.5854,259
1604496840.5874,216
1604496840.5895,160
1604496840.5901,100
1604496840.5924,40
1604496840.5944,-9
1604496840.5964,-36
1604496840.5984,-52
1604496840.6004,-74
1604496840.6024,-91
1604496840.6044,-91
1604496840.6064,-81
1604496840.6084,-76
1604496840.6104,-76
1604496840.6124,-74
1604496840.6144,-64
1604496840.6164,-60
1604496840.6184,-57
1604496840.6205,-50
1604496840.6224,-38
1604496840.6244,-31
1604496840.6264,-33
1604496840.6284,-28
1604496840.6304,-9
1604496840.6324,-2
1604496840.6344,-7
1604496840.6364,-7
1604496840.6385,-9
1604496840.6404,-9
1604496840.6424,-4
1604496840.6444,2
1604496840.6464,-2
1604496840.6484,-9
1604496840.6504,-7
1604496840.6511,0
1604496840.6524,-4
1604496840.6544,-14
1604496840.6564,-19
1604496840.6584,-19
1604496840.6604,-19
1604496841.0626,-16
1604496841.0634,-14
1604496841.0659,-9
1604496841.0685,-7
1604496841.0704,-9
1604496841.0724,-4
1604496841.0744,-2
1604496841.0751,-14
1604496841.0774,-28
1604496841.0795,-33
1604496841.0814,-26
1604496841.0835,-21
1604496841.0854,-21
1604496841.0874,-19
1604496841.0895,-14
1604496841.0913,-9
1604496841.0933,-9
1604496841.0953,-16
1604496841.0973,-19
1604496841.0994,-16
1604496841.1014,-7
1604496841.1034,9
1604496841.1054,31
1604496841.1061,40
1604496841.1074,36
1604496841.1095,21
1604496841.1114,21
1604496841.1133,31
1604496841.1153,26
1604496841.1174,9
1604496841.1194,0
1604496841.1214,2
1604496841.1234,7
1604496841.1253,14
1604496841.1273,19
1604496841.1295,0
1604496841.1314,-74
1604496841.1333,-141
1604496841.1355,24
1604496841.1361,547
1604496841.1373,1135
1604496841.1395,1202
1604496841.1413,362
1604496841.1433,-585
1604496841.1453,-559
1604496841.1474,-122
1604496841.1494,-84
1604496841.1513,-108
1604496841.1534,2
1604496841.1553,21
1604496841.1575,-9
1604496841.1594,21
1604496841.1614,45
1604496841.1633,38
1604496841.1654,50
1604496841.1661,67
1604496841.1683,76
1604496841.1703,88
1604496841.1724,103
1604496841.1743,115
1604496841.1765,141
1604496841.1783,170
1604496841.1804,192
1604496841.1823,220
1604496841.1844,261
1604496841.1863,292
1604496841.1883,307
1604496841.1904,309
1604496841.1924,300
1604496841.1943,276
1604496841.1964,240
1604496841.1970,187
1604496841.1983,120
1604496841.6325,50
1604496841.6333,-7
1604496841.6357,-43
1604496841.6384,-64
1604496841.6404,-84
1604496841.6423,-100
1604496841.6443,-108
1604496841.6463,-110
1604496841.6483,-110
1604496841.6503,-110
1604496841.6523,-108
1604496841.6543,-103
1604496841.6625,-98
1604496841.6642,-91
1604496841.6662,-84
1604496841.6682,-76
1604496841.6704,-67
1604496841.6724,-57
1604496841.6743,-48
1604496841.6762,-48
1604496841.6784,-45
1604496841.6803,-33
1604496841.6822,-24
1604496841.6842,-28
1604496841.6862,-36
1604496841.6882,-33
1604496841.6903,-28
1604496841.6922,-28
1604496841.6942,-33
1604496841.6962,-38
1604496841.6982,-38
1604496841.7003,-33
1604496841.7022,-33
1604496841.7043,-26
1604496841.7063,-21
1604496841.7082,-24
1604496841.7102,-24
1604496841.7122,-24
1604496841.7142,-24
1604496841.7162,-19
1604496841.7182,-19
1604496841.7202,-21
1604496841.7223,-16
1604496841.7242,-9
1604496841.7262,-2
1604496841.7282,0
1604496841.7303,-4
1604496841.7322,-4
1604496841.7342,0
1604496841.7362,2
1604496841.7382,2
1604496841.7403,0
1604496841.7422,-7
1604496841.7442,-2
1604496841.7462,12
1604496841.7482,33
1604496841.7503,60
1604496841.7522,62
1604496841.7542,31
1604496841.7563,21
1604496841.7583,38
1604496841.7602,33
1604496841.7622,9
1604496841.7642,2
1604496841.7662,7
1604496841.7682,7
1604496841.7702,4
1604496841.7724,4
1604496841.7743,-4
1604496841.7762,-64
1604496841.7782,-146
1604496841.7803,-48
1604496841.7822,417
1604496842.1724,1039
1604496842.1733,1255
1604496842.1758,568
1604496842.1784,-487
1604496842.1804,-679
1604496842.1824,-223
1604496842.1844,-88
1604496842.1864,-144
1604496842.1884,-43
1604496842.1904,7
1604496842.1924,-26
1604496842.1944,-4
1604496842.1966,28
1604496842.1984,24
1604496842.2003,28
1604496842.2023,48
1604496842.2043,55
1604496842.2063,67
1604496842.2083,84
1604496842.2103,100
1604496842.2123,122
1604496842.2143,144
1604496842.2163,165
1604496842.2183,199
1604496842.2203,242
1604496842.2223,278
1604496842.2243,300
1604496842.2263,304
1604496842.2283,295
1604496842.2303,271
1604496842.2323,235
1604496842.2343,180
1604496842.2363,115
1604496842.2383,48
1604496842.2404,-14
1604496842.2424,-55
1604496842.2444,-79
1604496842.2464,-98
1604496842.2484,-112
1604496842.2504,-112
1604496842.2524,-108
1604496842.2543,-108
1604496842.2564,-103
1604496842.2583,-98
1604496842.2602,-93
1604496842.2625,-98
1604496842.2643,-98
1604496842.2663,-91
1604496842.2683,-81
1604496842.2703,-64
1604496842.2723,-57
1604496842.2743,-50
1604496842.2763,-45
1604496842.2783,-45
1604496842.2803,-36
1604496842.2823,-28
1604496842.2843,-38
1604496842.2863,-31
1604496842.2883,-16
1604496842.2903,-24
1604496842.2923,-28
1604496842.2943,-24
1604496842.2963,-28
1604496842.2983,-33
1604496842.3003,-28
1604496842.3023,-33
1604496842.3043,-43
1604496842.3063,-36
1604496842.3083,-26
1604496842.3103,-24
1604496842.3123,-19
1604496842.3143,-16
1604496842.3163,-16
1604496842.7723,-9
1604496842.7733,-4
1604496842.7757,-4
1604496842.7783,-2
1604496842.7804,-7
1604496842.7823,-9
1604496842.7844,-2
1604496842.7864,4
1604496842.7883,2
1604496842.7904,-2
1604496842.7923,0
1604496842.7943,2
1604496842.7964,0
1604496842.7983,14
1604496842.8004,40
1604496842.8023,55
1604496842.8043,50
1604496842.8063,36
1604496842.8084,38
1604496842.8104,43
1604496842.8123,31
1604496842.8143,16
1604496842.8163,12
1604496842.8185,9
1604496842.8204,7
1604496842.8223,9
1604496842.8243,14
1604496842.8263,9
1604496842.8283,-33
1604496842.8303,-115
1604496842.8323,-91
1604496842.8343,264
1604496842.8363,881
1604496842.8383,1298
1604496842.8403,907
1604496842.8423,-192
1604496842.8443,-753
1604496842.8463,-364
1604496842.8483,-72
1604496842.8503,-129
1604496842.8522,-57
1604496842.8542,36
1604496842.8562,4
1604496842.8582,4
1604496842.8603,45
1604496842.8623,48
1604496842.8642,43
1604496842.8663,57
1604496842.8683,76
1604496842.8703,81
1604496842.8722,88
1604496842.8743,100
1604496842.8762,117
1604496842.8782,141
1604496842.8802,172
1604496842.8822,204
1604496842.8842,240
1604496842.8862,276
1604496842.8882,304
1604496842.8903,319
1604496842.8923,314
1604496842.8944,292
1604496842.8963,252
1604496842.8982,196
1604496842.9003,139
1604496842.9022,84
1604496842.9043,21
1604496842.9062,-40
1604496842.9082,-79
1604496842.9102,-93
1604496842.9122,-103
1604496842.9142,-110
1604496842.9163,-105
1604496843.3422,-105
1604496843.3432,-112
1604496843.3454,-117
1604496843.3480,-112
1604496843.3500,-98
1604496843.3520,-91
1604496843.3543,-93
1604496843.3560,-91
1604496843.3581,-86
1604496843.3601,-88
1604496843.3620,-79
1604496843.3640,-67
1604496843.3660,-60
1604496843.3680,-48
1604496843.3700,-40
1604496843.3720,-43
1604496843.3740,-43
1604496843.3760,-36
1604496843.3780,-33
1604496843.3800,-36
1604496843.3819,-31
1604496843.3840,-33
1604496843.3859,-45
1604496843.3880,-40
1604496843.3900,-33
1604496843.3919,-36
1604496843.3939,-43
1604496843.3960,-40
1604496843.3979,-21
1604496843.4000,-16
1604496843.4019,-31
1604496843.4040,-33
1604496843.4059,-36
1604496843.4079,-43
1604496843.4100,-33
1604496843.4119,-19
1604496843.4139,-19
1604496843.4160,-28
1604496843.4179,-21
1604496843.4199,-19
1604496843.4220,-33
1604496843.4239,-28
1604496843.4259,-4
1604496843.4279,16
1604496843.4300,31
1604496843.4319,19
1604496843.4339,0
1604496843.4360,9
1604496843.4380,16
1604496843.4399,-7
1604496843.4419,-26
1604496843.4439,-28
1604496843.4461,-19
1604496843.4480,-2
1604496843.4500,0
1604496843.4519,-7
1604496843.4540,-38
1604496843.4559,-112
1604496843.4579,-160
1604496843.4599,33
1604496843.4619,564
1604496843.4639,1133
1604496843.4659,1152
1604496843.4679,276
1604496843.4699,-638
1604496843.4719,-554
1604496843.4739,-105
1604496843.4759,-88
1604496843.4779,-112
1604496843.4800,-2
1604496843.4819,-2
1604496843.4839,-31
1604496843.4860,4
1604496843.8826,16
1604496843.8835,12
1604496843.8859,38
1604496843.8886,52
1604496843.8905,43
1604496843.8925,48
1604496843.8946,69
1604496843.8965,88
1604496843.8985,108
1604496843.9006,132
1604496843.9025,156
1604496843.9045,187
1604496843.9066,223
1604496843.9085,252
1604496843.9105,264
1604496843.9125,268
1604496843.9145,264
1604496843.9165,242
1604496843.9185,204
1604496843.9204,144
1604496843.9224,76
1604496843.9244,14
1604496843.9266,-38
1604496843.9284,-76
1604496843.9304,-103
1604496843.9324,-110
1604496843.9344,-115
1604496843.9364,-124
1604496843.9384,-129
1604496843.9405,-122
1604496843.9426,-112
1604496843.9445,-110
1604496843.9464,-108
1604496843.9484,-103
1604496843.9505,-108
1604496843.9524,-105
1604496843.9545,-103
1604496843.9564,-103
1604496843.9584,-103
1604496843.9605,-93
1604496843.9624,-86
1604496843.9644,-84
1604496843.9665,-81
1604496843.9684,-76
1604496843.9704,-72
1604496843.9724,-76
1604496843.9744,-76
1604496843.9764,-72
1604496843.9785,-72
1604496843.9805,-79
1604496843.9826,-79
1604496843.9846,-74
1604496843.9864,-76
1604496843.9884,-84
1604496843.9904,-84
1604496843.9924,-79
1604496843.9944,-79
1604496843.9964,-86
1604496843.9984,-88
1604496844.0005,-91
1604496844.0024,-93
1604496844.0045,-96
1604496844.0064,-93
1604496844.0084,-93
1604496844.0104,-98
1604496844.0124,-103
1604496844.0144,-110
1604496844.0165,-110
1604496844.0184,-98
1604496844.0204,-76
1604496844.0225,-64
1604496844.0244,-76
1604496844.0264,-98
1604496844.4526,-98
1604496844.4535,-91
1604496844.4559,-108
1604496844.4585,-134
1604496844.4606,-132
1604496844.4625,-115
1604496844.4646,-115
1604496844.4665,-134
1604496844.4688,-144
1604496844.4705,-158
1604496844.4725,-225
1604496844.4744,-288
1604496844.4765,-105
1604496844.4786,422
1604496844.4805,996
1604496844.4824,1051
1604496844.4844,216
1604496844.4864,-739
1604496844.4884,-729
1604496844.4905,-297
1604496844.4924,-256
1604496844.4944,-268
1604496844.4964,-148
1604496844.4984,-136
1604496844.5004,-168
1604496844.5024,-129
1604496844.5044,-105
1604496844.5064,-120
1604496844.5084,-115
1604496844.5105,-100
1604496844.5124,-93
1604496844.5144,-84
1604496844.5165,-67
1604496844.5184,-50
1604496844.5204,-26
1604496844.5224,7
1604496844.5244,40
1604496844.5264,76
1604496844.5284,112
1604496844.5305,144
1604496844.5325,168
1604496844.5344,172
1604496844.5364,158
1604496844.5384,129
1604496844.5405,88
1604496844.5424,33
1604496844.5444,-36
1604496844.5464,-110
1604496844.5484,-168
1604496844.5505,-206
1604496844.5524,-230
1604496844.5544,-242
1604496844.5564,-237
1604496844.5584,-235
1604496844.5604,-249
1604496844.5624,-259
1604496844.5644,-247
1604496844.5664,-230
1604496844.5684,-228
1604496844.5706,-225
1604496844.5725,-223
1604496844.5744,-216
1604496844.5765,-208
1604496844.5785,-199
1604496844.5805,-180
1604496844.5824,-165
1604496844.5844,-163
1604496844.5864,-148
1604496844.5884,-136
1604496844.5905,-139
1604496844.5924,-139
1604496844.5944,-129
1604496844.5964,-129
1604496844.9927,-132
1604496844.9936,-127
1604496844.9960,-124
1604496844.9987,-117
1604496845.0007,-110
1604496845.0029,-120
1604496845.0046,-127
1604496845.0066,-122
1604496845.0086,-122
1604496845.0107,-132
1604496845.0125,-132
1604496845.0145,-129
1604496845.0166,-136
1604496845.0185,-139
1604496845.0205,-129
1604496845.0225,-115
1604496845.0245,-93
1604496845.0266,-76
1604496845.0286,-84
1604496845.0306,-103
1604496845.0325,-110
1604496845.0345,-105
1604496845.0366,-112
1604496845.0385,-129
1604496845.0405,-132
1604496845.0426,-124
1604496845.0445,-127
1604496845.0465,-129
1604496845.0485,-132
1604496845.0506,-148
1604496845.0525,-213
1604496845.0545,-285
1604496845.0565,-132
1604496845.0585,391
1604496845.0606,1003
1604496845.0625,1121
1604496845.0645,307
1604496845.0667,-710
1604496845.0686,-749
1604496845.0705,-292
1604496845.0725,-225
1604496845.0745,-242
1604496845.0765,-120
1604496845.0785,-96
1604496845.0806,-122
1604496845.0825,-88
1604496845.0845,-62
1604496845.0865,-67
1604496845.0885,-60
1604496845.0906,-48
1604496845.0926,-38
1604496845.0945,-14
1604496845.0965,4
1604496845.0985,4
1604496845.1005,19
1604496845.1025,62
1604496845.1045,110
1604496845.1065,151
1604496845.1085,201
1604496845.1105,252
1604496845.1125,266
1604496845.1145,252
1604496845.1166,228
1604496845.1186,194
1604496845.1205,129
1604496845.1225,43
1604496845.1245,4
1604496845.1265,2
1604496845.1285,-60
1604496845.1305,-129
1604496845.1325,-146
1604496845.1345,-151
1604496845.1365,-158
1604496845.5335,-177
1604496845.5343,-184
1604496845.5357,-175
1604496845.5377,-175
1604496845.5398,-184
1604496845.5417,-187
1604496845.5437,-180
1604496845.5457,-158
1604496845.5477,-122
1604496845.5497,-112
1604496845.5517,-136
1604496845.5536,-148
1604496845.5557,-124
1604496845.5577,-100
1604496845.5597,-117
1604496845.5618,-120
1604496845.5636,-91
1604496845.5657,-69
1604496845.5676,-67
1604496845.5697,-69
1604496845.5716,-74
1604496845.5736,-52
1604496845.5756,-26
1604496845.5776,-36
1604496845.5796,-50
1604496845.5816,-50
1604496845.5836,-50
1604496845.5856,-38
1604496845.5876,-36
1604496845.5897,-33
1604496845.5917,-7
1604496845.5936,4
1604496845.5957,4
1604496845.5976,0
1604496845.5997,-14
1604496845.6016,-16
1604496845.6036,4
1604496845.6057,9
1604496845.6077,-7
1604496845.6097,-2
1604496845.6116,24
1604496845.6136,26
1604496845.6156,21
1604496845.6176,43
1604496845.6196,67
1604496845.6216,67
1604496845.6236,60
1604496845.6256,55
1604496845.6276,55
1604496845.6296,50
1604496845.6316,31
1604496845.6336,21
1604496845.6356,9
1604496845.6376,4
1604496845.6396,45
1604496845.6417,76
1604496845.6436,31
1604496845.6456,-62
1604496845.6476,-122
1604496845.6496,50
1604496845.6516,568
1604496845.6536,1181
1604496845.6556,1327
1604496845.6577,559
1604496845.6596,-453
1604496845.6616,-568
1604496845.6638,-160
1604496845.6657,-79
1604496845.6676,-84
1604496845.6697,26
1604496845.6716,45
1604496845.6736,28
1604496845.6757,72
1604496846.1327,84
1604496846.1338,72
1604496846.1363,76
1604496846.1388,88
1604496846.1409,91
1604496846.1428,93
1604496846.1449,124
1604496846.1468,165
1604496846.1488,172
1604496846.1507,182
1604496846.1527,223
1604496846.1547,266
1604496846.1567,304
1604496846.1587,350
1604496846.1608,379
1604496846.1628,364
1604496846.1647,350
1604496846.1667,360
1604496846.1687,333
1604496846.1708,271
1604496846.1727,201
1604496846.1747,139
1604496846.1767,96
1604496846.1787,45
1604496846.1807,0
1604496846.1827,-9
1604496846.1847,-12
1604496846.1867,-31
1604496846.1887,-33
1604496846.1907,-16
1604496846.1927,-16
1604496846.1947,-16
1604496846.1967,-2
1604496846.1987,-4
1604496846.2007,-7
1604496846.2027,14
1604496846.2047,33
1604496846.2067,28
1604496846.2087,16
1604496846.2107,26
1604496846.2127,38
1604496846.2147,31
1604496846.2167,45
1604496846.2187,76
1604496846.2209,76
1604496846.2228,64
1604496846.2247,57
1604496846.2267,60
1604496846.2287,72
1604496846.2308,69
1604496846.2327,76
1604496846.2347,88
1604496846.2354,74
1604496846.2367,60
1604496846.2388,64
1604496846.2407,74
1604496846.2428,69
1604496846.2447,57
1604496846.2467,57
1604496846.2487,86
1604496846.2508,129
1604496846.2527,120
1604496846.2547,76
1604496846.2567,81
1604496846.2587,93
1604496846.2608,57
1604496846.2627,26
1604496846.2647,55
1604496846.2654,79
1604496846.2668,50
1604496846.2687,57
1604496846.2707,88
1604496846.2727,57
1604496846.7026,-12
1604496846.7035,-96
1604496846.7059,-57
1604496846.7086,343
1604496846.7106,1020
1604496846.7126,1399
1604496846.7146,806
1604496846.7166,-360
1604496846.7172,-722
1604496846.7186,-280
1604496846.7205,-88
1604496846.7225,-112
1604496846.7245,-4
1604496846.7265,45
1604496846.7286,12
1604496846.7305,38
1604496846.7325,72
1604496846.7345,60
1604496846.7365,40
1604496846.7385,57
1604496846.7405,105
1604496846.7425,127
1604496846.7448,117
1604496846.7465,127
1604496846.7472,148
1604496846.7495,165
1604496846.7515,199
1604496846.7535,247
1604496846.7555,285
1604496846.7575,319
1604496846.7595,362
1604496846.7615,391
1604496846.7635,360
1604496846.7656,316
1604496846.7675,276
1604496846.7695,204
1604496846.7716,98
1604496846.7735,7
1604496846.7754,-48
1604496846.7761,-76
1604496846.7775,-91
1604496846.7795,-108
1604496846.7815,-117
1604496846.7835,-112
1604496846.7855,-103
1604496846.7875,-100
1604496846.7895,-127
1604496846.7915,-158
1604496846.7934,-139
1604496846.7955,-103
1604496846.7975,-103
1604496846.7995,-84
1604496846.8015,-69
1604496846.8034,-72
1604496846.8055,-52
1604496846.8061,-36
1604496846.8075,-50
1604496846.8095,-69
1604496846.8114,-86
1604496846.8134,-93
1604496846.8154,-69
1604496846.8175,-24
1604496846.8195,-12
1604496846.8215,-19
1604496846.8235,-19
1604496846.8254,-31
1604496846.8274,-45
1604496846.8294,-50
1604496846.8314,-43
1604496846.8335,-36
1604496846.8354,-43
1604496846.8361,-40
1604496846.8375,-40
1604496847.2722,-45
1604496847.2727,-36
1604496847.2737,-26
1604496847.2757,-16
1604496847.2777,4
1604496847.2797,4
1604496847.2817,-12
1604496847.2838,-7
1604496847.2843,4
1604496847.2857,-19
1604496847.2876,-60
1604496847.2897,-48
1604496847.2917,-21
1604496847.2937,-28
1604496847.2957,-21
1604496847.2977,-12
1604496847.2997,-36
1604496847.3017,-91
1604496847.3036,-182
1604496847.3057,-156
1604496847.3077,216
1604496847.3097,833
1604496847.3117,1231
1604496847.3137,806
1604496847.3143,-285
1604496847.3157,-765
1604496847.3177,-338
1604496847.3197,-72
1604496847.3217,-129
1604496847.3236,-62
1604496847.3257,2
1604496847.3277,-38
1604496847.3296,-40
1604496847.3317,-9
1604496847.3336,0
1604496847.3357,-2
1604496847.3377,2
1604496847.3397,31
1604496847.3417,60
1604496847.3437,57
1604496847.3443,57
1604496847.3457,88
1604496847.3477,120
1604496847.3497,136
1604496847.3517,175
1604496847.3537,225
1604496847.3557,259
1604496847.3577,276
1604496847.3597,273
1604496847.3617,266
1604496847.3637,259
1604496847.3658,220
1604496847.3677,163
1604496847.3697,108
1604496847.3717,48
1604496847.3736,-9
1604496847.3743,-50
1604496847.3757,-81
1604496847.3777,-110
1604496847.3797,-115
1604496847.3817,-110
1604496847.3837,-112
1604496847.3857,-110
1604496847.3877,-100
1604496847.3897,-93
1604496847.3917,-88
1604496847.3937,-84
1604496847.3957,-84
1604496847.3977,-76
1604496847.3997,-62
1604496847.4017,-52
1604496847.4037,-50
1604496847.4044,-48
1604496847.8127,-36
1604496847.8136,-21
1604496847.8160,-19
1604496847.8186,-19
1604496847.8206,-7
1604496847.8226,-4
1604496847.8247,-14
1604496847.8266,-12
1604496847.8286,4
1604496847.8307,-2
1604496847.8326,-28
1604496847.8346,-28
1604496847.8353,-7
1604496847.8366,12
1604496847.8386,12
1604496847.8406,-12
1604496847.8425,0
1604496847.8445,16
1604496847.8465,2
1604496847.8485,31
1604496847.8505,84
1604496847.8525,60
1604496847.8545,12
1604496847.8565,43
1604496847.8585,91
1604496847.8606,79
1604496847.8625,21
1604496847.8645,-38
1604496847.8652,-36
1604496847.8667,4
1604496847.8686,16
1604496847.8705,16
1604496847.8725,19
1604496847.8746,0
1604496847.8765,-91
1604496847.8785,-163
1604496847.8806,76
1604496847.8825,684
1604496847.8847,1250
1604496847.8865,1164
1604496847.8885,196
1604496847.8905,-684
1604496847.8925,-549
1604496847.8945,-146
1604496847.8965,-129
1604496847.8985,-103
1604496847.9007,19
1604496847.9025,16
1604496847.9046,-4
1604496847.9065,50
1604496847.9085,72
1604496847.9106,26
1604496847.9125,14
1604496847.9145,45
1604496847.9165,55
1604496847.9185,60
1604496847.9205,88
1604496847.9226,115
1604496847.9245,129
1604496847.9265,165
1604496847.9285,206
1604496847.9306,235
1604496847.9325,278
1604496847.9345,316
1604496847.9366,336
1604496847.9385,343
1604496847.9406,314
1604496847.9425,249
1604496847.9445,192
1604496847.9465,146
1604496847.9486,91
1604496847.9506,24
1604496847.9526,-55
1604496848.3526,-105
1604496848.3534,-117
1604496848.3559,-117
1604496848.3585,-117
1604496848.3605,-117
1604496848.3625,-112
1604496848.3645,-120
1604496848.3666,-141
1604496848.3685,-139
1604496848.3705,-112
1604496848.3724,-100
1604496848.3745,-105
1604496848.3765,-93
1604496848.3784,-76
1604496848.3805,-84
1604496848.3825,-81
1604496848.3844,-38
1604496848.3865,-26
1604496848.3885,-72
1604496848.3905,-91
1604496848.3924,-57
1604496848.3944,-40
1604496848.3964,-48
1604496848.3984,-40
1604496848.4004,-26
1604496848.4024,-28
1604496848.4044,-40
1604496848.4064,-45
1604496848.4084,-36
1604496848.4105,-31
1604496848.4124,-45
1604496848.4144,-45
1604496848.4164,-38
1604496848.4184,-28
1604496848.4204,-21
1604496848.4224,-38
1604496848.4244,-45
1604496848.4264,-21
1604496848.4284,2
1604496848.4304,24
1604496848.4324,33
1604496848.4344,7
1604496848.4364,-16
1604496848.4384,4
1604496848.4404,24
1604496848.4424,-19
1604496848.4444,-57
1604496848.4464,-16
1604496848.4484,16
1604496848.4504,-4
1604496848.4524,-7
1604496848.4544,-4
1604496848.4564,-60
1604496848.4584,-141
1604496848.4604,-96
1604496848.4624,266
1604496848.4644,881
1604496848.4664,1248
1604496848.4686,744
1604496848.4705,-324
1604496848.4724,-703
1604496848.4744,-264
1604496848.4764,-57
1604496848.4784,-146
1604496848.4804,-64
1604496848.4824,31
1604496848.4844,4
1604496848.4864,2
1604496848.4884,36
1604496848.4905,45
1604496848.4924,43
1604496848.4944,57
1604496848.4964,67
1604496848.9226,72
1604496848.9234,88
1604496848.9252,108
1604496848.9272,127
1604496848.9293,146
1604496848.9312,160
1604496848.9332,189
1604496848.9352,225
1604496848.9372,252
1604496848.9392,271
1604496848.9413,288
1604496848.9432,283
1604496848.9451,254
1604496848.9471,223
1604496848.9492,184
1604496848.9511,117
1604496848.9531,48
1604496848.9552,2
1604496848.9571,-36
1604496848.9591,-60
1604496848.9611,-69
1604496848.9631,-96
1604496848.9651,-115
1604496848.9671,-103
1604496848.9691,-98
1604496848.9711,-98
1604496848.9731,-84
1604496848.9751,-81
1604496848.9771,-84
1604496848.9791,-74
1604496848.9811,-64
1604496848.9831,-57
1604496848.9851,-52
1604496848.9871,-50
1604496848.9891,-45
1604496848.9911,-36
1604496848.9932,-36
1604496848.9951,-38
1604496848.9971,-28
1604496848.9992,-24
1604496849.0012,-28
1604496849.0031,-21
1604496849.0051,-7
1604496849.0071,-12
1604496849.0091,-16
1604496849.0111,-7
1604496849.0131,2
1604496849.0151,0
1604496849.0171,7
1604496849.0192,14
1604496849.0211,7
1604496849.0231,0
1604496849.0251,9
1604496849.0271,14
1604496849.0291,12
1604496849.0311,16
1604496849.0331,31
1604496849.0351,60
1604496849.0371,93
1604496849.0391,79
1604496849.0411,38
1604496849.0431,40
1604496849.0451,62
1604496849.0471,60
1604496849.0491,38
1604496849.0511,28
1604496849.0531,45
1604496849.0551,52
1604496849.0571,43
1604496849.0591,48
1604496849.0611,64
1604496849.0631,43
1604496849.0651,-48
1604496849.5220,-103
1604496849.5231,127
1604496849.5256,696
1604496849.5282,1269
1604496849.5302,1231
1604496849.5322,254
1604496849.5343,-667
1604496849.5362,-513
1604496849.5382,-79
1604496849.5403,-86
1604496849.5422,-79
1604496849.5442,50
1604496849.5462,52
1604496849.5482,33
1604496849.5504,86
1604496849.5522,96
1604496849.5541,72
1604496849.5561,91
1604496849.5582,100
1604496849.5602,96
1604496849.5621,120
1604496849.5641,144
1604496849.5661,153
1604496849.5681,170
1604496849.5701,220
1604496849.5721,290
1604496849.5742,297
1604496849.5747,276
1604496849.5761,316
1604496849.5782,345
1604496849.5802,326
1604496849.5821,319
1604496849.5841,307
1604496849.5861,261
1604496849.5881,208
1604496849.5901,158
1604496849.5921,81
1604496849.5941,12
1604496849.5961,0
1604496849.5981,-12
1604496849.6001,-67
1604496849.6021,-88
1604496849.6041,-64
1604496849.6048,-52
1604496849.6061,-62
1604496849.6081,-62
1604496849.6101,-62
1604496849.6121,-74
1604496849.6141,-74
1604496849.6161,-55
1604496849.6181,-43
1604496849.6201,-33
1604496849.6221,-14
1604496849.6240,-2
1604496849.6261,-12
1604496849.6282,-16
1604496849.6302,-14
1604496849.6321,-7
1604496849.6341,9
1604496849.6347,33
1604496849.6361,38
1604496849.6381,2
1604496849.6401,-31
1604496849.6421,-19
1604496849.6442,7
1604496849.6463,-4
1604496849.6481,-24
1604496849.6501,-14
1604496849.6521,7
1604496849.6541,12
1604496849.6561,0
1604496849.6581,16
1604496849.6601,36
1604496850.0626,24
1604496850.0635,31
1604496850.0661,40
1604496850.0686,14
1604496850.0705,2
1604496850.0725,36
1604496850.0746,57
1604496850.0761,38
1604496850.0775,14
1604496850.0795,31
1604496850.0815,28
1604496850.0834,-21
1604496850.0855,16
1604496850.0875,55
1604496850.0881,-62
1604496850.0895,-156
1604496850.0914,-151
1604496850.0934,4
1604496850.0955,439
1604496850.0974,969
1604496850.0995,1041
1604496850.1015,232
1604496850.1034,-667
1604496850.1054,-592
1604496850.1074,-129
1604496850.1094,-93
1604496850.1114,-117
1604496850.1134,7
1604496850.1154,36
1604496850.1174,-4
1604496850.1181,-19
1604496850.1194,21
1604496850.1214,100
1604496850.1234,115
1604496850.1254,103
1604496850.1274,64
1604496850.1294,4
1604496850.1314,55
1604496850.1334,81
1604496850.1354,40
1604496850.1374,98
1604496850.1394,168
1604496850.1414,172
1604496850.1436,192
1604496850.1454,232
1604496850.1474,232
1604496850.1480,213
1604496850.1494,211
1604496850.1515,194
1604496850.1535,151
1604496850.1554,100
1604496850.1574,52
1604496850.1594,0
1604496850.1614,-43
1604496850.1634,-74
1604496850.1654,-93
1604496850.1674,-105
1604496850.1694,-103
1604496850.1714,-110
1604496850.1735,-96
1604496850.1754,-7
1604496850.1774,0
1604496850.1781,-115
1604496850.1794,-163
1604496850.1814,-153
1604496850.1834,-127
1604496850.1854,-74
1604496850.1874,-50
1604496850.1894,-45
1604496850.1914,-16
1604496850.1934,-4
1604496850.1954,-98
1604496850.1974,-175
1604496850.6324,-100
1604496850.6332,-50
1604496850.6341,-76
1604496850.6357,-72
1604496850.6378,-55
1604496850.6397,-64
1604496850.6417,-69
1604496850.6437,-67
1604496850.6457,-76
1604496850.6477,-91
1604496850.6497,-84
1604496850.6517,-55
1604496850.6537,-43
1604496850.6557,-50
1604496850.6577,-62
1604496850.6597,-36
1604496850.6617,-7
1604496850.6638,-38
1604496850.6643,-40
1604496850.6657,-48
1604496850.6677,-81
1604496850.6699,-67
1604496850.6717,-60
1604496850.6736,-74
1604496850.6756,-48
1604496850.6777,-24
1604496850.6797,-79
1604496850.6816,-134
1604496850.6836,-52
1604496850.6856,14
1604496850.6877,-120
1604496850.6897,-220
1604496850.6916,16
1604496850.6936,506
1604496850.6943,890
1604496850.6956,708
1604496850.6976,-72
1604496850.6996,-595
1604496850.7016,-396
1604496850.7036,-144
1604496850.7056,-153
1604496850.7076,-115
1604496850.7097,-48
1604496850.7116,-67
1604496850.7137,-69
1604496850.7157,-38
1604496850.7176,-40
1604496850.7197,-48
1604496850.7216,-28
1604496850.7236,-12
1604496850.7243,-4
1604496850.7256,7
1604496850.7276,12
1604496850.7297,19
1604496850.7316,40
1604496850.7336,76
1604496850.7356,112
1604496850.7377,139
1604496850.7397,160
1604496850.7416,189
1604496850.7436,208
1604496850.7456,211
1604496850.7476,211
1604496850.7497,213
1604496850.7516,182
1604496850.7536,122
1604496850.7545,91
1604496850.7556,76
1604496850.7576,33
1604496850.7597,-4
1604496850.7616,-16
1604496850.7636,-19
1604496850.7659,-19
1604496851.1721,-26
1604496851.1730,-38
1604496851.1754,-36
1604496851.1781,-19
1604496851.1800,-9
1604496851.1820,-21
1604496851.1841,-14
1604496851.1860,26
1604496851.1880,33
1604496851.1887,0
1604496851.1900,-7
1604496851.1920,4
1604496851.1940,9
1604496851.1960,12
1604496851.1980,12
1604496851.2000,2
1604496851.2020,14
1604496851.2040,48
1604496851.2060,36
1604496851.2080,-14
1604496851.2100,-14
1604496851.2119,62
1604496851.2139,144
1604496851.2159,103
1604496851.2180,-21
1604496851.2187,-21
1604496851.2210,31
1604496851.2229,9
1604496851.2249,-4
1604496851.2270,-4
1604496851.2289,2
1604496851.2310,16
1604496851.2330,-31
1604496851.2349,-55
1604496851.2369,-4
1604496851.2389,-12
1604496851.2409,-91
1604496851.2429,-139
1604496851.2450,16
1604496851.2469,494
1604496851.2489,1017
1604496851.2496,993
1604496851.2509,172
1604496851.2529,-592
1604496851.2549,-463
1604496851.2569,-57
1604496851.2589,9
1604496851.2609,-43
1604496851.2629,-55
1604496851.2650,31
1604496851.2671,117
1604496851.2690,79
1604496851.2710,96
1604496851.2729,254
1604496851.2750,160
1604496851.2770,-216
1604496851.2789,-201
1604496851.2796,103
1604496851.2809,96
1604496851.2830,24
1604496851.2849,120
1604496851.2869,151
1604496851.2889,124
1604496851.2910,158
1604496851.2929,194
1604496851.2950,194
1604496851.2970,184
1604496851.2989,182
1604496851.3010,187
1604496851.3029,172
1604496851.3049,117
1604496851.3069,52
1604496851.3089,0
1604496851.7124,-50
1604496851.7131,-91
1604496851.7155,-117
1604496851.7181,-136
1604496851.7202,-153
1604496851.7221,-163
1604496851.7241,-163
1604496851.7261,-168
1604496851.7281,-175
1604496851.7301,-175
1604496851.7321,-160
1604496851.7341,-141
1604496851.7361,-122
1604496851.7368,-108
1604496851.7381,-100
1604496851.7401,-86
1604496851.7421,-72
1604496851.7441,-74
1604496851.7460,-72
1604496851.7481,-57
1604496851.7501,-45
1604496851.7520,-40
1604496851.7541,-36
1604496851.7561,-28
1604496851.7581,-19
1604496851.7603,-2
1604496851.7621,7
1604496851.7640,4
1604496851.7663,0
1604496851.7668,-2
1604496851.7680,-7
1604496851.7700,-16
1604496851.7722,-24
1604496851.7740,-24
1604496851.7760,-21
1604496851.7781,-14
1604496851.7801,-7
1604496851.7820,-7
1604496851.7841,-19
1604496851.7860,-72
1604496851.7880,-139
1604496851.7901,-24
1604496851.7920,436
1604496851.7940,1008
1604496851.7947,1133
1604496851.7960,398
1604496851.7980,-537
1604496851.8001,-590
1604496851.8020,-165
1604496851.8040,-91
1604496851.8060,-103
1604496851.8081,21
1604496851.8101,62
1604496851.8120,28
1604496851.8140,50
1604496851.8160,81
1604496851.8180,86
1604496851.8200,93
1604496851.8220,115
1604496851.8240,127
1604496851.8247,136
1604496851.8260,158
1604496851.8281,187
1604496851.8301,218
1604496851.8320,242
1604496851.8340,268
1604496851.8360,304
1604496851.8380,352
1604496851.8401,384
1604496851.8421,384
1604496851.8440,374
1604496851.8460,360
1604496851.8480,333
1604496852.2826,285
1604496852.2835,223
1604496852.2859,158
1604496852.2870,88
1604496852.2885,28
1604496852.2905,2
1604496852.2928,-9
1604496852.2946,-33
1604496852.2965,-36
1604496852.2985,-26
1604496852.3005,-43
1604496852.3025,-60
1604496852.3045,-43
1604496852.3065,-26
1604496852.3085,-24
1604496852.3105,-21
1604496852.3125,-16
1604496852.3145,-12
1604496852.3165,2
1604496852.3171,9
1604496852.3185,14
1604496852.3204,24
1604496852.3224,19
1604496852.3244,7
1604496852.3264,19
1604496852.3284,50
1604496852.3304,57
1604496852.3324,14
1604496852.3344,0
1604496852.3364,16
1604496852.3384,14
1604496852.3405,2
1604496852.3425,-4
1604496852.3444,-7
1604496852.3464,-4
1604496852.3471,-4
1604496852.3485,-7
1604496852.3504,2
1604496852.3524,12
1604496852.3544,0
1604496852.3564,-57
1604496852.3584,-148
1604496852.3604,-141
1604496852.3624,218
1604496852.3644,900
1604496852.3664,1373
1604496852.3685,921
1604496852.3705,-273
1604496852.3725,-821
1604496852.3744,-369
1604496852.3764,-69
1604496852.3771,-141
1604496852.3784,-69
1604496852.3805,26
1604496852.3825,-7
1604496852.3844,-7
1604496852.3864,28
1604496852.3886,26
1604496852.3905,24
1604496852.3925,45
1604496852.3944,55
1604496852.3964,64
1604496852.3984,84
1604496852.4004,98
1604496852.4024,122
1604496852.4044,153
1604496852.4064,177
1604496852.4071,208
1604496852.4084,247
1604496852.4104,273
1604496852.4124,271
1604496852.4144,261
1604496852.4164,266
1604496852.8826,254
1604496852.8834,201
1604496852.8858,144
1604496852.8885,93
1604496852.8905,38
1604496852.8925,-16
1604496852.8946,-52
1604496852.8952,-57
1604496852.8965,-62
1604496852.8985,-74
1604496852.9004,-69
1604496852.9024,-52
1604496852.9045,-48
1604496852.9064,-55
1604496852.9084,-43
1604496852.9104,-21
1604496852.9124,-21
1604496852.9144,-26
1604496852.9164,-21
1604496852.9184,-14
1604496852.9204,-2
1604496852.9224,12
1604496852.9244,16
1604496852.9251,16
1604496852.9264,24
1604496852.9284,28
1604496852.9304,43
1604496852.9324,55
1604496852.9344,43
1604496852.9364,28
1604496852.9384,38
1604496852.9404,45
1604496852.9424,45
1604496852.9445,31
1604496852.9464,19
1604496852.9485,19
1604496852.9505,14
1604496852.9525,9
1604496852.9544,21
1604496852.9551,4
1604496852.9564,-38
1604496852.9584,-60
1604496852.9604,-134
1604496852.9624,-196
1604496852.9644,96
1604496852.9664,773
1604496852.9684,1339
1604496852.9704,1137
1604496852.9724,26
1604496852.9744,-811
1604496852.9764,-508
1604496852.9784,-79
1604496852.9804,-120
1604496852.9824,-96
1604496852.9844,19
1604496852.9851,-7
1604496852.9864,-19
1604496852.9884,36
1604496852.9904,45
1604496852.9924,21
1604496852.9944,28
1604496852.9964,50
1604496852.9984,62
1604496853.0004,76
1604496853.0024,96
1604496853.0044,115
1604496853.0064,141
1604496853.0084,170
1604496853.0104,196
1604496853.0124,235
1604496853.0144,266
1604496853.0150,276
1604496853.0164,268
1604496853.4225,259
1604496853.4234,242
1604496853.4258,201
1604496853.4285,134
1604496853.4305,74
1604496853.4324,36
1604496853.4346,-7
1604496853.4365,-45
1604496853.4384,-50
1604496853.4405,-52
1604496853.4426,-120
1604496853.4444,-172
1604496853.4464,-144
1604496853.4473,-124
1604496853.4484,-127
1604496853.4504,-93
1604496853.4523,-84
1604496853.4543,-88
1604496853.4564,-67
1604496853.4584,-52
1604496853.4604,-57
1604496853.4624,-55
1604496853.4644,-36
1604496853.4664,-26
1604496853.4684,-21
1604496853.4704,-21
1604496853.4724,-31
1604496853.4744,-33
1604496853.4764,-9
1604496853.4770,24
1604496853.4784,36
1604496853.4804,19
1604496853.4824,4
1604496853.4844,14
1604496853.4863,19
1604496853.4883,-2
1604496853.4904,-19
1604496853.4924,-9
1604496853.4944,-19
1604496853.4963,-26
1604496853.4983,-16
1604496853.5004,-21
1604496853.5024,-43
1604496853.5044,-96
1604496853.5064,-182
1604496853.5070,-88
1604496853.5084,396
1604496853.5104,1056
1604496853.5123,1320
1604496853.5144,619
1604496853.5164,-540
1604496853.5183,-761
1604496853.5203,-199
1604496853.5223,-43
1604496853.5244,-146
1604496853.5264,-43
1604496853.5284,19
1604496853.5304,-16
1604496853.5324,7
1604496853.5343,43
1604496853.5364,31
1604496853.5371,31
1604496853.5384,50
1604496853.5404,64
1604496853.5427,81
1604496853.5444,91
1604496853.5463,96
1604496853.5483,117
1604496853.5504,148
1604496853.5524,172
1604496853.5543,204
1604496853.5563,240
1604496853.5583,254
1604496853.9926,240
1604496853.9934,220
1604496853.9958,213
1604496853.9985,201
1604496854.0006,165
1604496854.0025,105
1604496854.0046,31
1604496854.0065,-33
1604496854.0085,-69
1604496854.0105,-96
1604496854.0124,-117
1604496854.0145,-129
1604496854.0165,-129
1604496854.0185,-122
1604496854.0205,-122
1604496854.0224,-127
1604496854.0244,-122
1604496854.0251,-110
1604496854.0264,-103
1604496854.0284,-98
1604496854.0304,-91
1604496854.0324,-88
1604496854.0344,-76
1604496854.0364,-55
1604496854.0384,-60
1604496854.0404,-72
1604496854.0424,-60
1604496854.0444,-50
1604496854.0465,-62
1604496854.0484,-60
1604496854.0504,-45
1604496854.0524,-38
1604496854.0545,-16
1604496854.0550,0
1604496854.0564,-12
1604496854.0584,-19
1604496854.0604,-16
1604496854.0624,-26
1604496854.0644,-31
1604496854.0664,-31
1604496854.0684,-38
1604496854.0704,-33
1604496854.0726,-21
1604496854.0744,-26
1604496854.0764,-36
1604496854.0784,-31
1604496854.0804,-48
1604496854.0824,-129
1604496854.0844,-177
1604496854.0851,81
1604496854.0864,693
1604496854.0884,1241
1604496854.0904,1092
1604496854.0924,31
1604496854.0944,-813
1604496854.0964,-518
1604496854.0984,-48
1604496854.1004,-100
1604496854.1024,-110
1604496854.1044,24
1604496854.1064,19
1604496854.1084,-19
1604496854.1104,21
1604496854.1124,45
1604496854.1144,33
1604496854.1156,43
1604496854.1174,64
1604496854.1194,69
1604496854.1214,64
1604496854.1235,76
1604496854.1254,100
1604496854.1274,124
1604496854.1294,153
1604496854.5626,182
1604496854.5634,211
1604496854.5648,240
1604496854.5668,259
1604496854.5674,261
1604496854.5688,247
1604496854.5708,223
1604496854.5728,187
1604496854.5748,124
1604496854.5768,50
1604496854.5788,0
1604496854.5807,-33
1604496854.5827,-67
1604496854.5847,-91
1604496854.5868,-96
1604496854.5887,-100
1604496854.5907,-108
1604496854.5927,-105
1604496854.5947,-100
1604496854.5967,-98
1604496854.5975,-93
1604496854.5988,-84
1604496854.6007,-76
1604496854.6027,-62
1604496854.6047,-52
1604496854.6068,-60
1604496854.6087,-55
1604496854.6107,-48
1604496854.6127,-60
1604496854.6147,-64
1604496854.6167,-60
1604496854.6187,-55
1604496854.6207,-57
1604496854.6227,-52
1604496854.6247,-33
1604496854.6267,-21
1604496854.6274,-40
1604496854.6287,-45
1604496854.6307,-31
1604496854.6327,-40
1604496854.6347,-50
1604496854.6368,-36
1604496854.6388,-12
1604496854.6407,4
1604496854.6427,0
1604496854.6447,-16
1604496854.6467,-12
1604496854.6487,2
1604496854.6507,4
1604496854.6527,-4
1604496854.6547,-14
1604496854.6567,0
1604496854.6573,9
1604496854.6587,0
1604496854.6607,-12
1604496854.6628,-19
1604496854.6647,-33
1604496854.6667,-96
1604496854.6687,-170
1604496854.6707,9
1604496854.6727,578
1604496854.6747,1181
1604496854.6767,1140
1604496854.6787,146
1604496854.6807,-768
1604496854.6827,-556
1604496854.6847,-60
1604496854.6867,-88
1604496854.6873,-120
1604496854.6887,19
1604496854.6907,19
1604496854.6928,-14
1604496854.6947,45
1604496855.1025,72
1604496855.1033,40
1604496855.1058,45
1604496855.1084,74
1604496855.1104,76
1604496855.1123,74
1604496855.1143,84
1604496855.1164,105
1604496855.1183,132
1604496855.1203,146
1604496855.1209,168
1604496855.1224,204
1604496855.1243,232
1604496855.1263,242
1604496855.1284,244
1604496855.1304,240
1604496855.1323,220
1604496855.1343,189
1604496855.1363,151
1604496855.1383,93
1604496855.1403,26
1604496855.1423,-26
1604496855.1443,-55
1604496855.1463,-76
1604496855.1483,-98
1604496855.1503,-105
1604496855.1509,-105
1604496855.1523,-100
1604496855.1543,-93
1604496855.1563,-96
1604496855.1583,-96
1604496855.1603,-88
1604496855.1623,-86
1604496855.1643,-76
1604496855.1663,-67
1604496855.1683,-69
1604496855.1702,-62
1604496855.1723,-48
1604496855.1743,-43
1604496855.1763,-48
1604496855.1783,-52
1604496855.1803,-48
1604496855.1809,-45
1604496855.1823,-45
1604496855.1843,-40
1604496855.1863,-26
1604496855.1883,-26
1604496855.1903,-38
1604496855.1923,-38
1604496855.1944,-28
1604496855.1963,-33
1604496855.1983,-40
1604496855.2003,-31
1604496855.2024,-24
1604496855.2043,-21
1604496855.2063,-26
1604496855.2082,-31
1604496855.2103,-24
1604496855.2109,-16
1604496855.2123,-12
1604496855.2143,9
1604496855.2163,16
1604496855.2183,4
1604496855.2203,21
1604496855.2223,36
1604496855.2243,12
1604496855.2263,-16
1604496855.2283,-14
1604496855.2303,-2
1604496855.2323,2
1604496855.2343,7
1604496855.2363,7
1604496855.2383,-9
1604496855.6422,-50
1604496855.6430,-127
1604496855.6456,-136
1604496855.6481,168
1604496855.6501,770
1604496855.6521,1209
1604496855.6541,835
1604496855.6561,-264
1604496855.6581,-789
1604496855.6602,-340
1604496855.6621,-36
1604496855.6641,-124
1604496855.6661,-67
1604496855.6681,28
1604496855.6700,-7
1604496855.6707,-14
1604496855.6720,28
1604496855.6740,33
1604496855.6760,28
1604496855.6780,50
1604496855.6801,62
1604496855.6821,62
1604496855.6841,72
1604496855.6860,91
1604496855.6880,105
1604496855.6900,127
1604496855.6920,153
1604496855.6942,175
1604496855.6960,199
1604496855.6980,218
1604496855.7000,230
1604496855.7006,235
1604496855.7020,223
1604496855.7040,194
1604496855.7060,156
1604496855.7080,120
1604496855.7100,72
1604496855.7121,12
1604496855.7140,-38
1604496855.7160,-72
1604496855.7180,-98
1604496855.7200,-110
1604496855.7220,-112
1604496855.7240,-110
1604496855.7260,-110
1604496855.7280,-117
1604496855.7300,-110
1604496855.7306,-98
1604496855.7320,-96
1604496855.7340,-96
1604496855.7360,-88
1604496855.7380,-79
1604496855.7400,-74
1604496855.7420,-74
1604496855.7440,-67
1604496855.7460,-60
1604496855.7480,-60
1604496855.7500,-60
1604496855.7520,-55
1604496855.7540,-55
1604496855.7560,-62
1604496855.7580,-64
1604496855.7601,-60
1604496855.7607,-55
1604496855.7620,-55
1604496855.7640,-57
1604496855.7660,-62
1604496855.7680,-50
1604496855.7700,-40
1604496855.7720,-43
1604496855.7740,-40
1604496855.7760,-38
1604496855.7780,-38
1604496856.2423,-38
1604496856.2431,-31
1604496856.2455,-33
1604496856.2482,-48
1604496856.2502,-60
1604496856.2511,-48
1604496856.2522,-36
1604496856.2544,-26
1604496856.2562,-2
1604496856.2582,2
1604496856.2602,-21
1604496856.2622,-26
1604496856.2642,-12
1604496856.2662,-19
1604496856.2682,-33
1604496856.2702,-33
1604496856.2721,-31
1604496856.2741,-31
1604496856.2761,-33
1604496856.2781,-28
1604496856.2802,-28
1604496856.2807,-86
1604496856.2821,-175
1604496856.2841,-88
1604496856.2861,331
1604496856.2881,890
1604496856.2902,1092
1604496856.2921,444
1604496856.2941,-552
1604496856.2961,-691
1604496856.2981,-216
1604496856.3001,-98
1604496856.3021,-144
1604496856.3041,-24
1604496856.3061,26
1604496856.3081,-31
1604496856.3102,-21
1604496856.3107,14
1604496856.3121,9
1604496856.3141,19
1604496856.3161,55
1604496856.3182,52
1604496856.3201,40
1604496856.3221,62
1604496856.3241,81
1604496856.3261,100
1604496856.3281,134
1604496856.3301,168
1604496856.3321,192
1604496856.3341,213
1604496856.3361,230
1604496856.3381,235
1604496856.3401,225
1604496856.3408,211
1604496856.3421,194
1604496856.3441,163
1604496856.3462,120
1604496856.3481,76
1604496856.3501,26
1604496856.3521,-36
1604496856.3541,-69
1604496856.3561,-72
1604496856.3581,-79
1604496856.3601,-93
1604496856.3621,-93
1604496856.3641,-81
1604496856.3661,-91
1604496856.3681,-108
1604496856.3702,-98
1604496856.3708,-81
1604496856.3722,-64
1604496856.3741,-57
1604496856.3761,-62
1604496856.8125,-67
1604496856.8133,-60
1604496856.8148,-45
1604496856.8168,-38
1604496856.8188,-45
1604496856.8207,-45
1604496856.8227,-36
1604496856.8247,-33
1604496856.8267,-40
1604496856.8273,-50
1604496856.8288,-55
1604496856.8307,-43
1604496856.8327,-40
1604496856.8347,-55
1604496856.8367,-50
1604496856.8387,-38
1604496856.8407,-36
1604496856.8427,-38
1604496856.8447,-43
1604496856.8467,-50
1604496856.8487,-69
1604496856.8507,-84
1604496856.8527,-74
1604496856.8547,-67
1604496856.8567,-67
1604496856.8650,-48
1604496856.8667,-21
1604496856.8688,-26
1604496856.8707,-36
1604496856.8727,-28
1604496856.8747,-26
1604496856.8767,-43
1604496856.8787,-60
1604496856.8807,-55
1604496856.8828,-40
1604496856.8847,-43
1604496856.8867,-48
1604496856.8887,-36
1604496856.8907,-33
1604496856.8927,-84
1604496856.8933,-168
1604496856.8946,-115
1604496856.8967,254
1604496856.8987,813
1604496856.9007,1080
1604496856.9027,544
1604496856.9046,-422
1604496856.9067,-677
1604496856.9087,-256
1604496856.9107,-76
1604496856.9127,-110
1604496856.9147,-19
1604496856.9167,40
1604496856.9187,4
1604496856.9207,2
1604496856.9227,36
1604496856.9233,50
1604496856.9247,48
1604496856.9267,69
1604496856.9287,96
1604496856.9307,91
1604496856.9327,86
1604496856.9347,115
1604496856.9367,141
1604496856.9387,153
1604496856.9407,184
1604496856.9427,218
1604496856.9447,237
1604496856.9467,256
1604496856.9487,264
1604496856.9507,256
1604496856.9527,244
1604496856.9534,223
1604496857.3522,194
1604496857.3530,156
1604496857.3555,108
1604496857.3581,55
1604496857.3601,14
1604496857.3621,-16
1604496857.3642,-45
1604496857.3661,-62
1604496857.3681,-72
1604496857.3702,-74
1604496857.3721,-76
1604496857.3741,-72
1604496857.3764,-55
1604496857.3782,-52
1604496857.3800,-67
1604496857.3807,-57
1604496857.3820,-38
1604496857.3840,-31
1604496857.3860,-26
1604496857.3881,-19
1604496857.3901,-12
1604496857.3920,-7
1604496857.3941,-4
1604496857.3961,0
1604496857.3981,2
1604496857.4000,0
1604496857.4020,2
1604496857.4040,-2
1604496857.4060,-9
1604496857.4080,-7
1604496857.4101,-16
1604496857.4107,-19
1604496857.4120,-4
1604496857.4140,0
1604496857.4160,0
1604496857.4180,2
1604496857.4200,2
1604496857.4220,2
1604496857.4240,9
1604496857.4260,28
1604496857.4280,48
1604496857.4300,40
1604496857.4320,21
1604496857.4340,24
1604496857.4360,31
1604496857.4380,14
1604496857.4400,-4
1604496857.4407,0
1604496857.4420,7
1604496857.4440,0
1604496857.4460,-2
1604496857.4481,7
1604496857.4500,7
1604496857.4520,-40
1604496857.4540,-134
1604496857.4560,-110
1604496857.4580,247
1604496857.4600,845
1604496857.4620,1185
1604496857.4640,689
1604496857.4660,-348
1604496857.4680,-698
1604496857.4700,-278
1604496857.4708,-72
1604496857.4721,-110
1604496857.4740,-14
1604496857.4760,48
1604496857.4780,14
1604496857.4801,36
1604496857.4820,74
1604496857.4840,76
1604496857.4860,79
1604496857.4880,84
1604496857.9225,91
1604496857.9233,108
1604496857.9257,127
1604496857.9269,146
1604496857.9283,163
1604496857.9304,182
1604496857.9323,213
1604496857.9343,244
1604496857.9364,259
1604496857.9383,278
1604496857.9403,302
1604496857.9423,300
1604496857.9443,276
1604496857.9463,254
1604496857.9483,223
1604496857.9503,172
1604496857.9523,120
1604496857.9543,69
1604496857.9563,16
1604496857.9569,-24
1604496857.9584,-43
1604496857.9603,-62
1604496857.9622,-72
1604496857.9643,-74
1604496857.9662,-69
1604496857.9682,-62
1604496857.9703,-60
1604496857.9723,-60
1604496857.9742,-55
1604496857.9763,-40
1604496857.9782,-38
1604496857.9803,-40
1604496857.9822,-24
1604496857.9842,-9
1604496857.9862,-9
1604496857.9868,-12
1604496857.9883,-7
1604496857.9902,-7
1604496857.9922,-12
1604496857.9942,-14
1604496857.9962,-9
1604496857.9984,-9
1604496858.0003,-16
1604496858.0022,-16
1604496858.0042,-19
1604496858.0062,-24
1604496858.0082,-19
1604496858.0103,-4
1604496858.0122,14
1604496858.0142,28
1604496858.0162,19
1604496858.0168,2
1604496858.0182,2
1604496858.0202,4
1604496858.0223,-7
1604496858.0242,-19
1604496858.0262,-12
1604496858.0283,-4
1604496858.0302,-9
1604496858.0322,-7
1604496858.0342,4
1604496858.0362,2
1604496858.0382,-43
1604496858.0403,-127
1604496858.0423,-124
1604496858.0442,192
1604496858.0462,813
1604496858.0468,1260
1604496858.0482,873
1604496858.0503,-220
1604496858.0522,-749
1604496858.0542,-355
1604496858.0562,-88
1604496858.4625,-139
1604496858.4634,-43
1604496858.4658,50
1604496858.4684,19
1604496858.4704,24
1604496858.4724,62
1604496858.4745,57
1604496858.4764,57
1604496858.4785,81
1604496858.4804,81
1604496858.4810,81
1604496858.4824,108
1604496858.4844,134
1604496858.4864,144
1604496858.4884,170
1604496858.4905,218
1604496858.4924,247
1604496858.4944,261
1604496858.4964,278
1604496858.4986,283
1604496858.5004,283
1604496858.5023,278
1604496858.5043,242
1604496858.5063,199
1604496858.5084,168
1604496858.5103,117
1604496858.5109,55
1604496858.5123,31
1604496858.5143,-2
1604496858.5163,-64
1604496858.5183,-81
1604496858.5204,-108
1604496858.5223,-163
1604496858.5243,-151
1604496858.5263,-100
1604496858.5283,-67
1604496858.5304,-72
1604496858.5324,-93
1604496858.5343,-76
1604496858.5363,-43
1604496858.5383,-43
1604496858.5404,-38
1604496858.5409,-33
1604496858.5423,-52
1604496858.5443,-48
1604496858.5463,-31
1604496858.5483,-40
1604496858.5504,-43
1604496858.5523,-31
1604496858.5543,-36
1604496858.5563,-36
1604496858.5583,-16
1604496858.5603,-28
1604496858.5623,-74
1604496858.5643,-76
1604496858.5663,-40
1604496858.5683,-24
1604496858.5703,-12
1604496858.5710,-4
1604496858.5723,-19
1604496858.5743,-21
1604496858.5763,-14
1604496858.5783,-26
1604496858.5803,-40
1604496858.5824,-40
1604496858.5844,-31
1604496858.5863,-28
1604496858.5883,-33
1604496858.5903,-33
1604496858.5923,-26
1604496858.5945,-52
1604496858.5964,-139
1604496858.5983,-170
1604496859.0027,88
1604496859.0036,662
1604496859.0053,1142
1604496859.0071,909
1604496859.0091,-105
1604496859.0111,-777
1604496859.0132,-456
1604496859.0151,-81
1604496859.0171,-124
1604496859.0192,-96
1604496859.0211,16
1604496859.0231,7
1604496859.0251,-21
1604496859.0271,0
1604496859.0290,14
1604496859.0296,24
1604496859.0311,43
1604496859.0330,50
1604496859.0350,50
1604496859.0370,64
1604496859.0391,84
1604496859.0410,105
1604496859.0430,136
1604496859.0450,168
1604496859.0471,182
1604496859.0491,204
1604496859.0510,230
1604496859.0531,244
1604496859.0550,249
1604496859.0570,237
1604496859.0590,208
1604496859.0596,175
1604496859.0610,134
1604496859.0631,79
1604496859.0650,24
1604496859.0670,-21
1604496859.0691,-55
1604496859.0710,-79
1604496859.0730,-88
1604496859.0750,-91
1604496859.0770,-100
1604496859.0790,-105
1604496859.0811,-96
1604496859.0830,-84
1604496859.0850,-72
1604496859.0870,-62
1604496859.0890,-57
1604496859.0896,-55
1604496859.0912,-40
1604496859.0930,-31
1604496859.0950,-33
1604496859.0970,-36
1604496859.0992,-33
1604496859.1010,-28
1604496859.1030,-21
1604496859.1050,-14
1604496859.1070,-24
1604496859.1090,-36
1604496859.1110,-33
1604496859.1130,-40
1604496859.1150,-40
1604496859.1170,-31
1604496859.1190,-19
1604496859.1196,7
1604496859.1210,24
1604496859.1230,14
1604496859.1250,7
1604496859.1270,7
1604496859.1290,-7
1604496859.1310,-45
1604496859.1330,-74
1604496859.1350,-62
1604496859.1370,-38
1604496859.6024,-36
1604496859.6031,-38
1604496859.6057,-38
1604496859.6067,-55
1604496859.6082,-108
1604496859.6103,-172
1604496859.6123,-84
1604496859.6143,360
1604496859.6162,962
1604496859.6183,1140
1604496859.6202,415
1604496859.6222,-597
1604496859.6242,-664
1604496859.6262,-136
1604496859.6281,-105
1604496859.6302,-244
1604496859.6321,-62
1604496859.6342,33
1604496859.6362,-67
1604496859.6367,-69
1604496859.6382,12
1604496859.6401,21
1604496859.6422,-21
1604496859.6442,-14
1604496859.6462,36
1604496859.6481,55
1604496859.6503,62
1604496859.6522,88
1604496859.6542,112
1604496859.6561,144
1604496859.6581,187
1604496859.6602,206
1604496859.6621,213
1604496859.6641,244
1604496859.6661,268
1604496859.6667,249
1604496859.6681,204
1604496859.6702,182
1604496859.6721,165
1604496859.6742,115
1604496859.6762,55
1604496859.6781,4
1604496859.6802,-52
1604496859.6821,-88
1604496859.6841,-96
1604496859.6861,-112
1604496859.6881,-120
1604496859.6901,-110
1604496859.6921,-112
1604496859.6941,-110
1604496859.6961,-100
1604496859.6968,-91
1604496859.6981,-84
1604496859.7002,-74
1604496859.7021,-62
1604496859.7042,-55
1604496859.7061,-43
1604496859.7081,-12
1604496859.7101,-16
1604496859.7121,-67
1604496859.7141,-64
1604496859.7161,-24
1604496859.7181,-48
1604496859.7201,-79
1604496859.7221,-52
1604496859.7241,-33
1604496859.7261,-60
1604496859.7267,-60
1604496859.7281,-24
1604496859.7302,0
1604496859.7322,4
1604496859.7342,0
1604496859.7362,-9
1604496860.1721,-12
1604496860.1729,-12
1604496860.1753,-28
1604496860.1770,-43
1604496860.1792,-33
1604496860.1810,-33
1604496860.1830,-50
1604496860.1850,-52
1604496860.1870,-60
1604496860.1890,-74
1604496860.1895,-122
1604496860.1909,-199
1604496860.1929,-103
1604496860.1949,345
1604496860.1970,929
1604496860.1990,1070
1604496860.2009,328
1604496860.2029,-628
1604496860.2049,-667
1604496860.2069,-194
1604496860.2091,-105
1604496860.2109,-148
1604496860.2129,-45
1604496860.2149,-12
1604496860.2169,-43
1604496860.2190,-9
1604496860.2195,19
1604496860.2209,4
1604496860.2229,7
1604496860.2249,40
1604496860.2269,55
1604496860.2290,48
1604496860.2309,55
1604496860.2329,76
1604496860.2349,105
1604496860.2369,110
1604496860.2390,112
1604496860.2409,158
1604496860.2429,204
1604496860.2449,206
1604496860.2469,204
1604496860.2490,194
1604496860.2495,175
1604496860.2509,158
1604496860.2529,132
1604496860.2549,84
1604496860.2569,16
1604496860.2590,-48
1604496860.2609,-74
1604496860.2629,-84
1604496860.2649,-103
1604496860.2669,-112
1604496860.2689,-115
1604496860.2709,-103
1604496860.2729,-86
1604496860.2750,-127
1604496860.2770,-148
1604496860.2790,-84
1604496860.2795,-28
1604496860.2809,-14
1604496860.2829,-19
1604496860.2849,-55
1604496860.2869,-69
1604496860.2890,-38
1604496860.2909,-40
1604496860.2929,-50
1604496860.2949,-7
1604496860.2969,-7
1604496860.2990,-79
1604496860.3009,-93
1604496860.3029,-79
1604496860.3049,-120
1604496860.3069,-112
1604496860.7126,-52
1604496860.7134,-48
1604496860.7160,-50
1604496860.7185,-9
1604496860.7205,9
1604496860.7227,-7
1604496860.7246,-2
1604496860.7265,16
1604496860.7285,-9
1604496860.7305,-57
1604496860.7325,-72
1604496860.7344,-64
1604496860.7365,-60
1604496860.7371,-64
1604496860.7385,-67
1604496860.7405,-64
1604496860.7412,-45
1604496860.7424,-60
1604496860.7445,-144
1604496860.7465,-168
1604496860.7485,93
1604496860.7505,660
1604496860.7526,1099
1604496860.7545,744
1604496860.7564,-276
1604496860.7585,-768
1604496860.7604,-393
1604496860.7624,-108
1604496860.7630,-141
1604496860.7644,-79
1604496860.7665,0
1604496860.7684,-26
1604496860.7705,-40
1604496860.7726,0
1604496860.7744,19
1604496860.7764,12
1604496860.7784,24
1604496860.7805,38
1604496860.7824,33
1604496860.7844,43
1604496860.7864,72
1604496860.7884,93
1604496860.7904,117
1604496860.7924,144
1604496860.7931,158
1604496860.7944,182
1604496860.7964,216
1604496860.7984,230
1604496860.8004,213
1604496860.8024,187
1604496860.8044,172
1604496860.8064,148
1604496860.8084,98
1604496860.8104,43
1604496860.8124,2
1604496860.8144,-26
1604496860.8164,-69
1604496860.8184,-117
1604496860.8204,-134
1604496860.8224,-124
1604496860.8231,-122
1604496860.8244,-129
1604496860.8264,-117
1604496860.8284,-103
1604496860.8304,-108
1604496860.8324,-127
1604496860.8344,-122
1604496860.8364,-72
1604496860.8384,-28
1604496860.8404,-40
1604496860.8424,-60
1604496860.8444,-48
1604496860.8464,-52
1604496861.3129,-64
1604496861.3139,-52
1604496861.3156,-43
1604496861.3179,-45
1604496861.3200,-50
1604496861.3220,-64
1604496861.3240,-88
1604496861.3260,-100
1604496861.3280,-76
1604496861.3300,-55
1604496861.3320,-60
1604496861.3342,-38
1604496861.3360,7
1604496861.3380,4
1604496861.3400,-24
1604496861.3420,-26
1604496861.3439,-33
1604496861.3459,-64
1604496861.3465,-79
1604496861.3479,-74
1604496861.3500,-72
1604496861.3519,-55
1604496861.3539,-24
1604496861.3559,-14
1604496861.3579,-26
1604496861.3599,-86
1604496861.3619,-177
1604496861.3640,-127
1604496861.3659,256
1604496861.3679,818
1604496861.3699,1065
1604496861.3719,499
1604496861.3740,-477
1604496861.3759,-701
1604496861.3764,-252
1604496861.3779,-76
1604496861.3800,-124
1604496861.3820,-43
1604496861.3839,7
1604496861.3859,-24
1604496861.3879,-2
1604496861.3899,24
1604496861.3919,12
1604496861.3939,19
1604496861.3959,38
1604496861.3979,48
1604496861.3999,60
1604496861.4019,74
1604496861.4038,84
1604496861.4059,91
1604496861.4065,117
1604496861.4079,148
1604496861.4099,172
1604496861.4119,187
1604496861.4139,199
1604496861.4159,216
1604496861.4179,218
1604496861.4199,189
1604496861.4219,156
1604496861.4239,122
1604496861.4259,81
1604496861.4279,31
1604496861.4301,-24
1604496861.4319,-67
1604496861.4339,-100
1604496861.4359,-120
1604496861.4365,-117
1604496861.4378,-108
1604496861.4399,-105
1604496861.4418,-105
1604496861.4439,-105
1604496861.4459,-112
1604496861.4479,-110
1604496861.8227,-93
1604496861.8236,-81
1604496861.8260,-76
1604496861.8286,-72
1604496861.8306,-64
1604496861.8326,-60
1604496861.8346,-55
1604496861.8353,-50
1604496861.8366,-52
1604496861.8386,-62
1604496861.8406,-72
1604496861.8426,-62
1604496861.8446,-43
1604496861.8467,-33
1604496861.8486,-43
1604496861.8506,-57
1604496861.8526,-62
1604496861.8546,-62
1604496861.8566,-57
1604496861.8586,-48
1604496861.8605,-36
1604496861.8625,-19
1604496861.8645,-4
1604496861.8652,-12
1604496861.8665,-12
1604496861.8686,7
1604496861.8705,12
1604496861.8726,-16
1604496861.8745,-31
1604496861.8765,-16
1604496861.8785,-14
1604496861.8805,-26
1604496861.8825,-16
1604496861.8845,-12
1604496861.8865,-36
1604496861.8885,-98
1604496861.8906,-163
1604496861.8926,-38
1604496861.8945,410
1604496861.8951,948
1604496861.8967,1010
1604496861.8986,204
1604496861.9005,-679
1604496861.9025,-588
1604496861.9045,-122
1604496861.9065,-74
1604496861.9085,-86
1604496861.9106,19
1604496861.9125,19
1604496861.9145,-12
1604496861.9165,26
1604496861.9186,45
1604496861.9205,33
1604496861.9225,45
1604496861.9246,69
1604496861.9252,79
1604496861.9265,86
1604496861.9285,103
1604496861.9305,117
1604496861.9325,124
1604496861.9345,146
1604496861.9365,184
1604496861.9385,204
1604496861.9406,208
1604496861.9425,235
1604496861.9446,242
1604496861.9465,211
1604496861.9485,192
1604496861.9505,182
1604496861.9525,146
1604496861.9545,84
1604496861.9551,19
1604496861.9565,-19
1604496862.3926,-55
1604496862.3935,-84
1604496862.3958,-91
1604496862.3986,-100
1604496862.4006,-120
1604496862.4025,-129
1604496862.4046,-115
1604496862.4065,-96
1604496862.4085,-93
1604496862.4105,-93
1604496862.4125,-81
1604496862.4145,-72
1604496862.4165,-67
1604496862.4171,-62
1604496862.4185,-55
1604496862.4205,-52
1604496862.4225,-48
1604496862.4245,-43
1604496862.4267,-40
1604496862.4285,-38
1604496862.4305,-40
1604496862.4324,-50
1604496862.4344,-52
1604496862.4364,-36
1604496862.4384,-24
1604496862.4404,-28
1604496862.4424,-36
1604496862.4444,-38
1604496862.4464,-38
1604496862.4471,-36
1604496862.4484,-36
1604496862.4505,-33
1604496862.4525,-19
1604496862.4544,7
1604496862.4565,16
1604496862.4586,2
1604496862.4604,0
1604496862.4624,12
1604496862.4644,4
1604496862.4664,-19
1604496862.4684,-24
1604496862.4705,-9
1604496862.4724,-7
1604496862.4744,-7
1604496862.4758,-4
1604496862.4764,-12
1604496862.4786,-43
1604496862.4804,-108
1604496862.4824,-122
1604496862.4844,120
1604496862.4864,652
1604496862.4884,1094
1604496862.4905,861
1604496862.4924,-76
1604496862.4944,-681
1604496862.4964,-400
1604496862.4985,-76
1604496862.5004,-96
1604496862.5024,-57
1604496862.5044,28
1604496862.5064,12
1604496862.5070,12
1604496862.5085,50
1604496862.5104,45
1604496862.5124,33
1604496862.5145,62
1604496862.5165,84
1604496862.5184,76
1604496862.5204,79
1604496862.5226,103
1604496862.5245,132
1604496862.5264,158
1604496862.5284,187
1604496862.9922,213
1604496862.9932,228
1604496862.9945,213
1604496862.9964,208
1604496862.9984,240
1604496863.0004,237
1604496863.0025,175
1604496863.0044,129
1604496863.0064,91
1604496863.0084,72
1604496863.0104,72
1604496863.0124,4
1604496863.0144,-86
1604496863.0164,-141
1604496863.0184,-144
1604496863.0204,-86
1604496863.0224,-60
1604496863.0230,-84
1604496863.0244,-55
1604496863.0264,-7
1604496863.0285,2
1604496863.0304,-19
1604496863.0324,-52
1604496863.0345,-40
1604496863.0364,-33
1604496863.0384,-60
1604496863.0404,4
1604496863.0424,100
1604496863.0444,9
1604496863.0464,-88
1604496863.0484,-31
1604496863.0504,-57
1604496863.0524,-141
1604496863.0530,-105
1604496863.0544,-40
1604496863.0564,-33
1604496863.0584,-45
1604496863.0604,-38
1604496863.0624,-9
1604496863.0644,19
1604496863.0663,-7
1604496863.0684,-84
1604496863.0704,-86
1604496863.0723,-24
1604496863.0743,-24
1604496863.0764,-38
1604496863.0783,-45
1604496863.0805,-67
1604496863.0824,-9
1604496863.0829,31
1604496863.0843,-26
1604496863.0863,-4
1604496863.0883,45
1604496863.0903,-21
1604496863.0923,-160
1604496863.0943,-211
1604496863.0963,26
1604496863.0983,554
1604496863.1003,979
1604496863.1023,794
1604496863.1044,-69
1604496863.1063,-698
1604496863.1084,-460
1604496863.1103,-132
1604496863.1123,-122
1604496863.1129,-74
1604496863.1143,-14
1604496863.1163,-4
1604496863.1183,31
1604496863.1204,9
1604496863.1223,-43
1604496863.1244,14
1604496863.1263,110
1604496863.5333,151
1604496863.5341,172
1604496863.5356,122
1604496863.5375,60
1604496863.5396,100
1604496863.5415,134
1604496863.5421,124
1604496863.5435,151
1604496863.5455,196
1604496863.5475,218
1604496863.5494,230
1604496863.5514,249
1604496863.5535,252
1604496863.5554,235
1604496863.5574,199
1604496863.5595,160
1604496863.5614,108
1604496863.5635,24
1604496863.5655,-28
1604496863.5675,-31
1604496863.5695,-69
1604496863.5714,-134
1604496863.5720,-127
1604496863.5734,-64
1604496863.5754,-50
1604496863.5777,-60
1604496863.5795,-57
1604496863.5814,-84
1604496863.5835,-93
1604496863.5854,-45
1604496863.5874,-19
1604496863.5895,-55
1604496863.5914,-84
1604496863.5934,-28
1604496863.5954,21
1604496863.5974,-36
1604496863.5994,-93
1604496863.6014,-79
1604496863.6020,-55
1604496863.6034,-45
1604496863.6054,-48
1604496863.6074,-38
1604496863.6095,-16
1604496863.6114,-12
1604496863.6134,-36
1604496863.6154,-43
1604496863.6174,-26
1604496863.6194,-14
1604496863.6214,-9
1604496863.6234,4
1604496863.6254,16
1604496863.6274,12
1604496863.6295,-2
1604496863.6314,-4
1604496863.6320,-9
1604496863.6334,-36
1604496863.6354,-48
1604496863.6374,-7
1604496863.6395,24
1604496863.6414,-28
1604496863.6434,-79
1604496863.6454,-40
1604496863.6474,-28
1604496863.6495,-132
1604496863.6514,-156
1604496863.6534,163
1604496863.6554,701
1604496863.6574,1020
1604496863.6594,631
1604496863.6614,-314
1604496863.6621,-720
1604496863.6634,-312
1604496863.6654,-48
1604496864.1025,-124
1604496864.1033,-100
1604496864.1059,-12
1604496864.1077,-7
1604496864.1095,7
1604496864.1114,33
1604496864.1134,7
1604496864.1154,4
1604496864.1174,52
1604496864.1194,74
1604496864.1214,62
1604496864.1221,62
1604496864.1234,84
1604496864.1254,108
1604496864.1275,134
1604496864.1294,187
1604496864.1313,204
1604496864.1334,196
1604496864.1353,225
1604496864.1373,247
1604496864.1394,237
1604496864.1413,230
1604496864.1433,211
1604496864.1453,177
1604496864.1473,141
1604496864.1494,96
1604496864.1513,36
1604496864.1519,-4
1604496864.1533,-48
1604496864.1553,-93
1604496864.1573,-86
1604496864.1593,-62
1604496864.1613,-86
1604496864.1633,-122
1604496864.1653,-110
1604496864.1673,-74
1604496864.1694,-57
1604496864.1713,-64
1604496864.1733,-84
1604496864.1753,-79
1604496864.1773,-52
1604496864.1793,-45
1604496864.1813,-38
1604496864.1819,-28
1604496864.1833,-48
1604496864.1853,-50
1604496864.1873,-26
1604496864.1893,-31
1604496864.1913,-38
1604496864.1933,-33
1604496864.1954,-40
1604496864.1973,-40
1604496864.1993,-28
1604496864.2014,-19
1604496864.2034,0
1604496864.2053,4
1604496864.2073,-7
1604496864.2093,2
1604496864.2100,7
1604496864.2113,-7
1604496864.2133,7
1604496864.2153,-2
1604496864.2173,-57
1604496864.2193,-62
1604496864.2214,-40
1604496864.2233,-55
1604496864.2253,-38
1604496864.2273,-26
1604496864.2293,-112
1604496864.2313,-204
1604496864.2333,-105
1604496864.2353,326
1604496864.2373,897
1604496864.6726,1065
1604496864.6734,405
1604496864.6759,-528
1604496864.6785,-638
1604496864.6805,-189
1604496864.6825,-88
1604496864.6845,-144
1604496864.6865,-16
1604496864.6886,14
1604496864.6904,-67
1604496864.6924,-26
1604496864.6944,26
1604496864.6964,-2
1604496864.6985,7
1604496864.7005,60
1604496864.7011,62
1604496864.7024,45
1604496864.7044,60
1604496864.7064,81
1604496864.7084,91
1604496864.7104,108
1604496864.7124,163
1604496864.7144,240
1604496864.7164,244
1604496864.7184,192
1604496864.7204,201
1604496864.7224,216
1604496864.7244,175
1604496864.7264,160
1604496864.7284,148
1604496864.7304,88
1604496864.7310,40
1604496864.7326,14
1604496864.7344,-62
1604496864.7364,-132
1604496864.7385,-112
1604496864.7404,-79
1604496864.7424,-98
1604496864.7444,-112
1604496864.7464,-100
1604496864.7484,-103
1604496864.7504,-110
1604496864.7525,-76
1604496864.7543,-38
1604496864.7564,-62
1604496864.7584,-86
1604496864.7604,-57
1604496864.7610,-14
1604496864.7624,-7
1604496864.7644,-36
1604496864.7664,-36
1604496864.7684,-31
1604496864.7704,-48
1604496864.7724,-36
1604496864.7744,-19
1604496864.7764,-14
1604496864.7784,-4
1604496864.7804,-26
1604496864.7824,-24
1604496864.7844,12
1604496864.7864,-24
1604496864.7883,-31
1604496864.7904,26
1604496864.7910,21
1604496864.7924,-9
1604496864.7944,-9
1604496864.7964,-21
1604496864.7984,-24
1604496864.8004,-16
1604496864.8023,-24
1604496864.8044,-50
1604496864.8064,-64
1604496864.8084,-26
1604496865.1827,-2
1604496865.1836,-76
1604496865.1860,-168
1604496865.1887,-81
1604496865.1907,302
1604496865.1914,845
1604496865.1927,1080
1604496865.1948,489
1604496865.1967,-439
1604496865.1987,-600
1604496865.2008,-201
1604496865.2027,-98
1604496865.2048,-153
1604496865.2067,-45
1604496865.2086,33
1604496865.2106,2
1604496865.2126,19
1604496865.2146,50
1604496865.2166,7
1604496865.2186,-16
1604496865.2206,19
1604496865.2212,52
1604496865.2226,79
1604496865.2246,84
1604496865.2266,74
1604496865.2286,108
1604496865.2307,156
1604496865.2329,153
1604496865.2346,148
1604496865.2366,201
1604496865.2386,237
1604496865.2406,223
1604496865.2426,216
1604496865.2446,218
1604496865.2466,211
1604496865.2486,180
1604496865.2506,91
1604496865.2512,14
1604496865.2526,21
1604496865.2546,12
1604496865.2566,-50
1604496865.2586,-91
1604496865.2606,-84
1604496865.2626,-64
1604496865.2646,-64
1604496865.2666,-79
1604496865.2686,-74
1604496865.2706,-52
1604496865.2726,-50
1604496865.2746,-43
1604496865.2766,-43
1604496865.2786,-60
1604496865.2806,-43
1604496865.2811,-16
1604496865.2826,-36
1604496865.2846,-64
1604496865.2866,-48
1604496865.2886,-21
1604496865.2906,-24
1604496865.2926,-9
1604496865.2946,2
1604496865.2967,-24
1604496865.2986,-24
1604496865.3006,-12
1604496865.3026,-26
1604496865.3046,-7
1604496865.3066,33
1604496865.3086,36
1604496865.3106,26
1604496865.3112,7
1604496865.3126,-31
1604496865.3146,-43
1604496865.3166,-33
1604496865.7827,-48
1604496865.7838,-48
1604496865.7862,-16
1604496865.7888,9
1604496865.7908,7
1604496865.7928,-33
1604496865.7949,-52
1604496865.7968,-88
1604496865.7988,-199
1604496865.7995,-146
1604496865.8008,271
1604496865.8028,818
1604496865.8048,1003
1604496865.8068,436
1604496865.8088,-432
1604496865.8109,-607
1604496865.8129,-247
1604496865.8148,-120
1604496865.8168,-112
1604496865.8189,-14
1604496865.8208,-7
1604496865.8228,-24
1604496865.8248,19
1604496865.8268,28
1604496865.8288,31
1604496865.8294,40
1604496865.8308,48
1604496865.8328,74
1604496865.8348,79
1604496865.8368,64
1604496865.8389,74
1604496865.8407,91
1604496865.8428,127
1604496865.8447,175
1604496865.8467,199
1604496865.8487,213
1604496865.8507,225
1604496865.8527,232
1604496865.8548,223
1604496865.8569,180
1604496865.8588,146
1604496865.8593,139
1604496865.8607,96
1604496865.8627,33
1604496865.8647,19
1604496865.8668,12
1604496865.8688,-16
1604496865.8707,-52
1604496865.8727,-108
1604496865.8748,-141
1604496865.8767,-105
1604496865.8787,-74
1604496865.8807,-86
1604496865.8827,-86
1604496865.8847,-57
1604496865.8867,-50
1604496865.8887,-67
1604496865.8893,-33
1604496865.8907,-7
1604496865.8927,-45
1604496865.8947,-48
1604496865.8967,-21
1604496865.8987,-28
1604496865.9007,-24
1604496865.9027,-21
1604496865.9047,-36
1604496865.9067,-19
1604496865.9087,9
1604496865.9108,-7
1604496865.9127,-52
1604496865.9147,-38
1604496865.9167,16
1604496865.9187,4
1604496866.3527,-4
1604496866.3535,40
1604496866.3559,19
1604496866.3587,-26
1604496866.3606,-2
1604496866.3626,0
1604496866.3647,-28
1604496866.3666,-21
1604496866.3686,-38
1604496866.3706,-69
1604496866.3726,-33
1604496866.3746,-4
1604496866.3766,-48
1604496866.3786,-76
1604496866.3805,-69
1604496866.3825,-108
1604496866.3831,-170
1604496866.3847,-9
1604496866.3865,465
1604496866.3885,950
1604496866.3905,890
1604496866.3926,79
1604496866.3945,-621
1604496866.3965,-456
1604496866.3985,-74
1604496866.4005,-91
1604496866.4025,-124
1604496866.4045,-9
1604496866.4065,7
1604496866.4085,-31
1604496866.4105,28
1604496866.4125,72
1604496866.4131,16
1604496866.4145,-24
1604496866.4166,0
1604496866.4186,33
1604496866.4205,52
1604496866.4225,88
1604496866.4245,129
1604496866.4265,112
1604496866.4285,117
1604496866.4305,182
1604496866.4325,213
1604496866.4345,204
1604496866.4365,199
1604496866.4385,187
1604496866.4405,187
1604496866.4425,204
1604496866.4431,187
1604496866.4445,144
1604496866.4465,84
1604496866.4486,-4
1604496866.4504,-40
1604496866.4525,-26
1604496866.4545,-50
1604496866.4566,-81
1604496866.4585,-96
1604496866.4605,-86
1604496866.4625,-52
1604496866.4644,-38
1604496866.4665,-72
1604496866.4686,-93
1604496866.4706,-50
1604496866.4725,-24
1604496866.4731,-57
1604496866.4745,-52
1604496866.4765,-16
1604496866.4785,-28
1604496866.4807,-36
1604496866.4825,-21
1604496866.4845,-38
1604496866.4865,-55
1604496866.4885,-12
1604496866.8926,21
1604496866.8934,-28
1604496866.8959,-45
1604496866.8985,0
1604496866.8991,-14
1604496866.9004,-48
1604496866.9026,-21
1604496866.9046,9
1604496866.9065,14
1604496866.9085,19
1604496866.9105,0
1604496866.9124,-33
1604496866.9145,-16
1604496866.9165,4
1604496866.9185,7
1604496866.9204,-4
1604496866.9224,-38
1604496866.9245,-28
1604496866.9265,9
1604496866.9285,-2
1604496866.9290,-24
1604496866.9304,-4
1604496866.9324,19
1604496866.9344,-16
1604496866.9364,-67
1604496866.9384,-120
1604496866.9404,-136
1604496866.9424,81
1604496866.9444,564
1604496866.9464,977
1604496866.9484,797
1604496866.9505,-55
1604496866.9524,-628
1604496866.9544,-374
1604496866.9564,-72
1604496866.9584,-74
1604496866.9590,-7
1604496866.9604,45
1604496866.9624,-28
1604496866.9631,-14
1604496866.9644,67
1604496866.9664,79
1604496866.9684,48
1604496866.9704,48
1604496866.9724,76
1604496866.9744,69
1604496866.9766,67
1604496866.9784,120
1604496866.9804,132
1604496866.9824,108
1604496866.9844,146
1604496866.9850,196
1604496866.9864,211
1604496866.9885,228
1604496866.9904,237
1604496866.9924,218
1604496866.9944,220
1604496866.9964,242
1604496866.9984,206
1604496867.0004,122
1604496867.0024,86
1604496867.0044,74
1604496867.0064,16
1604496867.0085,-57
1604496867.0104,-117
1604496867.0124,-103
1604496867.0144,-57
1604496867.0150,-84
1604496867.0164,-84
1604496867.0184,-48
1604496867.0204,-81
1604496867.0224,-72
1604496867.0244,-19
1604496867.4626,-52
1604496867.4634,-79
1604496867.4658,-33
1604496867.4685,-26
1604496867.4704,-45
1604496867.4724,-7
1604496867.4744,21
1604496867.4764,-28
1604496867.4784,-57
1604496867.4790,-16
1604496867.4805,-7
1604496867.4824,-4
1604496867.4844,16
1604496867.4864,-7
1604496867.4885,-55
1604496867.4904,-67
1604496867.4924,-52
1604496867.4944,-40
1604496867.4964,-19
1604496867.4984,2
1604496867.5004,16
1604496867.5025,48
1604496867.5044,36
1604496867.5064,-19
1604496867.5086,-33
1604496867.5093,-21
1604496867.5104,-14
1604496867.5123,-19
1604496867.5143,-21
1604496867.5163,0
1604496867.5184,2
1604496867.5204,-2
1604496867.5223,16
1604496867.5243,14
1604496867.5264,-76
1604496867.5283,-177
1604496867.5303,-57
1604496867.5323,374
1604496867.5343,857
1604496867.5363,917
1604496867.5383,268
1604496867.5390,-499
1604496867.5403,-480
1604496867.5423,-74
1604496867.5443,-52
1604496867.5463,-88
1604496867.5483,31
1604496867.5503,16
1604496867.5523,-28
1604496867.5543,26
1604496867.5563,31
1604496867.5583,14
1604496867.5604,69
1604496867.5624,84
1604496867.5643,43
1604496867.5663,50
1604496867.5683,91
1604496867.5690,110
1604496867.5703,112
1604496867.5723,120
1604496867.5743,160
1604496867.5763,194
1604496867.5783,199
1604496867.5804,220
1604496867.5823,232
1604496867.5844,213
1604496867.5863,182
1604496867.5883,134
1604496867.5903,112
1604496867.5923,112
1604496867.5943,64
1604496867.5963,24
1604496867.5983,7
1604496868.0327,-60
1604496868.0337,-93
1604496868.0363,-52
1604496868.0387,-50
1604496868.0407,-100
1604496868.0427,-117
1604496868.0449,-91
1604496868.0468,-84
1604496868.0487,-81
1604496868.0506,-72
1604496868.0526,-52
1604496868.0546,-26
1604496868.0567,-48
1604496868.0586,-81
1604496868.0593,-50
1604496868.0606,-31
1604496868.0626,-69
1604496868.0646,-69
1604496868.0667,-16
1604496868.0687,9
1604496868.0706,-2
1604496868.0726,-2
1604496868.0746,19
1604496868.0766,50
1604496868.0787,57
1604496868.0806,7
1604496868.0826,-60
1604496868.0846,-103
1604496868.0867,-120
1604496868.0873,-79
1604496868.0886,-26
1604496868.0906,14
1604496868.0926,26
1604496868.0946,-16
1604496868.0967,-36
1604496868.0986,-7
1604496868.1006,24
1604496868.1026,43
1604496868.1046,16
1604496868.1066,-14
1604496868.1086,-7
1604496868.1106,-9
1604496868.1127,-36
1604496868.1146,-38
1604496868.1166,-31
1604496868.1172,-45
1604496868.1190,-105
1604496868.1206,-93
1604496868.1226,206
1604496868.1246,667
1604496868.1266,888
1604496868.1286,501
1604496868.1306,-302
1604496868.1328,-585
1604496868.1347,-244
1604496868.1366,-98
1604496868.1386,-139
1604496868.1406,-26
1604496868.1426,26
1604496868.1446,-40
1604496868.1466,-21
1604496868.1472,50
1604496868.1486,31
1604496868.1506,-2
1604496868.1526,24
1604496868.1546,50
1604496868.1566,72
1604496868.1586,81
1604496868.1606,38
1604496868.1626,40
1604496868.1646,115
1604496868.1666,156
1604496868.1686,168
1604496868.5725,211
1604496868.5734,204
1604496868.5757,163
1604496868.5784,194
1604496868.5804,201
1604496868.5824,148
1604496868.5844,124
1604496868.5864,86
1604496868.5884,21
1604496868.5904,-12
1604496868.5926,-31
1604496868.5944,-86
1604496868.5964,-108
1604496868.5984,-88
1604496868.6003,-105
1604496868.6024,-117
1604496868.6043,-86
1604496868.6050,-86
1604496868.6063,-105
1604496868.6084,-86
1604496868.6104,-88
1604496868.6124,-96
1604496868.6144,-50
1604496868.6163,-45
1604496868.6183,-98
1604496868.6204,-98
1604496868.6224,-52
1604496868.6244,-21
1604496868.6264,-21
1604496868.6283,-48
1604496868.6304,-50
1604496868.6325,-64
1604496868.6344,-93
1604496868.6349,-45
1604496868.6363,4
1604496868.6384,-52
1604496868.6403,-86
1604496868.6423,-43
1604496868.6443,-19
1604496868.6463,-31
1604496868.6483,-24
1604496868.6503,-7
1604496868.6523,-14
1604496868.6544,-16
1604496868.6563,0
1604496868.6583,0
1604496868.6603,-16
1604496868.6623,-38
1604496868.6643,-52
1604496868.6650,-40
1604496868.6663,-38
1604496868.6683,-50
1604496868.6705,-28
1604496868.6724,-7
1604496868.6743,-24
1604496868.6763,-38
1604496868.6783,-62
1604496868.6804,-103
1604496868.6824,-74
1604496868.6844,129
1604496868.6863,535
1604496868.6883,883
1604496868.6904,621
1604496868.6923,-201
1604496868.6944,-588
1604496868.6950,-244
1604496868.6964,-60
1604496868.6983,-199
1604496868.7004,-141
1604496868.7023,-4
1604496868.7043,-19
1604496868.7063,-48
1604496868.7083,-28
1604496869.1122,-7
1604496869.1132,4
1604496869.1145,2
1604496869.1162,16
1604496869.1182,84
1604496869.1202,132
1604496869.1222,86
1604496869.1242,16
1604496869.1249,48
1604496869.1265,110
1604496869.1282,120
1604496869.1302,132
1604496869.1322,153
1604496869.1341,153
