,hr,rr,ecg,gsr,temperature
1602839206.5896,59.0,998.0,7447.0,447.0000000000001,36.13
1602839206.5922,59.0,998.0,8536.0,447.0000000000001,36.13
1602839206.5948,59.0,998.0,9398.0,447.0000000000001,36.13
1602839206.5969,59.0,998.0,9967.0,447.0000000000001,36.13
1602839206.5983,59.0,998.0,10572.0,447.0000000000001,36.13
1602839206.6002,59.0,998.0,11117.0,447.0000000000001,36.13
1602839206.6022,59.0,998.0,11507.0,447.0000000000001,36.13
1602839206.6042,59.0,998.0,11889.0,447.0000000000001,36.13
1602839206.6062,59.0,998.0,12267.0,447.0000000000001,36.13
1602839206.6086,59.0,998.0,12541.0,447.0000000000001,36.13
1602839206.6106,59.0,998.0,12773.0,447.0000000000001,36.13
1602839206.6127,59.0,998.0,13022.0,447.0000000000001,36.13
1602839206.6147,59.0,998.0,13235.0,447.0000000000001,36.13
1602839206.6169,59.0,998.0,13410.0,447.0000000000001,36.13
1602839206.6187,59.0,998.0,13565.0,447.0000000000001,36.13
1602839206.6202,59.0,998.0,13700.0,447.0000000000001,36.13
1602839206.6222,59.0,998.0,13819.0,447.0000000000001,36.13
1602839206.6242,59.0,998.0,13928.0,447.0000000000001,36.13
1602839206.6262,59.0,998.0,14027.0,447.0000000000001,36.13
1602839206.6282,59.0,998.0,14117.0,447.0000000000001,36.13
1602839206.6302,59.0,998.0,14184.0,447.0000000000001,36.13
1602839206.6322,59.0,998.0,14226.0,447.0000000000001,36.13
1602839206.6342,59.0,998.0,14272.0,447.0000000000001,36.13
1602839206.6361,59.0,998.0,14325.0,447.0000000000001,36.13
1602839206.6382,59.0,998.0,14359.0,447.0000000000001,36.13
1602839206.6402,59.0,998.0,14368.0,447.0000000000001,36.13
1602839206.6423,59.0,998.0,14398.0,447.0000000000001,36.13
1602839206.6442,59.0,998.0,14429.0,447.0000000000001,36.13
1602839206.6462,59.0,998.0,14434.0,447.0000000000001,36.13
1602839206.6482,59.0,998.0,14414.0,447.0000000000001,36.13
1602839206.6501,59.0,998.0,14398.0,447.0000000000001,36.13
1602839206.6521,59.0,998.0,14400.0,447.0000000000001,36.13
1602839206.6541,59.0,998.0,14390.0,447.0000000000001,36.13
1602839206.6561,59.0,998.0,14330.0,447.0000000000001,36.13
1602839206.6582,59.0,998.0,14281.0,447.0000000000001,36.13
1602839206.6601,59.0,998.0,14284.0,447.0000000000001,36.13
1602839206.6621,59.0,998.0,14260.0,447.0000000000001,36.13
1602839206.6641,59.0,998.0,14189.0,447.0000000000001,36.13
1602839206.6661,59.0,998.0,14141.0,447.0000000000001,36.13
1602839206.6682,59.0,998.0,14124.0,447.0000000000001,36.13
1602839206.6701,59.0,998.0,14083.0,447.0000000000001,36.13
1602839206.6722,59.0,998.0,14005.0,447.0000000000001,36.13
1602839206.6741,59.0,998.0,13954.0,447.0000000000001,36.13
1602839206.6761,59.0,998.0,14010.0,447.0000000000001,36.13
1602839206.6781,59.0,998.0,14216.0,447.0000000000001,36.13
1602839206.6802,59.0,998.0,14349.0,447.0000000000001,36.13
1602839206.6821,59.0,998.0,13913.0,447.0000000000001,36.13
1602839206.6841,59.0,998.0,13148.0,447.0000000000001,36.13
1602839206.6861,59.0,998.0,13056.0,447.0000000000001,36.13
1602839206.6881,59.0,998.0,13475.0,447.0000000000001,36.13
1602839206.6908,59.0,998.0,13478.0,446.99999999993605,36.13
1602839206.6921,59.0,998.0,13294.0,446.99999999993605,36.13
1602839206.6941,59.0,998.0,13323.0,446.99999999993605,36.13
1602839206.6961,59.0,998.0,13284.0,446.99999999993605,36.13
1602839206.6981,59.0,998.0,13141.0,446.99999999993605,36.13
1602839206.7001,59.0,998.0,13083.0,446.99999999993605,36.13
1602839206.7021,59.0,998.0,13034.0,446.99999999993605,36.13
1602839206.7041,59.0,998.0,12930.0,446.99999999993605,36.13
1602839206.7061,59.0,998.0,12850.0,446.99999999993605,36.13
1602839206.7081,59.0,998.0,12780.0,446.99999999993605,36.13
1602839206.7101,59.0,998.0,12671.0,446.99999999993605,36.13
1602839206.7121,59.0,998.0,12584.0,446.99999999993605,36.13
1602839206.7141,59.0,998.0,12528.0,446.99999999993605,36.13
1602839206.7161,59.0,998.0,12436.0,446.99999999993605,36.13
1602839206.7181,59.0,998.0,12323.0,446.99999999993605,36.13
1602839206.72,59.0,998.0,12245.0,446.99999999993605,36.13
1602839206.722,59.0,998.0,12175.0,446.99999999993605,36.13
1602839206.7241,59.0,998.0,12085.0,446.99999999993605,36.13
1602839206.7261,59.0,998.0,12001.0,446.99999999993605,36.13
1602839206.7281,59.0,998.0,11906.0,446.99999999993605,36.13
1602839206.7301,59.0,998.0,11809.0,446.99999999993605,36.13
1602839206.732,59.0,998.0,11737.0,446.99999999993605,36.13
1602839206.734,59.0,998.0,11659.0,446.99999999993605,36.13
1602839207.1265,59.0,1075.0,11560.0,446.99999999993605,36.13
1602839207.1273,59.0,1075.0,11470.0,446.99999999993605,36.13
1602839207.1297,59.0,1075.0,11395.0,446.99999999993605,36.13
1602839207.1324,59.0,1075.0,11299.0,446.99999999993605,36.13
1602839207.1343,59.0,1075.0,11194.0,446.99999999993605,36.13
1602839207.1363,59.0,1075.0,11127.0,446.99999999993605,36.13
1602839207.1384,59.0,1075.0,11056.0,446.99999999993605,36.13
1602839207.1405,59.0,1075.0,10940.0,446.99999999993605,36.13
1602839207.1424,59.0,1075.0,10841.0,446.99999999993605,36.13
1602839207.1444,59.0,1075.0,10783.0,446.99999999993605,36.13
1602839207.1464,59.0,1075.0,10672.0,446.99999999993605,36.13
1602839207.1485,59.0,1075.0,10509.0,446.99999999993605,36.13
1602839207.1504,59.0,1075.0,10429.0,446.99999999993605,36.13
1602839207.1524,59.0,1075.0,10364.0,446.99999999993605,36.13
1602839207.1544,59.0,1075.0,10199.0,446.99999999993605,36.13
1602839207.1565,59.0,1075.0,10061.0,446.99999999993605,36.13
1602839207.1583,59.0,1075.0,9994.0,446.99999999993605,36.13
1602839207.1603,59.0,1075.0,9890.0,446.99999999993605,36.13
1602839207.1623,59.0,1075.0,9766.0,446.99999999993605,36.13
1602839207.1644,59.0,1075.0,9686.0,446.99999999993605,36.13
1602839207.1719,59.0,1075.0,9592.0,446.99999999993605,36.13
1602839207.1733,59.0,1075.0,9466.0,446.99999999993605,36.13
1602839207.1753,59.0,1075.0,9386.0,446.99999999993605,36.13
1602839207.1775,59.0,1075.0,9333.0,446.98586946066854,36.13
1602839207.1794,59.0,1075.0,9241.0,446.973180813163,36.13
1602839207.1813,59.0,1075.0,9141.0,446.961904928293,36.13
1602839207.1832,59.0,1075.0,9057.0,446.95201267693193,36.13
1602839207.1853,59.0,1075.0,8962.0,446.94347492995337,36.13
1602839207.1875,59.0,1075.0,8885.0,446.93626255823074,36.13
1602839207.1893,59.0,1075.0,8807.0,446.9303464326376,36.13
1602839207.1914,59.0,1075.0,8701.0,446.9256974240474,36.13
1602839207.1934,59.0,1075.0,8611.0,446.9222864033337,36.13
1602839207.1953,59.0,1075.0,8546.0,446.9200842413699,36.13
1602839207.1975,59.0,1075.0,8456.0,446.9190618090296,36.13
1602839207.1994,59.0,1075.0,8359.0,446.91918997718625,36.13
1602839207.2013,59.0,1075.0,8280.0,446.9204396167133,36.13
1602839207.2032,59.0,1075.0,8202.0,446.9227815984843,36.13
1602839207.2053,59.0,1075.0,8117.0,446.92618679337266,36.13
1602839207.2074,59.0,1075.0,8033.0,446.93062607225204,36.13
1602839207.2092,59.0,1075.0,7943.0,446.93607030599577,36.13
1602839207.2112,59.0,1075.0,7870.0,446.94249036547745,36.13
1602839207.2133,59.0,1075.0,7795.0,446.9498571215706,36.13
1602839207.2152,59.0,1075.0,7684.0,446.95814144514856,36.13
1602839207.2173,59.0,1075.0,7599.0,446.96731420708494,36.13
1602839207.2193,59.0,1075.0,7539.0,446.9773462782532,36.13
1602839207.2214,59.0,1075.0,7447.0,446.9882085295269,36.13
1602839207.2234,59.0,1075.0,7360.0,446.99987183177944,36.13
1602839207.2254,59.0,1075.0,7297.0,447.0123070558844,36.13
1602839207.2274,59.0,1075.0,7224.0,447.0254850727152,36.13
1602839207.2293,59.0,1075.0,7137.0,447.03937675314535,36.13
1602839207.2313,59.0,1075.0,7057.0,447.0539529680484,36.13
1602839207.2332,59.0,1075.0,6982.0,447.0691845882978,36.13
1602839207.2352,59.0,1075.0,6904.0,447.08504248476703,36.13
1602839207.2373,59.0,1075.0,6824.0,447.1014975283296,36.13
1602839207.2392,59.0,1075.0,6762.0,447.1185205898591,36.13
1602839207.2412,59.0,1075.0,6703.0,447.13608254022887,36.13
1602839207.2433,59.0,1075.0,6626.0,447.1541542503125,36.13
1602839207.2453,59.0,1075.0,6534.0,447.17270659098347,36.13
1602839207.2473,59.0,1075.0,6461.0,447.19171043311525,36.13
1602839207.2492,59.0,1075.0,6410.0,447.2111366475813,36.13
1602839207.2512,59.0,1075.0,6345.0,447.23095610525525,36.13
1602839207.2532,59.0,1075.0,6260.0,447.2511396770105,36.13
1602839207.2552,59.0,1075.0,6188.0,447.27165823372053,36.13
1602839207.2574,59.0,1075.0,6132.0,447.29248264625886,36.13
1602839207.2593,59.0,1075.0,6069.0,447.31358378549896,36.13
1602839207.2613,59.0,1075.0,5999.0,447.3349325223144,36.13
1602839207.2633,59.0,1075.0,5934.0,447.3564997275786,36.13
1602839207.2653,59.0,1075.0,5875.0,447.37825627216506,36.13
1602839207.2673,59.0,1075.0,5825.0,447.4001730269473,36.13
1602839207.2693,59.0,1075.0,5769.0,447.42222086279884,36.13
1602839207.2714,59.0,1075.0,5701.0,447.44437065059316,36.13
1602839207.2732,59.0,1075.0,5638.0,447.46659326120374,36.13
1602839207.2752,59.0,1075.0,5573.0,447.4888595655041,36.13
1602839207.6967,59.0,1075.0,5503.0,447.51114043436763,36.13
1602839207.6975,59.0,1075.0,5440.0,447.53340673866796,36.13
1602839207.6999,59.0,1075.0,5374.0,447.55562934927855,36.13
1602839207.7025,59.0,1075.0,5302.0,447.57777913707287,36.13
1602839207.7046,59.0,1075.0,5239.0,447.5998269729244,36.13
1602839207.7066,59.0,1075.0,5198.0,447.6217437277067,36.13
1602839207.7089,59.0,1075.0,5154.0,447.64350027229324,36.13
1602839207.7106,59.0,1075.0,5084.0,447.66506747755744,36.13
1602839207.7126,59.0,1075.0,5001.0,447.6864162143729,36.13
1602839207.7146,59.0,1075.0,4951.0,447.70751735361307,36.13
1602839207.7165,59.0,1075.0,4922.0,447.7283417661514,36.13
1602839207.7185,59.0,1075.0,4997.0,447.74886032286145,36.13
1602839207.7205,59.0,1075.0,5231.0,447.7690438946167,36.13
1602839207.7225,59.0,1075.0,5258.0,447.7888633522906,36.13
1602839207.7245,59.0,1075.0,4631.0,447.8082895667567,36.13
1602839207.7265,59.0,1075.0,3987.0,447.82729340888847,36.13
1602839207.7285,59.0,1075.0,4190.0,447.84584574955943,36.13
1602839207.7305,59.0,1075.0,4585.0,447.86391745964306,36.13
1602839207.7325,59.0,1075.0,4491.0,447.88147941001284,36.13
1602839207.7345,59.0,1075.0,4386.0,447.8985024715423,36.13
1602839207.7364,59.0,1075.0,4437.0,447.9149575151049,36.13
1602839207.7385,59.0,1075.0,4379.0,447.93081541157414,36.13
1602839207.7405,59.0,1075.0,4292.0,447.9460470318236,36.13
1602839207.7425,59.0,1075.0,4270.0,447.96062324672664,36.13
1602839207.7445,59.0,1075.0,4234.0,447.9745149271568,36.13
1602839207.7465,59.0,1075.0,4173.0,447.9876929439876,36.13
1602839207.7485,59.0,1075.0,4130.0,448.00012816809254,36.13
1602839207.7505,59.0,1075.0,4086.0,448.0117914703451,36.13
1602839207.7525,59.0,1075.0,4035.0,448.0226537216188,36.13
1602839207.7545,59.0,1075.0,3999.0,448.03268579278705,36.13
1602839207.7565,59.0,1075.0,3963.0,448.04185855472343,36.13
1602839207.7585,59.0,1075.0,3912.0,448.0501428783014,36.13
1602839207.7605,59.0,1075.0,3873.0,448.0575096343945,36.13
1602839207.7625,59.0,1075.0,3839.0,448.06392969387616,36.13
1602839207.7645,59.0,1075.0,3786.0,448.06937392761995,36.13
1602839207.7665,59.0,1075.0,3740.0,448.07381320649927,36.13
1602839207.7685,59.0,1075.0,3711.0,448.0772184013877,36.13
1602839207.7704,59.0,1075.0,3677.0,448.0795603831587,36.13
1602839207.7725,59.0,1075.0,3638.0,448.08081002268574,36.13
1602839207.7744,59.0,1075.0,3604.0,448.08093819084235,36.13
1602839207.7765,59.0,1075.0,3571.0,448.07991575850207,36.13
1602839207.7785,59.0,1075.0,3532.0,448.0777135965383,36.13
1602839207.7805,59.0,1075.0,3498.0,448.07430257582456,36.13
1602839207.7825,59.0,1075.0,3464.0,448.06965356723435,36.13
1602839207.7844,59.0,1075.0,3433.0,448.06373744164125,36.13
1602839207.7865,59.0,1075.0,3401.0,448.0565250699186,36.13
1602839207.7885,59.0,1075.0,3370.0,448.04798732294006,36.13
1602839207.7904,59.0,1075.0,3333.0,448.038095071579,36.13
1602839207.7925,59.0,1075.0,3295.0,448.02681918670896,36.13
1602839207.7945,59.0,1075.0,3253.0,448.01413053920345,36.13
1602839207.7965,59.0,1075.0,3212.0,447.99999999993594,36.13
1602839207.7985,59.0,1075.0,3171.0,447.99999999993594,36.13
1602839207.8004,59.0,1075.0,3132.0,447.99999999993594,36.13
1602839207.8024,59.0,1075.0,3086.0,447.99999999993594,36.13
1602839207.8045,59.0,1075.0,3036.0,447.99999999993594,36.13
1602839207.8064,59.0,1075.0,2985.0,447.99999999993594,36.13
1602839207.8085,59.0,1075.0,2939.0,447.99999999993594,36.13
1602839207.8106,59.0,1075.0,2898.0,447.99999999993594,36.13
1602839207.8125,59.0,1075.0,2854.0,447.99999999993594,36.13
1602839207.8145,59.0,1075.0,2815.0,447.99999999993594,36.13
1602839207.8165,59.0,1075.0,2781.0,447.99999999993594,36.13
1602839207.8185,59.0,1075.0,2750.0,447.99999999993594,36.13
1602839207.8204,59.0,1075.0,2721.0,447.99999999993594,36.13
1602839207.8225,59.0,1075.0,2694.0,447.99999999993594,36.13
1602839207.8245,59.0,1075.0,2670.0,447.99999999993594,36.13
1602839207.8265,59.0,1075.0,2648.0,447.99999999993594,36.13
1602839207.8285,59.0,1075.0,2624.0,447.99999999993594,36.13
1602839207.8305,59.0,1075.0,2597.0,447.99999999993594,36.13
1602839207.8324,59.0,1075.0,2573.0,447.99999999993594,36.13
1602839207.8345,59.0,1075.0,2551.0,447.99999999993594,36.13
1602839207.8364,59.0,1075.0,2525.0,447.99999999993594,36.13
1602839207.8385,59.0,1075.0,2498.0,447.99999999993594,36.13
1602839207.8405,59.0,1075.0,2474.0,447.99999999993594,36.13
1602839208.236,59.0,1042.0,2440.0,447.99999999993594,36.13
1602839208.2368,59.0,1042.0,2408.0,447.99999999993594,36.13
1602839208.2392,59.0,1042.0,2392.0,447.99999999993594,36.13
1602839208.2418,59.0,1042.0,2370.0,447.99999999993594,36.13
1602839208.2438,59.0,1042.0,2341.0,447.99999999993594,36.13
1602839208.2458,59.0,1042.0,2316.0,447.99999999993594,36.13
1602839208.2478,59.0,1042.0,2292.0,447.99999999993594,36.13
1602839208.2498,59.0,1042.0,2268.0,447.99999999993594,36.13
1602839208.2518,59.0,1042.0,2234.0,447.99999999993594,36.13
1602839208.2538,59.0,1042.0,2198.0,447.99999999993594,36.13
1602839208.2558,59.0,1042.0,2176.0,447.99999999993594,36.13
1602839208.2578,59.0,1042.0,2164.0,447.99999999993594,36.13
1602839208.2597,59.0,1042.0,2135.0,447.99999999993594,36.13
1602839208.2617,59.0,1042.0,2111.0,447.99999999993594,36.13
1602839208.2637,59.0,1042.0,2096.0,447.99999999993594,36.13
1602839208.2657,59.0,1042.0,2074.0,447.99999999993594,36.13
1602839208.2678,59.0,1042.0,2053.0,447.99999999993594,36.13
1602839208.2697,59.0,1042.0,2028.0,447.99999999993594,36.13
1602839208.2717,59.0,1042.0,2004.0,447.99999999993594,36.13
1602839208.2737,59.0,1042.0,1985.0,447.99999999993594,36.13
1602839208.2757,59.0,1042.0,1968.0,447.99999999993594,36.13
1602839208.2777,59.0,1042.0,1948.0,447.99999999993594,36.13
1602839208.2797,59.0,1042.0,1932.0,447.99999999993594,36.13
1602839208.2817,59.0,1042.0,1915.0,447.99999999993594,36.13
1602839208.2837,59.0,1042.0,1893.0,447.99999999993594,36.13
1602839208.2857,59.0,1042.0,1869.0,447.99999999993594,36.13
1602839208.2877,59.0,1042.0,1844.0,447.99999999993594,36.13
1602839208.2897,59.0,1042.0,1823.0,447.99999999993594,36.13
1602839208.2917,59.0,1042.0,1808.0,447.99999999993594,36.13
1602839208.2937,59.0,1042.0,1791.0,447.99999999993594,36.13
1602839208.2957,59.0,1042.0,1772.0,447.99999999993594,36.13
1602839208.2978,59.0,1042.0,1752.0,447.99999999993594,36.13
1602839208.2997,59.0,1042.0,1728.0,447.99999999993594,36.13
1602839208.3017,59.0,1042.0,1711.0,447.99999999993594,36.13
1602839208.3037,59.0,1042.0,1699.0,447.99999999993594,36.13
1602839208.3059,59.0,1042.0,1682.0,447.99999999993594,36.13
1602839208.3078,59.0,1042.0,1660.0,447.99999999993594,36.13
1602839208.3097,59.0,1042.0,1646.0,447.99999999993594,36.13
1602839208.3117,59.0,1042.0,1634.0,447.99999999993594,36.13
1602839208.3137,59.0,1042.0,1619.0,447.99999999993594,36.13
1602839208.3157,59.0,1042.0,1600.0,447.99999999993594,36.13
1602839208.3178,59.0,1042.0,1585.0,447.99999999993594,36.13
1602839208.3197,59.0,1042.0,1576.0,447.99999999993594,36.13
1602839208.3217,59.0,1042.0,1559.0,447.99999999993594,36.13
1602839208.3237,59.0,1042.0,1539.0,447.99999999993594,36.13
1602839208.3258,59.0,1042.0,1525.0,447.99999999993594,36.13
1602839208.3278,59.0,1042.0,1518.0,447.99999999993594,36.13
1602839208.3297,59.0,1042.0,1515.0,447.99999999993594,36.13
1602839208.3317,59.0,1042.0,1515.0,447.99999999993594,36.13
1602839208.3337,59.0,1042.0,1508.0,447.99999999993594,36.13
1602839208.3357,59.0,1042.0,1484.0,447.99999999993594,36.13
1602839208.3377,59.0,1042.0,1459.0,447.99999999993594,36.13
1602839208.3397,59.0,1042.0,1447.0,447.99999999993594,36.13
1602839208.3417,59.0,1042.0,1440.0,447.99999999993594,36.13
1602839208.3438,59.0,1042.0,1416.0,447.99999999993594,36.13
1602839208.3457,59.0,1042.0,1389.0,447.99999999993594,36.13
1602839208.3478,59.0,1042.0,1372.0,447.99999999993594,36.13
1602839208.3497,59.0,1042.0,1363.0,447.99999999993594,36.13
1602839208.3517,59.0,1042.0,1353.0,447.99999999993594,36.13
1602839208.3537,59.0,1042.0,1338.0,447.99999999993594,36.13
1602839208.3557,59.0,1042.0,1329.0,447.99999999993594,36.13
1602839208.3578,59.0,1042.0,1321.0,447.99999999993594,36.13
1602839208.3597,59.0,1042.0,1309.0,447.99999999993594,36.13
1602839208.3617,59.0,1042.0,1312.0,447.99999999993594,36.13
1602839208.3637,59.0,1042.0,1442.0,447.99999999993594,36.13
1602839208.3657,59.0,1042.0,1714.0,447.99999999993594,36.13
1602839208.3678,59.0,1042.0,1748.0,447.99999999993594,36.13
1602839208.3697,59.0,1042.0,1188.0,447.99999999993594,36.13
1602839208.3717,59.0,1042.0,670.0,447.99999999993594,36.13
1602839208.3737,59.0,1042.0,915.0,447.99999999993594,36.13
1602839208.3757,59.0,1042.0,1275.0,447.99999999993594,36.13
1602839208.3778,59.0,1042.0,1203.0,447.99999999993594,36.13
1602839208.3797,59.0,1042.0,1142.0,447.99999999993594,36.13
1602839208.8069,59.0,1042.0,1225.0,447.99999999993594,36.13
1602839208.8077,59.0,1042.0,1203.0,447.99999999993594,36.13
1602839208.8105,59.0,1042.0,1154.0,447.99999999993594,36.13
1602839208.8128,59.0,1042.0,1174.0,447.99999999993594,36.13
1602839208.8148,59.0,1042.0,1174.0,447.99999999993594,36.13
1602839208.8168,59.0,1042.0,1140.0,447.99999999993594,36.13
1602839208.8188,59.0,1042.0,1123.0,447.99999999993594,36.13
1602839208.8208,59.0,1042.0,1125.0,447.99999999993594,36.13
1602839208.8227,59.0,1042.0,1118.0,447.99999999993594,36.13
1602839208.8248,59.0,1042.0,1104.0,447.99999999993594,36.13
1602839208.8268,59.0,1042.0,1099.0,447.99999999993594,36.13
1602839208.8287,59.0,1042.0,1096.0,447.99999999993594,36.13
1602839208.8307,59.0,1042.0,1089.0,447.99999999993594,36.13
1602839208.8329,59.0,1042.0,1077.0,447.99999999993594,36.13
1602839208.8348,59.0,1042.0,1072.0,447.99999999993594,36.13
1602839208.8367,59.0,1042.0,1072.0,447.99999999993594,36.13
1602839208.8387,59.0,1042.0,1065.0,447.99999999993594,36.13
1602839208.8407,59.0,1042.0,1055.0,447.99999999993594,36.13
1602839208.8428,59.0,1042.0,1045.0,447.99999999993594,36.13
1602839208.8447,59.0,1042.0,1036.0,447.99999999993594,36.13
1602839208.8467,59.0,1042.0,1028.0,447.99999999993594,36.13
1602839208.8488,59.0,1042.0,1028.0,447.99999999993594,36.13
1602839208.8507,59.0,1042.0,1024.0,447.99999999993594,36.13
1602839208.8527,59.0,1042.0,1014.0,447.99999999993594,36.13
1602839208.8547,59.0,1042.0,1012.0,447.99999999993594,36.13
1602839208.8568,59.0,1042.0,1009.0,447.99999999993594,36.13
1602839208.8587,59.0,1042.0,1002.0,447.99999999993594,36.13
1602839208.8607,59.0,1042.0,999.0,447.99999999993594,36.13
1602839208.8627,59.0,1042.0,990.0,447.99999999993594,36.13
1602839208.8647,59.0,1042.0,973.0,447.99999999993594,36.13
1602839208.8668,59.0,1042.0,961.0,447.99999999993594,36.13
1602839208.8687,59.0,1042.0,953.0,447.99999999993594,36.13
1602839208.8707,59.0,1042.0,939.0,447.99999999993594,36.13
1602839208.8727,59.0,1042.0,920.0,447.99999999993594,36.13
1602839208.8747,59.0,1042.0,903.0,447.99999999993594,36.13
1602839208.8767,59.0,1042.0,886.0,447.99999999993594,36.13
1602839208.8787,59.0,1042.0,864.0,447.99999999993594,36.13
1602839208.8807,59.0,1042.0,842.0,447.99999999993594,36.13
1602839208.8828,59.0,1042.0,830.0,447.99999999993594,36.13
1602839208.8847,59.0,1042.0,818.0,447.99999999993594,36.13
1602839208.8867,59.0,1042.0,801.0,447.99999999993594,36.13
1602839208.8887,59.0,1042.0,786.0,447.99999999993594,36.13
1602839208.8907,59.0,1042.0,786.0,447.99999999993594,36.13
1602839208.8927,59.0,1042.0,784.0,447.99999999993594,36.13
1602839208.8947,59.0,1042.0,777.0,447.99999999993594,36.13
1602839208.8967,59.0,1042.0,769.0,447.99999999993594,36.13
1602839208.8987,59.0,1042.0,772.0,447.99999999993594,36.13
1602839208.9007,59.0,1042.0,769.0,447.99999999993594,36.13
1602839208.9027,59.0,1042.0,762.0,447.99999999993594,36.13
1602839208.9047,59.0,1042.0,760.0,447.99999999993594,36.13
1602839208.9067,59.0,1042.0,760.0,447.99999999993594,36.13
1602839208.9087,59.0,1042.0,757.0,447.99999999993594,36.13
1602839208.9107,59.0,1042.0,750.0,447.99999999993594,36.13
1602839208.9127,59.0,1042.0,745.0,447.99999999993594,36.13
1602839208.9147,59.0,1042.0,738.0,447.99999999993594,36.13
1602839208.9167,59.0,1042.0,728.0,447.99999999993594,36.13
1602839208.9187,59.0,1042.0,721.0,447.99999999993594,36.13
1602839208.9207,59.0,1042.0,721.0,447.99999999993594,36.13
1602839208.9227,59.0,1042.0,719.0,447.99999999993594,36.13
1602839208.9247,59.0,1042.0,711.0,447.99999999993594,36.13
1602839208.9268,59.0,1042.0,699.0,447.99999999993594,36.13
1602839208.9287,59.0,1042.0,692.0,447.99999999993594,36.13
1602839208.9307,59.0,1042.0,692.0,447.99999999993594,36.13
1602839208.9327,59.0,1042.0,690.0,447.99999999993594,36.13
1602839208.9349,59.0,1042.0,680.0,447.99999999993594,36.13
1602839208.9367,59.0,1042.0,673.0,447.99999999993594,36.13
1602839208.9387,59.0,1042.0,670.0,447.99999999993594,36.13
1602839208.9407,59.0,1042.0,665.0,447.99999999993594,36.13
1602839208.9427,59.0,1042.0,658.0,447.99999999993594,36.13
1602839208.9447,59.0,1042.0,656.0,447.99999999993594,36.13
1602839208.9467,59.0,1042.0,656.0,447.99999999993594,36.13
1602839208.9487,59.0,1042.0,646.0,447.99999999993594,36.13
1602839208.9507,59.0,1042.0,639.0,447.99999999993594,36.13
1602839209.3765,59.0,938.0,639.0,447.99999999993594,36.13
1602839209.3774,59.0,938.0,639.0,447.99999999993594,36.13
1602839209.3798,59.0,938.0,631.0,447.99999999993594,36.13
1602839209.3824,59.0,938.0,624.0,447.99999999993594,36.13
1602839209.3844,59.0,938.0,614.0,447.99999999993594,36.13
1602839209.3864,59.0,938.0,607.0,447.99999999993594,36.13
1602839209.3884,59.0,938.0,598.0,447.99999999993594,36.13
1602839209.3904,59.0,938.0,585.0,447.99999999993594,36.13
1602839209.3925,59.0,938.0,581.0,447.99999999993594,36.13
1602839209.3944,59.0,938.0,578.0,447.99999999993594,36.13
1602839209.3964,59.0,938.0,571.0,447.99999999993594,36.13
1602839209.3984,59.0,938.0,566.0,447.99999999993594,36.13
1602839209.4004,59.0,938.0,561.0,447.99999999993594,36.13
1602839209.4024,59.0,938.0,549.0,447.99999999993594,36.13
1602839209.4044,59.0,938.0,542.0,447.99999999993594,36.13
1602839209.4064,59.0,938.0,537.0,447.99999999993594,36.13
1602839209.4084,59.0,938.0,530.0,447.99999999993594,36.13
1602839209.4103,59.0,938.0,530.0,447.99999999993594,36.13
1602839209.4123,59.0,938.0,525.0,447.99999999993594,36.13
1602839209.4143,59.0,938.0,520.0,447.99999999993594,36.13
1602839209.4163,59.0,938.0,522.0,447.99999999993594,36.13
1602839209.4184,59.0,938.0,522.0,447.99999999993594,36.13
1602839209.4203,59.0,938.0,513.0,447.99999999993594,36.13
1602839209.4223,59.0,938.0,508.0,447.99999999993594,36.13
1602839209.4243,59.0,938.0,513.0,447.99999999993594,36.13
1602839209.4264,59.0,938.0,510.0,447.99999999993594,36.13
1602839209.4284,59.0,938.0,506.0,447.99999999993594,36.13
1602839209.4303,59.0,938.0,503.0,447.99999999993594,36.13
1602839209.4324,59.0,938.0,503.0,447.99999999993594,36.13
1602839209.4343,59.0,938.0,501.0,447.99999999993594,36.13
1602839209.4364,59.0,938.0,493.0,447.99999999993594,36.13
1602839209.4383,59.0,938.0,491.0,447.99999999993594,36.13
1602839209.4403,59.0,938.0,493.0,447.99999999993594,36.13
1602839209.4423,59.0,938.0,496.0,447.99999999993594,36.13
1602839209.4443,59.0,938.0,501.0,447.99999999993594,36.13
1602839209.4464,59.0,938.0,520.0,447.99999999993594,36.13
1602839209.4484,59.0,938.0,520.0,447.99999999993594,36.13
1602839209.4504,59.0,938.0,503.0,447.99999999993594,36.13
1602839209.4524,59.0,938.0,493.0,447.99999999993594,36.13
1602839209.4543,59.0,938.0,489.0,447.99999999993594,36.13
1602839209.4564,59.0,938.0,484.0,447.99999999993594,36.13
1602839209.4584,59.0,938.0,479.0,447.99999999993594,36.13
1602839209.4605,59.0,938.0,469.0,447.99999999993594,36.13
1602839209.4624,59.0,938.0,469.0,447.99999999993594,36.13
1602839209.4643,59.0,938.0,476.0,447.99999999993594,36.13
1602839209.4664,59.0,938.0,476.0,447.99999999993594,36.13
1602839209.4683,59.0,938.0,464.0,447.99999999993594,36.13
1602839209.4703,59.0,938.0,460.0,447.99999999993594,36.13
1602839209.4724,59.0,938.0,472.0,447.99999999993594,36.13
1602839209.4744,59.0,938.0,462.0,447.99999999993594,36.13
1602839209.4764,59.0,938.0,496.0,447.99999999993594,36.13
1602839209.4784,59.0,938.0,699.0,447.99999999993594,36.13
1602839209.4804,59.0,938.0,961.0,447.99999999993594,36.13
1602839209.4823,59.0,938.0,820.0,447.99999999993594,36.13
1602839209.4844,59.0,938.0,213.0,447.99999999993594,36.13
1602839209.4863,59.0,938.0,-58.0,447.99999999993594,36.13
1602839209.4883,59.0,938.0,300.0,447.99999999993594,36.13
1602839209.4903,59.0,938.0,508.0,447.99999999993594,36.13
1602839209.4924,59.0,938.0,401.0,447.99999999993594,36.13
1602839209.4943,59.0,938.0,418.0,447.99999999993594,36.13
1602839209.4963,59.0,938.0,481.0,447.99999999993594,36.13
1602839209.4984,59.0,938.0,445.0,447.99999999993594,36.13
1602839209.5003,59.0,938.0,435.0,447.99999999993594,36.13
1602839209.5023,59.0,938.0,462.0,447.99999999993594,36.13
1602839209.5043,59.0,938.0,455.0,447.99999999993594,36.13
1602839209.5063,59.0,938.0,443.0,447.99999999993594,36.13
1602839209.5084,59.0,938.0,452.0,447.99999999993594,36.13
1602839209.5104,59.0,938.0,455.0,447.99999999993594,36.13
1602839209.5124,59.0,938.0,450.0,447.99999999993594,36.13
1602839209.5143,59.0,938.0,452.0,447.99999999993594,36.13
1602839209.5164,59.0,938.0,455.0,447.99999999993594,36.13
1602839209.5184,59.0,938.0,457.0,447.99999999993594,36.13
1602839209.5203,59.0,938.0,457.0,447.99999999993594,36.13
1602839209.9468,59.0,895.0,443.0,447.99999999993594,36.13
1602839209.9477,59.0,895.0,438.0,447.99999999993594,36.13
1602839209.9488,59.0,895.0,447.0,447.99999999993594,36.13
1602839209.9508,59.0,895.0,443.0,447.99999999993594,36.13
1602839209.9528,59.0,895.0,418.0,447.99999999993594,36.13
1602839209.9548,59.0,895.0,411.0,447.99999999993594,36.13
1602839209.9568,59.0,895.0,416.0,447.99999999993594,36.13
1602839209.9588,59.0,895.0,416.0,447.99999999993594,36.13
1602839209.9607,59.0,895.0,411.0,447.99999999993594,36.13
1602839209.9627,59.0,895.0,418.0,447.99999999993594,36.13
1602839209.9647,59.0,895.0,433.0,447.99999999993594,36.13
1602839209.9667,59.0,895.0,428.0,447.99999999993594,36.13
1602839209.9687,59.0,895.0,426.0,447.99999999993594,36.13
1602839209.9707,59.0,895.0,435.0,447.99999999993594,36.13
1602839209.9727,59.0,895.0,435.0,447.99999999993594,36.13
1602839209.9747,59.0,895.0,428.0,447.99999999993594,36.13
1602839209.9767,59.0,895.0,430.0,447.99999999993594,36.13
1602839209.9787,59.0,895.0,430.0,447.99999999993594,36.13
1602839209.9807,59.0,895.0,421.0,447.99999999993594,36.13
1602839209.9827,59.0,895.0,418.0,447.99999999993594,36.13
1602839209.9848,59.0,895.0,423.0,447.99999999993594,36.13
1602839209.9867,59.0,895.0,411.0,447.99999999993594,36.13
1602839209.9887,59.0,895.0,380.0,447.99999999993594,36.13
1602839209.9907,59.0,895.0,334.0,447.99999999993594,36.13
1602839209.9926,59.0,895.0,309.0,447.99999999993594,36.13
1602839209.9947,59.0,895.0,307.0,447.99999999993594,36.13
1602839209.9967,59.0,895.0,305.0,447.99999999993594,36.13
1602839209.9987,59.0,895.0,292.0,447.99999999993594,36.13
1602839210.0007,59.0,895.0,285.0,447.99999999993594,36.13
1602839210.0027,59.0,895.0,290.0,447.99999999993594,36.13
1602839210.0047,59.0,895.0,297.0,447.99999999993594,36.13
1602839210.0067,59.0,895.0,300.0,447.99999999993594,36.13
1602839210.0087,59.0,895.0,307.0,447.99999999993594,36.13
1602839210.0107,59.0,895.0,312.0,447.99999999993594,36.13
1602839210.0126,59.0,895.0,309.0,447.99999999993594,36.13
1602839210.0146,59.0,895.0,305.0,447.99999999993594,36.13
1602839210.0167,59.0,895.0,309.0,447.99999999993594,36.13
1602839210.0187,59.0,895.0,314.0,447.99999999993594,36.13
1602839210.0206,59.0,895.0,309.0,447.99999999993594,36.13
1602839210.0227,59.0,895.0,300.0,447.99999999993594,36.13
1602839210.0246,59.0,895.0,305.0,447.99999999993594,36.13
1602839210.0267,59.0,895.0,317.0,447.99999999993594,36.13
1602839210.0287,59.0,895.0,314.0,447.99999999993594,36.13
1602839210.0307,59.0,895.0,309.0,447.99999999993594,36.13
1602839210.0326,59.0,895.0,307.0,447.99999999993594,36.13
1602839210.0346,59.0,895.0,307.0,447.99999999993594,36.13
1602839210.0366,59.0,895.0,307.0,447.99999999993594,36.13
1602839210.0387,59.0,895.0,312.0,447.99999999993594,36.13
1602839210.0406,59.0,895.0,314.0,447.99999999993594,36.13
1602839210.0427,59.0,895.0,307.0,447.99999999993594,36.13
1602839210.0447,59.0,895.0,290.0,447.99999999993594,36.13
1602839210.0466,59.0,895.0,271.0,447.99999999993594,36.13
1602839210.0486,59.0,895.0,278.0,447.99999999993594,36.13
1602839210.0506,59.0,895.0,288.0,447.99999999993594,36.13
1602839210.0527,59.0,895.0,280.0,447.99999999993594,36.13
1602839210.0548,59.0,895.0,283.0,447.99999999993594,36.13
1602839210.0567,59.0,895.0,295.0,447.99999999993594,36.13
1602839210.0587,59.0,895.0,280.0,447.99999999993594,36.13
1602839210.0607,59.0,895.0,266.0,447.99999999993594,36.13
1602839210.0627,59.0,895.0,278.0,447.99999999993594,36.13
1602839210.0647,59.0,895.0,288.0,447.99999999993594,36.13
1602839210.0667,59.0,895.0,278.0,447.99999999993594,36.13
1602839210.0687,59.0,895.0,271.0,447.99999999993594,36.13
1602839210.0707,59.0,895.0,280.0,447.99999999993594,36.13
1602839210.0727,59.0,895.0,276.0,447.99999999993594,36.13
1602839210.0747,59.0,895.0,261.0,447.99999999993594,36.13
1602839210.0767,59.0,895.0,261.0,447.99999999993594,36.13
1602839210.0787,59.0,895.0,271.0,447.99999999993594,36.13
1602839210.0807,59.0,895.0,268.0,447.99999999993594,36.13
1602839210.0827,59.0,895.0,259.0,447.99999999993594,36.13
1602839210.0847,59.0,895.0,256.0,447.99999999993594,36.13
1602839210.0868,59.0,895.0,249.0,447.99999999993594,36.13
1602839210.0887,59.0,895.0,237.0,447.99999999993594,36.13
1602839210.5164,59.0,895.0,244.0,447.99999999993594,36.13
1602839210.5172,59.0,895.0,254.0,447.99999999993594,36.13
1602839210.5196,59.0,895.0,246.0,447.99999999993594,36.13
1602839210.5223,59.0,895.0,239.0,447.99999999993594,36.13
1602839210.5243,59.0,895.0,249.0,447.99999999993594,36.13
1602839210.5263,59.0,895.0,251.0,447.99999999993594,36.13
1602839210.5283,59.0,895.0,244.0,447.99999999993594,36.13
1602839210.5303,59.0,895.0,239.0,447.99999999993594,36.13
1602839210.5322,59.0,895.0,242.0,447.99999999993594,36.13
1602839210.5343,59.0,895.0,234.0,447.99999999993594,36.13
1602839210.5363,59.0,895.0,227.0,447.99999999993594,36.13
1602839210.5382,59.0,895.0,225.0,447.99999999993594,36.13
1602839210.5402,59.0,895.0,222.0,447.99999999993594,36.13
1602839210.5422,59.0,895.0,227.0,447.99999999993594,36.13
1602839210.5442,59.0,895.0,237.0,447.99999999993594,36.13
1602839210.5462,59.0,895.0,239.0,447.99999999993594,36.13
1602839210.5482,59.0,895.0,232.0,447.99999999993594,36.13
1602839210.5502,59.0,895.0,234.0,447.99999999993594,36.13
1602839210.5522,59.0,895.0,242.0,447.99999999993594,36.13
1602839210.5542,59.0,895.0,251.0,447.99999999993594,36.13
1602839210.5562,59.0,895.0,266.0,447.99999999993594,36.13
1602839210.5582,59.0,895.0,273.0,447.99999999993594,36.13
1602839210.5602,59.0,895.0,259.0,447.99999999993594,36.13
1602839210.5623,59.0,895.0,237.0,448.01413053920345,36.13
1602839210.5642,59.0,895.0,249.0,448.02681918670896,36.13
1602839210.5662,59.0,895.0,268.0,448.038095071579,36.13
1602839210.5683,59.0,895.0,256.0,448.04798732294006,36.13
1602839210.5702,59.0,895.0,225.0,448.0565250699186,36.13
1602839210.5722,59.0,895.0,215.0,448.06373744164125,36.13
1602839210.5742,59.0,895.0,225.0,448.06965356723435,36.13
1602839210.5762,59.0,895.0,234.0,448.07430257582456,36.13
1602839210.5782,59.0,895.0,232.0,448.0777135965383,36.13
1602839210.5802,59.0,895.0,227.0,448.07991575850207,36.13
1602839210.5822,59.0,895.0,232.0,448.08093819084235,36.13
1602839210.5842,59.0,895.0,227.0,448.08081002268574,36.13
1602839210.5862,59.0,895.0,222.0,448.0795603831587,36.13
1602839210.5882,59.0,895.0,309.0,448.0772184013877,36.13
1602839210.5901,59.0,895.0,549.0,448.07381320649927,36.13
1602839210.5922,59.0,895.0,704.0,448.06937392761995,36.13
1602839210.5942,59.0,895.0,389.0,448.06392969387616,36.13
1602839210.5962,59.0,895.0,-145.0,448.0575096343945,36.13
1602839210.5982,59.0,895.0,-152.0,448.0501428783014,36.13
1602839210.6002,59.0,895.0,205.0,448.04185855472343,36.13
1602839210.6022,59.0,895.0,268.0,448.03268579278705,36.13
1602839210.6042,59.0,895.0,186.0,448.0226537216188,36.13
1602839210.6062,59.0,895.0,244.0,448.0117914703451,36.13
1602839210.6082,59.0,895.0,276.0,448.00012816809254,36.13
1602839210.6102,59.0,895.0,227.0,447.9876929439876,36.13
1602839210.6122,59.0,895.0,230.0,447.9745149271568,36.13
1602839210.6143,59.0,895.0,251.0,447.96062324672664,36.13
1602839210.6162,59.0,895.0,244.0,447.9460470318236,36.13
1602839210.6182,59.0,895.0,242.0,447.93081541157414,36.13
1602839210.6202,59.0,895.0,256.0,447.9149575151049,36.13
1602839210.6222,59.0,895.0,261.0,447.8985024715423,36.13
1602839210.6242,59.0,895.0,249.0,447.88147941001284,36.13
1602839210.6262,59.0,895.0,242.0,447.86391745964306,36.13
1602839210.6282,59.0,895.0,251.0,447.84584574955943,36.13
1602839210.6302,59.0,895.0,259.0,447.82729340888847,36.13
1602839210.6322,59.0,895.0,261.0,447.8082895667567,36.13
1602839210.6342,59.0,895.0,261.0,447.7888633522906,36.13
1602839210.6362,59.0,895.0,259.0,447.7690438946167,36.13
1602839210.6382,59.0,895.0,266.0,447.74886032286145,36.13
1602839210.6402,59.0,895.0,271.0,447.7283417661514,36.13
1602839210.6422,59.0,895.0,261.0,447.70751735361307,36.13
1602839210.6442,59.0,895.0,249.0,447.6864162143729,36.13
1602839210.6462,59.0,895.0,263.0,447.66506747755744,36.13
1602839210.6482,59.0,895.0,280.0,447.64350027229324,36.13
1602839210.6502,59.0,895.0,280.0,447.6217437277067,36.13
1602839210.6522,59.0,895.0,278.0,447.5998269729244,36.13
1602839210.6542,59.0,895.0,283.0,447.57777913707287,36.13
1602839210.6562,59.0,895.0,290.0,447.55562934927855,36.13
1602839210.6582,59.0,895.0,295.0,447.53340673866796,36.13
1602839210.6602,59.0,895.0,290.0,447.51114043436763,36.13
1602839211.0562,60.0,992.0,288.0,447.4888595655041,36.13
1602839211.057,60.0,992.0,292.0,447.46659326120374,36.13
1602839211.0595,60.0,992.0,300.0,447.44437065059316,36.13
1602839211.0621,60.0,992.0,302.0,447.42222086279884,36.13
1602839211.0641,60.0,992.0,283.0,447.4001730269473,36.13
1602839211.0662,60.0,992.0,256.0,447.37825627216506,36.13
1602839211.0681,60.0,992.0,244.0,447.3564997275786,36.13
1602839211.07,60.0,992.0,242.0,447.3349325223144,36.13
1602839211.0721,60.0,992.0,227.0,447.31358378549896,36.13
1602839211.0741,60.0,992.0,198.0,447.29248264625886,36.13
1602839211.0762,60.0,992.0,171.0,447.27165823372053,36.13
1602839211.078,60.0,992.0,167.0,447.2511396770105,36.13
1602839211.0801,60.0,992.0,167.0,447.23095610525525,36.13
1602839211.0821,60.0,992.0,159.0,447.2111366475813,36.13
1602839211.084,60.0,992.0,142.0,447.19171043311525,36.13
1602839211.086,60.0,992.0,140.0,447.17270659098347,36.13
1602839211.0881,60.0,992.0,150.0,447.1541542503125,36.13
1602839211.09,60.0,992.0,157.0,447.13608254022887,36.13
1602839211.092,60.0,992.0,162.0,447.1185205898591,36.13
1602839211.094,60.0,992.0,159.0,447.1014975283296,36.13
1602839211.096,60.0,992.0,154.0,447.08504248476703,36.13
1602839211.098,60.0,992.0,152.0,447.0691845882978,36.13
1602839211.1,60.0,992.0,159.0,447.0539529680484,36.13
1602839211.1007,60.0,992.0,167.0,447.03937675314535,36.13
1602839211.1021,60.0,992.0,176.0,447.0254850727152,36.13
1602839211.104,60.0,992.0,184.0,447.0123070558844,36.13
1602839211.106,60.0,992.0,179.0,446.99987183177944,36.13
1602839211.1082,60.0,992.0,174.0,446.9882085295269,36.13
1602839211.1101,60.0,992.0,181.0,446.9773462782532,36.13
1602839211.1121,60.0,992.0,179.0,446.96731420708494,36.13
1602839211.114,60.0,992.0,174.0,446.95814144514856,36.13
1602839211.116,60.0,992.0,174.0,446.9498571215706,36.13
1602839211.118,60.0,992.0,171.0,446.94249036547745,36.13
1602839211.12,60.0,992.0,162.0,446.93607030599577,36.13
1602839211.122,60.0,992.0,162.0,446.93062607225204,36.13
1602839211.124,60.0,992.0,167.0,446.92618679337266,36.13
1602839211.126,60.0,992.0,174.0,446.9227815984843,36.13
1602839211.128,60.0,992.0,171.0,446.9204396167133,36.13
1602839211.13,60.0,992.0,162.0,446.91918997718625,36.13
1602839211.1307,60.0,992.0,162.0,446.9190618090296,36.13
1602839211.132,60.0,992.0,157.0,446.9200842413699,36.13
1602839211.134,60.0,992.0,152.0,446.9222864033337,36.13
1602839211.136,60.0,992.0,157.0,446.9256974240474,36.13
1602839211.1381,60.0,992.0,167.0,446.9303464326376,36.13
1602839211.14,60.0,992.0,171.0,446.93626255823074,36.13
1602839211.1421,60.0,992.0,171.0,446.94347492995337,36.13
1602839211.144,60.0,992.0,167.0,446.95201267693193,36.13
1602839211.146,60.0,992.0,162.0,446.961904928293,36.13
1602839211.148,60.0,992.0,167.0,446.973180813163,36.13
1602839211.15,60.0,992.0,174.0,446.98586946066854,36.13
1602839211.152,60.0,992.0,171.0,446.99999999993605,36.13
1602839211.154,60.0,992.0,162.0,446.99999999993605,36.13
1602839211.156,60.0,992.0,162.0,446.99999999993605,36.13
1602839211.158,60.0,992.0,159.0,446.99999999993605,36.13
1602839211.1587,60.0,992.0,157.0,446.99999999993605,36.13
1602839211.161,60.0,992.0,169.0,446.99999999993605,36.13
1602839211.163,60.0,992.0,169.0,446.99999999993605,36.13
1602839211.165,60.0,992.0,157.0,446.99999999993605,36.13
1602839211.1671,60.0,992.0,162.0,446.99999999993605,36.13
1602839211.169,60.0,992.0,167.0,446.99999999993605,36.13
1602839211.171,60.0,992.0,162.0,446.99999999993605,36.13
1602839211.173,60.0,992.0,157.0,446.99999999993605,36.13
1602839211.175,60.0,992.0,159.0,446.99999999993605,36.13
1602839211.1771,60.0,992.0,164.0,446.99999999993605,36.13
1602839211.179,60.0,992.0,164.0,446.99999999993605,36.13
1602839211.181,60.0,992.0,159.0,446.99999999993605,36.13
1602839211.183,60.0,992.0,167.0,446.99999999993605,36.13
1602839211.185,60.0,992.0,169.0,446.99999999993605,36.13
1602839211.1871,60.0,992.0,162.0,446.99999999993605,36.13
1602839211.189,60.0,992.0,174.0,446.99999999993605,36.13
1602839211.1897,60.0,992.0,186.0,446.99999999993605,36.13
1602839211.1911,60.0,992.0,176.0,446.99999999993605,36.13
1602839211.1931,60.0,992.0,159.0,446.99999999993605,36.13
1602839211.6265,60.0,992.0,167.0,446.99999999993605,36.13
1602839211.6276,60.0,992.0,179.0,446.99999999993605,36.13
1602839211.63,60.0,992.0,174.0,446.99999999993605,36.13
1602839211.6326,60.0,992.0,164.0,446.99999999993605,36.13
1602839211.6346,60.0,992.0,171.0,446.99999999993605,36.13
1602839211.637,60.0,992.0,174.0,446.99999999993605,36.13
1602839211.6387,60.0,992.0,167.0,446.99999999993605,36.13
1602839211.6406,60.0,992.0,164.0,446.99999999993605,36.13
1602839211.6426,60.0,992.0,176.0,446.99999999993605,36.13
1602839211.6446,60.0,992.0,196.0,446.99999999993605,36.13
1602839211.6452,60.0,992.0,181.0,446.99999999993605,36.13
1602839211.6467,60.0,992.0,159.0,446.99999999993605,36.13
1602839211.6485,60.0,992.0,157.0,446.99999999993605,36.13
1602839211.6506,60.0,992.0,159.0,446.99999999993605,36.13
1602839211.6525,60.0,992.0,157.0,446.99999999993605,36.13
1602839211.6545,60.0,992.0,154.0,446.99999999993605,36.13
1602839211.6565,60.0,992.0,152.0,446.99999999993605,36.13
1602839211.6585,60.0,992.0,152.0,446.99999999993605,36.13
1602839211.6605,60.0,992.0,152.0,446.99999999993605,36.13
1602839211.6625,60.0,992.0,150.0,446.99999999993605,36.13
1602839211.6645,60.0,992.0,154.0,446.99999999993605,36.13
1602839211.6665,60.0,992.0,162.0,446.99999999993605,36.13
1602839211.6686,60.0,992.0,167.0,446.99999999993605,36.13
1602839211.6706,60.0,992.0,159.0,446.99999999993605,36.13
1602839211.6725,60.0,992.0,200.0,446.99999999993605,36.13
1602839211.6746,60.0,992.0,392.0,446.99999999993605,36.13
1602839211.6753,60.0,992.0,622.0,446.99999999993605,36.13
1602839211.6776,60.0,992.0,476.0,446.99999999993605,36.13
1602839211.6796,60.0,992.0,-70.0,446.99999999993605,36.13
1602839211.6815,60.0,992.0,-288.0,446.99999999993605,36.13
1602839211.6835,60.0,992.0,33.0,446.99999999993605,36.13
1602839211.6855,60.0,992.0,210.0,446.99999999993605,36.13
1602839211.6876,60.0,992.0,130.0,446.99999999993605,36.13
1602839211.6895,60.0,992.0,154.0,446.99999999993605,36.13
1602839211.6915,60.0,992.0,205.0,446.99999999993605,36.13
1602839211.6935,60.0,992.0,169.0,446.99999999993605,36.13
1602839211.6955,60.0,992.0,162.0,446.99999999993605,36.13
1602839211.6976,60.0,992.0,181.0,446.99999999993605,36.13
1602839211.6995,60.0,992.0,171.0,446.99999999993605,36.13
1602839211.7015,60.0,992.0,167.0,446.99999999993605,36.13
1602839211.7035,60.0,992.0,186.0,446.99999999993605,36.13
1602839211.7055,60.0,992.0,191.0,446.99999999993605,36.13
1602839211.7062,60.0,992.0,181.0,446.99999999993605,36.13
1602839211.7076,60.0,992.0,181.0,446.99999999993605,36.13
1602839211.7095,60.0,992.0,184.0,446.99999999993605,36.13
1602839211.7115,60.0,992.0,186.0,446.99999999993605,36.13
1602839211.7135,60.0,992.0,193.0,446.99999999993605,36.13
1602839211.7155,60.0,992.0,198.0,446.99999999993605,36.13
1602839211.7175,60.0,992.0,198.0,446.99999999993605,36.13
1602839211.7196,60.0,992.0,188.0,446.99999999993605,36.13
1602839211.7215,60.0,992.0,186.0,446.99999999993605,36.13
1602839211.7235,60.0,992.0,191.0,446.99999999993605,36.13
1602839211.7255,60.0,992.0,196.0,446.99999999993605,36.13
1602839211.7276,60.0,992.0,196.0,446.99999999993605,36.13
1602839211.7295,60.0,992.0,205.0,446.99999999993605,36.13
1602839211.7315,60.0,992.0,220.0,446.99999999993605,36.13
1602839211.7337,60.0,992.0,227.0,446.99999999993605,36.13
1602839211.7356,60.0,992.0,227.0,446.99999999993605,36.13
1602839211.7362,60.0,992.0,232.0,446.99999999993605,36.13
1602839211.7375,60.0,992.0,232.0,446.99999999993605,36.13
1602839211.7395,60.0,992.0,227.0,446.99999999993605,36.13
1602839211.7415,60.0,992.0,232.0,446.99999999993605,36.13
1602839211.7435,60.0,992.0,239.0,446.99999999993605,36.13
1602839211.7455,60.0,992.0,237.0,446.99999999993605,36.13
1602839211.7476,60.0,992.0,232.0,446.99999999993605,36.13
1602839211.7495,60.0,992.0,222.0,446.99999999993605,36.13
1602839211.7515,60.0,992.0,215.0,446.99999999993605,36.13
1602839211.7535,60.0,992.0,205.0,446.99999999993605,36.13
1602839211.7555,60.0,992.0,196.0,446.99999999993605,36.13
1602839211.7576,60.0,992.0,171.0,446.99999999993605,36.13
1602839211.7595,60.0,992.0,145.0,446.99999999993605,36.13
1602839211.7615,60.0,992.0,130.0,446.99999999993605,36.13
1602839211.7635,60.0,992.0,125.0,446.99999999993605,36.13
1602839212.1664,61.0,1045.0,116.0,446.99999999993605,36.13
1602839212.1671,61.0,1045.0,108.0,446.99999999993605,36.13
1602839212.1695,61.0,1045.0,108.0,446.99999999993605,36.13
1602839212.1721,61.0,1045.0,104.0,446.99999999993605,36.13
1602839212.1741,61.0,1045.0,99.0,446.99999999993605,36.13
1602839212.1761,61.0,1045.0,101.0,446.99999999993605,36.13
1602839212.1782,61.0,1045.0,104.0,446.99999999993605,36.13
1602839212.1801,61.0,1045.0,104.0,446.99999999993605,36.13
1602839212.182,61.0,1045.0,92.0,446.99999999993605,36.13
1602839212.1841,61.0,1045.0,84.0,446.99999999993605,36.13
1602839212.1861,61.0,1045.0,94.0,446.99999999993605,36.13
1602839212.1881,61.0,1045.0,96.0,446.99999999993605,36.13
1602839212.19,61.0,1045.0,89.0,446.99999999993605,36.13
1602839212.192,61.0,1045.0,101.0,446.99999999993605,36.13
1602839212.1927,61.0,1045.0,111.0,446.99999999993605,36.13
1602839212.194,61.0,1045.0,106.0,446.99999999993605,36.13
1602839212.196,61.0,1045.0,106.0,446.99999999993605,36.13
1602839212.1981,61.0,1045.0,108.0,446.99999999993605,36.13
1602839212.2,61.0,1045.0,108.0,446.99999999993605,36.13
1602839212.2021,61.0,1045.0,108.0,446.99999999993605,36.13
1602839212.2041,61.0,1045.0,111.0,446.99999999993605,36.13
1602839212.2061,61.0,1045.0,113.0,446.99999999993605,36.13
1602839212.2081,61.0,1045.0,113.0,446.99999999993605,36.13
1602839212.21,61.0,1045.0,111.0,446.99999999993605,36.13
1602839212.212,61.0,1045.0,108.0,446.99999999993605,36.13
1602839212.214,61.0,1045.0,113.0,446.99999999993605,36.13
1602839212.216,61.0,1045.0,116.0,446.99999999993605,36.13
1602839212.2181,61.0,1045.0,113.0,446.99999999993605,36.13
1602839212.22,61.0,1045.0,113.0,446.99999999993605,36.13
1602839212.2221,61.0,1045.0,113.0,446.99999999993605,36.13
1602839212.2227,61.0,1045.0,108.0,446.99999999993605,36.13
1602839212.2241,61.0,1045.0,111.0,446.99999999993605,36.13
1602839212.2261,61.0,1045.0,113.0,446.99999999993605,36.13
1602839212.2281,61.0,1045.0,108.0,446.99999999993605,36.13
1602839212.2302,61.0,1045.0,106.0,446.99999999993605,36.13
1602839212.2321,61.0,1045.0,113.0,446.99999999993605,36.13
1602839212.234,61.0,1045.0,116.0,446.99999999993605,36.13
1602839212.236,61.0,1045.0,113.0,446.99999999993605,36.13
1602839212.2381,61.0,1045.0,116.0,446.99999999993605,36.13
1602839212.24,61.0,1045.0,113.0,446.99999999993605,36.13
1602839212.242,61.0,1045.0,113.0,446.99999999993605,36.13
1602839212.244,61.0,1045.0,113.0,446.99999999993605,36.13
1602839212.246,61.0,1045.0,106.0,446.99999999993605,36.13
1602839212.2481,61.0,1045.0,104.0,446.99999999993605,36.13
1602839212.2501,61.0,1045.0,111.0,446.99999999993605,36.13
1602839212.252,61.0,1045.0,118.0,446.99999999993605,36.13
1602839212.2527,61.0,1045.0,116.0,446.99999999993605,36.13
1602839212.2541,61.0,1045.0,113.0,446.99999999993605,36.13
1602839212.2561,61.0,1045.0,113.0,446.99999999993605,36.13
1602839212.2581,61.0,1045.0,113.0,446.99999999993605,36.13
1602839212.26,61.0,1045.0,113.0,446.99999999993605,36.13
1602839212.262,61.0,1045.0,118.0,446.99999999993605,36.13
1602839212.264,61.0,1045.0,118.0,446.99999999993605,36.13
1602839212.266,61.0,1045.0,118.0,446.99999999993605,36.13
1602839212.2681,61.0,1045.0,121.0,446.99999999993605,36.13
1602839212.27,61.0,1045.0,121.0,446.99999999993605,36.13
1602839212.272,61.0,1045.0,123.0,446.99999999993605,36.13
1602839212.2741,61.0,1045.0,125.0,446.99999999993605,36.13
1602839212.276,61.0,1045.0,125.0,446.99999999993605,36.13
1602839212.2781,61.0,1045.0,125.0,446.99999999993605,36.13
1602839212.28,61.0,1045.0,130.0,446.99999999993605,36.13
1602839212.282,61.0,1045.0,133.0,446.99999999993605,36.13
1602839212.2827,61.0,1045.0,130.0,446.99999999993605,36.13
1602839212.284,61.0,1045.0,125.0,446.99999999993605,36.13
1602839212.286,61.0,1045.0,128.0,446.99999999993605,36.13
1602839212.2882,61.0,1045.0,128.0,446.99999999993605,36.13
1602839212.29,61.0,1045.0,123.0,446.99999999993605,36.13
1602839212.292,61.0,1045.0,123.0,446.99999999993605,36.13
1602839212.294,61.0,1045.0,130.0,446.99999999993605,36.13
1602839212.2961,61.0,1045.0,138.0,446.99999999993605,36.13
1602839212.2981,61.0,1045.0,147.0,446.99999999993605,36.13
1602839212.3001,61.0,1045.0,157.0,446.99999999993605,36.13
1602839212.3021,61.0,1045.0,150.0,446.99999999993605,36.13
1602839212.7363,61.0,1045.0,140.0,446.99999999993605,36.13
1602839212.7371,61.0,1045.0,140.0,446.99999999993605,36.13
1602839212.7396,61.0,1045.0,142.0,446.99999999993605,36.13
1602839212.7421,61.0,1045.0,138.0,446.99999999993605,36.13
1602839212.7441,61.0,1045.0,125.0,446.99999999993605,36.13
1602839212.7462,61.0,1045.0,108.0,446.99999999993605,36.13
1602839212.7483,61.0,1045.0,99.0,446.99999999993605,36.13
1602839212.7501,61.0,1045.0,106.0,446.99999999993605,36.13
1602839212.7522,61.0,1045.0,118.0,446.99999999993605,36.13
1602839212.7541,61.0,1045.0,118.0,446.99999999993605,36.13
1602839212.7561,61.0,1045.0,113.0,446.99999999993605,36.13
1602839212.7581,61.0,1045.0,108.0,446.99999999993605,36.13
1602839212.7603,61.0,1045.0,106.0,446.99999999993605,36.13
1602839212.7621,61.0,1045.0,181.0,446.99999999993605,36.13
1602839212.7641,61.0,1045.0,426.0,446.99999999993605,36.13
1602839212.7661,61.0,1045.0,619.0,446.99999999993605,36.13
1602839212.7681,61.0,1045.0,319.0,446.99999999993605,36.13
1602839212.7701,61.0,1045.0,-268.0,446.99999999993605,36.13
1602839212.7721,61.0,1045.0,-319.0,446.99999999993605,36.13
1602839212.7741,61.0,1045.0,62.0,446.99999999993605,36.13
1602839212.7761,61.0,1045.0,154.0,446.99999999993605,36.13
1602839212.7781,61.0,1045.0,79.0,446.99999999993605,36.13
1602839212.7801,61.0,1045.0,135.0,446.99999999993605,36.13
1602839212.7821,61.0,1045.0,157.0,446.99999999993605,36.13
1602839212.7842,61.0,1045.0,118.0,446.99999999993605,36.13
1602839212.7861,61.0,1045.0,130.0,446.99999999993605,36.13
1602839212.7881,61.0,1045.0,150.0,446.99999999993605,36.13
1602839212.7901,61.0,1045.0,138.0,446.99999999993605,36.13
1602839212.7921,61.0,1045.0,135.0,446.99999999993605,36.13
1602839212.7941,61.0,1045.0,145.0,446.99999999993605,36.13
1602839212.7961,61.0,1045.0,147.0,446.99999999993605,36.13
1602839212.7981,61.0,1045.0,150.0,446.99999999993605,36.13
1602839212.8001,61.0,1045.0,150.0,446.99999999993605,36.13
1602839212.8021,61.0,1045.0,145.0,446.99999999993605,36.13
1602839212.8041,61.0,1045.0,145.0,446.99999999993605,36.13
1602839212.8061,61.0,1045.0,147.0,446.99999999993605,36.13
1602839212.8081,61.0,1045.0,152.0,446.99999999993605,36.13
1602839212.8101,61.0,1045.0,154.0,446.99999999993605,36.13
1602839212.812,61.0,1045.0,157.0,446.99999999993605,36.13
1602839212.8141,61.0,1045.0,159.0,446.99999999993605,36.13
1602839212.816,61.0,1045.0,164.0,446.99999999993605,36.13
1602839212.8181,61.0,1045.0,171.0,446.99999999993605,36.13
1602839212.8201,61.0,1045.0,181.0,446.99999999993605,36.13
1602839212.822,61.0,1045.0,188.0,446.99999999993605,36.13
1602839212.824,61.0,1045.0,186.0,446.99999999993605,36.13
1602839212.8261,61.0,1045.0,188.0,446.99999999993605,36.13
1602839212.8281,61.0,1045.0,193.0,446.99999999993605,36.13
1602839212.8301,61.0,1045.0,200.0,446.99999999993605,36.13
1602839212.8321,61.0,1045.0,203.0,446.99999999993605,36.13
1602839212.8341,61.0,1045.0,208.0,446.99999999993605,36.13
1602839212.8361,61.0,1045.0,213.0,446.99999999993605,36.13
1602839212.8381,61.0,1045.0,213.0,446.99999999993605,36.13
1602839212.84,61.0,1045.0,208.0,446.99999999993605,36.13
1602839212.8421,61.0,1045.0,210.0,446.99999999993605,36.13
1602839212.8441,61.0,1045.0,208.0,446.99999999993605,36.13
1602839212.8461,61.0,1045.0,188.0,446.99999999993605,36.13
1602839212.8481,61.0,1045.0,164.0,446.99999999993605,36.13
1602839212.85,61.0,1045.0,147.0,446.99999999993605,36.13
1602839212.8521,61.0,1045.0,128.0,446.99999999993605,36.13
1602839212.854,61.0,1045.0,108.0,446.99999999993605,36.13
1602839212.8561,61.0,1045.0,94.0,446.99999999993605,36.13
1602839212.8581,61.0,1045.0,82.0,446.99999999993605,36.13
1602839212.8601,61.0,1045.0,72.0,446.99999999993605,36.13
1602839212.8622,61.0,1045.0,62.0,446.99999999993605,36.13
1602839212.8641,61.0,1045.0,60.0,446.99999999993605,36.13
1602839212.8661,61.0,1045.0,67.0,446.99999999993605,36.13
1602839212.868,61.0,1045.0,70.0,446.99999999993605,36.13
1602839212.8701,61.0,1045.0,70.0,446.99999999993605,36.13
1602839212.872,61.0,1045.0,72.0,446.99999999993605,36.13
1602839212.874,61.0,1045.0,72.0,446.99999999993605,36.13
1602839212.876,61.0,1045.0,72.0,446.99999999993605,36.13
1602839212.8781,61.0,1045.0,75.0,446.99999999993605,36.13
1602839212.8801,61.0,1045.0,77.0,446.99999999993605,36.13
1602839213.336,61.0,1036.0,84.0,446.99999999993605,36.13
1602839213.3368,61.0,1036.0,92.0,446.99999999993605,36.13
1602839213.3393,61.0,1036.0,92.0,446.99999999993605,36.13
1602839213.3422,61.0,1036.0,87.0,446.99999999993605,36.13
1602839213.3439,61.0,1036.0,89.0,446.99999999993605,36.13
1602839213.3459,61.0,1036.0,96.0,446.99999999993605,36.13
1602839213.3479,61.0,1036.0,94.0,446.99999999993605,36.13
1602839213.3499,61.0,1036.0,84.0,446.99999999993605,36.13
1602839213.3519,61.0,1036.0,87.0,446.99999999993605,36.13
1602839213.3539,61.0,1036.0,89.0,446.99999999993605,36.13
1602839213.3559,61.0,1036.0,79.0,446.99999999993605,36.13
1602839213.3579,61.0,1036.0,75.0,446.99999999993605,36.13
1602839213.3599,61.0,1036.0,82.0,446.99999999993605,36.13
1602839213.3618,61.0,1036.0,84.0,446.99999999993605,36.13
1602839213.3638,61.0,1036.0,82.0,446.99999999993605,36.13
1602839213.3658,61.0,1036.0,84.0,446.99999999993605,36.13
1602839213.3679,61.0,1036.0,89.0,446.99999999993605,36.13
1602839213.3698,61.0,1036.0,92.0,446.99999999993605,36.13
1602839213.3719,61.0,1036.0,89.0,446.99999999993605,36.13
1602839213.3738,61.0,1036.0,84.0,446.99999999993605,36.13
1602839213.3758,61.0,1036.0,84.0,446.99999999993605,36.13
1602839213.3779,61.0,1036.0,94.0,446.99999999993605,36.13
1602839213.3798,61.0,1036.0,96.0,446.99999999993605,36.13
1602839213.3818,61.0,1036.0,89.0,446.99999999993605,36.13
1602839213.3838,61.0,1036.0,87.0,446.99999999993605,36.13
1602839213.3858,61.0,1036.0,92.0,446.99999999993605,36.13
1602839213.3878,61.0,1036.0,94.0,446.99999999993605,36.13
1602839213.3898,61.0,1036.0,87.0,446.99999999993605,36.13
1602839213.3918,61.0,1036.0,87.0,446.99999999993605,36.13
1602839213.3938,61.0,1036.0,94.0,446.99999999993605,36.13
1602839213.3958,61.0,1036.0,94.0,446.99999999993605,36.13
1602839213.3978,61.0,1036.0,94.0,446.99999999993605,36.13
1602839213.3998,61.0,1036.0,99.0,446.99999999993605,36.13
1602839213.4018,61.0,1036.0,101.0,446.99999999993605,36.13
1602839213.4038,61.0,1036.0,99.0,446.99999999993605,36.13
1602839213.4058,61.0,1036.0,99.0,446.99999999993605,36.13
1602839213.4078,61.0,1036.0,104.0,446.99999999993605,36.13
1602839213.4098,61.0,1036.0,108.0,446.99999999993605,36.13
1602839213.4118,61.0,1036.0,106.0,446.99999999993605,36.13
1602839213.4138,61.0,1036.0,104.0,446.99999999993605,36.13
1602839213.4158,61.0,1036.0,108.0,446.99999999993605,36.13
1602839213.418,61.0,1036.0,111.0,446.99999999993605,36.13
1602839213.4199,61.0,1036.0,108.0,446.99999999993605,36.13
1602839213.4218,61.0,1036.0,108.0,446.99999999993605,36.13
1602839213.4238,61.0,1036.0,111.0,446.99999999993605,36.13
1602839213.4259,61.0,1036.0,111.0,446.99999999993605,36.13
1602839213.4278,61.0,1036.0,113.0,446.99999999993605,36.13
1602839213.4298,61.0,1036.0,113.0,446.99999999993605,36.13
1602839213.4318,61.0,1036.0,111.0,446.99999999993605,36.13
1602839213.4338,61.0,1036.0,111.0,446.99999999993605,36.13
1602839213.4358,61.0,1036.0,108.0,446.99999999993605,36.13
1602839213.4378,61.0,1036.0,106.0,446.99999999993605,36.13
1602839213.4398,61.0,1036.0,108.0,446.99999999993605,36.13
1602839213.4418,61.0,1036.0,108.0,446.99999999993605,36.13
1602839213.4438,61.0,1036.0,118.0,446.99999999993605,36.13
1602839213.4458,61.0,1036.0,138.0,446.99999999993605,36.13
1602839213.4478,61.0,1036.0,147.0,446.99999999993605,36.13
1602839213.4498,61.0,1036.0,138.0,446.99999999993605,36.13
1602839213.4518,61.0,1036.0,130.0,446.99999999993605,36.13
1602839213.4538,61.0,1036.0,133.0,446.99999999993605,36.13
1602839213.4558,61.0,1036.0,130.0,446.99999999993605,36.13
1602839213.4578,61.0,1036.0,125.0,446.99999999993605,36.13
1602839213.4598,61.0,1036.0,121.0,446.99999999993605,36.13
1602839213.4618,61.0,1036.0,113.0,446.99999999993605,36.13
1602839213.4638,61.0,1036.0,108.0,446.99999999993605,36.13
1602839213.4658,61.0,1036.0,111.0,446.99999999993605,36.13
1602839213.4678,61.0,1036.0,113.0,446.99999999993605,36.13
1602839213.4698,61.0,1036.0,118.0,446.99999999993605,36.13
1602839213.4719,61.0,1036.0,123.0,446.99999999993605,36.13
1602839213.4738,61.0,1036.0,121.0,446.99999999993605,36.13
1602839213.4758,61.0,1036.0,113.0,446.99999999993605,36.13
1602839213.4778,61.0,1036.0,167.0,446.99999999993605,36.13
1602839213.4798,61.0,1036.0,377.0,446.99999999993605,36.13
1602839213.8764,61.0,1036.0,593.0,446.99999999993605,36.13
1602839213.8772,61.0,1036.0,377.0,446.99999999993605,36.13
1602839213.8797,61.0,1036.0,-213.0,446.99999999993605,36.13
1602839213.8823,61.0,1036.0,-360.0,446.99999999993605,36.13
1602839213.8842,61.0,1036.0,26.0,446.99999999993605,36.13
1602839213.8863,61.0,1036.0,176.0,446.99999999993605,36.13
1602839213.8884,61.0,1036.0,70.0,446.99999999993605,36.13
1602839213.8902,61.0,1036.0,101.0,446.99999999993605,36.13
1602839213.8922,61.0,1036.0,152.0,446.99999999993605,36.13
1602839213.8942,61.0,1036.0,121.0,446.99999999993605,36.13
1602839213.8962,61.0,1036.0,118.0,446.99999999993605,36.13
1602839213.8983,61.0,1036.0,130.0,446.99999999993605,36.13
1602839213.9002,61.0,1036.0,111.0,446.99999999993605,36.13
1602839213.9022,61.0,1036.0,106.0,446.99999999993605,36.13
1602839213.9042,61.0,1036.0,123.0,446.99999999993605,36.13
1602839213.9062,61.0,1036.0,125.0,446.99999999993605,36.13
1602839213.9083,61.0,1036.0,123.0,446.99999999993605,36.13
1602839213.9102,61.0,1036.0,125.0,446.99999999993605,36.13
1602839213.9122,61.0,1036.0,130.0,446.99999999993605,36.13
1602839213.9144,61.0,1036.0,125.0,446.99999999993605,36.13
1602839213.9163,61.0,1036.0,118.0,446.99999999993605,36.13
1602839213.9183,61.0,1036.0,125.0,446.99999999993605,36.13
1602839213.9202,61.0,1036.0,135.0,446.99999999993605,36.13
1602839213.9222,61.0,1036.0,135.0,446.99999999993605,36.13
1602839213.9242,61.0,1036.0,138.0,446.99999999993605,36.13
1602839213.9262,61.0,1036.0,152.0,446.99999999993605,36.13
1602839213.9282,61.0,1036.0,159.0,446.99999999993605,36.13
1602839213.9302,61.0,1036.0,154.0,446.99999999993605,36.13
1602839213.9322,61.0,1036.0,157.0,446.99999999993605,36.13
1602839213.9342,61.0,1036.0,169.0,446.99999999993605,36.13
1602839213.9362,61.0,1036.0,176.0,446.99999999993605,36.13
1602839213.9382,61.0,1036.0,174.0,446.99999999993605,36.13
1602839213.9402,61.0,1036.0,176.0,446.99999999993605,36.13
1602839213.9422,61.0,1036.0,191.0,446.99999999993605,36.13
1602839213.9442,61.0,1036.0,200.0,446.99999999993605,36.13
1602839213.9462,61.0,1036.0,196.0,446.99999999993605,36.13
1602839213.9482,61.0,1036.0,191.0,446.99999999993605,36.13
1602839213.9502,61.0,1036.0,188.0,446.99999999993605,36.13
1602839213.9522,61.0,1036.0,181.0,446.99999999993605,36.13
1602839213.9542,61.0,1036.0,174.0,446.99999999993605,36.13
1602839213.9562,61.0,1036.0,167.0,446.99999999993605,36.13
1602839213.9582,61.0,1036.0,152.0,446.99999999993605,36.13
1602839213.9602,61.0,1036.0,133.0,446.99999999993605,36.13
1602839213.9622,61.0,1036.0,111.0,446.99999999993605,36.13
1602839213.9642,61.0,1036.0,94.0,446.99999999993605,36.13
1602839213.9662,61.0,1036.0,82.0,446.99999999993605,36.13
1602839213.9682,61.0,1036.0,70.0,446.99999999993605,36.13
1602839213.9702,61.0,1036.0,62.0,446.99999999993605,36.13
1602839213.9722,61.0,1036.0,58.0,446.99999999993605,36.13
1602839213.9741,61.0,1036.0,55.0,446.99999999993605,36.13
1602839213.9762,61.0,1036.0,53.0,446.99999999993605,36.13
1602839213.9782,61.0,1036.0,50.0,446.99999999993605,36.13
1602839213.9802,61.0,1036.0,53.0,446.99999999993605,36.13
1602839213.9821,61.0,1036.0,62.0,446.99999999993605,36.13
1602839213.9842,61.0,1036.0,70.0,446.99999999993605,36.13
1602839213.9862,61.0,1036.0,65.0,446.99999999993605,36.13
1602839213.9882,61.0,1036.0,60.0,446.99999999993605,36.13
1602839213.9902,61.0,1036.0,62.0,446.99999999993605,36.13
1602839213.9922,61.0,1036.0,70.0,446.99999999993605,36.13
1602839213.9942,61.0,1036.0,72.0,446.99999999993605,36.13
1602839213.9962,61.0,1036.0,77.0,446.99999999993605,36.13
1602839213.9982,61.0,1036.0,77.0,446.99999999993605,36.13
1602839214.0001,61.0,1036.0,72.0,446.99999999993605,36.13
1602839214.0022,61.0,1036.0,79.0,446.99999999993605,36.13
1602839214.0041,61.0,1036.0,84.0,446.99999999993605,36.13
1602839214.0061,61.0,1036.0,82.0,446.99999999993605,36.13
1602839214.0082,61.0,1036.0,82.0,446.99999999993605,36.13
1602839214.0101,61.0,1036.0,84.0,446.99999999993605,36.13
1602839214.0121,61.0,1036.0,84.0,446.99999999993605,36.13
1602839214.0141,61.0,1036.0,82.0,446.99999999993605,36.13
1602839214.0163,61.0,1036.0,77.0,446.99999999993605,36.13
1602839214.0182,61.0,1036.0,77.0,446.99999999993605,36.13
1602839214.0202,61.0,1036.0,84.0,446.99999999993605,36.13
1602839214.4165,60.0,1057.0,82.0,446.99999999993605,36.13
1602839214.4174,60.0,1057.0,75.0,446.99999999993605,36.13
1602839214.4198,60.0,1057.0,70.0,446.99999999993605,36.13
1602839214.4224,60.0,1057.0,72.0,446.99999999993605,36.13
1602839214.4244,60.0,1057.0,82.0,446.99999999993605,36.13
1602839214.4264,60.0,1057.0,87.0,446.99999999993605,36.13
1602839214.4285,60.0,1057.0,82.0,446.99999999993605,36.13
1602839214.4304,60.0,1057.0,79.0,446.99999999993605,36.13
1602839214.4324,60.0,1057.0,79.0,446.99999999993605,36.13
1602839214.4344,60.0,1057.0,72.0,446.99999999993605,36.13
1602839214.4364,60.0,1057.0,67.0,446.99999999993605,36.13
1602839214.4384,60.0,1057.0,67.0,446.99999999993605,36.13
1602839214.4404,60.0,1057.0,60.0,446.99999999993605,36.13
1602839214.4424,60.0,1057.0,60.0,446.99999999993605,36.13
1602839214.4444,60.0,1057.0,67.0,446.99999999993605,36.13
1602839214.4464,60.0,1057.0,67.0,446.99999999993605,36.13
1602839214.4484,60.0,1057.0,67.0,446.99999999993605,36.13
1602839214.4504,60.0,1057.0,72.0,446.99999999993605,36.13
1602839214.4524,60.0,1057.0,75.0,446.99999999993605,36.13
1602839214.4544,60.0,1057.0,75.0,446.99999999993605,36.13
1602839214.4564,60.0,1057.0,77.0,446.99999999993605,36.13
1602839214.4584,60.0,1057.0,79.0,446.99999999993605,36.13
1602839214.4604,60.0,1057.0,82.0,446.99999999993605,36.13
1602839214.4624,60.0,1057.0,82.0,446.99999999993605,36.13
1602839214.4644,60.0,1057.0,75.0,446.99999999993605,36.13
1602839214.4664,60.0,1057.0,77.0,446.99999999993605,36.13
1602839214.4684,60.0,1057.0,87.0,446.99999999993605,36.13
1602839214.4704,60.0,1057.0,89.0,446.99999999993605,36.13
1602839214.4723,60.0,1057.0,89.0,446.99999999993605,36.13
1602839214.4743,60.0,1057.0,94.0,446.99999999993605,36.13
1602839214.4764,60.0,1057.0,92.0,446.99999999993605,36.13
1602839214.4784,60.0,1057.0,84.0,446.99999999993605,36.13
1602839214.4804,60.0,1057.0,84.0,446.99999999993605,36.13
1602839214.4823,60.0,1057.0,92.0,446.99999999993605,36.13
1602839214.4843,60.0,1057.0,96.0,446.99999999993605,36.13
1602839214.4863,60.0,1057.0,99.0,446.99999999993605,36.13
1602839214.4883,60.0,1057.0,96.0,446.99999999993605,36.13
1602839214.4904,60.0,1057.0,94.0,446.99999999993605,36.13
1602839214.4923,60.0,1057.0,96.0,446.99999999993605,36.13
1602839214.4943,60.0,1057.0,89.0,446.99999999993605,36.13
1602839214.4963,60.0,1057.0,87.0,446.99999999993605,36.13
1602839214.4983,60.0,1057.0,99.0,446.99999999993605,36.13
1602839214.5003,60.0,1057.0,108.0,446.99999999993605,36.13
1602839214.5023,60.0,1057.0,111.0,446.99999999993605,36.13
1602839214.5043,60.0,1057.0,128.0,446.99999999993605,36.13
1602839214.5063,60.0,1057.0,133.0,446.99999999993605,36.13
1602839214.5084,60.0,1057.0,121.0,446.99999999993605,36.13
1602839214.5103,60.0,1057.0,113.0,446.99999999993605,36.13
1602839214.5125,60.0,1057.0,118.0,446.99999999993605,36.13
1602839214.5145,60.0,1057.0,116.0,446.99999999993605,36.13
1602839214.5163,60.0,1057.0,101.0,446.99999999993605,36.13
1602839214.5184,60.0,1057.0,94.0,446.99999999993605,36.13
1602839214.5204,60.0,1057.0,94.0,446.99999999993605,36.13
1602839214.5223,60.0,1057.0,99.0,446.99999999993605,36.13
1602839214.5243,60.0,1057.0,101.0,446.99999999993605,36.13
1602839214.5263,60.0,1057.0,96.0,446.99999999993605,36.13
1602839214.5283,60.0,1057.0,99.0,446.99999999993605,36.13
1602839214.5303,60.0,1057.0,104.0,446.99999999993605,36.13
1602839214.5323,60.0,1057.0,96.0,446.99999999993605,36.13
1602839214.5343,60.0,1057.0,118.0,446.99999999993605,36.13
1602839214.5363,60.0,1057.0,271.0,446.99999999993605,36.13
1602839214.5384,60.0,1057.0,522.0,446.99999999993605,36.13
1602839214.5403,60.0,1057.0,513.0,446.99999999993605,36.13
1602839214.5423,60.0,1057.0,2.0,446.99999999993605,36.13
1602839214.5443,60.0,1057.0,-394.0,446.99999999993605,36.13
1602839214.5464,60.0,1057.0,-140.0,446.99999999993605,36.13
1602839214.5483,60.0,1057.0,147.0,446.99999999993605,36.13
1602839214.5503,60.0,1057.0,84.0,446.99999999993605,36.13
1602839214.5523,60.0,1057.0,67.0,446.99999999993605,36.13
1602839214.5543,60.0,1057.0,138.0,446.99999999993605,36.13
1602839214.5563,60.0,1057.0,116.0,446.99999999993605,36.13
1602839214.5584,60.0,1057.0,89.0,446.99999999993605,36.13
1602839214.5603,60.0,1057.0,113.0,446.99999999993605,36.13
1602839214.9863,60.0,1061.0,118.0,446.99999999993605,36.13
1602839214.9871,60.0,1061.0,106.0,446.99999999993605,36.13
1602839214.9895,60.0,1061.0,111.0,446.99999999993605,36.13
1602839214.9922,60.0,1061.0,121.0,446.99999999993605,36.13
1602839214.9941,60.0,1061.0,116.0,446.99999999993605,36.13
1602839214.9962,60.0,1061.0,101.0,446.99999999993605,36.13
1602839214.9982,60.0,1061.0,94.0,446.99999999993605,36.13
1602839215.0001,60.0,1061.0,101.0,446.99999999993605,36.13
1602839215.0021,60.0,1061.0,106.0,446.99999999993605,36.13
1602839215.0041,60.0,1061.0,104.0,446.99999999993605,36.13
1602839215.0062,60.0,1061.0,106.0,446.99999999993605,36.13
1602839215.0081,60.0,1061.0,118.0,446.99999999993605,36.13
1602839215.0101,60.0,1061.0,121.0,446.99999999993605,36.13
1602839215.0121,60.0,1061.0,118.0,446.99999999993605,36.13
1602839215.0141,60.0,1061.0,123.0,446.99999999993605,36.13
1602839215.0161,60.0,1061.0,135.0,446.99999999993605,36.13
1602839215.0181,60.0,1061.0,145.0,446.99999999993605,36.13
1602839215.0201,60.0,1061.0,147.0,446.99999999993605,36.13
1602839215.0221,60.0,1061.0,147.0,446.99999999993605,36.13
1602839215.0241,60.0,1061.0,150.0,446.99999999993605,36.13
1602839215.0261,60.0,1061.0,154.0,446.99999999993605,36.13
1602839215.0281,60.0,1061.0,159.0,446.99999999993605,36.13
1602839215.03,60.0,1061.0,167.0,446.99999999993605,36.13
1602839215.032,60.0,1061.0,167.0,447.01413053920356,36.13
1602839215.0341,60.0,1061.0,164.0,447.02681918670913,36.13
1602839215.0361,60.0,1061.0,169.0,447.03809507157916,36.13
1602839215.0383,60.0,1061.0,169.0,447.04798732294023,36.13
1602839215.0401,60.0,1061.0,162.0,447.0565250699188,36.13
1602839215.042,60.0,1061.0,154.0,447.0637374416414,36.13
1602839215.044,60.0,1061.0,145.0,447.0696535672345,36.13
1602839215.046,60.0,1061.0,125.0,447.07430257582473,36.13
1602839215.0481,60.0,1061.0,106.0,447.07771359653844,36.13
1602839215.05,60.0,1061.0,92.0,447.0799157585022,36.13
1602839215.052,60.0,1061.0,75.0,447.0809381908425,36.13
1602839215.0541,60.0,1061.0,58.0,447.0808100226859,36.13
1602839215.056,60.0,1061.0,46.0,447.0795603831588,36.13
1602839215.058,60.0,1061.0,38.0,447.0772184013878,36.13
1602839215.06,60.0,1061.0,36.0,447.07381320649944,36.13
1602839215.0621,60.0,1061.0,41.0,447.06937392762006,36.13
1602839215.064,60.0,1061.0,43.0,447.06392969387633,36.13
1602839215.066,60.0,1061.0,48.0,447.05750963439465,36.13
1602839215.0681,60.0,1061.0,48.0,447.0501428783016,36.13
1602839215.0701,60.0,1061.0,43.0,447.0418585547236,36.13
1602839215.072,60.0,1061.0,43.0,447.03268579278716,36.13
1602839215.074,60.0,1061.0,48.0,447.0226537216189,36.13
1602839215.076,60.0,1061.0,48.0,447.01179147034526,36.13
1602839215.078,60.0,1061.0,58.0,447.00012816809266,36.13
1602839215.08,60.0,1061.0,62.0,446.9876929439877,36.13
1602839215.082,60.0,1061.0,60.0,446.9745149271569,36.13
1602839215.084,60.0,1061.0,58.0,446.96062324672675,36.13
1602839215.086,60.0,1061.0,67.0,446.9460470318237,36.13
1602839215.088,60.0,1061.0,67.0,446.9308154115743,36.13
1602839215.09,60.0,1061.0,60.0,446.9149575151051,36.13
1602839215.092,60.0,1061.0,60.0,446.89850247154243,36.13
1602839215.094,60.0,1061.0,65.0,446.881479410013,36.13
1602839215.0961,60.0,1061.0,67.0,446.8639174596432,36.13
1602839215.0981,60.0,1061.0,62.0,446.84584574955954,36.13
1602839215.1,60.0,1061.0,60.0,446.8272934088886,36.13
1602839215.102,60.0,1061.0,62.0,446.8082895667568,36.13
1602839215.104,60.0,1061.0,67.0,446.7888633522907,36.13
1602839215.106,60.0,1061.0,65.0,446.7690438946168,36.13
1602839215.1081,60.0,1061.0,60.0,446.74886032286156,36.13
1602839215.11,60.0,1061.0,65.0,446.7283417661515,36.13
1602839215.112,60.0,1061.0,70.0,446.7075173536132,36.13
1602839215.114,60.0,1061.0,67.0,446.686416214373,36.13
1602839215.1161,60.0,1061.0,62.0,446.6650674775576,36.13
1602839215.118,60.0,1061.0,67.0,446.6435002722934,36.13
1602839215.12,60.0,1061.0,75.0,446.6217437277069,36.13
1602839215.122,60.0,1061.0,72.0,446.59982697292463,36.13
1602839215.1241,60.0,1061.0,67.0,446.5777791370731,36.13
1602839215.1261,60.0,1061.0,60.0,446.55562934927883,36.13
1602839215.1281,60.0,1061.0,53.0,446.53340673866825,36.13
1602839215.1301,60.0,1061.0,58.0,446.5111404343679,36.13
1602839215.5264,60.0,1061.0,62.0,446.4888595655043,36.13
1602839215.5272,60.0,1061.0,67.0,446.46659326120397,36.13
1602839215.5297,60.0,1061.0,70.0,446.44437065059344,36.13
1602839215.5323,60.0,1061.0,70.0,446.4222208627991,36.13
1602839215.5345,60.0,1061.0,70.0,446.4001730269475,36.13
1602839215.5363,60.0,1061.0,67.0,446.3782562721653,36.13
1602839215.5384,60.0,1061.0,65.0,446.3564997275788,36.13
1602839215.5403,60.0,1061.0,60.0,446.33493252231455,36.13
1602839215.5423,60.0,1061.0,60.0,446.31358378549913,36.13
1602839215.5444,60.0,1061.0,65.0,446.29248264625903,36.13
1602839215.5463,60.0,1061.0,65.0,446.2716582337206,36.13
1602839215.5484,60.0,1061.0,58.0,446.25113967701054,36.13
1602839215.5503,60.0,1061.0,58.0,446.23095610525536,36.13
1602839215.5522,60.0,1061.0,67.0,446.2111366475815,36.13
1602839215.5542,60.0,1061.0,67.0,446.1917104331154,36.13
1602839215.5562,60.0,1061.0,65.0,446.1727065909836,36.13
1602839215.5583,60.0,1061.0,72.0,446.1541542503127,36.13
1602839215.5602,60.0,1061.0,75.0,446.13608254022904,36.13
1602839215.5623,60.0,1061.0,75.0,446.11852058985926,36.13
1602839215.5642,60.0,1061.0,77.0,446.1014975283298,36.13
1602839215.5662,60.0,1061.0,79.0,446.0850424847672,36.13
1602839215.5683,60.0,1061.0,82.0,446.06918458829796,36.13
1602839215.5703,60.0,1061.0,77.0,446.0539529680485,36.13
1602839215.5723,60.0,1061.0,72.0,446.03937675314546,36.13
1602839215.5742,60.0,1061.0,79.0,446.02548507271536,36.13
1602839215.5762,60.0,1061.0,89.0,446.01230705588455,36.13
1602839215.5783,60.0,1061.0,89.0,445.9998718317796,36.13
1602839215.5802,60.0,1061.0,84.0,445.988208529527,36.13
1602839215.5822,60.0,1061.0,87.0,445.9773462782533,36.13
1602839215.5842,60.0,1061.0,84.0,445.9673142070851,36.13
1602839215.5862,60.0,1061.0,77.0,445.9581414451487,36.13
1602839215.5883,60.0,1061.0,79.0,445.94985712157063,36.13
1602839215.5902,60.0,1061.0,89.0,445.9424903654776,36.13
1602839215.5923,60.0,1061.0,104.0,445.93607030599594,36.13
1602839215.5942,60.0,1061.0,121.0,445.93062607225215,36.13
1602839215.5962,60.0,1061.0,121.0,445.92618679337284,36.13
1602839215.5983,60.0,1061.0,104.0,445.92278159848445,36.13
1602839215.6003,60.0,1061.0,99.0,445.92043961671345,36.13
1602839215.6022,60.0,1061.0,108.0,445.9191899771863,36.13
1602839215.6042,60.0,1061.0,104.0,445.9190618090297,36.13
1602839215.6062,60.0,1061.0,92.0,445.9200842413701,36.13
1602839215.6082,60.0,1061.0,87.0,445.9222864033338,36.13
1602839215.6102,60.0,1061.0,87.0,445.9256974240476,36.13
1602839215.6122,60.0,1061.0,77.0,445.93034643263775,36.13
1602839215.6142,60.0,1061.0,70.0,445.93626255823085,36.13
1602839215.6162,60.0,1061.0,77.0,445.9434749299535,36.13
1602839215.6183,60.0,1061.0,89.0,445.9520126769321,36.13
1602839215.6202,60.0,1061.0,89.0,445.96190492829317,36.13
1602839215.6222,60.0,1061.0,87.0,445.97318081316314,36.13
1602839215.6242,60.0,1061.0,99.0,445.9858694606687,36.13
1602839215.6262,60.0,1061.0,215.0,445.9999999999362,36.13
1602839215.6282,60.0,1061.0,467.0,445.9999999999362,36.13
1602839215.6303,60.0,1061.0,542.0,445.9999999999362,36.13
1602839215.6322,60.0,1061.0,104.0,445.9999999999362,36.13
1602839215.6342,60.0,1061.0,-365.0,445.9999999999362,36.13
1602839215.6364,60.0,1061.0,-213.0,445.9999999999362,36.13
1602839215.6383,60.0,1061.0,116.0,445.9999999999362,36.13
1602839215.6402,60.0,1061.0,96.0,445.9999999999362,36.13
1602839215.6422,60.0,1061.0,38.0,445.9999999999362,36.13
1602839215.6442,60.0,1061.0,104.0,445.9999999999362,36.13
1602839215.6462,60.0,1061.0,116.0,445.9999999999362,36.13
1602839215.6482,60.0,1061.0,89.0,445.9999999999362,36.13
1602839215.6502,60.0,1061.0,96.0,445.9999999999362,36.13
1602839215.6522,60.0,1061.0,96.0,445.9999999999362,36.13
1602839215.6542,60.0,1061.0,87.0,445.9999999999362,36.13
1602839215.6562,60.0,1061.0,96.0,445.9999999999362,36.13
1602839215.6582,60.0,1061.0,99.0,445.9999999999362,36.13
1602839215.6602,60.0,1061.0,99.0,445.9999999999362,36.13
1602839215.6622,60.0,1061.0,104.0,445.9999999999362,36.13
1602839215.6642,60.0,1061.0,111.0,445.9999999999362,36.13
1602839215.6662,60.0,1061.0,111.0,445.9999999999362,36.13
1602839215.6682,60.0,1061.0,111.0,445.9999999999362,36.13
1602839215.6702,60.0,1061.0,116.0,445.9999999999362,36.13
1602839216.0959,60.0,1032.0,116.0,445.9999999999362,36.13
1602839216.0967,60.0,1032.0,116.0,445.9999999999362,36.13
1602839216.0992,60.0,1032.0,118.0,445.9999999999362,36.13
1602839216.1018,60.0,1032.0,121.0,445.9999999999362,36.13
1602839216.1038,60.0,1032.0,108.0,445.9999999999362,36.13
1602839216.1058,60.0,1032.0,101.0,445.9999999999362,36.13
1602839216.1078,60.0,1032.0,113.0,445.9999999999362,36.13
1602839216.1098,60.0,1032.0,130.0,445.9999999999362,36.13
1602839216.1118,60.0,1032.0,135.0,445.9999999999362,36.13
1602839216.1137,60.0,1032.0,135.0,445.9999999999362,36.13
1602839216.1157,60.0,1032.0,138.0,445.9999999999362,36.13
1602839216.1178,60.0,1032.0,145.0,445.9999999999362,36.13
1602839216.1198,60.0,1032.0,150.0,445.9999999999362,36.13
1602839216.1217,60.0,1032.0,154.0,445.9999999999362,36.13
1602839216.1237,60.0,1032.0,159.0,445.9999999999362,36.13
1602839216.1257,60.0,1032.0,159.0,445.9999999999362,36.13
1602839216.1278,60.0,1032.0,154.0,445.9999999999362,36.13
1602839216.1298,60.0,1032.0,150.0,445.9999999999362,36.13
1602839216.1318,60.0,1032.0,145.0,445.9999999999362,36.13
1602839216.1337,60.0,1032.0,128.0,445.9999999999362,36.13
1602839216.1358,60.0,1032.0,113.0,445.9999999999362,36.13
1602839216.1377,60.0,1032.0,104.0,445.9999999999362,36.13
1602839216.1397,60.0,1032.0,84.0,445.9999999999362,36.13
1602839216.1417,60.0,1032.0,62.0,445.9999999999362,36.13
1602839216.1437,60.0,1032.0,48.0,445.9999999999362,36.13
1602839216.1457,60.0,1032.0,41.0,445.9999999999362,36.13
1602839216.1478,60.0,1032.0,38.0,445.9999999999362,36.13
1602839216.1497,60.0,1032.0,33.0,445.9999999999362,36.13
1602839216.1519,60.0,1032.0,29.0,445.9999999999362,36.13
1602839216.1537,60.0,1032.0,29.0,445.9999999999362,36.13
1602839216.1557,60.0,1032.0,29.0,445.9999999999362,36.13
1602839216.1577,60.0,1032.0,31.0,445.9999999999362,36.13
1602839216.1597,60.0,1032.0,33.0,445.9999999999362,36.13
1602839216.1618,60.0,1032.0,36.0,445.9999999999362,36.13
1602839216.1638,60.0,1032.0,33.0,445.9999999999362,36.13
1602839216.1657,60.0,1032.0,38.0,445.9999999999362,36.13
1602839216.1677,60.0,1032.0,46.0,445.9999999999362,36.13
1602839216.1697,60.0,1032.0,46.0,445.9999999999362,36.13
1602839216.1717,60.0,1032.0,43.0,445.9999999999362,36.13
1602839216.1737,60.0,1032.0,43.0,445.9999999999362,36.13
1602839216.1757,60.0,1032.0,43.0,445.9999999999362,36.13
1602839216.1777,60.0,1032.0,41.0,445.9999999999362,36.13
1602839216.1797,60.0,1032.0,50.0,445.9999999999362,36.13
1602839216.1817,60.0,1032.0,60.0,445.9999999999362,36.13
1602839216.1837,60.0,1032.0,58.0,445.9999999999362,36.13
1602839216.1857,60.0,1032.0,50.0,445.9999999999362,36.13
1602839216.1877,60.0,1032.0,53.0,445.9999999999362,36.13
1602839216.1897,60.0,1032.0,60.0,445.9999999999362,36.13
1602839216.1919,60.0,1032.0,58.0,445.9999999999362,36.13
1602839216.1937,60.0,1032.0,58.0,445.9999999999362,36.13
1602839216.1957,60.0,1032.0,58.0,445.9999999999362,36.13
1602839216.1977,60.0,1032.0,58.0,445.9999999999362,36.13
1602839216.1997,60.0,1032.0,58.0,445.9999999999362,36.13
1602839216.2017,60.0,1032.0,55.0,445.9999999999362,36.13
1602839216.2037,60.0,1032.0,53.0,445.9999999999362,36.13
1602839216.2057,60.0,1032.0,53.0,445.9999999999362,36.13
1602839216.2077,60.0,1032.0,48.0,445.9999999999362,36.13
1602839216.2097,60.0,1032.0,50.0,445.9999999999362,36.13
1602839216.212,60.0,1032.0,55.0,445.9999999999362,36.13
1602839216.2137,60.0,1032.0,53.0,445.9999999999362,36.13
1602839216.2157,60.0,1032.0,50.0,445.9999999999362,36.13
1602839216.2178,60.0,1032.0,58.0,445.9999999999362,36.13
1602839216.2197,60.0,1032.0,62.0,445.9999999999362,36.13
1602839216.2217,60.0,1032.0,55.0,445.9999999999362,36.13
1602839216.2237,60.0,1032.0,55.0,445.9999999999362,36.13
1602839216.2257,60.0,1032.0,65.0,445.9999999999362,36.13
1602839216.2277,60.0,1032.0,58.0,445.9999999999362,36.13
1602839216.2297,60.0,1032.0,43.0,445.9999999999362,36.13
1602839216.2317,60.0,1032.0,46.0,445.9999999999362,36.13
1602839216.2337,60.0,1032.0,55.0,445.9999999999362,36.13
1602839216.2357,60.0,1032.0,58.0,445.9999999999362,36.13
1602839216.2377,60.0,1032.0,58.0,445.9999999999362,36.13
1602839216.2397,60.0,1032.0,62.0,445.9999999999362,36.13
1602839216.6963,60.0,1032.0,67.0,445.9999999999362,36.13
1602839216.6972,60.0,1032.0,70.0,445.9999999999362,36.13
1602839216.6997,60.0,1032.0,67.0,445.9999999999362,36.13
1602839216.7023,60.0,1032.0,67.0,445.9999999999362,36.13
1602839216.7043,60.0,1032.0,70.0,445.9999999999362,36.13
1602839216.7063,60.0,1032.0,60.0,445.9999999999362,36.13
1602839216.7084,60.0,1032.0,50.0,445.9999999999362,36.13
1602839216.7103,60.0,1032.0,53.0,445.9999999999362,36.13
1602839216.7123,60.0,1032.0,58.0,445.9999999999362,36.13
1602839216.7143,60.0,1032.0,60.0,445.9999999999362,36.13
1602839216.7163,60.0,1032.0,62.0,445.9999999999362,36.13
1602839216.7185,60.0,1032.0,65.0,445.9999999999362,36.13
1602839216.7203,60.0,1032.0,62.0,445.9999999999362,36.13
1602839216.7222,60.0,1032.0,60.0,445.9999999999362,36.13
1602839216.7242,60.0,1032.0,62.0,445.9999999999362,36.13
1602839216.7262,60.0,1032.0,65.0,445.9999999999362,36.13
1602839216.7283,60.0,1032.0,72.0,445.9999999999362,36.13
1602839216.7302,60.0,1032.0,75.0,445.9999999999362,36.13
1602839216.7322,60.0,1032.0,72.0,445.9999999999362,36.13
1602839216.7342,60.0,1032.0,70.0,445.9999999999362,36.13
1602839216.7362,60.0,1032.0,75.0,445.9999999999362,36.13
1602839216.7383,60.0,1032.0,75.0,445.9999999999362,36.13
1602839216.7402,60.0,1032.0,72.0,445.9999999999362,36.13
1602839216.7422,60.0,1032.0,77.0,445.9999999999362,36.13
1602839216.7442,60.0,1032.0,89.0,445.9999999999362,36.13
1602839216.7462,60.0,1032.0,99.0,445.9999999999362,36.13
1602839216.7483,60.0,1032.0,99.0,445.9999999999362,36.13
1602839216.7502,60.0,1032.0,94.0,445.9999999999362,36.13
1602839216.7522,60.0,1032.0,87.0,445.9999999999362,36.13
1602839216.7543,60.0,1032.0,87.0,445.9999999999362,36.13
1602839216.7562,60.0,1032.0,94.0,445.9999999999362,36.13
1602839216.7583,60.0,1032.0,94.0,445.9999999999362,36.13
1602839216.7602,60.0,1032.0,77.0,445.9999999999362,36.13
1602839216.7622,60.0,1032.0,62.0,445.9999999999362,36.13
1602839216.7642,60.0,1032.0,62.0,445.9999999999362,36.13
1602839216.7662,60.0,1032.0,70.0,445.9999999999362,36.13
1602839216.7682,60.0,1032.0,72.0,445.9999999999362,36.13
1602839216.7702,60.0,1032.0,77.0,445.9999999999362,36.13
1602839216.7722,60.0,1032.0,82.0,445.9999999999362,36.13
1602839216.7742,60.0,1032.0,79.0,445.9999999999362,36.13
1602839216.7762,60.0,1032.0,77.0,445.9999999999362,36.13
1602839216.7782,60.0,1032.0,142.0,445.9999999999362,36.13
1602839216.7802,60.0,1032.0,355.0,445.9999999999362,36.13
1602839216.7822,60.0,1032.0,547.0,445.9999999999362,36.13
1602839216.7842,60.0,1032.0,312.0,445.9999999999362,36.13
1602839216.7862,60.0,1032.0,-239.0,445.9999999999362,36.13
1602839216.7883,60.0,1032.0,-348.0,445.9999999999362,36.13
1602839216.7902,60.0,1032.0,4.0,445.9999999999362,36.13
1602839216.7922,60.0,1032.0,118.0,445.9999999999362,36.13
1602839216.7942,60.0,1032.0,31.0,445.9999999999362,36.13
1602839216.7962,60.0,1032.0,67.0,445.9999999999362,36.13
1602839216.7982,60.0,1032.0,101.0,445.9999999999362,36.13
1602839216.8002,60.0,1032.0,70.0,445.9999999999362,36.13
1602839216.8022,60.0,1032.0,79.0,445.9999999999362,36.13
1602839216.8042,60.0,1032.0,106.0,445.9999999999362,36.13
1602839216.8062,60.0,1032.0,94.0,445.9999999999362,36.13
1602839216.8083,60.0,1032.0,84.0,445.9999999999362,36.13
1602839216.8102,60.0,1032.0,94.0,445.9999999999362,36.13
1602839216.8122,60.0,1032.0,94.0,445.9999999999362,36.13
1602839216.8142,60.0,1032.0,92.0,445.9999999999362,36.13
1602839216.8162,60.0,1032.0,94.0,445.9999999999362,36.13
1602839216.8182,60.0,1032.0,104.0,445.9999999999362,36.13
1602839216.8204,60.0,1032.0,104.0,445.9999999999362,36.13
1602839216.8222,60.0,1032.0,101.0,445.9999999999362,36.13
1602839216.8242,60.0,1032.0,104.0,445.9999999999362,36.13
1602839216.8262,60.0,1032.0,113.0,445.9999999999362,36.13
1602839216.8282,60.0,1032.0,118.0,445.9999999999362,36.13
1602839216.8301,60.0,1032.0,121.0,445.9999999999362,36.13
1602839216.8322,60.0,1032.0,123.0,445.9999999999362,36.13
1602839216.8342,60.0,1032.0,123.0,445.9999999999362,36.13
1602839216.8362,60.0,1032.0,128.0,445.9999999999362,36.13
1602839216.8383,60.0,1032.0,135.0,445.9999999999362,36.13
1602839216.8402,60.0,1032.0,145.0,445.9999999999362,36.13
1602839217.2662,60.0,1058.0,154.0,445.9999999999362,36.13
1602839217.267,60.0,1058.0,154.0,445.9999999999362,36.13
1602839217.2695,60.0,1058.0,150.0,445.9999999999362,36.13
1602839217.2721,60.0,1058.0,152.0,445.9999999999362,36.13
1602839217.2741,60.0,1058.0,157.0,445.9999999999362,36.13
1602839217.2761,60.0,1058.0,159.0,445.9999999999362,36.13
1602839217.2781,60.0,1058.0,159.0,445.9999999999362,36.13
1602839217.2801,60.0,1058.0,159.0,445.9999999999362,36.13
1602839217.2821,60.0,1058.0,150.0,445.9999999999362,36.13
1602839217.2841,60.0,1058.0,138.0,445.9999999999362,36.13
1602839217.2861,60.0,1058.0,123.0,445.9999999999362,36.13
1602839217.288,60.0,1058.0,101.0,445.9999999999362,36.13
1602839217.29,60.0,1058.0,84.0,445.9999999999362,36.13
1602839217.292,60.0,1058.0,70.0,445.9999999999362,36.13
1602839217.2941,60.0,1058.0,50.0,445.9999999999362,36.13
1602839217.2961,60.0,1058.0,38.0,445.9999999999362,36.13
1602839217.2981,60.0,1058.0,31.0,445.9999999999362,36.13
1602839217.3001,60.0,1058.0,12.0,445.9999999999362,36.13
1602839217.3021,60.0,1058.0,0.0,445.9999999999362,36.13
1602839217.304,60.0,1058.0,2.0,445.9999999999362,36.13
1602839217.306,60.0,1058.0,0.0,445.9999999999362,36.13
1602839217.308,60.0,1058.0,-7.0,445.9999999999362,36.13
1602839217.31,60.0,1058.0,0.0,445.9999999999362,36.13
1602839217.312,60.0,1058.0,12.0,445.9999999999362,36.13
1602839217.314,60.0,1058.0,14.0,445.9999999999362,36.13
1602839217.316,60.0,1058.0,14.0,445.9999999999362,36.13
1602839217.3181,60.0,1058.0,26.0,445.9999999999362,36.13
1602839217.32,60.0,1058.0,36.0,445.9999999999362,36.13
1602839217.322,60.0,1058.0,36.0,445.9999999999362,36.13
1602839217.324,60.0,1058.0,31.0,445.9999999999362,36.13
1602839217.326,60.0,1058.0,33.0,445.9999999999362,36.13
1602839217.328,60.0,1058.0,41.0,445.9999999999362,36.13
1602839217.33,60.0,1058.0,43.0,445.9999999999362,36.13
1602839217.332,60.0,1058.0,50.0,445.9999999999362,36.13
1602839217.334,60.0,1058.0,50.0,445.9999999999362,36.13
1602839217.336,60.0,1058.0,46.0,445.9999999999362,36.13
1602839217.338,60.0,1058.0,48.0,445.9999999999362,36.13
1602839217.34,60.0,1058.0,53.0,445.9999999999362,36.13
1602839217.342,60.0,1058.0,50.0,445.9999999999362,36.13
1602839217.344,60.0,1058.0,50.0,445.9999999999362,36.13
1602839217.3461,60.0,1058.0,48.0,445.9999999999362,36.13
1602839217.3481,60.0,1058.0,41.0,445.9999999999362,36.13
1602839217.35,60.0,1058.0,43.0,445.9999999999362,36.13
1602839217.352,60.0,1058.0,46.0,445.9999999999362,36.13
1602839217.3539,60.0,1058.0,43.0,445.9999999999362,36.13
1602839217.3561,60.0,1058.0,38.0,445.9999999999362,36.13
1602839217.358,60.0,1058.0,38.0,445.9999999999362,36.13
1602839217.36,60.0,1058.0,41.0,445.9999999999362,36.13
1602839217.362,60.0,1058.0,43.0,445.9999999999362,36.13
1602839217.364,60.0,1058.0,41.0,445.9999999999362,36.13
1602839217.366,60.0,1058.0,38.0,445.9999999999362,36.13
1602839217.368,60.0,1058.0,36.0,445.9999999999362,36.13
1602839217.37,60.0,1058.0,41.0,445.9999999999362,36.13
1602839217.372,60.0,1058.0,46.0,445.9999999999362,36.13
1602839217.374,60.0,1058.0,41.0,445.9999999999362,36.13
1602839217.376,60.0,1058.0,46.0,445.9999999999362,36.13
1602839217.378,60.0,1058.0,55.0,445.9999999999362,36.13
1602839217.38,60.0,1058.0,50.0,445.9999999999362,36.13
1602839217.382,60.0,1058.0,48.0,445.9999999999362,36.13
1602839217.384,60.0,1058.0,58.0,445.9999999999362,36.13
1602839217.3846,60.0,1058.0,58.0,445.9999999999362,36.13
1602839217.386,60.0,1058.0,53.0,445.9999999999362,36.13
1602839217.388,60.0,1058.0,58.0,445.9999999999362,36.13
1602839217.3899,60.0,1058.0,60.0,445.9999999999362,36.13
1602839217.392,60.0,1058.0,58.0,445.9999999999362,36.13
1602839217.394,60.0,1058.0,58.0,445.9999999999362,36.13
1602839217.396,60.0,1058.0,58.0,445.9999999999362,36.13
1602839217.398,60.0,1058.0,58.0,445.9999999999362,36.13
1602839217.4,60.0,1058.0,58.0,445.9999999999362,36.13
1602839217.402,60.0,1058.0,65.0,445.9999999999362,36.13
1602839217.404,60.0,1058.0,72.0,445.9999999999362,36.13
1602839217.406,60.0,1058.0,67.0,445.9999999999362,36.13
1602839217.408,60.0,1058.0,62.0,445.9999999999362,36.13
1602839217.8056,60.0,1058.0,62.0,445.9999999999362,36.13
1602839217.8062,60.0,1058.0,60.0,445.9999999999362,36.13
1602839217.8078,60.0,1058.0,62.0,445.9999999999362,36.13
1602839217.8103,60.0,1058.0,70.0,445.9999999999362,36.13
1602839217.8123,60.0,1058.0,75.0,445.9999999999362,36.13
1602839217.8143,60.0,1058.0,77.0,445.9999999999362,36.13
1602839217.8164,60.0,1058.0,72.0,445.9999999999362,36.13
1602839217.8183,60.0,1058.0,62.0,445.9999999999362,36.13
1602839217.8203,60.0,1058.0,55.0,445.9999999999362,36.13
1602839217.8223,60.0,1058.0,62.0,445.9999999999362,36.13
1602839217.8243,60.0,1058.0,67.0,445.9999999999362,36.13
1602839217.8263,60.0,1058.0,60.0,445.9999999999362,36.13
1602839217.8283,60.0,1058.0,50.0,445.9999999999362,36.13
1602839217.8303,60.0,1058.0,58.0,445.9999999999362,36.13
1602839217.8323,60.0,1058.0,72.0,445.9999999999362,36.13
1602839217.8343,60.0,1058.0,84.0,445.9999999999362,36.13
1602839217.8363,60.0,1058.0,84.0,445.9999999999362,36.13
1602839217.8384,60.0,1058.0,77.0,445.9999999999362,36.13
1602839217.8391,60.0,1058.0,72.0,445.9999999999362,36.13
1602839217.8403,60.0,1058.0,75.0,445.9999999999362,36.13
1602839217.8423,60.0,1058.0,75.0,445.9999999999362,36.13
1602839217.8442,60.0,1058.0,67.0,445.9999999999362,36.13
1602839217.8463,60.0,1058.0,58.0,445.9999999999362,36.13
1602839217.8483,60.0,1058.0,55.0,445.9999999999362,36.13
1602839217.8503,60.0,1058.0,58.0,445.9999999999362,36.13
1602839217.8523,60.0,1058.0,62.0,445.9999999999362,36.13
1602839217.8543,60.0,1058.0,65.0,445.9999999999362,36.13
1602839217.8563,60.0,1058.0,62.0,445.9999999999362,36.13
1602839217.8583,60.0,1058.0,62.0,445.9999999999362,36.13
1602839217.8603,60.0,1058.0,58.0,445.9999999999362,36.13
1602839217.8623,60.0,1058.0,67.0,445.9999999999362,36.13
1602839217.8642,60.0,1058.0,208.0,445.9999999999362,36.13
1602839217.8662,60.0,1058.0,479.0,445.9999999999362,36.13
1602839217.8683,60.0,1058.0,518.0,445.9999999999362,36.13
1602839217.8688,60.0,1058.0,24.0,445.9999999999362,36.13
1602839217.8703,60.0,1058.0,-445.0,445.9999999999362,36.13
1602839217.8723,60.0,1058.0,-251.0,445.9999999999362,36.13
1602839217.8743,60.0,1058.0,75.0,445.9999999999362,36.13
1602839217.8763,60.0,1058.0,53.0,445.9999999999362,36.13
1602839217.8783,60.0,1058.0,21.0,445.9999999999362,36.13
1602839217.8803,60.0,1058.0,89.0,445.9999999999362,36.13
1602839217.8823,60.0,1058.0,82.0,445.9999999999362,36.13
1602839217.8842,60.0,1058.0,62.0,445.9999999999362,36.13
1602839217.8863,60.0,1058.0,84.0,445.9999999999362,36.13
1602839217.8883,60.0,1058.0,87.0,445.9999999999362,36.13
1602839217.8902,60.0,1058.0,72.0,445.9999999999362,36.13
1602839217.8922,60.0,1058.0,79.0,445.9999999999362,36.13
1602839217.8942,60.0,1058.0,96.0,445.9999999999362,36.13
1602839217.8962,60.0,1058.0,96.0,445.9999999999362,36.13
1602839217.8983,60.0,1058.0,87.0,445.9999999999362,36.13
1602839217.8989,60.0,1058.0,84.0,445.9999999999362,36.13
1602839217.9003,60.0,1058.0,94.0,445.9999999999362,36.13
1602839217.9023,60.0,1058.0,99.0,445.9999999999362,36.13
1602839217.9043,60.0,1058.0,99.0,445.9999999999362,36.13
1602839217.9063,60.0,1058.0,104.0,445.9999999999362,36.13
1602839217.9083,60.0,1058.0,108.0,445.9999999999362,36.13
1602839217.9103,60.0,1058.0,111.0,445.9999999999362,36.13
1602839217.9123,60.0,1058.0,116.0,445.9999999999362,36.13
1602839217.9143,60.0,1058.0,121.0,445.9999999999362,36.13
1602839217.9162,60.0,1058.0,128.0,445.9999999999362,36.13
1602839217.9183,60.0,1058.0,128.0,445.9999999999362,36.13
1602839217.9203,60.0,1058.0,128.0,445.9999999999362,36.13
1602839217.9223,60.0,1058.0,135.0,445.9999999999362,36.13
1602839217.9243,60.0,1058.0,142.0,445.9999999999362,36.13
1602839217.9263,60.0,1058.0,150.0,445.9999999999362,36.13
1602839217.9282,60.0,1058.0,152.0,445.9999999999362,36.13
1602839217.9289,60.0,1058.0,150.0,445.9999999999362,36.13
1602839217.9303,60.0,1058.0,152.0,445.9999999999362,36.13
1602839217.9322,60.0,1058.0,167.0,445.9999999999362,36.13
1602839217.9344,60.0,1058.0,162.0,445.9999999999362,36.13
1602839217.9363,60.0,1058.0,145.0,445.9999999999362,36.13
1602839217.9383,60.0,1058.0,135.0,445.9999999999362,36.13
1602839217.9403,60.0,1058.0,133.0,445.9999999999362,36.13
1602839218.346,60.0,1072.0,121.0,445.9999999999362,36.13
1602839218.3466,60.0,1072.0,99.0,445.9999999999362,36.13
1602839218.3505,60.0,1072.0,79.0,445.9999999999362,36.13
1602839218.3526,60.0,1072.0,60.0,445.9999999999362,36.13
1602839218.3546,60.0,1072.0,41.0,445.9999999999362,36.13
1602839218.3566,60.0,1072.0,29.0,445.9999999999362,36.13
1602839218.3586,60.0,1072.0,16.0,445.9999999999362,36.13
1602839218.3606,60.0,1072.0,0.0,445.9999999999362,36.13
1602839218.3613,60.0,1072.0,-12.0,445.9999999999362,36.13
1602839218.3626,60.0,1072.0,-21.0,445.9999999999362,36.13
1602839218.3646,60.0,1072.0,-24.0,445.9999999999362,36.13
1602839218.3666,60.0,1072.0,-16.0,445.9999999999362,36.13
1602839218.3686,60.0,1072.0,-12.0,445.9999999999362,36.13
1602839218.3706,60.0,1072.0,-12.0,445.9999999999362,36.13
1602839218.3726,60.0,1072.0,-7.0,445.9999999999362,36.13
1602839218.3746,60.0,1072.0,4.0,445.9999999999362,36.13
1602839218.3766,60.0,1072.0,14.0,445.9999999999362,36.13
1602839218.3786,60.0,1072.0,14.0,445.9999999999362,36.13
1602839218.3806,60.0,1072.0,7.0,445.9999999999362,36.13
1602839218.3826,60.0,1072.0,19.0,445.9999999999362,36.13
1602839218.3846,60.0,1072.0,36.0,445.9999999999362,36.13
1602839218.3866,60.0,1072.0,33.0,445.9999999999362,36.13
1602839218.3886,60.0,1072.0,21.0,445.9999999999362,36.13
1602839218.3906,60.0,1072.0,26.0,445.9999999999362,36.13
1602839218.3913,60.0,1072.0,33.0,445.9999999999362,36.13
1602839218.3926,60.0,1072.0,36.0,445.9999999999362,36.13
1602839218.3946,60.0,1072.0,41.0,445.9999999999362,36.13
1602839218.3966,60.0,1072.0,36.0,445.9999999999362,36.13
1602839218.3986,60.0,1072.0,21.0,445.9999999999362,36.13
1602839218.4006,60.0,1072.0,12.0,445.9999999999362,36.13
1602839218.4026,60.0,1072.0,16.0,445.9999999999362,36.13
1602839218.4046,60.0,1072.0,19.0,445.9999999999362,36.13
1602839218.4066,60.0,1072.0,21.0,445.9999999999362,36.13
1602839218.4086,60.0,1072.0,24.0,445.9999999999362,36.13
1602839218.4106,60.0,1072.0,29.0,445.9999999999362,36.13
1602839218.4126,60.0,1072.0,26.0,445.9999999999362,36.13
1602839218.4146,60.0,1072.0,24.0,445.9999999999362,36.13
1602839218.4166,60.0,1072.0,29.0,445.9999999999362,36.13
1602839218.4186,60.0,1072.0,31.0,445.9999999999362,36.13
1602839218.4206,60.0,1072.0,29.0,445.9999999999362,36.13
1602839218.4214,60.0,1072.0,31.0,445.9999999999362,36.13
1602839218.4226,60.0,1072.0,38.0,445.9999999999362,36.13
1602839218.4246,60.0,1072.0,36.0,445.9999999999362,36.13
1602839218.4267,60.0,1072.0,36.0,445.9999999999362,36.13
1602839218.4286,60.0,1072.0,43.0,445.9999999999362,36.13
1602839218.4306,60.0,1072.0,46.0,445.9999999999362,36.13
1602839218.4326,60.0,1072.0,43.0,445.9999999999362,36.13
1602839218.4348,60.0,1072.0,46.0,445.9999999999362,36.13
1602839218.4366,60.0,1072.0,50.0,445.9999999999362,36.13
1602839218.4386,60.0,1072.0,48.0,445.9999999999362,36.13
1602839218.4407,60.0,1072.0,46.0,445.9999999999362,36.13
1602839218.4426,60.0,1072.0,53.0,445.9999999999362,36.13
1602839218.4446,60.0,1072.0,53.0,445.9999999999362,36.13
1602839218.4466,60.0,1072.0,50.0,445.9999999999362,36.13
1602839218.4486,60.0,1072.0,53.0,445.9999999999362,36.13
1602839218.4506,60.0,1072.0,58.0,445.9999999999362,36.13
1602839218.4513,60.0,1072.0,58.0,445.9999999999362,36.13
1602839218.4526,60.0,1072.0,53.0,445.9999999999362,36.13
1602839218.4546,60.0,1072.0,50.0,445.9999999999362,36.13
1602839218.4566,60.0,1072.0,55.0,445.9999999999362,36.13
1602839218.4586,60.0,1072.0,62.0,445.9999999999362,36.13
1602839218.4606,60.0,1072.0,62.0,445.9999999999362,36.13
1602839218.4626,60.0,1072.0,58.0,445.9999999999362,36.13
1602839218.4646,60.0,1072.0,53.0,445.9999999999362,36.13
1602839218.4666,60.0,1072.0,55.0,445.9999999999362,36.13
1602839218.4686,60.0,1072.0,62.0,445.9999999999362,36.13
1602839218.4706,60.0,1072.0,50.0,445.9999999999362,36.13
1602839218.4726,60.0,1072.0,43.0,445.9999999999362,36.13
1602839218.4746,60.0,1072.0,53.0,445.9999999999362,36.13
1602839218.4766,60.0,1072.0,65.0,445.9999999999362,36.13
1602839218.4786,60.0,1072.0,79.0,445.9999999999362,36.13
1602839218.4806,60.0,1072.0,92.0,445.9999999999362,36.13
1602839218.4813,60.0,1072.0,84.0,445.9999999999362,36.13
1602839218.9155,60.0,1072.0,75.0,445.9999999999362,36.13
1602839218.9164,60.0,1072.0,75.0,445.9999999999362,36.13
1602839218.9189,60.0,1072.0,72.0,445.9999999999362,36.13
1602839218.9216,60.0,1072.0,67.0,445.9999999999362,36.13
1602839218.9235,60.0,1072.0,62.0,445.9999999999362,36.13
1602839218.9255,60.0,1072.0,50.0,445.9999999999362,36.13
1602839218.9274,60.0,1072.0,33.0,445.9999999999362,36.13
1602839218.9294,60.0,1072.0,26.0,445.9999999999362,36.13
1602839218.9315,60.0,1072.0,41.0,445.9999999999362,36.13
1602839218.9334,60.0,1072.0,53.0,445.9999999999362,36.13
1602839218.9354,60.0,1072.0,53.0,445.9999999999362,36.13
1602839218.9374,60.0,1072.0,46.0,445.9999999999362,36.13
1602839218.9394,60.0,1072.0,43.0,445.9999999999362,36.13
1602839218.94,60.0,1072.0,121.0,445.9999999999362,36.13
1602839218.9414,60.0,1072.0,360.0,445.9999999999362,36.13
1602839218.9434,60.0,1072.0,568.0,445.9999999999362,36.13
1602839218.9454,60.0,1072.0,276.0,445.9999999999362,36.13
1602839218.9475,60.0,1072.0,-353.0,445.9999999999362,36.13
1602839218.9494,60.0,1072.0,-440.0,445.9999999999362,36.13
1602839218.9514,60.0,1072.0,-24.0,445.9999999999362,36.13
1602839218.9534,60.0,1072.0,89.0,445.9999999999362,36.13
1602839218.9554,60.0,1072.0,-14.0,445.9999999999362,36.13
1602839218.9574,60.0,1072.0,48.0,445.9999999999362,36.13
1602839218.9594,60.0,1072.0,92.0,445.9999999999362,36.13
1602839218.9614,60.0,1072.0,48.0,445.9999999999362,36.13
1602839218.9636,60.0,1072.0,53.0,445.9999999999362,36.13
1602839218.9654,60.0,1072.0,75.0,445.9999999999362,36.13
1602839218.9674,60.0,1072.0,67.0,445.9999999999362,36.13
1602839218.9694,60.0,1072.0,70.0,445.9999999999362,36.13
1602839218.97,60.0,1072.0,79.0,445.9999999999362,36.13
1602839218.9714,60.0,1072.0,75.0,445.9999999999362,36.13
1602839218.9734,60.0,1072.0,70.0,445.9999999999362,36.13
1602839218.9754,60.0,1072.0,82.0,445.9999999999362,36.13
1602839218.9774,60.0,1072.0,92.0,445.9999999999362,36.13
1602839218.9794,60.0,1072.0,87.0,445.9999999999362,36.13
1602839218.9814,60.0,1072.0,89.0,445.9999999999362,36.13
1602839218.9834,60.0,1072.0,94.0,445.9999999999362,36.13
1602839218.9854,60.0,1072.0,96.0,445.9999999999362,36.13
1602839218.9874,60.0,1072.0,101.0,445.9999999999362,36.13
1602839218.99,60.0,1072.0,106.0,445.9999999999362,36.13
1602839218.9914,60.0,1072.0,108.0,445.9999999999362,36.13
1602839218.9934,60.0,1072.0,111.0,445.9999999999362,36.13
1602839218.9954,60.0,1072.0,116.0,445.9999999999362,36.13
1602839218.9974,60.0,1072.0,121.0,445.9999999999362,36.13
1602839218.9994,60.0,1072.0,128.0,445.9999999999362,36.13
1602839219.0014,60.0,1072.0,138.0,445.9999999999362,36.13
1602839219.0034,60.0,1072.0,138.0,445.9999999999362,36.13
1602839219.0054,60.0,1072.0,135.0,445.9999999999362,36.13
1602839219.0074,60.0,1072.0,145.0,445.9999999999362,36.13
1602839219.0094,60.0,1072.0,154.0,445.9999999999362,36.13
1602839219.0114,60.0,1072.0,157.0,445.9999999999362,36.13
1602839219.0134,60.0,1072.0,154.0,445.9999999999362,36.13
1602839219.0154,60.0,1072.0,152.0,445.9999999999362,36.13
1602839219.0175,60.0,1072.0,147.0,445.9999999999362,36.13
1602839219.0194,60.0,1072.0,133.0,445.9999999999362,36.13
1602839219.0215,60.0,1072.0,121.0,445.9999999999362,36.13
1602839219.0234,60.0,1072.0,106.0,445.9999999999362,36.13
1602839219.0254,60.0,1072.0,84.0,445.9999999999362,36.13
1602839219.0275,60.0,1072.0,60.0,445.9999999999362,36.13
1602839219.0294,60.0,1072.0,48.0,445.9999999999362,36.13
1602839219.0314,60.0,1072.0,38.0,445.9999999999362,36.13
1602839219.0334,60.0,1072.0,21.0,445.9999999999362,36.13
1602839219.0354,60.0,1072.0,12.0,445.9999999999362,36.13
1602839219.0374,60.0,1072.0,12.0,445.9999999999362,36.13
1602839219.0394,60.0,1072.0,12.0,445.9999999999362,36.13
1602839219.0414,60.0,1072.0,9.0,445.9999999999362,36.13
1602839219.0434,60.0,1072.0,14.0,445.9999999999362,36.13
1602839219.0454,60.0,1072.0,14.0,445.9999999999362,36.13
1602839219.0475,60.0,1072.0,2.0,445.9999999999362,36.13
1602839219.0494,60.0,1072.0,2.0,445.9999999999362,36.13
1602839219.0514,60.0,1072.0,14.0,445.9999999999362,36.13
1602839219.0534,60.0,1072.0,16.0,445.9999999999362,36.13
1602839219.0554,60.0,1072.0,16.0,445.9999999999362,36.13
1602839219.4862,60.0,1082.0,26.0,445.9999999999362,36.13
1602839219.4871,60.0,1082.0,31.0,445.9999999999362,36.13
1602839219.4896,60.0,1082.0,31.0,445.9999999999362,36.13
1602839219.4925,60.0,1082.0,29.0,445.9999999999362,36.13
1602839219.4943,60.0,1082.0,29.0,445.9999999999362,36.13
1602839219.4962,60.0,1082.0,38.0,445.9999999999362,36.13
1602839219.4984,60.0,1082.0,46.0,445.9999999999362,36.13
1602839219.5002,60.0,1082.0,29.0,445.9999999999362,36.13
1602839219.5022,60.0,1082.0,12.0,445.9999999999362,36.13
1602839219.5042,60.0,1082.0,16.0,445.9999999999362,36.13
1602839219.5062,60.0,1082.0,26.0,445.9999999999362,36.13
1602839219.5082,60.0,1082.0,16.0,445.9999999999362,36.13
1602839219.5102,60.0,1082.0,7.0,445.9999999999362,36.13
1602839219.5122,60.0,1082.0,9.0,445.9999999999362,36.13
1602839219.5143,60.0,1082.0,14.0,445.9999999999362,36.13
1602839219.5162,60.0,1082.0,16.0,445.9999999999362,36.13
1602839219.5182,60.0,1082.0,14.0,445.9999999999362,36.13
1602839219.5202,60.0,1082.0,21.0,445.9999999999362,36.13
1602839219.5222,60.0,1082.0,29.0,445.9999999999362,36.13
1602839219.5242,60.0,1082.0,26.0,445.9999999999362,36.13
1602839219.5262,60.0,1082.0,24.0,445.9999999999362,36.13
1602839219.5282,60.0,1082.0,24.0,445.9999999999362,36.13
1602839219.5302,60.0,1082.0,24.0,445.9999999999362,36.13
1602839219.5321,60.0,1082.0,29.0,445.9999999999362,36.13
1602839219.5342,60.0,1082.0,36.0,445.9999999999362,36.13
1602839219.5361,60.0,1082.0,41.0,445.9999999999362,36.13
1602839219.5382,60.0,1082.0,41.0,445.9999999999362,36.13
1602839219.5402,60.0,1082.0,36.0,445.9999999999362,36.13
1602839219.5422,60.0,1082.0,41.0,445.9999999999362,36.13
1602839219.5442,60.0,1082.0,48.0,445.9999999999362,36.13
1602839219.5462,60.0,1082.0,50.0,445.9999999999362,36.13
1602839219.5482,60.0,1082.0,46.0,445.9999999999362,36.13
1602839219.5501,60.0,1082.0,48.0,445.9999999999362,36.13
1602839219.5522,60.0,1082.0,50.0,445.9999999999362,36.13
1602839219.5541,60.0,1082.0,48.0,445.9999999999362,36.13
1602839219.5562,60.0,1082.0,48.0,445.9999999999362,36.13
1602839219.5582,60.0,1082.0,55.0,445.9999999999362,36.13
1602839219.5602,60.0,1082.0,58.0,445.9999999999362,36.13
1602839219.5621,60.0,1082.0,55.0,445.9999999999362,36.13
1602839219.5642,60.0,1082.0,53.0,445.9999999999362,36.13
1602839219.5661,60.0,1082.0,60.0,445.9999999999362,36.13
1602839219.5682,60.0,1082.0,62.0,445.9999999999362,36.13
1602839219.5701,60.0,1082.0,55.0,445.9999999999362,36.13
1602839219.5721,60.0,1082.0,55.0,445.9999999999362,36.13
1602839219.5741,60.0,1082.0,65.0,445.9999999999362,36.13
1602839219.5761,60.0,1082.0,62.0,445.9999999999362,36.13
1602839219.5782,60.0,1082.0,55.0,445.9999999999362,36.13
1602839219.5801,60.0,1082.0,58.0,445.9999999999362,36.13
1602839219.5821,60.0,1082.0,60.0,445.9999999999362,36.13
1602839219.5841,60.0,1082.0,55.0,445.9999999999362,36.13
1602839219.5861,60.0,1082.0,58.0,445.9999999999362,36.13
1602839219.5881,60.0,1082.0,70.0,445.9999999999362,36.13
1602839219.5901,60.0,1082.0,87.0,445.9999999999362,36.13
1602839219.5921,60.0,1082.0,99.0,445.9999999999362,36.13
1602839219.5943,60.0,1082.0,89.0,445.9999999999362,36.13
1602839219.5962,60.0,1082.0,77.0,445.9999999999362,36.13
1602839219.5982,60.0,1082.0,82.0,445.9999999999362,36.13
1602839219.6001,60.0,1082.0,84.0,445.9999999999362,36.13
1602839219.6021,60.0,1082.0,72.0,445.9999999999362,36.13
1602839219.6041,60.0,1082.0,58.0,445.9999999999362,36.13
1602839219.6061,60.0,1082.0,60.0,445.9999999999362,36.13
1602839219.6082,60.0,1082.0,65.0,445.9999999999362,36.13
1602839219.6101,60.0,1082.0,62.0,445.9999999999362,36.13
1602839219.6121,60.0,1082.0,62.0,445.9999999999362,36.13
1602839219.6141,60.0,1082.0,67.0,445.9999999999362,36.13
1602839219.6161,60.0,1082.0,67.0,445.9999999999362,36.13
1602839219.6181,60.0,1082.0,67.0,445.9999999999362,36.13
1602839219.6201,60.0,1082.0,79.0,445.9999999999362,36.13
1602839219.6221,60.0,1082.0,191.0,445.9999999999362,36.13
1602839219.6241,60.0,1082.0,440.0,445.9999999999362,36.13
1602839219.6261,60.0,1082.0,552.0,445.9999999999362,36.13
1602839219.6281,60.0,1082.0,140.0,445.9999999999362,36.13
1602839219.6301,60.0,1082.0,-399.0,445.9999999999362,36.13
1602839220.0863,59.0,1067.0,-300.0,445.9999999999362,36.13
1602839220.0872,59.0,1067.0,82.0,445.9999999999362,36.13
1602839220.0887,59.0,1067.0,94.0,445.9999999999362,36.13
1602839220.0907,59.0,1067.0,16.0,445.9999999999362,36.13
1602839220.0927,59.0,1067.0,79.0,445.9999999999362,36.13
1602839220.0947,59.0,1067.0,84.0,445.9999999999362,36.13
1602839220.0968,59.0,1067.0,46.0,445.9999999999362,36.13
1602839220.0988,59.0,1067.0,65.0,445.9999999999362,36.13
1602839220.1007,59.0,1067.0,75.0,445.9999999999362,36.13
1602839220.1027,59.0,1067.0,53.0,445.9999999999362,36.13
1602839220.1047,59.0,1067.0,55.0,445.9999999999362,36.13
1602839220.1067,59.0,1067.0,67.0,445.9999999999362,36.13
1602839220.1087,59.0,1067.0,70.0,445.9999999999362,36.13
1602839220.1107,59.0,1067.0,72.0,445.9999999999362,36.13
1602839220.1127,59.0,1067.0,77.0,445.9999999999362,36.13
1602839220.1147,59.0,1067.0,82.0,445.9999999999362,36.13
1602839220.1167,59.0,1067.0,82.0,445.9999999999362,36.13
1602839220.1187,59.0,1067.0,79.0,445.9999999999362,36.13
1602839220.1207,59.0,1067.0,84.0,445.9999999999362,36.13
1602839220.1227,59.0,1067.0,94.0,445.9999999999362,36.13
1602839220.1247,59.0,1067.0,94.0,445.9999999999362,36.13
1602839220.1267,59.0,1067.0,96.0,445.9999999999362,36.13
1602839220.1286,59.0,1067.0,108.0,445.9999999999362,36.13
1602839220.1306,59.0,1067.0,113.0,445.9999999999362,36.13
1602839220.1326,59.0,1067.0,111.0,445.9999999999362,36.13
1602839220.1346,59.0,1067.0,116.0,445.9999999999362,36.13
1602839220.1366,59.0,1067.0,130.0,445.9999999999362,36.13
1602839220.1386,59.0,1067.0,135.0,445.9999999999362,36.13
1602839220.1406,59.0,1067.0,135.0,445.9999999999362,36.13
1602839220.1426,59.0,1067.0,138.0,445.9999999999362,36.13
1602839220.1446,59.0,1067.0,145.0,445.9999999999362,36.13
1602839220.1466,59.0,1067.0,147.0,445.9999999999362,36.13
1602839220.1488,59.0,1067.0,150.0,445.9999999999362,36.13
1602839220.1507,59.0,1067.0,150.0,445.9999999999362,36.13
1602839220.1526,59.0,1067.0,147.0,445.9999999999362,36.13
1602839220.1546,59.0,1067.0,140.0,445.9999999999362,36.13
1602839220.1566,59.0,1067.0,130.0,445.9999999999362,36.13
1602839220.1587,59.0,1067.0,118.0,445.9999999999362,36.13
1602839220.1606,59.0,1067.0,108.0,445.9999999999362,36.13
1602839220.1627,59.0,1067.0,92.0,445.9999999999362,36.13
1602839220.1646,59.0,1067.0,67.0,445.9999999999362,36.13
1602839220.1666,59.0,1067.0,48.0,445.9999999999362,36.13
1602839220.1686,59.0,1067.0,38.0,445.9999999999362,36.13
1602839220.1707,59.0,1067.0,29.0,445.9999999999362,36.13
1602839220.1726,59.0,1067.0,21.0,445.9999999999362,36.13
1602839220.1746,59.0,1067.0,21.0,445.9999999999362,36.13
1602839220.1766,59.0,1067.0,24.0,445.9999999999362,36.13
1602839220.1786,59.0,1067.0,19.0,445.9999999999362,36.13
1602839220.1806,59.0,1067.0,16.0,445.9999999999362,36.13
1602839220.1827,59.0,1067.0,21.0,445.9999999999362,36.13
1602839220.1846,59.0,1067.0,26.0,445.9999999999362,36.13
1602839220.1866,59.0,1067.0,26.0,445.9999999999362,36.13
1602839220.1886,59.0,1067.0,31.0,445.9999999999362,36.13
1602839220.1906,59.0,1067.0,33.0,445.9999999999362,36.13
1602839220.1926,59.0,1067.0,33.0,445.9999999999362,36.13
1602839220.1947,59.0,1067.0,38.0,445.9999999999362,36.13
1602839220.1967,59.0,1067.0,43.0,445.9999999999362,36.13
1602839220.1986,59.0,1067.0,48.0,445.9999999999362,36.13
1602839220.2006,59.0,1067.0,48.0,445.9999999999362,36.13
1602839220.2026,59.0,1067.0,46.0,445.9999999999362,36.13
1602839220.2046,59.0,1067.0,43.0,445.9999999999362,36.13
1602839220.2066,59.0,1067.0,43.0,445.9999999999362,36.13
1602839220.2086,59.0,1067.0,38.0,445.9999999999362,36.13
1602839220.2106,59.0,1067.0,41.0,445.9999999999362,36.13
1602839220.2126,59.0,1067.0,46.0,445.9999999999362,36.13
1602839220.2146,59.0,1067.0,38.0,445.9999999999362,36.13
1602839220.2166,59.0,1067.0,33.0,445.9999999999362,36.13
1602839220.2186,59.0,1067.0,36.0,445.9999999999362,36.13
1602839220.2206,59.0,1067.0,31.0,445.9999999999362,36.13
1602839220.2226,59.0,1067.0,29.0,445.9999999999362,36.13
1602839220.2246,59.0,1067.0,31.0,445.9999999999362,36.13
1602839220.2266,59.0,1067.0,29.0,445.9999999999362,36.13
1602839220.2286,59.0,1067.0,24.0,445.9999999999362,36.13
1602839220.6262,59.0,1067.0,24.0,445.9999999999362,36.13
1602839220.627,59.0,1067.0,21.0,445.9999999999362,36.13
1602839220.6295,59.0,1067.0,19.0,445.9999999999362,36.13
1602839220.6321,59.0,1067.0,24.0,445.9999999999362,36.13
1602839220.6342,59.0,1067.0,31.0,445.9999999999362,36.13
1602839220.6361,59.0,1067.0,31.0,445.9999999999362,36.13
1602839220.6382,59.0,1067.0,31.0,445.9999999999362,36.13
1602839220.6401,59.0,1067.0,33.0,445.9999999999362,36.13
1602839220.6421,59.0,1067.0,36.0,445.9999999999362,36.13
1602839220.6441,59.0,1067.0,33.0,445.9999999999362,36.13
1602839220.6463,59.0,1067.0,36.0,445.9999999999362,36.13
1602839220.6481,59.0,1067.0,41.0,445.9999999999362,36.13
1602839220.6501,59.0,1067.0,41.0,445.9999999999362,36.13
1602839220.6521,59.0,1067.0,33.0,445.9999999999362,36.13
1602839220.654,59.0,1067.0,21.0,445.9999999999362,36.13
1602839220.6561,59.0,1067.0,19.0,445.9999999999362,36.13
1602839220.6581,59.0,1067.0,24.0,445.9999999999362,36.13
1602839220.6601,59.0,1067.0,26.0,445.9999999999362,36.13
1602839220.6621,59.0,1067.0,31.0,445.9999999999362,36.13
1602839220.6641,59.0,1067.0,36.0,445.9999999999362,36.13
1602839220.6661,59.0,1067.0,36.0,445.9999999999362,36.13
1602839220.6681,59.0,1067.0,36.0,445.9999999999362,36.13
1602839220.67,59.0,1067.0,36.0,445.9999999999362,36.13
1602839220.672,59.0,1067.0,38.0,445.9999999999362,36.13
1602839220.674,59.0,1067.0,43.0,445.9999999999362,36.13
1602839220.6761,59.0,1067.0,48.0,445.9999999999362,36.13
1602839220.6781,59.0,1067.0,46.0,445.9999999999362,36.13
1602839220.68,59.0,1067.0,41.0,445.9999999999362,36.13
1602839220.682,59.0,1067.0,41.0,445.9999999999362,36.13
1602839220.684,59.0,1067.0,43.0,445.9999999999362,36.13
1602839220.686,59.0,1067.0,43.0,445.9999999999362,36.13
1602839220.688,59.0,1067.0,38.0,445.9999999999362,36.13
1602839220.69,59.0,1067.0,36.0,445.9999999999362,36.13
1602839220.692,59.0,1067.0,46.0,445.9999999999362,36.13
1602839220.6941,59.0,1067.0,55.0,445.9999999999362,36.13
1602839220.6961,59.0,1067.0,70.0,445.9999999999362,36.13
1602839220.698,59.0,1067.0,82.0,445.9999999999362,36.13
1602839220.7,59.0,1067.0,79.0,445.9999999999362,36.13
1602839220.702,59.0,1067.0,67.0,445.9999999999362,36.13
1602839220.704,59.0,1067.0,65.0,445.9999999999362,36.13
1602839220.706,59.0,1067.0,72.0,445.9999999999362,36.13
1602839220.7081,59.0,1067.0,70.0,445.9999999999362,36.13
1602839220.71,59.0,1067.0,55.0,445.9999999999362,36.13
1602839220.712,59.0,1067.0,41.0,445.9999999999362,36.13
1602839220.714,59.0,1067.0,41.0,445.9999999999362,36.13
1602839220.716,59.0,1067.0,46.0,445.9999999999362,36.13
1602839220.718,59.0,1067.0,50.0,445.9999999999362,36.13
1602839220.7201,59.0,1067.0,58.0,445.9999999999362,36.13
1602839220.722,59.0,1067.0,60.0,445.9999999999362,36.13
1602839220.724,59.0,1067.0,58.0,445.9999999999362,36.13
1602839220.726,59.0,1067.0,50.0,445.9999999999362,36.13
1602839220.7281,59.0,1067.0,87.0,445.9999999999362,36.13
1602839220.73,59.0,1067.0,266.0,445.9999999999362,36.13
1602839220.732,59.0,1067.0,518.0,445.9999999999362,36.13
1602839220.734,59.0,1067.0,447.0,445.9999999999362,36.13
1602839220.736,59.0,1067.0,-106.0,445.9999999999362,36.13
1602839220.738,59.0,1067.0,-445.0,445.9999999999362,36.13
1602839220.74,59.0,1067.0,-140.0,445.9999999999362,36.13
1602839220.742,59.0,1067.0,118.0,445.9999999999362,36.13
1602839220.744,59.0,1067.0,33.0,445.9999999999362,36.13
1602839220.746,59.0,1067.0,24.0,445.9999999999362,36.13
1602839220.7482,59.0,1067.0,89.0,445.9999999999362,36.13
1602839220.7501,59.0,1067.0,67.0,445.9999999999362,36.13
1602839220.752,59.0,1067.0,43.0,445.9999999999362,36.13
1602839220.754,59.0,1067.0,58.0,445.9999999999362,36.13
1602839220.756,59.0,1067.0,60.0,445.9999999999362,36.13
1602839220.758,59.0,1067.0,60.0,445.9999999999362,36.13
1602839220.76,59.0,1067.0,70.0,445.9999999999362,36.13
1602839220.762,59.0,1067.0,75.0,445.9999999999362,36.13
1602839220.764,59.0,1067.0,65.0,445.9999999999362,36.13
1602839220.766,59.0,1067.0,67.0,445.9999999999362,36.13
1602839220.768,59.0,1067.0,75.0,445.9999999999362,36.13
1602839220.77,59.0,1067.0,75.0,445.9999999999362,36.13
1602839221.1961,59.0,1011.0,75.0,445.9999999999362,36.13
1602839221.1969,59.0,1011.0,84.0,445.9999999999362,36.13
1602839221.1994,59.0,1011.0,94.0,445.9999999999362,36.13
1602839221.202,59.0,1011.0,99.0,445.9999999999362,36.13
1602839221.204,59.0,1011.0,99.0,445.9999999999362,36.13
1602839221.206,59.0,1011.0,96.0,445.9999999999362,36.13
1602839221.208,59.0,1011.0,101.0,445.9999999999362,36.13
1602839221.2099,59.0,1011.0,113.0,445.9999999999362,36.13
1602839221.2119,59.0,1011.0,113.0,445.9999999999362,36.13
1602839221.2139,59.0,1011.0,113.0,445.9999999999362,36.13
1602839221.2159,59.0,1011.0,113.0,445.9999999999362,36.13
1602839221.218,59.0,1011.0,111.0,445.9999999999362,36.13
1602839221.2199,59.0,1011.0,116.0,445.9999999999362,36.13
1602839221.2219,59.0,1011.0,128.0,445.9999999999362,36.13
1602839221.2241,59.0,1011.0,130.0,445.9999999999362,36.13
1602839221.2259,59.0,1011.0,138.0,445.9999999999362,36.13
1602839221.2279,59.0,1011.0,140.0,445.9999999999362,36.13
1602839221.2299,59.0,1011.0,130.0,445.9999999999362,36.13
1602839221.2319,59.0,1011.0,118.0,445.9999999999362,36.13
1602839221.2339,59.0,1011.0,118.0,445.9999999999362,36.13
1602839221.2359,59.0,1011.0,116.0,445.9999999999362,36.13
1602839221.2379,59.0,1011.0,99.0,445.9999999999362,36.13
1602839221.2399,59.0,1011.0,82.0,445.9999999999362,36.13
1602839221.2419,59.0,1011.0,65.0,445.9999999999362,36.13
1602839221.2439,59.0,1011.0,46.0,445.9999999999362,36.13
1602839221.2459,59.0,1011.0,33.0,445.9999999999362,36.13
1602839221.2479,59.0,1011.0,26.0,445.9999999999362,36.13
1602839221.2499,59.0,1011.0,16.0,445.9999999999362,36.13
1602839221.2519,59.0,1011.0,12.0,445.9999999999362,36.13
1602839221.2539,59.0,1011.0,12.0,445.9999999999362,36.13
1602839221.2559,59.0,1011.0,9.0,445.9999999999362,36.13
1602839221.2579,59.0,1011.0,12.0,445.9999999999362,36.13
1602839221.2599,59.0,1011.0,16.0,445.9999999999362,36.13
1602839221.2619,59.0,1011.0,21.0,445.9999999999362,36.13
1602839221.2639,59.0,1011.0,24.0,445.9999999999362,36.13
1602839221.2659,59.0,1011.0,24.0,445.9999999999362,36.13
1602839221.2679,59.0,1011.0,29.0,445.9999999999362,36.13
1602839221.2699,59.0,1011.0,31.0,445.9999999999362,36.13
1602839221.2718,59.0,1011.0,29.0,445.9999999999362,36.13
1602839221.274,59.0,1011.0,33.0,445.9999999999362,36.13
1602839221.2759,59.0,1011.0,43.0,445.9999999999362,36.13
1602839221.2779,59.0,1011.0,43.0,445.9999999999362,36.13
1602839221.2799,59.0,1011.0,38.0,445.9999999999362,36.13
1602839221.2819,59.0,1011.0,43.0,445.9999999999362,36.13
1602839221.2839,59.0,1011.0,48.0,445.9999999999362,36.13
1602839221.2859,59.0,1011.0,43.0,445.9999999999362,36.13
1602839221.2879,59.0,1011.0,38.0,445.9999999999362,36.13
1602839221.2899,59.0,1011.0,43.0,445.9999999999362,36.13
1602839221.2919,59.0,1011.0,46.0,445.9999999999362,36.13
1602839221.2939,59.0,1011.0,41.0,445.9999999999362,36.13
1602839221.2959,59.0,1011.0,38.0,445.9999999999362,36.13
1602839221.2979,59.0,1011.0,33.0,445.9999999999362,36.13
1602839221.2999,59.0,1011.0,26.0,445.9999999999362,36.13
1602839221.3019,59.0,1011.0,26.0,445.9999999999362,36.13
1602839221.3039,59.0,1011.0,29.0,445.9999999999362,36.13
1602839221.3059,59.0,1011.0,26.0,445.9999999999362,36.13
1602839221.3079,59.0,1011.0,21.0,445.9999999999362,36.13
1602839221.3099,59.0,1011.0,14.0,445.9999999999362,36.13
1602839221.3119,59.0,1011.0,14.0,445.9999999999362,36.13
1602839221.3139,59.0,1011.0,21.0,445.9999999999362,36.13
1602839221.3159,59.0,1011.0,19.0,445.9999999999362,36.13
1602839221.3179,59.0,1011.0,14.0,445.9999999999362,36.13
1602839221.3199,59.0,1011.0,16.0,445.9999999999362,36.13
1602839221.3219,59.0,1011.0,29.0,445.9999999999362,36.13
1602839221.3239,59.0,1011.0,31.0,445.9999999999362,36.13
1602839221.3259,59.0,1011.0,26.0,445.9999999999362,36.13
1602839221.3279,59.0,1011.0,29.0,445.9999999999362,36.13
1602839221.3299,59.0,1011.0,31.0,445.9999999999362,36.13
1602839221.3319,59.0,1011.0,29.0,445.9999999999362,36.13
1602839221.3339,59.0,1011.0,33.0,445.9999999999362,36.13
1602839221.3359,59.0,1011.0,41.0,445.9999999999362,36.13
1602839221.3379,59.0,1011.0,41.0,445.9999999999362,36.13
1602839221.3399,59.0,1011.0,38.0,445.9999999999362,36.13
1602839221.7056,59.0,1011.0,38.0,445.9999999999362,36.13
1602839221.7062,59.0,1011.0,38.0,445.9999999999362,36.13
1602839221.7076,59.0,1011.0,41.0,445.9999999999362,36.13
1602839221.7094,59.0,1011.0,41.0,445.9999999999362,36.13
1602839221.7114,59.0,1011.0,43.0,445.9999999999362,36.13
1602839221.7134,59.0,1011.0,48.0,445.9999999999362,36.13
1602839221.7154,59.0,1011.0,53.0,445.9999999999362,36.13
1602839221.7175,59.0,1011.0,48.0,445.9999999999362,36.13
1602839221.7194,59.0,1011.0,43.0,445.9999999999362,36.13
1602839221.7214,59.0,1011.0,46.0,445.9999999999362,36.13
1602839221.7234,59.0,1011.0,48.0,445.9999999999362,36.13
1602839221.7255,59.0,1011.0,38.0,445.9999999999362,36.13
1602839221.7274,59.0,1011.0,26.0,445.9999999999362,36.13
1602839221.7294,59.0,1011.0,29.0,445.9999999999362,36.13
1602839221.7314,59.0,1011.0,41.0,445.9999999999362,36.13
1602839221.7334,59.0,1011.0,41.0,445.9999999999362,36.13
1602839221.7354,59.0,1011.0,33.0,445.9999999999362,36.13
1602839221.7376,59.0,1011.0,31.0,445.9999999999362,36.13
1602839221.7394,59.0,1011.0,38.0,445.9999999999362,36.13
1602839221.7414,59.0,1011.0,41.0,445.9999999999362,36.13
1602839221.7434,59.0,1011.0,41.0,445.9999999999362,36.13
1602839221.7454,59.0,1011.0,55.0,445.9999999999362,36.13
1602839221.753,59.0,1011.0,75.0,445.9999999999362,36.13
1602839221.7545,59.0,1011.0,79.0,445.9999999999362,36.13
1602839221.7564,59.0,1011.0,62.0,445.9999999999362,36.13
1602839221.7584,59.0,1011.0,53.0,445.9999999999362,36.13
1602839221.7605,59.0,1011.0,65.0,445.9999999999362,36.13
1602839221.7624,59.0,1011.0,75.0,445.9999999999362,36.13
1602839221.7644,59.0,1011.0,60.0,445.9999999999362,36.13
1602839221.7664,59.0,1011.0,41.0,445.9999999999362,36.13
1602839221.7684,59.0,1011.0,41.0,445.9999999999362,36.13
1602839221.7704,59.0,1011.0,48.0,445.9999999999362,36.13
1602839221.7724,59.0,1011.0,48.0,445.9999999999362,36.13
1602839221.7744,59.0,1011.0,46.0,445.9999999999362,36.13
1602839221.7764,59.0,1011.0,50.0,445.9999999999362,36.13
1602839221.7784,59.0,1011.0,53.0,445.9999999999362,36.13
1602839221.7804,59.0,1011.0,48.0,445.9999999999362,36.13
1602839221.7824,59.0,1011.0,50.0,445.9999999999362,36.13
1602839221.7843,59.0,1011.0,130.0,445.9999999999362,36.13
1602839221.7864,59.0,1011.0,355.0,445.9999999999362,36.13
1602839221.7885,59.0,1011.0,539.0,445.9999999999362,36.13
1602839221.7904,59.0,1011.0,266.0,445.9999999999362,36.13
1602839221.7924,59.0,1011.0,-302.0,445.9999999999362,36.13
1602839221.7944,59.0,1011.0,-377.0,445.9999999999362,36.13
1602839221.7964,59.0,1011.0,-9.0,445.9999999999362,36.13
1602839221.7984,59.0,1011.0,96.0,445.9999999999362,36.13
1602839221.8004,59.0,1011.0,14.0,445.9999999999362,36.13
1602839221.8024,59.0,1011.0,50.0,445.9999999999362,36.13
1602839221.8044,59.0,1011.0,72.0,445.9999999999362,36.13
1602839221.8064,59.0,1011.0,36.0,445.9999999999362,36.13
1602839221.8084,59.0,1011.0,43.0,445.9999999999362,36.13
1602839221.8104,59.0,1011.0,65.0,445.9999999999362,36.13
1602839221.8124,59.0,1011.0,60.0,445.9999999999362,36.13
1602839221.8144,59.0,1011.0,62.0,445.9999999999362,36.13
1602839221.8164,59.0,1011.0,70.0,445.9999999999362,36.13
1602839221.8184,59.0,1011.0,70.0,445.9999999999362,36.13
1602839221.8204,59.0,1011.0,72.0,445.9999999999362,36.13
1602839221.8224,59.0,1011.0,75.0,445.9999999999362,36.13
1602839221.8244,59.0,1011.0,77.0,445.9999999999362,36.13
1602839221.8264,59.0,1011.0,79.0,445.9999999999362,36.13
1602839221.8284,59.0,1011.0,82.0,445.9999999999362,36.13
1602839221.8304,59.0,1011.0,84.0,445.9999999999362,36.13
1602839221.8324,59.0,1011.0,84.0,445.9999999999362,36.13
1602839221.8344,59.0,1011.0,87.0,445.9999999999362,36.13
1602839221.8364,59.0,1011.0,94.0,445.9999999999362,36.13
1602839221.8384,59.0,1011.0,104.0,445.9999999999362,36.13
1602839221.8404,59.0,1011.0,108.0,445.9999999999362,36.13
1602839221.8424,59.0,1011.0,111.0,445.9999999999362,36.13
1602839221.8445,59.0,1011.0,116.0,445.9999999999362,36.13
1602839221.8464,59.0,1011.0,123.0,445.9999999999362,36.13
1602839221.8484,59.0,1011.0,121.0,445.9999999999362,36.13
1602839221.8504,59.0,1011.0,125.0,445.9999999999362,36.13
1602839221.8524,59.0,1011.0,138.0,445.9999999999362,36.13
1602839222.2756,59.0,1006.0,140.0,445.9999999999362,36.13
1602839222.2764,59.0,1006.0,135.0,445.9999999999362,36.13
1602839222.2789,59.0,1006.0,138.0,445.9999999999362,36.13
1602839222.2815,59.0,1006.0,140.0,445.9999999999362,36.13
1602839222.2835,59.0,1006.0,140.0,445.9999999999362,36.13
1602839222.2855,59.0,1006.0,125.0,445.9999999999362,36.13
1602839222.2874,59.0,1006.0,113.0,445.9999999999362,36.13
1602839222.2894,59.0,1006.0,108.0,445.9999999999362,36.13
1602839222.2914,59.0,1006.0,92.0,445.9999999999362,36.13
1602839222.2934,59.0,1006.0,70.0,445.9999999999362,36.13
1602839222.2955,59.0,1006.0,53.0,445.9999999999362,36.13
1602839222.2975,59.0,1006.0,43.0,445.9999999999362,36.13
1602839222.2994,59.0,1006.0,26.0,445.9999999999362,36.13
1602839222.3015,59.0,1006.0,16.0,445.9999999999362,36.13
1602839222.3034,59.0,1006.0,12.0,445.9999999999362,36.13
1602839222.3054,59.0,1006.0,12.0,445.9999999999362,36.13
1602839222.3075,59.0,1006.0,7.0,445.9999999999362,36.13
1602839222.3094,59.0,1006.0,4.0,445.9999999999362,36.13
1602839222.3114,59.0,1006.0,9.0,445.9999999999362,36.13
1602839222.3134,59.0,1006.0,14.0,445.9999999999362,36.13
1602839222.3154,59.0,1006.0,16.0,445.9999999999362,36.13
1602839222.3174,59.0,1006.0,19.0,445.9999999999362,36.13
1602839222.3194,59.0,1006.0,19.0,445.9999999999362,36.13
1602839222.3214,59.0,1006.0,16.0,445.9999999999362,36.13
1602839222.3234,59.0,1006.0,16.0,445.9999999999362,36.13
1602839222.3254,59.0,1006.0,26.0,445.9999999999362,36.13
1602839222.3274,59.0,1006.0,36.0,445.9999999999362,36.13
