Time,ECG
1602831544.5049,3632
1602831544.5072,4327
1602831544.5092,4984
1602831544.5112,5490
1602831544.5126,5984
1602831544.5144,6456
1602831544.5164,6856
1602831544.5184,7245
1602831544.5204,7613
1602831544.5227,7950
1602831544.5248,8275
1602831544.5268,8572
1602831544.5287,8832
1602831544.5309,9076
1602831544.5325,9324
1602831544.5345,9550
1602831544.5364,9752
1602831544.5385,9953
1602831544.5405,10147
1602831544.5425,10317
1602831544.5444,10486
1602831544.5464,10646
1602831544.5485,10781
1602831544.5504,10919
1602831544.5524,11034
1602831544.5544,11140
1602831544.5564,11270
1602831544.5584,11403
1602831544.5604,11499
1602831544.5624,11556
1602831544.5644,11627
1602831544.5664,11723
1602831544.5684,11779
1602831544.5704,11791
1602831544.5724,11831
1602831544.5744,11892
1602831544.5764,11914
1602831544.5784,11924
1602831544.5804,11963
1602831544.5824,12000
1602831544.5844,12018
1602831544.5864,12035
1602831544.5884,12052
1602831544.5904,12185
1602831544.5924,12448
1602831544.5944,12440
1602831544.5964,11905
1602831544.5984,11474
1602831544.6004,11708
1602831544.6024,12008
1602831544.6050,11934
1602831544.6064,11875
1602831544.6083,11917
1602831544.6103,11858
1602831544.6123,11782
1602831544.6143,11774
1602831544.6163,11745
1602831544.6183,11683
1602831544.6203,11654
1602831544.6224,11622
1602831544.6243,11551
1602831544.6263,11477
1602831544.6283,11438
1602831544.6303,11403
1602831544.6323,11352
1602831544.6343,11288
1602831544.6363,11229
1602831544.6383,11162
1602831544.6403,11096
1602831544.6423,11054
1602831544.6443,11005
1602831544.6463,10919
1602831544.6483,10831
1602831545.0123,10789
1602831545.0131,10747
1602831545.0156,10651
1602831545.0182,10558
1602831545.0202,10496
1602831545.0222,10420
1602831545.0242,10332
1602831545.0261,10250
1602831545.0281,10155
1602831545.0301,10044
1602831545.0322,9951
1602831545.0341,9855
1602831545.0361,9759
1602831545.0381,9680
1602831545.0401,9562
1602831545.0422,9412
1602831545.0441,9341
1602831545.0461,9304
1602831545.0481,9199
1602831545.0501,9098
1602831545.0522,9051
1602831545.0541,8977
1602831545.0561,8877
1602831545.0581,8793
1602831545.0602,8714
1602831545.0621,8648
1602831545.0641,8584
1602831545.0661,8476
1602831545.0683,8400
1602831545.0702,8356
1602831545.0721,8257
1602831545.0741,8152
1602831545.0761,8085
1602831545.0781,8016
1602831545.0802,7935
1602831545.0821,7852
1602831545.0841,7766
1602831545.0861,7690
1602831545.0881,7621
1602831545.0901,7535
1602831545.0921,7454
1602831545.0941,7390
1602831545.0961,7314
1602831545.0981,7223
1602831545.1001,7129
1602831545.1021,7043
1602831545.1041,6979
1602831545.1061,6928
1602831545.1081,6866
1602831545.1101,6780
1602831545.1121,6687
1602831545.1141,6616
1602831545.1161,6562
1602831545.1181,6515
1602831545.1202,6453
1602831545.1221,6365
1602831545.1241,6264
1602831545.1261,6181
1602831545.1281,6146
1602831545.1301,6134
1602831545.1321,6058
1602831545.1340,5947
1602831545.1361,5888
1602831545.1381,5846
1602831545.1401,5760
1602831545.1421,5684
1602831545.1441,5633
1602831545.1461,5559
1602831545.1481,5488
1602831545.1501,5448
1602831545.1521,5382
1602831545.1541,5301
1602831545.1561,5252
1602831545.5826,5225
1602831545.5834,5303
1602831545.5858,5500
1602831545.5885,5438
1602831545.5902,4826
1602831545.5915,4325
1602831545.5936,4549
1602831545.5955,4826
1602831545.5974,4706
1602831545.5994,4642
1602831545.6015,4679
1602831545.6035,4600
1602831545.6055,4527
1602831545.6075,4490
1602831545.6094,4421
1602831545.6115,4384
1602831545.6134,4367
1602831545.6154,4298
1602831545.6174,4244
1602831545.6194,4212
1602831545.6215,4146
1602831545.6234,4096
1602831545.6254,4074
1602831545.6274,4015
1602831545.6294,3959
1602831545.6314,3949
1602831545.6334,3920
1602831545.6354,3856
1602831545.6374,3816
1602831545.6394,3809
1602831545.6414,3779
1602831545.6434,3713
1602831545.6454,3661
1602831545.6474,3629
1602831545.6494,3590
1602831545.6514,3556
1602831545.6535,3534
1602831545.6554,3470
1602831545.6574,3376
1602831545.6594,3337
1602831545.6614,3310
1602831545.6634,3226
1602831545.6655,3150
1602831545.6674,3104
1602831545.6694,3047
1602831545.6714,2990
1602831545.6735,2939
1602831545.6754,2909
1602831545.6774,2902
1602831545.6796,2873
1602831545.6815,2806
1602831545.6834,2752
1602831545.6854,2735
1602831545.6874,2728
1602831545.6894,2686
1602831545.6914,2646
1602831545.6934,2634
1602831545.6955,2590
1602831545.6974,2541
1602831545.6994,2541
1602831545.7014,2536
1602831545.7035,2492
1602831545.7054,2462
1602831545.7074,2430
1602831545.7094,2371
1602831545.7114,2339
1602831545.7134,2339
1602831545.7154,2329
1602831545.7174,2297
1602831545.7194,2251
1602831545.7214,2219
1602831545.7234,2209
1602831545.7254,2179
1602831546.1223,2130
1602831546.1232,2103
1602831546.1256,2091
1602831546.1282,2061
1602831546.1302,2044
1602831546.1323,2025
1602831546.1343,2003
1602831546.1362,2007
1602831546.1385,1983
1602831546.1401,1909
1602831546.1423,1872
1602831546.1442,1858
1602831546.1462,1821
1602831546.1482,1813
1602831546.1503,1833
1602831546.1522,1818
1602831546.1542,1791
1602831546.1562,1784
1602831546.1582,1764
1602831546.1604,1740
1602831546.1622,1705
1602831546.1641,1663
1602831546.1661,1639
1602831546.1681,1626
1602831546.1701,1622
1602831546.1721,1609
1602831546.1741,1580
1602831546.1762,1558
1602831546.1781,1553
1602831546.1801,1545
1602831546.1821,1536
1602831546.1841,1644
1602831546.1861,1882
1602831546.1881,1865
1602831546.1901,1309
1602831546.1923,847
1602831546.1941,1101
1602831546.1961,1445
1602831546.1981,1371
1602831546.2002,1307
1602831546.2021,1383
1602831546.2041,1366
1602831546.2062,1319
1602831546.2082,1332
1602831546.2101,1324
1602831546.2121,1295
1602831546.2141,1297
1602831546.2161,1307
1602831546.2181,1287
1602831546.2201,1258
1602831546.2221,1241
1602831546.2242,1231
1602831546.2261,1214
1602831546.2284,1191
1602831546.2301,1204
1602831546.2321,1226
1602831546.2341,1206
1602831546.2361,1189
1602831546.2381,1194
1602831546.2401,1184
1602831546.2421,1172
1602831546.2441,1172
1602831546.2461,1162
1602831546.2481,1135
1602831546.2501,1132
1602831546.2521,1152
1602831546.2541,1155
1602831546.2561,1120
1602831546.2581,1078
1602831546.2601,1054
1602831546.2621,1037
1602831546.2641,992
1602831546.2661,924
1602831546.6927,892
1602831546.6935,906
1602831546.6961,897
1602831546.6986,855
1602831546.7006,830
1602831546.7025,820
1602831546.7045,813
1602831546.7065,808
1602831546.7085,793
1602831546.7105,771
1602831546.7125,776
1602831546.7145,788
1602831546.7165,764
1602831546.7187,754
1602831546.7205,764
1602831546.7225,759
1602831546.7245,747
1602831546.7265,727
1602831546.7285,715
1602831546.7305,727
1602831546.7325,727
1602831546.7345,700
1602831546.7365,695
1602831546.7385,697
1602831546.7405,670
1602831546.7425,666
1602831546.7445,685
1602831546.7465,670
1602831546.7485,638
1602831546.7505,648
1602831546.7525,668
1602831546.7545,643
1602831546.7565,626
1602831546.7585,629
1602831546.7605,616
1602831546.7625,611
1602831546.7645,626
1602831546.7665,629
1602831546.7685,609
1602831546.7705,589
1602831546.7725,575
1602831546.7745,584
1602831546.7765,607
1602831546.7785,592
1602831546.7805,557
1602831546.7825,555
1602831546.7845,582
1602831546.7865,587
1602831546.7886,570
1602831546.7905,567
1602831546.7925,582
1602831546.7945,567
1602831546.7965,523
1602831546.7985,493
1602831546.8005,489
1602831546.8025,506
1602831546.8045,538
1602831546.8065,533
1602831546.8085,503
1602831546.8105,503
1602831546.8125,506
1602831546.8145,552
1602831546.8165,788
1602831546.8185,1029
1602831546.8206,749
1602831546.8225,105
1602831546.8245,-19
1602831546.8265,376
1602831546.8285,508
1602831546.8305,437
1602831546.8325,503
1602831546.8345,513
1602831546.8365,442
1602831547.2624,466
1602831547.2632,508
1602831547.2656,481
1602831547.2682,462
1602831547.2703,493
1602831547.2723,501
1602831547.2743,422
1602831547.2762,380
1602831547.2782,447
1602831547.2802,476
1602831547.2822,442
1602831547.2842,442
1602831547.2862,457
1602831547.2884,452
1602831547.2902,466
1602831547.2922,484
1602831547.2941,471
1602831547.2961,454
1602831547.2981,481
1602831547.3002,508
1602831547.3022,498
1602831547.3041,508
1602831547.3061,513
1602831547.3081,491
1602831547.3101,474
1602831547.3121,466
1602831547.3141,464
1602831547.3162,442
1602831547.3181,388
1602831547.3203,348
1602831547.3223,351
1602831547.3242,348
1602831547.3261,312
1602831547.3282,297
1602831547.3301,302
1602831547.3322,302
1602831547.3341,314
1602831547.3361,309
1602831547.3381,287
1602831547.3401,299
1602831547.3422,312
1602831547.3441,272
1602831547.3463,243
1602831547.3482,270
1602831547.3502,292
1602831547.3522,280
1602831547.3542,292
1602831547.3561,304
1602831547.3581,282
1602831547.3602,285
1602831547.3622,314
1602831547.3641,297
1602831547.3661,265
1602831547.3681,272
1602831547.3702,277
1602831547.3721,267
1602831547.3742,270
1602831547.3761,285
1602831547.3782,292
1602831547.3801,287
1602831547.3821,294
1602831547.3842,287
1602831547.3861,248
1602831547.3882,248
1602831547.3901,290
1602831547.3922,285
1602831547.3941,243
1602831547.3961,235
1602831547.3981,258
1602831547.4001,260
1602831547.4022,243
1602831547.4042,260
1602831547.4062,294
1602831547.8332,287
1602831547.8340,255
1602831547.8355,243
1602831547.8375,250
1602831547.8395,258
1602831547.8414,275
1602831547.8434,275
1602831547.8454,238
1602831547.8474,218
1602831547.8494,243
1602831547.8514,248
1602831547.8534,221
1602831547.8553,199
1602831547.8573,196
1602831547.8593,206
1602831547.8614,226
1602831547.8634,262
1602831547.8654,297
1602831547.8673,275
1602831547.8693,233
1602831547.8715,344
1602831547.8734,619
1602831547.8753,695
1602831547.8774,238
1602831547.8793,-272
1602831547.8814,-145
1602831547.8833,186
1602831547.8853,184
1602831547.8873,199
1602831547.8893,326
1602831547.8915,285
1602831547.8934,206
1602831547.8953,258
1602831547.8973,290
1602831547.8993,253
1602831547.9014,250
1602831547.9033,270
1602831547.9053,262
1602831547.9074,253
1602831547.9093,258
1602831547.9114,277
1602831547.9133,292
1602831547.9153,280
1602831547.9173,265
1602831547.9193,280
1602831547.9213,299
1602831547.9233,312
1602831547.9254,317
1602831547.9274,321
1602831547.9294,334
1602831547.9314,348
1602831547.9333,346
1602831547.9353,339
1602831547.9373,336
1602831547.9393,339
1602831547.9414,329
1602831547.9433,309
1602831547.9453,297
1602831547.9473,280
1602831547.9493,255
1602831547.9514,248
1602831547.9533,235
1602831547.9553,196
1602831547.9573,169
1602831547.9593,179
1602831547.9614,181
1602831547.9633,152
1602831547.9653,142
1602831547.9673,157
1602831547.9693,164
1602831547.9714,157
1602831547.9735,149
1602831547.9754,145
1602831548.4023,135
1602831548.4032,127
1602831548.4044,122
1602831548.4064,130
1602831548.4084,152
1602831548.4104,172
1602831548.4124,181
1602831548.4144,179
1602831548.4164,162
1602831548.4185,145
1602831548.4203,137
1602831548.4223,142
1602831548.4243,152
1602831548.4263,157
1602831548.4283,152
1602831548.4303,149
1602831548.4323,162
1602831548.4342,159
1602831548.4362,142
1602831548.4382,140
1602831548.4402,149
1602831548.4422,174
1602831548.4442,189
1602831548.4462,162
1602831548.4482,145
1602831548.4502,159
1602831548.4522,152
1602831548.4542,132
1602831548.4562,147
1602831548.4582,164
1602831548.4602,157
1602831548.4622,152
1602831548.4642,145
1602831548.4662,135
1602831548.4682,149
1602831548.4703,181
1602831548.4723,223
1602831548.4742,243
1602831548.4763,208
1602831548.4782,181
1602831548.4802,179
1602831548.4823,179
1602831548.4842,186
1602831548.4862,189
1602831548.4882,164
1602831548.4902,137
1602831548.4923,147
1602831548.4942,172
1602831548.4962,179
1602831548.4985,167
1602831548.5003,174
1602831548.5023,309
1602831548.5042,580
1602831548.5062,634
1602831548.5082,117
1602831548.5103,-393
1602831548.5123,-181
1602831548.5142,186
1602831548.5162,154
1602831548.5183,122
1602831548.5203,218
1602831548.5222,201
1602831548.5242,145
1602831548.5262,174
1602831548.5282,196
1602831548.5302,184
1602831548.5323,184
1602831548.5342,186
1602831548.5362,189
1602831548.5382,203
1602831548.5402,211
1602831548.5423,208
1602831548.5442,208
1602831548.9427,206
1602831548.9435,213
1602831548.9460,228
1602831548.9486,238
1602831548.9506,243
1602831548.9525,240
1602831548.9545,245
1602831548.9565,258
1602831548.9585,272
1602831548.9605,275
1602831548.9625,262
1602831548.9645,258
1602831548.9665,265
1602831548.9685,265
1602831548.9704,248
1602831548.9725,238
1602831548.9744,233
1602831548.9764,218
1602831548.9785,196
1602831548.9805,167
1602831548.9825,135
1602831548.9846,108
1602831548.9851,90
1602831548.9864,95
1602831548.9884,95
1602831548.9905,81
1602831548.9924,76
1602831548.9946,86
1602831548.9965,88
1602831548.9984,88
1602831549.0004,88
1602831549.0025,86
1602831549.0044,88
1602831549.0064,95
1602831549.0084,95
1602831549.0104,98
1602831549.0124,108
1602831549.0145,110
1602831549.0152,110
1602831549.0174,110
1602831549.0194,103
1602831549.0215,100
1602831549.0234,108
1602831549.0254,110
1602831549.0275,110
1602831549.0294,105
1602831549.0315,105
1602831549.0335,110
1602831549.0354,105
1602831549.0375,98
1602831549.0396,108
1602831549.0416,125
1602831549.0435,125
1602831549.0454,120
1602831549.0462,115
1602831549.0484,103
1602831549.0504,95
1602831549.0525,103
1602831549.0544,113
1602831549.0565,105
1602831549.0584,93
1602831549.0604,100
1602831549.0625,117
1602831549.0645,130
1602831549.0664,137
1602831549.0685,140
1602831549.0704,135
1602831549.0725,130
1602831549.0744,127
1602831549.0765,127
1602831549.0772,120
1602831549.0795,110
1602831549.0815,108
1602831549.5123,113
1602831549.5131,117
1602831549.5155,120
1602831549.5182,122
1602831549.5202,117
1602831549.5224,154
1602831549.5241,353
1602831549.5261,616
1602831549.5281,464
1602831549.5301,-216
1602831549.5321,-550
1602831549.5341,-132
1602831549.5348,174
1602831549.5371,86
1602831549.5390,93
1602831549.5411,179
1602831549.5430,152
1602831549.5452,135
1602831549.5470,164
1602831549.5491,152
1602831549.5511,140
1602831549.5530,169
1602831549.5550,174
1602831549.5571,154
1602831549.5591,162
1602831549.5611,184
1602831549.5632,181
1602831549.5637,176
1602831549.5651,189
1602831549.5671,199
1602831549.5691,194
1602831549.5711,201
1602831549.5731,211
1602831549.5751,213
1602831549.5771,216
1602831549.5791,228
1602831549.5811,243
1602831549.5830,250
1602831549.5852,253
1602831549.5871,258
1602831549.5890,258
1602831549.5911,243
1602831549.5931,226
1602831549.5938,213
1602831549.5960,199
1602831549.5981,176
1602831549.6000,147
1602831549.6021,110
1602831549.6040,78
1602831549.6060,66
1602831549.6080,63
1602831549.6101,51
1602831549.6121,46
1602831549.6141,51
1602831549.6161,49
1602831549.6180,51
1602831549.6202,63
1602831549.6221,61
1602831549.6240,61
1602831549.6248,76
1602831549.6270,81
1602831549.6290,81
1602831549.6311,78
1602831549.6331,68
1602831549.6351,73
1602831549.6371,90
1602831549.6391,90
1602831549.6411,78
1602831549.6430,83
1602831549.6450,86
1602831549.6470,78
1602831549.6490,83
1602831549.6511,93
1602831550.0524,81
1602831550.0531,78
1602831550.0555,86
1602831550.0581,81
1602831550.0601,76
1602831550.0621,81
1602831550.0642,81
1602831550.0662,83
1602831550.0681,81
1602831550.0701,81
1602831550.0721,86
1602831550.0740,78
1602831550.0761,66
1602831550.0780,68
1602831550.0800,71
1602831550.0821,88
1602831550.0828,105
1602831550.0850,105
1602831550.0870,105
1602831550.0890,125
1602831550.0911,137
1602831550.0930,108
1602831550.0950,71
1602831550.0970,71
1602831550.0990,86
1602831550.1011,86
1602831550.1030,88
1602831550.1050,93
1602831550.1070,95
1602831550.1090,88
1602831550.1111,113
1602831550.1130,285
1602831550.1137,580
1602831550.1160,575
1602831550.1182,-86
1602831550.1201,-621
1602831550.1222,-270
1602831550.1241,145
1602831550.1260,68
1602831550.1280,58
1602831550.1300,164
1602831550.1321,122
1602831550.1340,90
1602831550.1360,149
1602831550.1380,164
1602831550.1400,135
1602831550.1421,125
1602831550.1440,127
1602831550.1524,120
1602831550.1540,140
1602831550.1560,162
1602831550.1580,140
1602831550.1600,135
1602831550.1620,167
1602831550.1640,179
1602831550.1660,169
1602831550.1680,162
1602831550.1700,167
1602831550.1721,186
1602831550.1741,196
1602831550.1760,208
1602831550.1780,221
1602831550.1800,221
1602831550.1807,221
1602831550.1830,223
1602831550.1850,223
1602831550.1871,226
1602831550.1890,218
1602831550.1911,191
1602831550.1930,167
1602831550.1950,147
1602831550.1970,120
1602831550.1990,100
1602831550.6223,86
1602831550.6232,76
1602831550.6257,68
1602831550.6282,51
1602831550.6302,29
1602831550.6322,19
1602831550.6342,24
1602831550.6362,49
1602831550.6382,56
1602831550.6402,34
1602831550.6422,22
1602831550.6442,41
1602831550.6464,76
1602831550.6482,76
1602831550.6502,56
1602831550.6522,63
1602831550.6541,73
1602831550.6561,66
1602831550.6582,66
1602831550.6602,68
1602831550.6621,58
1602831550.6641,58
1602831550.6661,73
1602831550.6681,61
1602831550.6702,46
1602831550.6721,66
1602831550.6741,78
1602831550.6761,58
1602831550.6781,61
1602831550.6801,73
1602831550.6821,63
1602831550.6841,51
1602831550.6861,44
1602831550.6881,41
1602831550.6901,58
1602831550.6921,66
1602831550.6941,61
1602831550.6961,56
1602831550.6981,54
1602831550.7001,58
1602831550.7021,58
1602831550.7041,68
1602831550.7061,90
1602831550.7081,93
1602831550.7101,90
1602831550.7121,100
1602831550.7141,93
1602831550.7161,78
1602831550.7181,66
1602831550.7201,63
1602831550.7222,73
1602831550.7241,81
1602831550.7261,76
1602831550.7281,73
1602831550.7301,81
1602831550.7321,83
1602831550.7341,147
1602831550.7361,383
1602831550.7381,634
1602831550.7401,376
1602831550.7421,-366
1602831550.7441,-572
1602831550.7461,-61
1602831550.7483,159
1602831550.7501,36
1602831550.7522,95
1602831550.7541,169
1602831550.7561,115
1602831550.7581,108
1602831550.7601,142
1602831550.7622,145
1602831550.7641,135
1602831550.7661,142
1602831551.2225,145
1602831551.2233,140
1602831551.2258,147
1602831551.2284,152
1602831551.2304,145
1602831551.2324,135
1602831551.2345,142
1602831551.2364,157
1602831551.2384,162
1602831551.2404,164
1602831551.2424,167
1602831551.2444,169
1602831551.2464,179
1602831551.2484,191
1602831551.2504,196
1602831551.2524,199
1602831551.2544,199
1602831551.2564,199
1602831551.2584,196
1602831551.2604,191
1602831551.2624,184
1602831551.2643,172
1602831551.2663,152
1602831551.2684,132
1602831551.2704,108
1602831551.2724,78
1602831551.2743,51
1602831551.2763,41
1602831551.2783,44
1602831551.2804,41
1602831551.2824,34
1602831551.2843,31
1602831551.2863,34
1602831551.2884,29
1602831551.2903,29
1602831551.2924,36
1602831551.2943,49
1602831551.2963,56
1602831551.2983,54
1602831551.3003,51
1602831551.3024,51
1602831551.3045,54
1602831551.3064,56
1602831551.3083,58
1602831551.3103,61
1602831551.3124,68
1602831551.3144,68
1602831551.3163,68
1602831551.3183,71
1602831551.3204,68
1602831551.3224,63
1602831551.3243,61
1602831551.3264,56
1602831551.3283,54
1602831551.3303,54
1602831551.3324,63
1602831551.3343,71
1602831551.3363,63
1602831551.3384,56
1602831551.3403,66
1602831551.3424,66
1602831551.3443,51
1602831551.3463,51
1602831551.3483,58
1602831551.3503,54
1602831551.3524,63
1602831551.3543,93
1602831551.3563,110
1602831551.3583,93
1602831551.3603,78
1602831551.3624,86
1602831551.3643,81
1602831551.3663,71
1602831551.7917,71
1602831551.7926,71
1602831551.7951,63
1602831551.7978,66
1602831551.7997,86
1602831551.8018,93
1602831551.8037,86
1602831551.8057,93
1602831551.8077,218
1602831551.8097,498
1602831551.8117,597
1602831551.8137,81
1602831551.8156,-538
1602831551.8177,-390
1602831551.8196,61
1602831551.8217,86
1602831551.8236,19
1602831551.8258,108
1602831551.8276,120
1602831551.8298,83
1602831551.8316,105
1602831551.8336,113
1602831551.8356,93
1602831551.8376,98
1602831551.8396,113
1602831551.8416,117
1602831551.8436,122
1602831551.8456,127
1602831551.8476,117
1602831551.8496,122
1602831551.8516,142
1602831551.8536,149
1602831551.8556,147
1602831551.8576,149
1602831551.8596,162
1602831551.8616,174
1602831551.8636,181
1602831551.8656,191
1602831551.8676,199
1602831551.8696,194
1602831551.8716,194
1602831551.8736,213
1602831551.8756,223
1602831551.8776,211
1602831551.8796,201
1602831551.8816,196
1602831551.8836,181
1602831551.8856,147
1602831551.8876,113
1602831551.8896,90
1602831551.8916,71
1602831551.8936,61
1602831551.8957,56
1602831551.8976,51
1602831551.8996,49
1602831551.9016,44
1602831551.9036,41
1602831551.9056,56
1602831551.9076,61
1602831551.9096,49
1602831551.9116,54
1602831551.9136,76
1602831551.9157,71
1602831551.9176,61
1602831551.9196,68
1602831551.9216,73
1602831551.9236,71
1602831551.9256,76
1602831551.9276,88
1602831551.9296,100
1602831551.9318,98
1602831551.9336,88
1602831551.9356,86
1602831552.3312,78
1602831552.3320,76
1602831552.3344,88
1602831552.3371,83
1602831552.3391,68
1602831552.3410,66
1602831552.3431,68
1602831552.3450,73
1602831552.3470,73
1602831552.3490,66
1602831552.3511,56
1602831552.3530,46
1602831552.3550,39
1602831552.3571,36
1602831552.3590,39
1602831552.3611,49
1602831552.3630,63
1602831552.3650,73
1602831552.3670,68
1602831552.3691,61
1602831552.3710,66
1602831552.3730,66
1602831552.3750,46
1602831552.3770,34
1602831552.3790,36
1602831552.3810,44
1602831552.3830,51
1602831552.3850,56
1602831552.3870,63
1602831552.3890,63
1602831552.3910,71
1602831552.3930,172
1602831552.3950,417
1602831552.3970,557
1602831552.3990,167
1602831552.4010,-425
1602831552.4030,-388
1602831552.4050,34
1602831552.4070,113
1602831552.4090,36
1602831552.4110,95
1602831552.4130,122
1602831552.4150,88
1602831552.4170,95
1602831552.4190,108
1602831552.4209,100
1602831552.4230,108
1602831552.4250,125
1602831552.4271,130
1602831552.4290,125
1602831552.4311,113
1602831552.4329,108
1602831552.4350,122
1602831552.4370,132
1602831552.4390,135
1602831552.4410,152
1602831552.4430,172
1602831552.4450,169
1602831552.4471,162
1602831552.4486,164
1602831552.4500,174
1602831552.4521,184
1602831552.4540,196
1602831552.4560,199
1602831552.4580,199
1602831552.4600,203
1602831552.4620,211
1602831552.4640,208
1602831552.4660,184
1602831552.4680,167
1602831552.4700,149
1602831552.4720,122
1602831552.4740,100
1602831552.8716,81
1602831552.8722,56
1602831552.8740,46
1602831552.8760,44
1602831552.8780,39
1602831552.8800,34
1602831552.8820,19
1602831552.8840,17
1602831552.8860,34
1602831552.8879,36
1602831552.8899,17
1602831552.8919,12
1602831552.8939,27
1602831552.8959,36
1602831552.8979,36
1602831552.8999,39
1602831552.9019,56
1602831552.9039,68
1602831552.9059,66
1602831552.9079,63
1602831552.9099,61
1602831552.9120,54
1602831552.9139,54
1602831552.9159,58
1602831552.9180,63
1602831552.9199,66
1602831552.9221,61
1602831552.9239,61
1602831552.9259,66
1602831552.9279,66
1602831552.9299,58
1602831552.9319,61
1602831552.9339,66
1602831552.9359,61
1602831552.9379,58
1602831552.9399,58
1602831552.9419,44
1602831552.9439,36
1602831552.9459,51
1602831552.9479,78
1602831552.9499,98
1602831552.9520,88
1602831552.9539,63
1602831552.9559,61
1602831552.9579,73
1602831552.9599,63
1602831552.9619,49
1602831552.9639,56
1602831552.9659,63
1602831552.9679,54
1602831552.9699,54
1602831552.9720,61
1602831552.9740,58
1602831552.9759,54
1602831552.9779,86
1602831552.9799,250
1602831552.9820,511
1602831552.9839,469
1602831552.9860,-88
1602831552.9879,-486
1602831552.9899,-208
1602831552.9919,103
1602831552.9939,63
1602831552.9959,39
1602831552.9979,103
1602831552.9999,103
1602831553.0019,95
1602831553.0039,108
1602831553.0059,100
1602831553.0079,93
1602831553.0099,103
1602831553.0120,105
1602831553.0139,100
1602831553.4124,98
1602831553.4132,105
1602831553.4157,127
1602831553.4183,132
1602831553.4206,115
1602831553.4223,120
1602831553.4243,140
1602831553.4263,137
1602831553.4282,125
1602831553.4302,142
1602831553.4323,164
1602831553.4342,167
1602831553.4362,176
1602831553.4382,186
1602831553.4402,179
1602831553.4422,176
1602831553.4442,176
1602831553.4462,164
1602831553.4482,167
1602831553.4502,169
1602831553.4522,147
1602831553.4542,117
1602831553.4562,103
1602831553.4582,86
1602831553.4602,73
1602831553.4622,66
1602831553.4642,51
1602831553.4662,34
1602831553.4682,29
1602831553.4702,34
1602831553.4722,39
1602831553.4742,39
1602831553.4762,41
1602831553.4783,46
1602831553.4803,54
1602831553.4822,49
1602831553.4842,49
1602831553.4862,61
1602831553.4882,68
1602831553.4902,58
1602831553.4922,63
1602831553.4943,81
1602831553.4962,83
1602831553.4982,76
1602831553.5002,76
1602831553.5022,78
1602831553.5042,76
1602831553.5062,71
1602831553.5082,73
1602831553.5102,76
1602831553.5122,68
1602831553.5142,66
1602831553.5163,73
1602831553.5182,71
1602831553.5202,66
1602831553.5226,66
1602831553.5242,66
1602831553.5262,71
1602831553.5282,73
1602831553.5302,68
1602831553.5323,56
1602831553.5342,46
1602831553.5362,41
1602831553.5382,46
1602831553.5402,66
1602831553.5422,78
1602831553.5442,71
1602831553.5462,63
1602831553.5482,76
1602831553.5502,81
1602831553.5523,56
1602831553.5542,39
1602831553.5563,41
1602831553.9822,49
1602831553.9830,49
1602831553.9855,49
1602831553.9881,49
1602831553.9901,39
1602831553.9920,34
1602831553.9940,100
1602831553.9960,312
1602831553.9980,540
1602831554.0001,351
1602831554.0020,-280
1602831554.0040,-513
1602831554.0060,-110
1602831554.0081,115
1602831554.0100,24
1602831554.0120,54
1602831554.0140,120
1602831554.0160,88
1602831554.0180,73
1602831554.0200,95
1602831554.0220,98
1602831554.0240,98
1602831554.0260,105
1602831554.0280,105
1602831554.0300,103
1602831554.0320,110
1602831554.0340,122
1602831554.0360,135
1602831554.0380,135
1602831554.0400,130
1602831554.0420,132
1602831554.0440,142
1602831554.0460,152
1602831554.0483,162
1602831554.0501,172
1602831554.0521,179
1602831554.0540,181
1602831554.0560,184
1602831554.0580,196
1602831554.0600,203
1602831554.0620,196
1602831554.0640,189
1602831554.0660,196
1602831554.0680,194
1602831554.0700,179
1602831554.0720,167
1602831554.0740,140
1602831554.0760,105
1602831554.0780,88
1602831554.0800,73
1602831554.0820,58
1602831554.0840,51
1602831554.0859,46
1602831554.0880,39
1602831554.0900,24
1602831554.0920,14
1602831554.0940,31
1602831554.0960,41
1602831554.0980,34
1602831554.1000,39
1602831554.1020,56
1602831554.1040,66
1602831554.1059,61
1602831554.1080,58
1602831554.1100,63
1602831554.1120,66
1602831554.1140,68
1602831554.1160,73
1602831554.1179,78
1602831554.1200,81
1602831554.1220,78
1602831554.1240,76
1602831554.1260,71
1602831554.5823,68
1602831554.5831,71
1602831554.5856,66
1602831554.5882,66
1602831554.5902,81
1602831554.5921,76
1602831554.5942,49
1602831554.5961,44
1602831554.5982,56
1602831554.6001,54
1602831554.6022,46
1602831554.6043,46
1602831554.6061,46
1602831554.6081,58
1602831554.6101,78
1602831554.6121,76
1602831554.6141,61
1602831554.6161,61
1602831554.6181,66
1602831554.6201,56
1602831554.6221,39
1602831554.6241,36
1602831554.6261,56
1602831554.6281,66
1602831554.6301,56
1602831554.6321,51
1602831554.6341,58
1602831554.6361,63
1602831554.6381,90
1602831554.6401,235
1602831554.6421,498
1602831554.6442,498
1602831554.6461,-81
1602831554.6481,-572
1602831554.6501,-292
1602831554.6521,103
1602831554.6542,63
1602831554.6561,31
1602831554.6581,120
1602831554.6601,108
1602831554.6621,83
1602831554.6641,115
1602831554.6661,113
1602831554.6681,98
1602831554.6701,113
1602831554.6721,115
1602831554.6741,95
1602831554.6761,93
1602831554.6781,105
1602831554.6801,115
1602831554.6821,117
1602831554.6842,120
1602831554.6861,127
1602831554.6881,140
1602831554.6901,149
1602831554.6921,154
1602831554.6941,154
1602831554.6961,162
1602831554.6981,174
1602831554.7001,172
1602831554.7021,164
1602831554.7041,172
1602831554.7062,184
1602831554.7082,189
1602831554.7101,189
1602831554.7121,174
1602831554.7141,162
1602831554.7161,162
1602831554.7181,149
1602831554.7201,117
1602831554.7221,90
1602831554.7241,76
1602831554.7261,63
1602831555.1225,44
1602831555.1237,34
1602831555.1256,34
1602831555.1273,17
1602831555.1294,-2
1602831555.1313,-2
1602831555.1333,4
1602831555.1353,12
1602831555.1373,24
1602831555.1393,51
1602831555.1413,49
1602831555.1432,14
1602831555.1452,2
1602831555.1472,19
1602831555.1492,34
1602831555.1513,39
1602831555.1532,56
1602831555.1552,68
1602831555.1572,66
1602831555.1592,71
1602831555.1612,95
1602831555.1632,90
1602831555.1652,51
1602831555.1672,29
1602831555.1692,44
1602831555.1712,63
1602831555.1732,58
1602831555.1752,51
1602831555.1772,54
1602831555.1792,36
1602831555.1812,27
1602831555.1832,49
1602831555.1852,44
1602831555.1872,36
1602831555.1892,61
1602831555.1912,73
1602831555.1932,68
1602831555.1952,58
1602831555.1972,51
1602831555.1992,81
1602831555.2014,100
1602831555.2032,56
1602831555.2052,19
1602831555.2072,36
1602831555.2092,49
1602831555.2112,7
1602831555.2132,-41
1602831555.2152,-27
1602831555.2172,31
1602831555.2192,71
1602831555.2212,127
1602831555.2232,329
1602831555.2253,567
1602831555.2272,344
1602831555.2292,-272
1602831555.2312,-388
1602831555.2332,2
1602831555.2352,58
1602831555.2372,-61
1602831555.2392,54
1602831555.2412,113
1602831555.2432,61
1602831555.2452,86
1602831555.2472,78
1602831555.2492,31
1602831555.2512,49
1602831555.2518,108
1602831555.2532,147
1602831555.2552,103
1602831555.2572,76
1602831555.2592,167
1602831555.2612,181
1602831555.2632,95
1602831555.6923,122
1602831555.6932,186
1602831555.6956,169
1602831555.6983,176
1602831555.7002,208
1602831555.7022,172
1602831555.7042,125
1602831555.7062,152
1602831555.7069,179
1602831555.7082,159
1602831555.7102,152
1602831555.7122,167
1602831555.7142,169
1602831555.7162,154
1602831555.7182,159
1602831555.7202,181
1602831555.7221,152
1602831555.7242,110
1602831555.7263,98
1602831555.7282,56
1602831555.7301,51
1602831555.7322,95
1602831555.7341,63
1602831555.7361,-17
1602831555.7368,17
1602831555.7382,132
1602831555.7402,83
1602831555.7421,-100
1602831555.7441,-88
1602831555.7462,68
1602831555.7481,98
1602831555.7502,31
1602831555.7522,31
1602831555.7541,86
1602831555.7561,83
1602831555.7581,78
1602831555.7601,152
1602831555.7621,162
1602831555.7641,63
1602831555.7661,34
1602831555.7669,44
1602831555.7681,27
1602831555.7701,44
1602831555.7722,49
1602831555.7741,34
1602831555.7762,63
1602831555.7781,90
1602831555.7802,88
1602831555.7822,86
1602831555.7841,66
1602831555.7862,51
1602831555.7881,58
1602831555.7903,54
1602831555.7922,63
1602831555.7941,95
1602831555.7961,86
1602831555.7968,54
1602831555.7981,71
1602831555.8001,83
1602831555.8021,46
1602831555.8042,56
1602831555.8061,110
1602831555.8081,100
1602831555.8101,66
1602831555.8121,98
1602831555.8141,103
1602831555.8161,24
1602831555.8181,4
1602831555.8201,46
1602831555.8223,56
1602831555.8242,61
1602831555.8261,71
1602831555.8268,149
1602831556.2922,378
1602831556.2930,538
1602831556.2955,208
1602831556.2981,-339
1602831556.3001,-309
1602831556.3022,56
1602831556.3041,54
1602831556.3061,-41
1602831556.3081,66
1602831556.3101,103
1602831556.3121,56
1602831556.3140,90
1602831556.3147,103
1602831556.3170,63
1602831556.3190,90
1602831556.3210,127
1602831556.3230,105
1602831556.3250,83
1602831556.3270,90
1602831556.3290,98
1602831556.3311,105
1602831556.3331,132
1602831556.3350,132
1602831556.3370,83
1602831556.3390,78
1602831556.3410,122
1602831556.3430,147
1602831556.3450,167
1602831556.3457,194
1602831556.3470,179
1602831556.3490,154
1602831556.3510,174
1602831556.3530,201
1602831556.3550,206
1602831556.3570,194
1602831556.3590,176
1602831556.3611,167
1602831556.3630,149
1602831556.3650,105
1602831556.3671,71
1602831556.3690,71
1602831556.3710,78
1602831556.3730,58
1602831556.3750,22
1602831556.3757,29
1602831556.3770,61
1602831556.3790,58
1602831556.3812,29
1602831556.3830,14
1602831556.3850,19
1602831556.3870,46
1602831556.3890,81
1602831556.3910,76
1602831556.3931,61
1602831556.3950,66
1602831556.3970,66
1602831556.3990,63
1602831556.4010,66
1602831556.4030,66
1602831556.4037,56
1602831556.4050,61
1602831556.4070,88
1602831556.4090,90
1602831556.4110,78
1602831556.4130,81
1602831556.4150,68
1602831556.4170,56
1602831556.4190,73
1602831556.4210,73
1602831556.4230,61
1602831556.4250,78
1602831556.4270,76
1602831556.4290,44
1602831556.8016,36
1602831556.8026,73
1602831556.8043,93
1602831556.8067,63
1602831556.8087,49
1602831556.8107,81
1602831556.8126,113
1602831556.8146,95
1602831556.8166,39
1602831556.8186,36
1602831556.8206,71
1602831556.8226,58
1602831556.8246,24
1602831556.8266,31
1602831556.8285,39
1602831556.8306,24
1602831556.8326,22
1602831556.8345,36
1602831556.8352,36
1602831556.8365,12
1602831556.8386,4
1602831556.8405,140
1602831556.8426,430
1602831556.8446,474
1602831556.8466,-61
1602831556.8487,-525
1602831556.8506,-277
1602831556.8526,66
1602831556.8546,39
1602831556.8566,14
1602831556.8586,81
1602831556.8606,78
1602831556.8626,76
1602831556.8646,108
1602831556.8652,98
1602831556.8666,71
1602831556.8685,83
1602831556.8707,100
1602831556.8726,98
1602831556.8746,103
1602831556.8766,100
1602831556.8786,98
1602831556.8806,108
1602831556.8827,120
1602831556.8846,142
1602831556.8866,149
1602831556.8887,142
1602831556.8906,147
1602831556.8926,164
1602831556.8946,174
1602831556.8966,172
1602831556.8986,172
1602831556.9006,179
1602831556.9026,191
1602831556.9046,189
1602831556.9066,167
1602831556.9086,157
1602831556.9106,157
1602831556.9126,152
1602831556.9146,140
1602831556.9166,120
1602831556.9186,93
1602831556.9207,73
1602831556.9226,63
1602831556.9246,54
1602831556.9266,36
1602831556.9286,17
1602831556.9306,7
1602831556.9326,0
1602831556.9347,2
1602831556.9366,19
1602831556.9386,24
1602831556.9406,19
1602831557.3422,51
1602831557.3431,86
1602831557.3456,66
1602831557.3484,46
1602831557.3502,58
1602831557.3522,63
1602831557.3542,56
1602831557.3561,44
1602831557.3581,34
1602831557.3602,41
1602831557.3621,49
1602831557.3641,36
1602831557.3662,14
1602831557.3682,9
1602831557.3701,36
1602831557.3721,63
1602831557.3741,51
1602831557.3761,29
1602831557.3782,27
1602831557.3801,34
1602831557.3822,41
1602831557.3842,51
1602831557.3861,49
1602831557.3881,39
1602831557.3901,46
1602831557.3921,54
1602831557.3940,44
1602831557.3961,54
1602831557.3981,68
1602831557.4001,73
1602831557.4022,76
1602831557.4041,88
1602831557.4061,88
1602831557.4081,61
1602831557.4101,41
1602831557.4121,39
1602831557.4141,39
1602831557.4161,31
1602831557.4182,31
1602831557.4201,36
1602831557.4221,29
1602831557.4240,63
1602831557.4261,265
1602831557.4280,540
1602831557.4300,417
1602831557.4321,-233
1602831557.4343,-582
1602831557.4361,-199
1602831557.4381,105
1602831557.4401,34
1602831557.4420,46
1602831557.4441,125
1602831557.4461,100
1602831557.4480,90
1602831557.4503,108
1602831557.4521,98
1602831557.4541,95
1602831557.4561,108
1602831557.4580,105
1602831557.4600,100
1602831557.4621,113
1602831557.4641,115
1602831557.4661,110
1602831557.4681,117
1602831557.4700,130
1602831557.4721,132
1602831557.4741,135
1602831557.4761,147
1602831557.4780,162
1602831557.4800,172
1602831557.4821,181
1602831557.4842,184
1602831557.4861,186
1602831557.9423,196
1602831557.9431,194
1602831557.9457,184
1602831557.9482,176
1602831557.9502,167
1602831557.9522,152
1602831557.9543,140
1602831557.9562,125
1602831557.9582,105
1602831557.9602,86
1602831557.9623,58
1602831557.9643,31
1602831557.9662,24
1602831557.9682,19
1602831557.9702,4
1602831557.9721,0
1602831557.9742,12
1602831557.9762,19
1602831557.9782,14
1602831557.9802,12
1602831557.9822,22
1602831557.9841,27
1602831557.9861,34
1602831557.9881,49
1602831557.9901,56
1602831557.9921,56
1602831557.9942,54
1602831557.9961,51
1602831557.9981,51
1602831558.0001,58
1602831558.0021,63
1602831558.0042,63
1602831558.0063,58
1602831558.0081,49
1602831558.0102,51
1602831558.0122,66
1602831558.0141,63
1602831558.0161,49
1602831558.0181,49
1602831558.0201,58
1602831558.0221,56
1602831558.0241,44
1602831558.0262,31
1602831558.0283,31
1602831558.0301,54
1602831558.0322,78
1602831558.0341,90
1602831558.0361,95
1602831558.0382,88
1602831558.0401,88
1602831558.0421,98
1602831558.0442,81
1602831558.0461,54
1602831558.0481,49
1602831558.0501,49
1602831558.0521,49
1602831558.0541,54
1602831558.0561,39
1602831558.0582,36
1602831558.0602,58
1602831558.0622,66
1602831558.0641,145
1602831558.0661,393
1602831558.0681,518
1602831558.0701,86
1602831558.0721,-508
1602831558.0741,-422
1602831558.0761,19
1602831558.0782,73
1602831558.0801,-2
1602831558.0822,68
1602831558.0841,78
1602831558.0861,44
1602831558.5122,68
1602831558.5131,81
1602831558.5155,58
1602831558.5182,68
1602831558.5202,88
1602831558.5222,88
1602831558.5242,90
1602831558.5262,95
1602831558.5282,103
1602831558.5302,108
1602831558.5323,100
1602831558.5341,90
1602831558.5362,100
1602831558.5381,125
1602831558.5402,135
1602831558.5421,137
1602831558.5441,137
1602831558.5461,140
1602831558.5481,152
1602831558.5501,162
1602831558.5522,167
1602831558.5541,164
1602831558.5563,154
1602831558.5581,147
1602831558.5601,159
1602831558.5622,162
1602831558.5641,140
1602831558.5661,125
1602831558.5681,100
1602831558.5701,71
1602831558.5722,56
1602831558.5741,44
1602831558.5761,22
1602831558.5781,17
1602831558.5801,24
1602831558.5821,27
1602831558.5841,31
1602831558.5861,36
1602831558.5882,34
1602831558.5901,41
1602831558.5922,54
1602831558.5941,61
1602831558.5961,61
1602831558.5981,68
1602831558.6002,78
1602831558.6021,73
1602831558.6041,68
1602831558.6061,78
1602831558.6081,76
1602831558.6100,66
1602831558.6121,63
1602831558.6141,68
1602831558.6161,73
1602831558.6181,73
1602831558.6202,71
1602831558.6221,66
1602831558.6241,66
1602831558.6261,73
1602831558.6281,76
1602831558.6301,71
1602831558.6321,73
1602831558.6343,68
1602831558.6361,58
1602831558.6381,61
1602831558.6401,66
1602831558.6421,78
1602831558.6441,100
1602831558.6461,90
1602831558.6481,71
1602831558.6501,76
1602831558.6521,83
1602831558.6541,76
1602831558.6562,68
1602831559.0519,63
1602831559.0531,63
1602831559.0555,63
1602831559.0581,68
1602831559.0601,76
1602831559.0621,76
1602831559.0642,66
1602831559.0661,108
1602831559.0682,312
1602831559.0702,543
1602831559.0721,344
1602831559.0741,-294
1602831559.0761,-508
1602831559.0781,-95
1602831559.0801,115
1602831559.0820,7
1602831559.0841,39
1602831559.0863,115
1602831559.0881,83
1602831559.0900,71
1602831559.0920,103
1602831559.0940,98
1602831559.0960,90
1602831559.0980,103
1602831559.1001,105
1602831559.1021,100
1602831559.1040,105
1602831559.1060,110
1602831559.1080,122
1602831559.1100,132
1602831559.1121,130
1602831559.1141,125
1602831559.1161,145
1602831559.1180,167
1602831559.1201,174
1602831559.1222,174
1602831559.1240,179
1602831559.1260,186
1602831559.1280,194
1602831559.1302,189
1602831559.1321,184
1602831559.1340,184
1602831559.1360,181
1602831559.1380,172
1602831559.1400,169
1602831559.1420,162
1602831559.1440,149
1602831559.1460,127
1602831559.1481,100
1602831559.1500,71
1602831559.1521,54
1602831559.1540,56
1602831559.1560,56
1602831559.1580,46
1602831559.1600,39
1602831559.1620,34
1602831559.1640,36
1602831559.1661,41
1602831559.1680,44
1602831559.1700,54
1602831559.1721,66
1602831559.1741,61
1602831559.1761,61
1602831559.1781,66
1602831559.1800,61
1602831559.1821,63
1602831559.1840,76
1602831559.1860,78
1602831559.1880,68
1602831559.1900,71
1602831559.1920,73
1602831559.1940,68
1602831559.1960,78
1602831559.5922,83
1602831559.5930,71
1602831559.5956,68
1602831559.5982,73
1602831559.6001,66
1602831559.6022,63
1602831559.6042,73
1602831559.6061,76
1602831559.6081,56
1602831559.6101,41
1602831559.6122,49
1602831559.6141,56
1602831559.6161,76
1602831559.6181,95
1602831559.6201,86
1602831559.6220,68
1602831559.6240,81
1602831559.6264,88
1602831559.6281,73
1602831559.6301,61
1602831559.6321,61
1602831559.6340,61
1602831559.6361,61
1602831559.6380,66
1602831559.6401,66
1602831559.6420,66
1602831559.6441,68
1602831559.6460,132
1602831559.6482,346
1602831559.6501,550
1602831559.6520,277
1602831559.6541,-348
1602831559.6560,-454
1602831559.6580,-31
1602831559.6601,110
1602831559.6621,12
1602831559.6640,56
1602831559.6660,105
1602831559.6680,78
1602831559.6700,88
1602831559.6720,108
1602831559.6740,95
1602831559.6761,95
1602831559.6780,103
1602831559.6800,100
1602831559.6821,100
1602831559.6840,108
1602831559.6860,113
1602831559.6880,110
1602831559.6900,110
1602831559.6920,113
1602831559.6941,127
1602831559.6960,149
1602831559.6980,154
1602831559.7000,149
1602831559.7021,154
1602831559.7041,169
1602831559.7061,179
1602831559.7080,181
1602831559.7101,181
1602831559.7120,181
1602831559.7140,181
1602831559.7160,172
1602831559.7180,164
1602831559.7200,167
1602831559.7220,152
1602831559.7240,122
1602831559.7262,108
1602831559.7282,93
1602831559.7300,71
1602831559.7320,49
1602831559.7340,39
1602831559.7360,36
1602831560.1622,39
1602831560.1630,41
1602831560.1655,39
1602831560.1681,39
1602831560.1701,46
1602831560.1721,44
1602831560.1743,36
1602831560.1761,41
1602831560.1781,56
1602831560.1801,58
1602831560.1821,54
1602831560.1840,54
1602831560.1860,54
1602831560.1881,56
1602831560.1901,58
1602831560.1920,56
1602831560.1940,61
1602831560.1960,76
1602831560.1980,78
1602831560.2000,71
1602831560.2021,68
1602831560.2040,71
1602831560.2061,63
1602831560.2081,58
1602831560.2100,63
1602831560.2120,66
1602831560.2140,66
1602831560.2160,68
1602831560.2180,66
1602831560.2200,56
1602831560.2222,46
1602831560.2240,54
1602831560.2260,86
1602831560.2280,113
1602831560.2300,95
1602831560.2321,68
1602831560.2340,78
1602831560.2360,93
1602831560.2382,81
1602831560.2400,66
1602831560.2420,58
1602831560.2440,56
1602831560.2460,56
1602831560.2480,56
1602831560.2500,61
1602831560.2520,66
1602831560.2543,56
1602831560.2560,90
1602831560.2580,287
1602831560.2600,538
1602831560.2620,380
1602831560.2640,-235
1602831560.2660,-491
1602831560.2680,-120
1602831560.2700,103
1602831560.2720,24
1602831560.2740,49
1602831560.2760,103
1602831560.2780,68
1602831560.2800,58
1602831560.2820,88
1602831560.2840,95
1602831560.2860,88
1602831560.2881,88
1602831560.2900,93
1602831560.2920,100
1602831560.2940,105
1602831560.2960,108
1602831560.2980,113
1602831560.3000,115
1602831560.3020,125
1602831560.3041,132
1602831560.3060,130
1602831560.7323,140
1602831560.7334,159
1602831560.7358,167
1602831560.7384,167
1602831560.7404,169
1602831560.7425,172
1602831560.7446,176
1602831560.7465,172
1602831560.7484,162
1602831560.7505,157
1602831560.7524,157
1602831560.7544,147
1602831560.7565,130
1602831560.7584,120
1602831560.7604,100
1602831560.7624,78
1602831560.7644,58
1602831560.7665,46
1602831560.7684,31
1602831560.7704,29
1602831560.7724,31
1602831560.7744,27
1602831560.7764,24
1602831560.7784,31
1602831560.7808,31
1602831560.7825,36
1602831560.7844,46
1602831560.7864,54
1602831560.7884,58
1602831560.7905,63
1602831560.7924,58
1602831560.7943,54
1602831560.7964,58
1602831560.7984,61
1602831560.8004,58
1602831560.8023,61
1602831560.8044,61
1602831560.8063,56
1602831560.8083,56
1602831560.8103,63
1602831560.8123,61
1602831560.8145,66
1602831560.8164,73
1602831560.8183,63
1602831560.8204,56
1602831560.8224,58
1602831560.8243,58
1602831560.8264,56
1602831560.8283,56
1602831560.8303,54
1602831560.8325,51
1602831560.8343,54
1602831560.8364,63
1602831560.8384,83
1602831560.8403,93
1602831560.8423,90
1602831560.8443,90
1602831560.8463,88
1602831560.8485,71
1602831560.8504,56
1602831560.8524,56
1602831560.8543,58
1602831560.8563,58
1602831560.8583,63
1602831560.8603,63
1602831560.8623,61
1602831560.8644,56
1602831560.8664,76
1602831560.8683,211
1602831560.8703,466
1602831560.8723,503
1602831560.8743,-2
1602831560.8763,-486
1602831561.3021,-280
1602831561.3029,76
1602831561.3056,51
1602831561.3080,12
1602831561.3100,90
1602831561.3120,93
1602831561.3141,68
1602831561.3160,81
1602831561.3180,73
1602831561.3200,68
1602831561.3220,83
1602831561.3239,88
1602831561.3260,86
1602831561.3280,88
1602831561.3300,90
1602831561.3319,83
1602831561.3339,90
1602831561.3360,115
1602831561.3379,120
1602831561.3400,110
1602831561.3421,120
1602831561.3440,140
1602831561.3459,147
1602831561.3479,147
1602831561.3499,147
1602831561.3519,154
1602831561.3539,167
1602831561.3559,169
1602831561.3579,154
1602831561.3600,142
1602831561.3619,145
1602831561.3639,147
1602831561.3659,132
1602831561.3679,122
1602831561.3699,108
1602831561.3719,78
1602831561.3739,54
1602831561.3760,41
1602831561.3779,31
1602831561.3799,17
1602831561.3820,17
1602831561.3839,31
1602831561.3859,34
1602831561.3879,27
1602831561.3899,29
1602831561.3920,31
1602831561.3939,34
1602831561.3959,44
1602831561.3979,54
1602831561.4000,58
1602831561.4019,58
1602831561.4039,56
1602831561.4059,63
1602831561.4081,73
1602831561.4100,66
1602831561.4119,63
1602831561.4139,66
1602831561.4159,66
1602831561.4179,63
1602831561.4199,63
1602831561.4219,66
1602831561.4239,73
1602831561.4260,73
1602831561.4279,56
1602831561.4299,54
1602831561.4319,73
1602831561.4339,73
1602831561.4359,61
1602831561.4379,58
1602831561.4399,61
1602831561.4420,51
1602831561.4439,49
1602831561.4459,68
1602831561.9022,90
1602831561.9030,88
1602831561.9056,73
1602831561.9081,73
1602831561.9101,83
1602831561.9121,81
1602831561.9142,61
1602831561.9162,49
1602831561.9181,44
1602831561.9201,34
1602831561.9221,31
1602831561.9241,51
1602831561.9261,61
1602831561.9281,46
1602831561.9301,54
1602831561.9320,194
1602831561.9340,471
1602831561.9361,513
1602831561.9381,-34
1602831561.9401,-555
1602831561.9421,-334
1602831561.9440,54
1602831561.9460,36
1602831561.9481,2
1602831561.9500,90
1602831561.9521,73
1602831561.9542,27
1602831561.9560,44
1602831561.9566,56
1602831561.9580,56
1602831561.9600,66
1602831561.9622,76
1602831561.9640,81
1602831561.9660,81
1602831561.9680,73
1602831561.9701,78
1602831561.9721,93
1602831561.9740,100
1602831561.9760,105
1602831561.9780,122
1602831561.9800,142
1602831561.9820,142
1602831561.9840,135
1602831561.9861,145
1602831561.9866,169
1602831561.9880,181
1602831561.9900,184
1602831561.9920,184
1602831561.9940,181
1602831561.9960,179
1602831561.9980,169
1602831562.0000,162
1602831562.0021,157
1602831562.0040,147
1602831562.0060,117
1602831562.0080,76
1602831562.0100,63
1602831562.0120,61
1602831562.0140,31
1602831562.0146,9
1602831562.0160,9
1602831562.0180,4
1602831562.0201,17
1602831562.0220,29
1602831562.0240,17
1602831562.0260,12
1602831562.0280,22
1602831562.0300,19
1602831562.0320,44
1602831562.0340,73
1602831562.0361,49
1602831562.0380,27
1602831562.0400,49
1602831562.4421,51
1602831562.4430,29
1602831562.4455,24
1602831562.4481,58
1602831562.4502,68
1602831562.4522,36
1602831562.4542,44
1602831562.4561,86
1602831562.4581,93
1602831562.4603,86
1602831562.4621,81
1602831562.4640,49
1602831562.4661,27
1602831562.4680,29
1602831562.4700,7
1602831562.4721,-2
1602831562.4740,19
1602831562.4746,31
1602831562.4760,49
1602831562.4780,66
1602831562.4800,63
1602831562.4821,81
1602831562.4840,98
1602831562.4860,83
1602831562.4880,58
1602831562.4900,51
1602831562.4920,34
1602831562.4940,19
1602831562.4960,24
1602831562.4981,39
1602831562.5000,41
1602831562.5021,58
1602831562.5040,93
1602831562.5046,88
1602831562.5060,73
1602831562.5080,186
1602831562.5100,444
1602831562.5121,516
1602831562.5141,22
1602831562.5160,-540
1602831562.5180,-366
1602831562.5201,71
1602831562.5220,86
1602831562.5240,12
1602831562.5260,88
1602831562.5280,98
1602831562.5300,68
1602831562.5320,78
1602831562.5340,68
1602831562.5346,61
1602831562.5360,86
1602831562.5380,108
1602831562.5400,117
1602831562.5420,115
1602831562.5440,108
1602831562.5460,105
1602831562.5481,100
1602831562.5500,90
1602831562.5520,108
1602831562.5540,154
1602831562.5562,172
1602831562.5580,149
1602831562.5600,149
1602831562.5620,164
1602831562.5641,184
1602831562.5646,191
1602831562.5660,176
1602831562.5680,167
1602831562.5700,167
1602831562.5720,152
1602831562.5740,140
1602831562.5760,145
1602831562.5780,157
1602831562.9823,154
1602831562.9831,135
1602831562.9856,105
1602831562.9866,73
1602831562.9882,44
1602831562.9902,31
1602831562.9922,9
1602831562.9943,-12
1602831562.9962,-14
1602831562.9982,-22
1602831563.0002,-24
1602831563.0021,-17
1602831563.0041,-9
1602831563.0061,14
1602831563.0081,14
1602831563.0102,2
1602831563.0121,36
1602831563.0141,51
1602831563.0161,4
1602831563.0167,4
1602831563.0181,49
1602831563.0201,41
1602831563.0221,12
1602831563.0241,24
1602831563.0262,58
1602831563.0281,66
1602831563.0301,56
1602831563.0322,34
1602831563.0341,27
1602831563.0361,61
1602831563.0381,78
1602831563.0401,56
1602831563.0422,46
1602831563.0442,39
1602831563.0461,27
1602831563.0467,46
1602831563.0481,63
1602831563.0501,46
1602831563.0523,39
1602831563.0541,41
1602831563.0561,46
1602831563.0581,63
1602831563.0601,68
1602831563.0621,54
1602831563.0641,58
1602831563.0661,81
1602831563.0681,81
1602831563.0701,63
1602831563.0721,58
1602831563.0741,58
1602831563.0761,34
1602831563.0767,27
1602831563.0781,61
1602831563.0801,78
1602831563.0821,58
1602831563.0840,44
1602831563.0860,41
1602831563.0881,110
1602831563.0900,348
1602831563.0921,543
1602831563.0940,235
1602831563.0961,-383
1602831563.0981,-466
1602831563.1001,-46
1602831563.1021,100
1602831563.1040,14
1602831563.1061,51
1602831563.1067,90
1602831563.1081,56
1602831563.1101,61
1602831563.1121,81
1602831563.1140,61
1602831563.1161,49
1602831563.5221,61
1602831563.5231,73
1602831563.5255,81
1602831563.5281,81
1602831563.5301,76
1602831563.5321,83
1602831563.5342,103
1602831563.5362,110
1602831563.5382,115
1602831563.5401,130
1602831563.5408,135
1602831563.5420,132
1602831563.5441,127
1602831563.5461,130
1602831563.5481,157
1602831563.5500,164
1602831563.5525,145
1602831563.5542,157
1602831563.5561,184
1602831563.5582,169
1602831563.5601,145
1602831563.5620,142
1602831563.5640,137
1602831563.5660,115
1602831563.5681,93
1602831563.5701,71
1602831563.5721,49
1602831563.5740,31
1602831563.5760,4
1602831563.5780,2
1602831563.5800,29
1602831563.5821,29
1602831563.5840,9
1602831563.5861,19
1602831563.5881,39
1602831563.5900,27
1602831563.5920,2
1602831563.5940,7
1602831563.5960,36
1602831563.5980,56
1602831563.6000,58
1602831563.6021,54
1602831563.6041,51
1602831563.6061,41
1602831563.6080,31
1602831563.6100,54
1602831563.6120,78
1602831563.6140,63
1602831563.6160,61
1602831563.6180,76
1602831563.6201,61
1602831563.6220,36
1602831563.6240,49
1602831563.6260,71
1602831563.6280,58
1602831563.6300,51
1602831563.6321,61
1602831563.6340,49
1602831563.6361,39
1602831563.6380,54
1602831563.6400,58
1602831563.6421,54
1602831563.6440,54
1602831563.6460,51
1602831563.6481,41
1602831563.6501,29
1602831563.6521,29
1602831563.6544,46
1602831563.6562,63
1602831563.6580,61
1602831563.6601,54
1602831563.6621,68
1602831563.6641,73
1602831564.0923,56
1602831564.0931,44
1602831564.0956,31
1602831564.0983,29
1602831564.1003,34
1602831564.1022,24
1602831564.1043,12
1602831564.1062,27
1602831564.1082,34
1602831564.1102,51
1602831564.1121,203
1602831564.1142,459
1602831564.1162,420
1602831564.1181,-135
1602831564.1201,-521
1602831564.1222,-240
1602831564.1242,54
1602831564.1262,19
1602831564.1282,17
1602831564.1301,71
1602831564.1322,56
1602831564.1341,51
1602831564.1361,76
1602831564.1382,66
1602831564.1402,44
1602831564.1421,56
1602831564.1441,93
1602831564.1461,93
1602831564.1482,76
1602831564.1501,86
1602831564.1521,103
1602831564.1542,90
1602831564.1562,88
1602831564.1581,125
1602831564.1601,137
1602831564.1622,115
1602831564.1644,127
1602831564.1662,164
1602831564.1681,167
1602831564.1701,162
1602831564.1721,176
1602831564.1741,179
1602831564.1761,157
1602831564.1781,149
1602831564.1802,164
1602831564.1823,169
1602831564.1841,162
1602831564.1861,157
1602831564.1881,149
1602831564.1901,120
1602831564.1921,76
1602831564.1941,44
1602831564.1961,41
1602831564.1981,41
1602831564.2001,14
1602831564.2022,-14
1602831564.2042,-7
1602831564.2062,22
1602831564.2081,27
1602831564.2101,19
1602831564.2121,24
1602831564.2142,29
1602831564.2161,27
1602831564.2181,19
1602831564.2201,17
1602831564.2221,29
1602831564.2241,51
1602831564.2261,56
1602831564.2281,44
1602831564.2302,31
1602831564.2321,39
1602831564.2341,54
1602831564.2361,51
1602831564.6623,51
1602831564.6632,66
1602831564.6657,68
1602831564.6683,61
1602831564.6703,58
1602831564.6723,54
1602831564.6745,39
1602831564.6764,36
1602831564.6783,44
1602831564.6803,36
1602831564.6823,22
1602831564.6843,24
1602831564.6863,39
1602831564.6882,44
1602831564.6902,39
1602831564.6923,46
1602831564.6943,54
1602831564.6963,39
1602831564.6982,27
1602831564.7002,36
1602831564.7022,56
1602831564.7042,78
1602831564.7063,83
1602831564.7085,58
1602831564.7104,39
1602831564.7122,49
1602831564.7142,56
1602831564.7162,34
1602831564.7182,24
1602831564.7202,44
1602831564.7222,49
1602831564.7242,41
1602831564.7262,39
1602831564.7282,34
1602831564.7302,22
1602831564.7323,49
1602831564.7342,199
1602831564.7362,471
1602831564.7382,496
1602831564.7402,-44
1602831564.7423,-518
1602831564.7442,-262
1602831564.7463,103
1602831564.7482,63
1602831564.7502,24
1602831564.7522,100
1602831564.7542,83
1602831564.7562,54
1602831564.7584,86
1602831564.7602,86
1602831564.7622,54
1602831564.7642,58
1602831564.7662,81
1602831564.7682,83
1602831564.7702,90
1602831564.7722,110
1602831564.7742,117
1602831564.7762,115
1602831564.7782,120
1602831564.7802,132
1602831564.7822,137
1602831564.7842,132
1602831564.7862,140
1602831564.7882,157
1602831564.7902,162
1602831564.7922,162
1602831564.7942,174
1602831564.7962,189
1602831564.7982,191
1602831564.8002,194
1602831564.8022,196
1602831564.8042,189
1602831564.8062,179
1602831565.2324,172
1602831565.2335,149
1602831565.2357,122
1602831565.2384,103
1602831565.2403,81
1602831565.2423,46
1602831565.2444,22
1602831565.2463,17
1602831565.2483,14
1602831565.2560,17
1602831565.2572,19
1602831565.2593,17
1602831565.2613,17
1602831565.2633,19
1602831565.2653,27
1602831565.2673,34
1602831565.2693,31
1602831565.2712,31
1602831565.2732,39
1602831565.2752,39
1602831565.2772,41
1602831565.2792,58
1602831565.2813,68
1602831565.2832,54
1602831565.2853,41
1602831565.2872,41
1602831565.2892,41
1602831565.2913,54
1602831565.2932,78
1602831565.2952,86
1602831565.2972,68
1602831565.2992,51
1602831565.3013,54
1602831565.3032,73
1602831565.3052,73
1602831565.3072,58
1602831565.3092,49
1602831565.3112,46
1602831565.3132,39
1602831565.3153,34
1602831565.3173,44
1602831565.3193,41
1602831565.3212,27
1602831565.3232,27
1602831565.3252,29
1602831565.3272,19
1602831565.3292,22
1602831565.3312,46
1602831565.3332,56
1602831565.3353,41
1602831565.3372,41
1602831565.3392,56
1602831565.3415,49
1602831565.3432,29
1602831565.3452,27
1602831565.3473,27
1602831565.3493,29
1602831565.3513,39
1602831565.3532,46
1602831565.3552,56
1602831565.3572,63
1602831565.3592,88
1602831565.3613,260
1602831565.3632,523
1602831565.3652,393
1602831565.3673,-253
1602831565.3693,-560
1602831565.3712,-159
1602831565.3732,117
1602831565.3752,29
1602831565.3772,34
1602831565.3792,100
1602831565.3812,78
1602831565.7720,78
1602831565.7729,98
1602831565.7753,78
1602831565.7780,76
1602831565.7799,105
1602831565.7820,115
1602831565.7841,93
1602831565.7860,95
1602831565.7879,108
1602831565.7900,98
1602831565.7920,90
1602831565.7939,108
1602831565.7960,117
1602831565.7979,120
1602831565.8000,132
1602831565.8020,140
1602831565.8039,145
1602831565.8059,152
1602831565.8079,162
1602831565.8099,172
1602831565.8118,181
1602831565.8139,191
1602831565.8159,191
1602831565.8179,181
1602831565.8199,176
1602831565.8219,176
1602831565.8239,157
1602831565.8258,125
1602831565.8278,105
1602831565.8299,83
1602831565.8323,49
1602831565.8339,22
1602831565.8358,7
1602831565.8379,7
1602831565.8398,7
1602831565.8418,2
1602831565.8439,-4
1602831565.8459,-7
1602831565.8478,2
1602831565.8499,17
1602831565.8518,12
1602831565.8538,2
1602831565.8559,7
1602831565.8578,19
1602831565.8598,22
1602831565.8619,29
1602831565.8639,46
1602831565.8658,46
1602831565.8679,44
1602831565.8700,51
1602831565.8719,58
1602831565.8738,66
1602831565.8759,71
1602831565.8778,61
1602831565.8799,49
1602831565.8819,39
1602831565.8838,29
1602831565.8858,24
1602831565.8878,36
1602831565.8900,54
1602831565.8919,49
1602831565.8939,41
1602831565.8959,46
1602831565.8979,41
1602831565.8998,22
1602831565.9018,29
1602831565.9039,49
1602831565.9058,39
1602831565.9079,22
1602831565.9099,19
1602831565.9119,19
1602831565.9139,29
1602831565.9159,49
1602831566.3719,56
1602831566.3729,58
1602831566.3755,73
1602831566.3780,73
1602831566.3799,61
1602831566.3819,41
1602831566.3839,22
1602831566.3859,9
1602831566.3881,9
1602831566.3899,24
1602831566.3919,29
1602831566.3939,22
1602831566.3959,19
1602831566.3979,44
1602831566.3998,172
1602831566.4019,425
1602831566.4038,498
1602831566.4058,29
1602831566.4079,-523
1602831566.4099,-380
1602831566.4118,41
1602831566.4138,66
1602831566.4158,-2
1602831566.4178,78
1602831566.4198,90
1602831566.4220,51
1602831566.4239,76
1602831566.4258,93
1602831566.4278,78
1602831566.4298,83
1602831566.4318,90
1602831566.4338,90
1602831566.4359,90
1602831566.4378,86
1602831566.4399,88
1602831566.4418,110
1602831566.4438,117
1602831566.4458,110
1602831566.4478,117
1602831566.4499,142
1602831566.4518,152
1602831566.4538,132
1602831566.4558,142
1602831566.4579,172
1602831566.4598,172
1602831566.4619,169
1602831566.4638,186
1602831566.4658,184
1602831566.4678,176
1602831566.4698,186
1602831566.4718,181
1602831566.4739,152
1602831566.4758,135
1602831566.4778,117
1602831566.4798,83
1602831566.4818,56
1602831566.4838,49
1602831566.4858,29
1602831566.4878,9
1602831566.4900,14
1602831566.4919,12
1602831566.4938,9
1602831566.4958,14
1602831566.4978,2
1602831566.4998,-2
1602831566.5019,24
1602831566.5039,44
1602831566.5059,29
1602831566.5079,19
1602831566.5098,31
1602831566.5119,39
1602831566.5138,41
1602831566.5158,46
1602831566.8821,46
1602831566.8830,49
1602831566.8855,56
1602831566.8873,49
1602831566.8890,44
1602831566.8911,49
1602831566.8930,44
1602831566.8950,34
1602831566.8970,46
1602831566.8990,51
1602831566.9011,29
1602831566.9030,24
1602831566.9049,39
1602831566.9070,27
1602831566.9089,7
1602831566.9110,9
1602831566.9129,9
1602831566.9149,4
1602831566.9169,19
1602831566.9190,31
1602831566.9209,19
1602831566.9229,7
1602831566.9249,7
1602831566.9269,9
1602831566.9289,17
1602831566.9310,36
1602831566.9330,44
1602831566.9349,41
1602831566.9369,39
1602831566.9389,41
1602831566.9410,51
1602831566.9429,58
1602831566.9449,41
1602831566.9469,24
1602831566.9489,27
1602831566.9509,31
1602831566.9530,27
1602831566.9553,36
1602831566.9570,44
1602831566.9589,39
1602831566.9610,44
1602831566.9629,83
1602831566.9649,240
1602831566.9669,489
1602831566.9690,412
1602831566.9709,-176
1602831566.9729,-533
1602831566.9749,-194
1602831566.9770,113
1602831566.9789,44
1602831566.9809,29
1602831566.9829,93
1602831566.9850,73
1602831566.9870,73
1602831566.9889,110
1602831566.9910,100
1602831566.9929,78
1602831566.9949,90
1602831566.9969,98
1602831566.9989,88
1602831567.0010,95
1602831567.0029,115
1602831567.0049,113
1602831567.0071,113
1602831567.0090,120
1602831567.0110,122
1602831567.0129,130
1602831567.0149,137
1602831567.0169,137
1602831567.0190,147
1602831567.0209,162
1602831567.0229,164
1602831567.0249,174
1602831567.4524,189
1602831567.4536,191
1602831567.4560,184
1602831567.4586,181
1602831567.4608,172
1602831567.4626,147
1602831567.4646,137
1602831567.4666,130
1602831567.4686,108
1602831567.4707,76
1602831567.4725,49
1602831567.4745,27
1602831567.4766,4
1602831567.4786,4
1602831567.4807,17
1602831567.4827,7
1602831567.4846,-14
1602831567.4865,-12
1602831567.4885,12
1602831567.4906,29
1602831567.4925,27
1602831567.4945,22
1602831567.4966,22
1602831567.4985,14
1602831567.5006,22
1602831567.5025,39
1602831567.5045,36
1602831567.5065,39
1602831567.5085,51
1602831567.5106,46
1602831567.5127,44
1602831567.5145,56
1602831567.5165,51
1602831567.5185,29
1602831567.5206,29
1602831567.5226,39
1602831567.5246,46
1602831567.5265,49
1602831567.5285,44
1602831567.5306,34
1602831567.5325,36
1602831567.5345,36
1602831567.5365,17
1602831567.5385,12
1602831567.5406,34
1602831567.5425,41
1602831567.5445,36
1602831567.5469,36
1602831567.5486,29
1602831567.5506,34
1602831567.5525,51
1602831567.5545,46
1602831567.5565,34
1602831567.5585,31
1602831567.5607,24
1602831567.5625,17
1602831567.5645,51
1602831567.5665,90
1602831567.5685,81
1602831567.5706,63
1602831567.5725,68
1602831567.5745,68
1602831567.5765,58
1602831567.5786,58
1602831567.5806,54
1602831567.5825,36
1602831567.5848,29
1602831567.5865,39
1602831567.5885,51
1602831567.5906,58
1602831567.5925,54
1602831567.5945,63
1602831567.5965,179
1602831568.0523,425
1602831568.0532,489
1602831568.0556,17
1602831568.0583,-474
1602831568.0604,-294
1602831568.0622,66
1602831568.0642,51
1602831568.0662,0
1602831568.0683,66
1602831568.0702,66
1602831568.0722,46
1602831568.0742,78
1602831568.0762,83
1602831568.0782,66
1602831568.0802,83
1602831568.0822,100
1602831568.0841,88
1602831568.0862,86
1602831568.0882,100
1602831568.0902,100
1602831568.0922,95
1602831568.0942,108
1602831568.0962,117
1602831568.0982,125
1602831568.1002,132
1602831568.1022,137
1602831568.1042,140
1602831568.1062,149
1602831568.1082,162
1602831568.1102,169
1602831568.1122,172
1602831568.1142,167
1602831568.1162,167
1602831568.1182,179
1602831568.1202,179
1602831568.1222,162
1602831568.1242,167
1602831568.1262,172
1602831568.1282,140
1602831568.1302,93
1602831568.1322,66
1602831568.1342,39
1602831568.1361,31
1602831568.1382,44
1602831568.1405,36
1602831568.1422,9
1602831568.1442,14
1602831568.1461,39
1602831568.1481,46
1602831568.1502,36
1602831568.1522,36
1602831568.1542,36
1602831568.1563,31
1602831568.1582,31
1602831568.1602,36
1602831568.1622,46
1602831568.1641,49
1602831568.1661,44
1602831568.1681,41
1602831568.1701,49
1602831568.1722,58
1602831568.1742,61
1602831568.1761,63
1602831568.1782,68
1602831568.1802,51
1602831568.1822,34
1602831568.1841,46
1602831568.1862,54
1602831568.1883,41
1602831568.1902,34
1602831568.1922,39
1602831568.1942,44
1602831568.1948,36
1602831568.5924,24
1602831568.5935,31
1602831568.5947,49
1602831568.5967,49
1602831568.5987,39
1602831568.6007,36
1602831568.6028,34
1602831568.6047,31
1602831568.6067,36
1602831568.6087,49
1602831568.6107,54
1602831568.6127,36
1602831568.6147,24
1602831568.6167,34
1602831568.6173,34
1602831568.6187,34
1602831568.6207,66
1602831568.6227,88
1602831568.6247,71
1602831568.6268,54
1602831568.6287,63
1602831568.6308,73
1602831568.6328,66
1602831568.6347,44
1602831568.6367,34
1602831568.6386,39
1602831568.6407,51
1602831568.6426,54
1602831568.6446,49
1602831568.6466,54
1602831568.6473,76
1602831568.6486,154
1602831568.6507,373
1602831568.6526,533
1602831568.6546,211
1602831568.6566,-368
1602831568.6586,-385
1602831568.6606,22
1602831568.6626,110
1602831568.6646,14
1602831568.6666,73
1602831568.6687,120
1602831568.6707,83
1602831568.6726,90
1602831568.6746,120
1602831568.6766,110
1602831568.6773,105
1602831568.6786,113
1602831568.6807,98
1602831568.6826,103
1602831568.6846,125
1602831568.6866,125
1602831568.6887,115
1602831568.6907,120
1602831568.6926,130
1602831568.6946,142
1602831568.6966,147
1602831568.6986,149
1602831568.7007,157
1602831568.7026,174
1602831568.7046,179
1602831568.7066,174
1602831568.7073,186
1602831568.7086,186
1602831568.7107,164
1602831568.7127,159
1602831568.7146,174
1602831568.7166,176
1602831568.7186,172
1602831568.7207,167
1602831568.7226,147
1602831568.7246,117
1602831568.7267,98
1602831569.1625,81
1602831569.1635,49
1602831569.1651,24
1602831569.1675,29
1602831569.1695,36
1602831569.1715,19
1602831569.1735,9
1602831569.1755,14
1602831569.1775,12
1602831569.1795,2
1602831569.1814,9
1602831569.1834,19
1602831569.1854,12
1602831569.1874,9
1602831569.1894,29
1602831569.1915,46
1602831569.1934,44
1602831569.1954,36
1602831569.1961,41
1602831569.1974,44
1602831569.1994,34
1602831569.2015,27
1602831569.2034,29
1602831569.2054,39
1602831569.2074,46
1602831569.2094,39
1602831569.2114,39
1602831569.2134,41
1602831569.2154,39
1602831569.2174,36
1602831569.2194,44
1602831569.2214,49
1602831569.2234,51
1602831569.2254,49
1602831569.2261,41
1602831569.2275,39
1602831569.2294,39
1602831569.2314,36
1602831569.2334,39
1602831569.2354,46
1602831569.2374,51
1602831569.2394,54
1602831569.2414,39
1602831569.2434,31
1602831569.2454,44
1602831569.2474,54
1602831569.2494,49
1602831569.2514,49
1602831569.2534,54
1602831569.2554,68
1602831569.2561,83
1602831569.2576,88
1602831569.2594,83
1602831569.2614,83
1602831569.2634,86
1602831569.2654,71
1602831569.2674,44
1602831569.2694,39
1602831569.2714,49
1602831569.2734,56
1602831569.2754,58
1602831569.2774,66
1602831569.2794,71
1602831569.2814,58
1602831569.2834,78
1602831569.2854,250
1602831569.2861,516
1602831569.2874,439
1602831569.2894,-164
1602831569.2914,-543
1602831569.2935,-211
1602831569.2954,105
1602831569.2974,56
1602831569.7019,56
1602831569.7028,120
1602831569.7052,90
1602831569.7078,81
1602831569.7099,110
1602831569.7119,103
1602831569.7138,86
1602831569.7158,98
1602831569.7165,103
1602831569.7178,81
1602831569.7198,81
1602831569.7217,103
1602831569.7237,100
1602831569.7257,90
1602831569.7277,113
1602831569.7297,137
1602831569.7318,135
1602831569.7337,125
1602831569.7357,130
1602831569.7377,145
1602831569.7397,159
1602831569.7417,172
1602831569.7437,176
1602831569.7457,169
1602831569.7464,162
1602831569.7477,169
1602831569.7498,174
1602831569.7517,169
1602831569.7537,167
1602831569.7559,162
1602831569.7578,147
1602831569.7597,122
1602831569.7618,88
1602831569.7637,63
1602831569.7657,51
1602831569.7679,24
1602831569.7698,4
1602831569.7718,7
1602831569.7737,7
1602831569.7757,2
1602831569.7764,-4
1602831569.7777,2
1602831569.7797,9
1602831569.7818,7
1602831569.7837,9
1602831569.7857,12
1602831569.7878,12
1602831569.7899,19
1602831569.7917,14
1602831569.7937,4
1602831569.7957,19
1602831569.7977,34
1602831569.7997,24
1602831569.8017,17
1602831569.8037,31
1602831569.8057,36
1602831569.8064,24
1602831569.8077,29
1602831569.8097,54
1602831569.8117,44
1602831569.8137,19
1602831569.8157,19
1602831569.8177,27
1602831569.8198,27
1602831569.8201,29
1602831569.8210,27
1602831569.8228,27
1602831569.8249,39
1602831569.8268,44
1602831569.8287,34
1602831569.8308,31
1602831569.8327,31
1602831569.8333,39
1602831570.2718,61
1602831570.2727,61
1602831570.2738,39
1602831570.2758,24
1602831570.2778,29
1602831570.2798,51
1602831570.2818,56
1602831570.2841,27
1602831570.2858,19
1602831570.2878,44
1602831570.2899,66
1602831570.2917,71
1602831570.2924,68
1602831570.2937,71
1602831570.2958,71
1602831570.2977,58
1602831570.2998,36
1602831570.3018,27
1602831570.3037,39
1602831570.3057,44
1602831570.3078,41
1602831570.3097,46
1602831570.3118,56
1602831570.3137,56
1602831570.3157,93
1602831570.3177,294
1602831570.3199,513
1602831570.3218,304
1602831570.3223,-299
1602831570.3237,-493
1602831570.3257,-95
1602831570.3277,110
1602831570.3297,27
1602831570.3318,73
1602831570.3337,125
1602831570.3357,81
1602831570.3377,86
1602831570.3397,95
1602831570.3420,78
1602831570.3437,88
1602831570.3457,100
1602831570.3477,90
1602831570.3497,90
1602831570.3518,93
1602831570.3523,90
1602831570.3537,108
1602831570.3557,120
1602831570.3577,117
1602831570.3597,120
1602831570.3617,127
1602831570.3637,132
1602831570.3658,135
1602831570.3677,142
1602831570.3697,152
1602831570.3717,159
1602831570.3737,162
1602831570.3757,162
1602831570.3777,174
1602831570.3799,184
1602831570.3818,169
1602831570.3823,154
1602831570.3837,152
1602831570.3857,145
1602831570.3877,130
1602831570.3897,105
1602831570.3917,81
1602831570.3937,61
1602831570.3957,46
1602831570.3977,29
1602831570.3997,7
1602831570.4017,-2
1602831570.4037,4
1602831570.4057,7
1602831570.8122,4
1602831570.8131,9
1602831570.8145,17
1602831570.8165,9
1602831570.8185,17
1602831570.8205,31
1602831570.8225,27
1602831570.8245,9
1602831570.8265,4
1602831570.8285,12
1602831570.8306,24
1602831570.8325,27
1602831570.8345,19
1602831570.8365,19
1602831570.8385,31
1602831570.8406,41
1602831570.8410,36
1602831570.8425,29
1602831570.8446,31
1602831570.8465,34
1602831570.8486,36
1602831570.8505,31
1602831570.8526,27
1602831570.8546,34
1602831570.8565,44
1602831570.8586,46
1602831570.8606,41
1602831570.8625,41
1602831570.8645,46
1602831570.8664,44
1602831570.8684,51
1602831570.8705,54
1602831570.8711,36
1602831570.8724,24
1602831570.8744,34
1602831570.8764,41
1602831570.8786,36
1602831570.8806,36
1602831570.8824,51
1602831570.8844,54
1602831570.8864,36
1602831570.8884,44
1602831570.8906,63
1602831570.8924,76
1602831570.8944,90
1602831570.8964,98
1602831570.8984,81
1602831570.9005,61
1602831570.9010,61
1602831570.9025,61
1602831570.9044,51
1602831570.9064,46
1602831570.9084,51
1602831570.9105,58
1602831570.9124,68
1602831570.9144,61
1602831570.9164,46
1602831570.9184,68
1602831570.9205,196
1602831570.9225,437
1602831570.9244,511
1602831570.9264,61
1602831570.9284,-462
1602831570.9305,-317
1602831570.9310,81
1602831570.9324,95
1602831570.9344,29
1602831570.9364,98
1602831570.9384,103
1602831570.9405,78
1602831570.9424,105
1602831570.9445,105
1602831570.9464,88
1602831571.4122,108
1602831571.4131,125
1602831571.4155,113
1602831571.4182,98
1602831571.4202,90
1602831571.4222,93
1602831571.4228,100
1602831571.4242,108
1602831571.4262,115
1602831571.4282,120
1602831571.4302,127
1602831571.4321,130
1602831571.4341,142
1602831571.4361,159
1602831571.4384,157
1602831571.4402,154
1602831571.4422,159
1602831571.4441,164
1602831571.4461,164
1602831571.4482,167
1602831571.4502,167
1602831571.4521,164
1602831571.4527,157
1602831571.4541,147
1602831571.4562,132
1602831571.4581,103
1602831571.4601,68
1602831571.4621,36
1602831571.4642,19
1602831571.4661,12
1602831571.4681,2
1602831571.4701,2
1602831571.4721,9
1602831571.4741,-2
1602831571.4761,-9
1602831571.4781,-2
1602831571.4801,4
1602831571.4821,4
1602831571.4827,7
1602831571.4841,14
1602831571.4861,24
1602831571.4881,31
1602831571.4901,31
1602831571.4921,31
1602831571.4940,34
1602831571.4961,36
1602831571.4981,39
1602831571.5001,44
1602831571.5021,46
1602831571.5040,39
1602831571.5061,41
1602831571.5081,49
1602831571.5101,49
1602831571.5121,41
1602831571.5127,51
1602831571.5141,66
1602831571.5161,54
1602831571.5181,34
1602831571.5201,39
1602831571.5221,49
1602831571.5241,49
1602831571.5261,51
1602831571.5281,66
1602831571.5301,68
1602831571.5321,54
1602831571.5343,44
1602831571.5361,41
1602831571.5381,39
1602831571.5401,44
1602831571.5421,56
1602831571.5427,61
1602831571.5441,61
1602831571.5461,66
1602831571.9523,63
1602831571.9532,61
1602831571.9555,71
1602831571.9582,88
1602831571.9602,83
1602831571.9621,76
1602831571.9642,86
1602831571.9662,88
1602831571.9681,76
1602831571.9701,66
1602831571.9708,56
1602831571.9722,44
1602831571.9741,44
1602831571.9761,49
1602831571.9782,46
1602831571.9802,51
1602831571.9823,54
1602831571.9843,66
1602831571.9861,201
1602831571.9881,464
1602831571.9901,447
1602831571.9921,-100
1602831571.9941,-491
1602831571.9962,-208
1602831571.9981,90
1602831572.0001,41
1602831572.0007,34
1602831572.0021,110
1602831572.0041,95
1602831572.0061,63
1602831572.0081,81
1602831572.0101,88
1602831572.0121,73
1602831572.0141,86
1602831572.0161,115
1602831572.0181,120
1602831572.0201,108
1602831572.0221,108
1602831572.0241,103
1602831572.0261,103
1602831572.0281,117
1602831572.0301,130
1602831572.0307,135
1602831572.0323,137
1602831572.0342,137
1602831572.0361,149
1602831572.0381,174
1602831572.0401,174
1602831572.0421,157
1602831572.0444,157
1602831572.0461,172
1602831572.0481,174
1602831572.0501,169
1602831572.0521,162
1602831572.0541,159
1602831572.0561,162
1602831572.0581,137
1602831572.0601,95
1602831572.0607,86
1602831572.0622,86
1602831572.0641,44
1602831572.0661,9
1602831572.0681,17
1602831572.0701,17
1602831572.0721,-2
1602831572.0742,-7
1602831572.0761,2
1602831572.0781,4
1602831572.0801,4
1602831572.0822,9
1602831572.0841,19
1602831572.0861,19
1602831572.0881,17
1602831572.5524,22
1602831572.5536,27
1602831572.5560,36
1602831572.5586,51
1602831572.5607,51
1602831572.5626,41
1602831572.5647,36
1602831572.5666,24
1602831572.5686,22
1602831572.5707,36
1602831572.5726,41
1602831572.5746,27
1602831572.5766,19
1602831572.5786,17
1602831572.5807,9
1602831572.5826,22
1602831572.5846,36
1602831572.5852,29
1602831572.5866,19
1602831572.5886,24
1602831572.5906,34
1602831572.5928,41
1602831572.5946,39
1602831572.5966,27
1602831572.5985,34
1602831572.6005,58
1602831572.6026,58
1602831572.6045,41
1602831572.6065,39
1602831572.6086,49
1602831572.6106,44
1602831572.6126,31
1602831572.6146,44
1602831572.6152,76
1602831572.6166,93
1602831572.6185,86
1602831572.6206,73
1602831572.6225,73
1602831572.6245,81
1602831572.6266,73
1602831572.6285,66
1602831572.6306,66
1602831572.6325,63
1602831572.6345,58
1602831572.6365,58
1602831572.6385,66
1602831572.6406,73
1602831572.6425,63
1602831572.6445,78
1602831572.6451,231
1602831572.6465,479
1602831572.6485,439
1602831572.6506,-103
1602831572.6525,-486
1602831572.6545,-203
1602831572.6565,98
1602831572.6586,56
1602831572.6606,54
1602831572.6625,120
1602831572.6645,95
1602831572.6665,83
1602831572.6685,110
1602831572.6705,105
1602831572.6725,95
1602831572.6745,100
1602831572.6752,113
1602831572.6765,125
1602831572.6785,113
1602831572.6806,100
1602831572.6825,113
1602831572.6845,127
1602831572.6865,130
1602831572.6887,142
1602831573.0621,149
1602831573.0628,147
1602831573.0652,152
1602831573.0678,164
1602831573.0698,164
1602831573.0705,162
1602831573.0718,179
1602831573.0739,184
1602831573.0758,172
1602831573.0778,164
1602831573.0798,167
1602831573.0818,162
1602831573.0838,140
1602831573.0858,125
1602831573.0878,120
1602831573.0898,103
1602831573.0918,71
1602831573.0938,49
1602831573.0958,46
1602831573.0978,39
1602831573.0998,14
1602831573.1004,-2
1602831573.1018,12
1602831573.1038,14
1602831573.1058,-4
1602831573.1078,-4
1602831573.1098,2
1602831573.1118,-4
1602831573.1138,-2
1602831573.1158,14
1602831573.1178,24
1602831573.1198,17
1602831573.1218,12
1602831573.1238,29
1602831573.1258,46
1602831573.1278,44
1602831573.1298,46
1602831573.1304,58
1602831573.1318,58
1602831573.1338,46
1602831573.1358,39
1602831573.1378,44
1602831573.1397,51
1602831573.1417,39
1602831573.1437,29
1602831573.1458,56
1602831573.1478,61
1602831573.1498,34
1602831573.1518,27
1602831573.1537,46
1602831573.1560,54
1602831573.1578,44
1602831573.1597,49
1602831573.1604,73
1602831573.1618,61
1602831573.1638,41
1602831573.1658,54
1602831573.1678,58
1602831573.1698,44
1602831573.1718,51
1602831573.1738,71
1602831573.1758,88
1602831573.1778,98
1602831573.1798,90
1602831573.1818,90
1602831573.1838,93
1602831573.1858,73
1602831573.1878,39
1602831573.1898,31
1602831573.1904,56
1602831573.1918,71
1602831573.1938,68
1602831573.1957,58
1602831573.6321,58
1602831573.6330,71
1602831573.6354,113
1602831573.6381,290
1602831573.6401,528
1602831573.6421,368
1602831573.6443,-285
1602831573.6461,-575
1602831573.6481,-157
1602831573.6501,120
1602831573.6520,22
1602831573.6527,36
1602831573.6540,125
1602831573.6560,88
1602831573.6580,56
1602831573.6600,93
1602831573.6620,100
1602831573.6640,88
1602831573.6660,98
1602831573.6680,113
1602831573.6701,113
1602831573.6720,110
1602831573.6740,115
1602831573.6760,120
1602831573.6780,122
1602831573.6800,117
1602831573.6820,115
1602831573.6826,135
1602831573.6842,154
1602831573.6860,147
1602831573.6880,142
1602831573.6900,162
1602831573.6920,167
1602831573.6940,164
1602831573.6960,176
1602831573.6981,189
1602831573.7000,186
1602831573.7020,181
1602831573.7040,181
1602831573.7060,174
1602831573.7080,152
1602831573.7100,127
1602831573.7120,98
1602831573.7126,68
1602831573.7140,58
1602831573.7161,46
1602831573.7180,19
1602831573.7200,17
1602831573.7220,31
1602831573.7240,22
1602831573.7260,0
1602831573.7280,-2
1602831573.7300,4
1602831573.7320,17
1602831573.7340,19
1602831573.7360,4
1602831573.7381,2
1602831573.7400,27
1602831573.7420,44
1602831573.7426,36
1602831573.7440,22
1602831573.7460,24
1602831573.7480,39
1602831573.7500,34
1602831573.7520,19
1602831573.7540,17
1602831573.7560,31
1602831573.7580,44
1602831573.7600,31
1602831573.7620,24
1602831573.7641,34
1602831573.7660,36
1602831573.7680,24
1602831574.1716,19
1602831574.1724,22
1602831574.1741,24
1602831574.1759,34
1602831574.1780,56
1602831574.1799,58
1602831574.1822,29
1602831574.1840,9
1602831574.1859,14
1602831574.1879,24
1602831574.1899,27
1602831574.1918,27
1602831574.1938,41
1602831574.1959,56
1602831574.1978,49
1602831574.1998,51
1602831574.2005,73
1602831574.2018,76
1602831574.2038,51
1602831574.2058,31
1602831574.2079,29
1602831574.2098,34
1602831574.2119,36
1602831574.2138,34
1602831574.2158,46
1602831574.2179,63
1602831574.2198,71
1602831574.2218,186
1602831574.2238,449
1602831574.2259,489
1602831574.2278,-31
1602831574.2298,-521
1602831574.2304,-297
1602831574.2318,66
1602831574.2338,39
1602831574.2358,17
1602831574.2378,117
1602831574.2398,105
1602831574.2418,61
1602831574.2438,93
1602831574.2458,105
1602831574.2478,88
1602831574.2498,95
1602831574.2518,105
1602831574.2538,98
1602831574.2558,95
1602831574.2578,95
1602831574.2598,88
1602831574.2605,103
1602831574.2628,137
1602831574.2648,149
1602831574.2668,140
1602831574.2688,130
1602831574.2708,122
1602831574.2728,130
1602831574.2748,154
1602831574.2768,167
1602831574.2790,164
1602831574.2809,172
1602831574.2828,172
1602831574.2848,162
1602831574.2868,162
1602831574.2888,162
1602831574.2894,149
1602831574.2909,142
1602831574.2929,137
1602831574.2948,115
1602831574.2968,88
1602831574.2988,66
1602831574.3008,46
1602831574.3028,27
1602831574.3048,24
1602831574.3068,24
1602831574.7717,19
1602831574.7726,24
1602831574.7751,17
1602831574.7777,-7
1602831574.7796,-12
1602831574.7803,12
1602831574.7816,31
1602831574.7837,24
1602831574.7857,12
1602831574.7876,14
1602831574.7896,12
1602831574.7917,24
1602831574.7936,46
1602831574.7956,41
1602831574.7977,27
1602831574.7997,19
1602831574.8017,24
1602831574.8036,39
1602831574.8056,36
1602831574.8076,19
1602831574.8096,24
1602831574.8102,36
1602831574.8116,27
1602831574.8136,19
1602831574.8156,22
1602831574.8176,22
1602831574.8196,27
1602831574.8216,36
1602831574.8236,34
1602831574.8256,24
1602831574.8276,27
1602831574.8296,31
1602831574.8316,24
1602831574.8336,22
1602831574.8356,54
1602831574.8378,81
1602831574.8397,66
1602831574.8402,54
1602831574.8415,66
1602831574.8436,66
1602831574.8456,54
1602831574.8475,44
1602831574.8496,39
1602831574.8518,41
1602831574.8536,44
1602831574.8556,39
1602831574.8576,29
1602831574.8596,36
1602831574.8616,54
1602831574.8635,83
1602831574.8656,231
1602831574.8676,481
1602831574.8696,430
1602831574.8702,-132
1602831574.8716,-506
1602831574.8736,-201
1602831574.8755,95
1602831574.8776,34
1602831574.8795,49
1602831574.8816,120
1602831574.8836,73
1602831574.8856,54
1602831574.8875,88
1602831574.8895,78
1602831574.8916,81
1602831574.8936,120
1602831574.8955,117
1602831574.8976,93
1602831574.8995,103
1602831574.9002,105
1602831574.9015,103
1602831574.9036,125
1602831574.9056,127
1602831575.3419,115
1602831575.3431,122
1602831575.3455,137
1602831575.3472,147
1602831575.3492,157
1602831575.3512,162
1602831575.3532,154
1602831575.3553,154
1602831575.3572,174
1602831575.3580,174
1602831575.3592,159
1602831575.3612,164
1602831575.3632,157
1602831575.3655,140
1602831575.3672,147
1602831575.3692,142
1602831575.3712,108
1602831575.3732,68
1602831575.3752,34
1602831575.3772,7
1602831575.3792,9
1602831575.3812,22
1602831575.3831,19
1602831575.3851,12
1602831575.3872,9
1602831575.3878,7
1602831575.3891,12
1602831575.3911,29
1602831575.3932,22
1602831575.3951,7
1602831575.3971,27
1602831575.3991,51
1602831575.4011,41
1602831575.4031,34
1602831575.4053,46
1602831575.4071,51
1602831575.4091,39
1602831575.4112,44
1602831575.4132,49
1602831575.4152,34
1602831575.4171,22
1602831575.4177,31
1602831575.4191,46
1602831575.4212,41
1602831575.4231,29
1602831575.4251,34
1602831575.4271,46
1602831575.4291,44
1602831575.4311,31
1602831575.4331,19
1602831575.4351,19
1602831575.4371,34
1602831575.4391,39
1602831575.4411,19
1602831575.4431,12
1602831575.4451,24
1602831575.4471,46
1602831575.4477,66
1602831575.4491,76
1602831575.4511,66
1602831575.4531,46
1602831575.4550,44
1602831575.4571,46
1602831575.4591,41
1602831575.4613,34
1602831575.4631,31
1602831575.4651,34
1602831575.4671,39
1602831575.4691,44
1602831575.4711,49
1602831575.4731,49
1602831575.4751,54
1602831575.4771,152
1602831575.8820,403
1602831575.8829,525
1602831575.8853,105
1602831575.8880,-454
1602831575.8900,-363
1602831575.8919,34
1602831575.8941,71
1602831575.8960,12
1602831575.8980,93
1602831575.9000,98
1602831575.9019,49
1602831575.9039,73
1602831575.9059,93
1602831575.9079,71
1602831575.9086,76
1602831575.9099,93
1602831575.9119,86
1602831575.9139,81
1602831575.9159,88
1602831575.9179,98
1602831575.9199,115
1602831575.9219,127
1602831575.9239,130
1602831575.9259,130
1602831575.9279,127
1602831575.9299,135
1602831575.9319,152
1602831575.9339,152
1602831575.9359,147
1602831575.9379,167
1602831575.9385,189
1602831575.9399,174
1602831575.9419,162
1602831575.9439,172
1602831575.9459,172
1602831575.9478,164
1602831575.9498,159
1602831575.9519,140
1602831575.9538,105
1602831575.9559,81
1602831575.9579,68
1602831575.9599,61
1602831575.9621,56
1602831575.9639,31
1602831575.9659,7
1602831575.9679,12
1602831575.9685,17
1602831575.9698,4
1602831575.9718,12
1602831575.9738,39
1602831575.9759,44
1602831575.9779,31
1602831575.9798,39
1602831575.9818,44
1602831575.9838,44
1602831575.9858,49
1602831575.9878,58
1602831575.9899,71
1602831575.9918,63
1602831575.9939,49
1602831575.9959,54
1602831575.9978,61
1602831575.9985,58
1602831575.9998,56
1602831576.0019,61
1602831576.0039,73
1602831576.0058,78
1602831576.0078,63
1602831576.0098,49
1602831576.0119,51
1602831576.0139,56
1602831576.0158,54
1602831576.0178,49
1602831576.4822,44
1602831576.4831,54
1602831576.4855,68
1602831576.4883,54
1602831576.4889,36
1602831576.4902,44
1602831576.4922,58
1602831576.4942,66
1602831576.4962,63
1602831576.4982,66
1602831576.5002,51
1602831576.5021,36
1602831576.5041,49
1602831576.5061,51
1602831576.5081,29
1602831576.5101,29
1602831576.5122,41
1602831576.5141,36
1602831576.5161,27
1602831576.5181,39
1602831576.5190,58
1602831576.5202,54
1602831576.5221,103
1602831576.5241,331
1602831576.5261,548
1602831576.5281,272
1602831576.5302,-373
1602831576.5321,-498
1602831576.5341,-66
1602831576.5361,95
1602831576.5382,-2
1602831576.5401,54
1602831576.5421,120
1602831576.5441,76
1602831576.5461,58
1602831576.5481,88
1602831576.5487,100
1602831576.5501,103
1602831576.5513,105
1602831576.5531,100
1602831576.5551,98
1602831576.5571,103
1602831576.5591,108
1602831576.5611,120
1602831576.5631,132
1602831576.5651,135
1602831576.5671,135
1602831576.5691,137
1602831576.5711,147
1602831576.5731,157
1602831576.5751,162
1602831576.5757,164
1602831576.5771,174
1602831576.5791,189
1602831576.5811,191
1602831576.5831,186
1602831576.5851,196
1602831576.5871,201
1602831576.5891,194
1602831576.5911,169
1602831576.5931,154
1602831576.5951,149
1602831576.5971,130
1602831576.5991,93
1602831576.6011,68
1602831576.6031,56
1602831576.6051,34
1602831576.6057,14
1602831576.6071,17
1602831576.6091,22
1602831576.6111,24
1602831576.6133,24
1602831576.6151,19
1602831576.9923,17
1602831576.9932,29
1602831576.9955,39
1602831576.9982,34
1602831577.0002,44
1602831577.0022,58
1602831577.0043,54
1602831577.0047,51
1602831577.0062,61
1602831577.0082,61
1602831577.0102,56
1602831577.0122,61
1602831577.0141,56
1602831577.0162,39
1602831577.0182,39
1602831577.0202,54
1602831577.0221,51
1602831577.0241,41
1602831577.0262,46
1602831577.0281,41
1602831577.0301,31
1602831577.0321,36
1602831577.0341,36
1602831577.0347,31
1602831577.0361,36
1602831577.0382,34
1602831577.0402,27
1602831577.0421,27
1602831577.0442,39
1602831577.0461,49
1602831577.0481,41
1602831577.0501,31
1602831577.0521,34
1602831577.0541,49
1602831577.0561,56
1602831577.0581,49
1602831577.0601,51
1602831577.0621,51
1602831577.0641,41
1602831577.0647,41
1602831577.0661,41
1602831577.0681,19
1602831577.0701,9
1602831577.0721,24
1602831577.0741,39
1602831577.0762,36
1602831577.0781,31
1602831577.0801,29
1602831577.0821,95
1602831577.0843,324
1602831577.0862,533
1602831577.0881,272
1602831577.0901,-371
1602831577.0921,-525
1602831577.0941,-90
1602831577.0947,100
1602831577.0962,7
1602831577.0982,44
1602831577.1002,88
1602831577.1021,58
1602831577.1041,76
1602831577.1061,98
1602831577.1081,76
1602831577.1101,66
1602831577.1121,86
1602831577.1141,98
1602831577.1161,88
1602831577.1181,86
1602831577.1201,105
1602831577.1221,108
1602831577.1241,95
1602831577.1247,108
1602831577.1261,122
1602831577.5321,125
1602831577.5330,127
1602831577.5354,130
1602831577.5371,130
1602831577.5391,145
1602831577.5412,154
1602831577.5430,157
1602831577.5451,167
1602831577.5470,167
1602831577.5490,145
1602831577.5511,135
1602831577.5530,145
1602831577.5550,152
1602831577.5570,140
1602831577.5577,108
1602831577.5590,68
1602831577.5611,41
1602831577.5630,46
1602831577.5650,44
1602831577.5670,12
1602831577.5690,-9
1602831577.5711,-9
1602831577.5730,-2
1602831577.5750,4
1602831577.5770,0
1602831577.5790,7
1602831577.5810,24
1602831577.5832,22
1602831577.5851,14
1602831577.5870,22
1602831577.5876,22
1602831577.5890,19
1602831577.5911,24
1602831577.5930,24
1602831577.5950,44
1602831577.5970,71
1602831577.5990,51
1602831577.6010,29
1602831577.6030,49
1602831577.6050,58
1602831577.6070,49
1602831577.6090,41
1602831577.6110,41
1602831577.6131,39
1602831577.6150,39
1602831577.6170,54
1602831577.6176,63
1602831577.6191,49
1602831577.6211,41
1602831577.6230,39
1602831577.6250,31
1602831577.6270,46
1602831577.6290,58
1602831577.6310,41
1602831577.6330,31
1602831577.6350,41
1602831577.6370,46
1602831577.6390,41
1602831577.6410,36
1602831577.6430,27
1602831577.6450,19
1602831577.6470,31
1602831577.6476,44
1602831577.6490,56
1602831577.6511,76
1602831577.6530,76
1602831577.6550,51
1602831577.6570,36
1602831577.6590,54
1602831577.6610,58
1602831577.6630,36
1602831577.6650,27
1602831577.6670,29
1602831578.1322,17
1602831578.1331,4
1602831578.1347,17
1602831578.1371,31
1602831578.1391,31
1602831578.1414,93
1602831578.1432,314
1602831578.1451,508
1602831578.1471,231
1602831578.1491,-385
1602831578.1511,-486
1602831578.1531,-66
1602831578.1551,83
1602831578.1572,-4
1602831578.1591,46
1602831578.1612,88
1602831578.1631,54
1602831578.1651,68
1602831578.1657,95
1602831578.1671,81
1602831578.1691,71
1602831578.1712,81
1602831578.1731,78
1602831578.1752,71
1602831578.1770,90
1602831578.1791,113
1602831578.1811,105
1602831578.1831,88
1602831578.1851,93
1602831578.1871,105
1602831578.1890,122
1602831578.1911,145
1602831578.1931,147
1602831578.1936,135
1602831578.1950,135
1602831578.1970,162
1602831578.1990,186
1602831578.2011,172
1602831578.2031,164
1602831578.2051,184
1602831578.2070,181
1602831578.2090,164
1602831578.2111,164
1602831578.2130,154
1602831578.2150,125
1602831578.2171,100
1602831578.2190,81
1602831578.2211,58
1602831578.2230,31
1602831578.2236,22
1602831578.2250,31
1602831578.2270,24
1602831578.2290,12
1602831578.2311,14
1602831578.2330,22
1602831578.2350,24
1602831578.2372,22
1602831578.2391,19
1602831578.2411,12
1602831578.2430,14
1602831578.2450,36
1602831578.2470,49
1602831578.2490,46
1602831578.2511,39
1602831578.2530,34
1602831578.2536,44
1602831578.2550,58
1602831578.2570,41
1602831578.2590,17
1602831578.2611,29
1602831578.2630,56
1602831578.2650,41
1602831578.2670,24
1602831578.7021,39
1602831578.7031,49
1602831578.7055,44
1602831578.7081,44
1602831578.7101,44
1602831578.7121,36
1602831578.7142,36
1602831578.7149,31
1602831578.7161,29
1602831578.7181,17
1602831578.7201,7
1602831578.7221,17
1602831578.7241,22
1602831578.7261,9
1602831578.7281,9
1602831578.7301,14
1602831578.7321,12
1602831578.7341,27
1602831578.7360,49
1602831578.7381,36
1602831578.7401,22
1602831578.7420,31
1602831578.7441,36
1602831578.7447,27
1602831578.7461,31
1602831578.7481,56
1602831578.7501,66
1602831578.7520,46
1602831578.7540,44
1602831578.7560,68
1602831578.7580,68
1602831578.7601,46
1602831578.7620,46
1602831578.7640,49
1602831578.7662,41
1602831578.7681,46
1602831578.7700,54
1602831578.7720,51
1602831578.7740,41
1602831578.7746,49
1602831578.7760,162
1602831578.7780,410
1602831578.7800,513
1602831578.7820,105
1602831578.7840,-432
1602831578.7860,-341
1602831578.7880,56
1602831578.7900,90
1602831578.7920,4
1602831578.7940,68
1602831578.7960,105
1602831578.7980,73
1602831578.8001,81
1602831578.8020,103
1602831578.8040,93
1602831578.8046,86
1602831578.8060,100
1602831578.8080,108
1602831578.8100,95
1602831578.8120,100
1602831578.8140,117
1602831578.8160,113
1602831578.8180,105
1602831578.8200,125
1602831578.8220,137
1602831578.8240,132
1602831578.8260,127
1602831578.8280,127
1602831578.8300,135
1602831578.8320,157
1602831578.8340,179
1602831578.8346,191
1602831578.8360,186
1602831579.2418,179
1602831579.2427,189
1602831579.2451,206
1602831579.2477,201
1602831579.2497,181
1602831579.2517,162
1602831579.2538,137
1602831579.2557,108
1602831579.2577,76
1602831579.2597,46
1602831579.2617,31
1602831579.2637,22
1602831579.2647,9
1602831579.2658,2
1602831579.2677,4
1602831579.2697,24
1602831579.2717,34
1602831579.2737,12
1602831579.2757,4
1602831579.2777,31
1602831579.2797,44
1602831579.2817,24
1602831579.2837,19
1602831579.2857,36
1602831579.2877,34
1602831579.2897,22
1602831579.2917,24
1602831579.2936,31
1602831579.2943,31
1602831579.2957,41
1602831579.2976,56
1602831579.2996,54
1602831579.3017,49
1602831579.3036,44
1602831579.3056,41
1602831579.3076,46
1602831579.3097,49
1602831579.3117,46
1602831579.3136,44
1602831579.3156,46
1602831579.3176,44
1602831579.3196,41
1602831579.3217,36
1602831579.3236,24
1602831579.3243,22
1602831579.3256,44
1602831579.3276,49
1602831579.3296,41
1602831579.3317,49
1602831579.3336,56
1602831579.3358,51
1602831579.3377,51
1602831579.3396,46
1602831579.3416,41
1602831579.3436,44
1602831579.3456,49
1602831579.3476,54
1602831579.3496,51
1602831579.3517,54
1602831579.3536,71
1602831579.3542,81
1602831579.3556,86
1602831579.3576,86
1602831579.3598,83
1602831579.3619,76
1602831579.3636,73
1602831579.3656,68
1602831579.3676,54
1602831579.3696,58
1602831579.3717,73
1602831579.3737,76
1602831579.3756,68
1602831579.3776,63
1602831579.8123,68
1602831579.8132,81
1602831579.8145,199
1602831579.8164,466
1602831579.8184,516
1602831579.8205,-14
1602831579.8224,-518
1602831579.8244,-287
1602831579.8264,86
1602831579.8284,56
1602831579.8305,22
1602831579.8323,110
1602831579.8343,110
1602831579.8364,81
1602831579.8383,103
1602831579.8404,103
1602831579.8409,78
1602831579.8423,88
1602831579.8443,110
1602831579.8463,110
1602831579.8483,108
1602831579.8505,110
1602831579.8523,115
1602831579.8543,122
1602831579.8563,140
1602831579.8583,149
1602831579.8604,147
1602831579.8623,145
1602831579.8643,145
1602831579.8663,149
1602831579.8683,164
1602831579.8704,179
1602831579.8709,181
1602831579.8723,184
1602831579.8743,186
1602831579.8763,191
1602831579.8783,208
1602831579.8804,216
1602831579.8823,201
1602831579.8845,184
1602831579.8864,179
1602831579.8886,154
1602831579.8904,113
1602831579.8924,81
1602831579.8943,49
1602831579.8964,27
1602831579.8983,17
1602831579.9004,0
1602831579.9009,-2
1602831579.9023,17
1602831579.9043,17
1602831579.9063,0
1602831579.9083,14
1602831579.9104,17
1602831579.9123,-12
1602831579.9143,-17
1602831579.9163,7
1602831579.9183,19
1602831579.9204,17
1602831579.9223,19
1602831579.9243,29
1602831579.9263,44
1602831579.9283,44
1602831579.9303,34
1602831579.9310,29
1602831579.9323,31
1602831579.9343,51
1602831579.9363,54
1602831579.9383,41
1602831579.9403,46
1602831579.9423,49
1602831579.9443,46
1602831579.9463,41
1602831580.3522,39
1602831580.3531,51
1602831580.3556,63
1602831580.3583,49
1602831580.3602,34
1602831580.3622,36
1602831580.3629,46
1602831580.3645,44
1602831580.3662,31
1602831580.3682,31
1602831580.3702,39
1602831580.3721,39
1602831580.3741,31
1602831580.3761,27
1602831580.3781,36
1602831580.3801,58
1602831580.3821,56
1602831580.3841,39
1602831580.3861,46
1602831580.3884,46
1602831580.3902,49
1602831580.3921,83
1602831580.4004,95
1602831580.4021,61
1602831580.4041,51
1602831580.4061,76
1602831580.4081,71
1602831580.4101,41
1602831580.4121,46
1602831580.4141,61
1602831580.4161,58
1602831580.4181,63
1602831580.4201,71
1602831580.4221,63
1602831580.4241,58
1602831580.4261,83
1602831580.4281,235
1602831580.4287,491
1602831580.4300,442
1602831580.4321,-145
1602831580.4341,-540
1602831580.4362,-199
1602831580.4381,125
1602831580.4401,36
1602831580.4421,22
1602831580.4441,127
1602831580.4461,105
1602831580.4481,61
1602831580.4501,88
1602831580.4521,98
1602831580.4541,90
1602831580.4561,103
1602831580.4581,98
1602831580.4587,90
1602831580.4602,98
1602831580.4621,90
1602831580.4641,88
1602831580.4661,110
1602831580.4681,130
1602831580.4701,120
1602831580.4721,110
1602831580.4741,127
1602831580.4761,149
1602831580.4781,152
1602831580.4801,157
1602831580.4821,162
1602831580.4841,164
1602831580.4861,172
1602831580.4881,184
1602831580.4887,181
1602831580.4903,172
1602831580.4921,172
1602831580.4941,181
1602831580.9221,176
1602831580.9230,142
1602831580.9255,103
1602831580.9280,83
1602831580.9300,54
1602831580.9320,24
1602831580.9340,24
1602831580.9360,9
1602831580.9380,-19
1602831580.9402,-24
1602831580.9406,-7
1602831580.9420,-7
1602831580.9441,-17
1602831580.9460,-19
1602831580.9480,-17
1602831580.9500,-19
1602831580.9520,-19
1602831580.9539,-2
1602831580.9560,17
1602831580.9581,17
1602831580.9600,2
1602831580.9620,7
1602831580.9640,34
1602831580.9660,39
1602831580.9680,24
1602831580.9700,22
1602831580.9706,31
1602831580.9719,31
1602831580.9739,31
1602831580.9760,41
1602831580.9780,31
1602831580.9799,22
1602831580.9819,41
1602831580.9839,51
1602831580.9859,36
1602831580.9879,24
1602831580.9899,31
1602831580.9920,41
1602831580.9939,39
1602831580.9959,34
1602831580.9979,36
1602831580.9999,39
1602831581.0006,41
1602831581.0019,46
1602831581.0039,44
1602831581.0061,36
1602831581.0079,39
1602831581.0099,44
1602831581.0121,46
1602831581.0140,49
1602831581.0159,49
1602831581.0179,49
1602831581.0199,46
1602831581.0219,54
1602831581.0240,61
1602831581.0259,51
1602831581.0279,49
1602831581.0299,73
1602831581.0306,93
1602831581.0320,83
1602831581.0339,73
1602831581.0359,73
1602831581.0379,76
1602831581.0400,73
1602831581.0420,56
1602831581.0440,44
1602831581.0459,49
1602831581.0480,63
1602831581.0499,73
1602831581.0519,61
1602831581.0539,56
1602831581.0559,63
1602831581.0579,73
1602831581.5822,174
1602831581.5835,427
1602831581.5859,535
1602831581.5886,100
1602831581.5905,-457
1602831581.5925,-356
1602831581.5945,36
1602831581.5965,63
1602831581.5985,2
1602831581.6004,71
1602831581.6025,86
1602831581.6045,63
1602831581.6065,90
1602831581.6085,93
1602831581.6105,73
1602831581.6124,78
1602831581.6131,88
1602831581.6145,81
1602831581.6165,81
1602831581.6185,90
1602831581.6206,100
1602831581.6225,117
1602831581.6245,122
1602831581.6265,100
1602831581.6285,86
1602831581.6305,98
1602831581.6327,122
1602831581.6345,135
1602831581.6364,132
1602831581.6385,137
1602831581.6404,149
1602831581.6424,154
1602831581.6430,159
1602831581.6444,159
1602831581.6464,154
1602831581.6484,152
1602831581.6505,162
1602831581.6524,149
1602831581.6544,125
1602831581.6564,115
1602831581.6584,95
1602831581.6604,54
1602831581.6624,24
1602831581.6644,17
1602831581.6664,9
1602831581.6684,4
1602831581.6704,-2
1602831581.6724,-4
1602831581.6730,0
1602831581.6745,-4
1602831581.6764,-2
1602831581.6784,12
1602831581.6804,7
1602831581.6825,-4
1602831581.6844,4
1602831581.6864,27
1602831581.6884,29
1602831581.6904,24
1602831581.6924,24
1602831581.6944,27
1602831581.6964,36
1602831581.6984,46
1602831581.7005,34
1602831581.7024,31
1602831581.7030,49
1602831581.7044,41
1602831581.7064,22
1602831581.7084,34
1602831581.7104,54
1602831581.7124,54
1602831581.7144,49
1602831581.7165,49
1602831581.7184,54
1602831582.0919,56
1602831582.0926,49
1602831582.0950,44
1602831582.0976,39
1602831582.0985,31
1602831582.0996,41
1602831582.1017,58
1602831582.1036,51
1602831582.1056,34
1602831582.1076,44
1602831582.1096,49
1602831582.1115,39
1602831582.1136,49
1602831582.1156,58
1602831582.1176,41
1602831582.1196,24
1602831582.1216,34
1602831582.1236,44
1602831582.1256,24
1602831582.1276,19
1602831582.1281,44
1602831582.1296,44
1602831582.1316,31
1602831582.1336,39
1602831582.1356,51
1602831582.1376,56
1602831582.1396,61
1602831582.1416,63
1602831582.1436,61
1602831582.1455,73
1602831582.1475,68
1602831582.1495,34
1602831582.1516,22
1602831582.1535,49
1602831582.1555,63
1602831582.1575,54
1602831582.1581,54
1602831582.1596,54
1602831582.1615,56
1602831582.1635,78
1602831582.1655,181
1602831582.1675,420
1602831582.1695,516
1602831582.1716,81
1602831582.1735,-435
1602831582.1757,-290
1602831582.1775,76
1602831582.1796,68
1602831582.1816,17
1602831582.1835,100
1602831582.1855,108
1602831582.1876,78
1602831582.1882,103
1602831582.1896,100
1602831582.1916,81
1602831582.1937,95
1602831582.1956,113
1602831582.1976,100
1602831582.1996,93
1602831582.2016,110
1602831582.2036,125
1602831582.2056,127
1602831582.2075,132
1602831582.2096,127
1602831582.2116,117
1602831582.2136,117
1602831582.2156,132
1602831582.2176,137
1602831582.2182,145
1602831582.2196,162
1602831582.2216,159
1602831582.2236,154
1602831582.2255,172
1602831582.6319,181
1602831582.6326,176
1602831582.6358,169
1602831582.6365,162
1602831582.6386,164
1602831582.6407,169
1602831582.6426,145
1602831582.6446,100
1602831582.6466,73
1602831582.6487,56
1602831582.6506,34
1602831582.6526,17
1602831582.6546,0
1602831582.6566,-17
1602831582.6586,-22
1602831582.6606,-27
1602831582.6626,-14
1602831582.6646,7
1602831582.6666,4
1602831582.6672,0
1602831582.6686,19
1602831582.6706,24
1602831582.6726,27
1602831582.6746,44
1602831582.6766,54
1602831582.6786,46
1602831582.6807,46
1602831582.6826,34
1602831582.6846,14
1602831582.6866,22
1602831582.6885,46
1602831582.6906,51
1602831582.6926,41
1602831582.6947,46
1602831582.6966,56
1602831582.6972,56
1602831582.6986,56
1602831582.7006,66
1602831582.7026,71
1602831582.7046,73
1602831582.7066,76
1602831582.7086,68
1602831582.7106,61
1602831582.7126,56
1602831582.7146,46
1602831582.7166,56
1602831582.7186,78
1602831582.7206,81
1602831582.7226,71
1602831582.7246,71
1602831582.7266,71
1602831582.7272,56
1602831582.7286,39
1602831582.7306,44
1602831582.7326,63
1602831582.7346,71
1602831582.7366,68
1602831582.7386,66
1602831582.7406,63
1602831582.7426,71
1602831582.7446,71
1602831582.7466,73
1602831582.7486,98
1602831582.7506,115
1602831582.7526,113
1602831582.7546,105
1602831582.7566,108
1602831582.7572,95
1602831582.7586,76
1602831582.7606,71
1602831582.7626,68
1602831582.7646,66
1602831582.7666,73
1602831583.1716,73
1602831583.1722,66
1602831583.1746,73
1602831583.1773,76
1602831583.1792,86
1602831583.1812,221
1602831583.1833,493
1602831583.1839,516
1602831583.1852,-39
1602831583.1873,-557
1602831583.1892,-321
1602831583.1915,81
1602831583.1920,66
1602831583.1943,22
1602831583.1963,98
1602831583.1982,90
1602831583.2003,66
1602831583.2022,98
1602831583.2042,103
1602831583.2062,86
1602831583.2083,95
1602831583.2103,103
1602831583.2108,103
1602831583.2122,105
1602831583.2142,98
1602831583.2162,86
1602831583.2182,86
1602831583.2203,95
1602831583.2222,125
1602831583.2242,147
1602831583.2262,135
1602831583.2282,132
1602831583.2303,145
1602831583.2322,142
1602831583.2342,147
1602831583.2362,159
1602831583.2382,154
1602831583.2403,137
1602831583.2408,147
1602831583.2422,179
1602831583.2442,172
1602831583.2462,140
1602831583.2482,157
1602831583.2502,169
1602831583.2522,125
1602831583.2542,90
1602831583.2562,78
1602831583.2582,58
1602831583.2603,41
1602831583.2622,27
1602831583.2642,-12
1602831583.2662,-46
1602831583.2682,-41
1602831583.2703,-27
1602831583.2708,-22
1602831583.2722,-9
1602831583.2742,9
1602831583.2762,12
1602831583.2782,-4
1602831583.2802,-12
1602831583.2822,7
1602831583.2842,39
1602831583.2864,41
1602831583.2882,19
1602831583.2902,14
1602831583.2922,41
1602831583.2942,54
1602831583.2962,41
1602831583.2982,36
1602831583.3002,41
1602831583.3008,46
1602831583.3022,44
1602831583.3042,41
1602831583.7719,51
1602831583.7730,58
1602831583.7754,54
1602831583.7780,49
1602831583.7800,44
1602831583.7820,39
1602831583.7841,29
1602831583.7860,19
1602831583.7881,19
1602831583.7900,34
1602831583.7920,49
1602831583.7941,44
1602831583.7947,29
1602831583.7960,31
1602831583.7981,41
1602831583.8001,44
1602831583.8020,49
1602831583.8040,58
1602831583.8060,51
1602831583.8080,34
1602831583.8102,36
1602831583.8120,49
1602831583.8140,46
1602831583.8160,39
1602831583.8180,41
1602831583.8200,51
1602831583.8220,71
1602831583.8240,83
1602831583.8246,88
1602831583.8260,86
1602831583.8280,71
1602831583.8300,58
1602831583.8319,61
1602831583.8340,51
1602831583.8360,41
1602831583.8379,51
1602831583.8399,58
1602831583.8419,54
1602831583.8440,58
1602831583.8460,61
1602831583.8482,68
1602831583.8500,186
1602831583.8520,432
1602831583.8539,506
1602831583.8545,63
1602831583.8559,-459
1602831583.8580,-326
1602831583.8600,63
1602831583.8619,83
1602831583.8639,22
1602831583.8659,88
1602831583.8679,93
1602831583.8699,73
1602831583.8720,108
1602831583.8739,105
1602831583.8759,86
1602831583.8779,100
1602831583.8799,117
1602831583.8819,117
1602831583.8839,113
1602831583.8845,81
1602831583.8859,56
1602831583.8880,78
1602831583.8899,100
1602831583.8919,81
1602831583.8940,68
1602831583.8959,100
1602831583.8980,122
1602831583.8999,113
1602831583.9019,113
1602831583.9039,130
1602831583.9059,145
1602831583.9079,159
1602831584.2818,169
1602831584.2827,157
1602831584.2852,132
1602831584.2878,132
1602831584.2898,142
1602831584.2917,132
1602831584.2937,115
1602831584.2957,95
1602831584.2977,58
1602831584.2997,39
1602831584.3017,44
1602831584.3037,34
1602831584.3057,-4
1602831584.3077,-31
1602831584.3097,-27
1602831584.3117,-17
1602831584.3123,-22
1602831584.3137,-31
1602831584.3159,-19
1602831584.3177,-7
1602831584.3197,-4
1602831584.3217,-2
1602831584.3237,-7
1602831584.3257,-9
1602831584.3278,2
1602831584.3297,12
1602831584.3317,27
1602831584.3337,36
1602831584.3356,24
1602831584.3377,24
1602831584.3397,46
1602831584.3417,54
1602831584.3423,41
1602831584.3438,31
1602831584.3457,46
1602831584.3477,63
1602831584.3497,44
1602831584.3517,19
1602831584.3537,31
1602831584.3557,54
1602831584.3577,51
1602831584.3597,41
1602831584.3617,54
1602831584.3637,61
1602831584.3658,46
1602831584.3677,44
1602831584.3697,41
1602831584.3717,34
1602831584.3723,46
1602831584.3737,56
1602831584.3756,63
1602831584.3776,73
1602831584.3797,58
1602831584.3817,31
1602831584.3836,39
1602831584.3857,58
1602831584.3877,66
1602831584.3897,68
1602831584.3917,58
1602831584.3937,31
1602831584.3957,24
1602831584.3977,34
1602831584.3996,49
1602831584.4017,81
1602831584.4023,95
1602831584.4037,71
1602831584.4057,68
1602831584.4077,100
1602831584.4097,105
1602831584.4118,78
1602831584.4137,68
1602831584.4157,71
1602831584.4177,63
1602831584.9415,56
1602831584.9426,49
1602831584.9450,46
1602831584.9476,61
1602831584.9484,61
1602831584.9496,83
1602831584.9516,250
1602831584.9536,489
1602831584.9556,393
1602831584.9576,-164
1602831584.9596,-471
1602831584.9616,-152
1602831584.9636,100
1602831584.9656,41
1602831584.9676,56
1602831584.9696,117
1602831584.9716,73
1602831584.9736,54
1602831584.9756,88
1602831584.9776,93
1602831584.9782,86
1602831584.9797,93
1602831584.9816,93
1602831584.9836,88
1602831584.9856,93
1602831584.9876,100
1602831584.9896,108
1602831584.9915,115
1602831584.9935,117
1602831584.9955,113
1602831584.9975,120
1602831584.9995,135
1602831585.0016,135
1602831585.0035,125
1602831585.0055,142
1602831585.0075,157
1602831585.0081,149
1602831585.0095,145
1602831585.0116,154
1602831585.0135,162
1602831585.0155,167
1602831585.0175,167
1602831585.0195,149
1602831585.0215,122
1602831585.0235,110
1602831585.0255,95
1602831585.0275,83
1602831585.0297,83
1602831585.0316,68
1602831585.0335,36
1602831585.0355,19
1602831585.0375,14
1602831585.0381,7
1602831585.0395,9
1602831585.0416,22
1602831585.0435,19
1602831585.0455,17
1602831585.0477,19
1602831585.0495,22
1602831585.0515,27
1602831585.0535,36
1602831585.0556,51
1602831585.0575,54
1602831585.0596,49
1602831585.0616,61
1602831585.0635,68
1602831585.0657,56
1602831585.0675,44
1602831585.0681,44
1602831585.0695,56
1602831585.0715,71
1602831585.0735,71
1602831585.0755,68
1602831585.4215,73
1602831585.4221,73
1602831585.4246,63
1602831585.4272,54
1602831585.4292,46
1602831585.4312,44
1602831585.4332,51
1602831585.4352,63
1602831585.4372,66
1602831585.4392,58
1602831585.4398,61
1602831585.4412,63
1602831585.4432,61
1602831585.4452,71
1602831585.4472,76
1602831585.4492,63
1602831585.4512,54
1602831585.4532,54
1602831585.4552,51
1602831585.4571,56
1602831585.4591,61
1602831585.4611,46
1602831585.4631,39
1602831585.4651,61
1602831585.4671,66
1602831585.4693,51
1602831585.4697,63
1602831585.4712,81
1602831585.4731,90
1602831585.4751,98
1602831585.4771,88
1602831585.4791,86
1602831585.4812,100
1602831585.4832,93
1602831585.4851,73
1602831585.4871,71
1602831585.4891,61
1602831585.4912,49
1602831585.4932,46
1602831585.4951,56
1602831585.4971,61
1602831585.4991,56
1602831585.4997,54
1602831585.5012,122
1602831585.5031,341
1602831585.5052,538
1602831585.5071,270
1602831585.5091,-348
1602831585.5112,-464
1602831585.5131,-36
1602831585.5151,132
1602831585.5171,44
1602831585.5191,81
1602831585.5211,130
1602831585.5231,98
1602831585.5251,88
1602831585.5271,110
1602831585.5291,117
1602831585.5297,108
1602831585.5311,90
1602831585.5331,88
1602831585.5351,98
1602831585.5371,98
1602831585.5391,105
1602831585.5412,127
1602831585.5431,132
1602831585.5451,127
1602831585.5471,135
1602831585.5491,130
1602831585.5512,125
1602831585.5531,147
1602831585.5552,159
1602831585.5571,149
1602831585.9917,140
1602831585.9925,152
1602831585.9950,174
1602831585.9979,174
1602831585.9997,157
1602831586.0015,164
1602831586.0036,167
1602831586.0056,149
1602831586.0075,149
1602831586.0095,149
1602831586.0116,117
1602831586.0135,76
1602831586.0155,56
1602831586.0176,39
1602831586.0195,27
1602831586.0202,7
1602831586.0215,-14
1602831586.0235,-9
1602831586.0255,-7
1602831586.0275,-19
1602831586.0296,-2
1602831586.0316,29
1602831586.0335,14
1602831586.0355,7
1602831586.0375,41
1602831586.0395,51
1602831586.0415,31
1602831586.0435,27
1602831586.0455,27
1602831586.0475,24
1602831586.0495,24
1602831586.0501,29
1602831586.0515,41
1602831586.0535,54
1602831586.0555,56
1602831586.0575,44
1602831586.0595,41
1602831586.0615,58
1602831586.0635,56
1602831586.0655,41
1602831586.0675,44
1602831586.0695,54
1602831586.0715,46
1602831586.0735,46
1602831586.0755,56
1602831586.0775,44
1602831586.0795,27
1602831586.0801,44
1602831586.0815,71
1602831586.0836,56
1602831586.0856,34
1602831586.0875,49
1602831586.0895,66
1602831586.0915,61
1602831586.0936,51
1602831586.0955,49
1602831586.0975,56
1602831586.0995,54
1602831586.1015,61
1602831586.1035,90
1602831586.1055,95
1602831586.1075,61
1602831586.1095,54
1602831586.1101,73
1602831586.1115,78
1602831586.1135,68
1602831586.1155,41
1602831586.1175,22
1602831586.1195,49
1602831586.1215,68
1602831586.1235,56
1602831586.1255,54
1602831586.1275,61
1602831586.5320,93
1602831586.5329,265
1602831586.5354,518
1602831586.5380,410
1602831586.5401,-194
1602831586.5407,-525
1602831586.5420,-172
1602831586.5440,108
1602831586.5460,36
1602831586.5480,34
1602831586.5500,95
1602831586.5519,76
1602831586.5539,63
1602831586.5559,83
1602831586.5579,93
1602831586.5599,95
1602831586.5619,100
1602831586.5640,95
1602831586.5659,83
1602831586.5679,76
1602831586.5699,73
1602831586.5705,93
1602831586.5720,115
1602831586.5739,100
1602831586.5759,88
1602831586.5779,103
1602831586.5799,108
1602831586.5819,110
1602831586.5839,120
1602831586.5859,117
1602831586.5879,122
1602831586.5899,152
1602831586.5921,174
1602831586.5939,162
1602831586.5959,157
1602831586.5979,159
1602831586.5999,137
1602831586.6005,122
1602831586.6019,130
1602831586.6039,117
1602831586.6059,95
1602831586.6079,73
1602831586.6099,41
1602831586.6119,14
1602831586.6139,12
1602831586.6159,19
1602831586.6179,7
1602831586.6199,-9
1602831586.6219,-17
1602831586.6239,-19
1602831586.6259,-17
1602831586.6280,-12
1602831586.6299,0
1602831586.6305,9
1602831586.6319,0
1602831586.6339,-7
1602831586.6359,12
1602831586.6379,36
1602831586.6399,31
1602831586.6419,27
1602831586.6439,51
1602831586.6459,54
1602831586.6479,31
1602831586.6499,44
1602831586.6519,56
1602831586.6539,39
1602831586.6559,31
1602831586.6579,39
1602831586.6599,36
1602831586.6605,29
1602831586.6619,46
1602831586.6639,66
1602831586.6659,61
1602831587.1319,49
1602831587.1327,44
1602831587.1352,41
1602831587.1378,34
1602831587.1398,46
1602831587.1418,58
1602831587.1438,41
1602831587.1458,34
1602831587.1478,39
1602831587.1485,19
1602831587.1501,2
1602831587.1518,36
1602831587.1537,66
1602831587.1558,66
1602831587.1578,63
1602831587.1598,61
1602831587.1618,61
1602831587.1638,63
1602831587.1658,51
1602831587.1678,34
1602831587.1698,29
1602831587.1717,36
1602831587.1737,46
1602831587.1757,34
1602831587.1778,29
1602831587.1784,58
1602831587.1798,56
1602831587.1817,34
1602831587.1837,113
1602831587.1857,324
1602831587.1877,501
1602831587.1897,270
1602831587.1917,-299
1602831587.1937,-447
1602831587.1957,-68
1602831587.1977,110
1602831587.1997,36
1602831587.2017,66
1602831587.2037,105
1602831587.2057,78
1602831587.2077,83
1602831587.2083,90
1602831587.2097,71
1602831587.2117,78
1602831587.2137,93
1602831587.2157,83
1602831587.2177,90
1602831587.2197,108
1602831587.2217,113
1602831587.2237,115
1602831587.2257,115
1602831587.2277,115
1602831587.2297,132
1602831587.2319,137
1602831587.2337,130
1602831587.2357,147
1602831587.2377,167
1602831587.2383,164
1602831587.2397,162
1602831587.2417,164
1602831587.2437,157
1602831587.2458,169
1602831587.2477,186
1602831587.2497,174
1602831587.2517,149
1602831587.2537,152
1602831587.2557,154
1602831587.2578,135
1602831587.2597,103
1602831587.2617,78
1602831587.2637,71
1602831587.2657,56
1602831587.2677,22
1602831587.6417,-2
1602831587.6425,0
1602831587.6450,12
1602831587.6476,9
1602831587.6496,-7
1602831587.6515,-12
1602831587.6537,-2
1602831587.6555,-4
1602831587.6575,-9
1602831587.6595,7
1602831587.6615,19
1602831587.6635,7
1602831587.6656,-7
1602831587.6675,4
1602831587.6696,17
1602831587.6715,22
1602831587.6722,31
1602831587.6735,24
1602831587.6755,2
1602831587.6775,22
1602831587.6795,51
1602831587.6816,41
1602831587.6835,31
1602831587.6855,44
1602831587.6875,44
1602831587.6895,39
1602831587.6916,34
1602831587.6935,31
1602831587.6955,39
1602831587.6975,36
1602831587.6995,29
1602831587.7015,31
1602831587.7021,34
1602831587.7035,44
1602831587.7055,49
1602831587.7075,36
1602831587.7095,36
1602831587.7117,56
1602831587.7135,63
1602831587.7157,51
1602831587.7175,56
1602831587.7195,78
1602831587.7215,76
1602831587.7235,58
1602831587.7255,51
1602831587.7276,44
1602831587.7295,36
1602831587.7301,51
1602831587.7315,76
1602831587.7335,66
1602831587.7355,36
1602831587.7375,39
1602831587.7395,46
1602831587.7416,83
1602831587.7435,275
1602831587.7455,513
1602831587.7475,371
1602831587.7495,-201
1602831587.7516,-462
1602831587.7535,-130
1602831587.7555,88
1602831587.7575,19
1602831587.7595,58
1602831587.7601,130
1602831587.7615,81
1602831587.7635,51
1602831587.7655,86
1602831587.7675,100
1602831587.7695,90
1602831587.7715,95
1602831587.7736,105
1602831587.7755,95
1602831587.7775,86
1602831588.2415,90
1602831588.2424,105
1602831588.2449,120
1602831588.2460,122
1602831588.2475,103
1602831588.2495,86
1602831588.2515,95
1602831588.2536,122
1602831588.2555,140
1602831588.2575,142
1602831588.2595,142
1602831588.2614,154
1602831588.2634,172
1602831588.2654,169
1602831588.2674,157
1602831588.2694,169
1602831588.2714,176
1602831588.2736,157
1602831588.2754,130
1602831588.2759,110
1602831588.2774,93
1602831588.2794,81
1602831588.2814,66
1602831588.2834,36
1602831588.2854,17
1602831588.2874,12
1602831588.2894,9
1602831588.2914,2
1602831588.2934,-9
1602831588.2954,-4
1602831588.2974,14
1602831588.2994,14
1602831588.3014,7
1602831588.3034,9
1602831588.3054,14
1602831588.3060,12
1602831588.3074,17
1602831588.3094,22
1602831588.3114,27
1602831588.3134,31
1602831588.3154,36
1602831588.3174,34
1602831588.3194,29
1602831588.3214,27
1602831588.3234,36
1602831588.3254,44
1602831588.3274,36
1602831588.3294,34
1602831588.3314,44
1602831588.3333,41
1602831588.3353,36
1602831588.3359,34
1602831588.3374,41
1602831588.3393,49
1602831588.3414,49
1602831588.3433,46
1602831588.3454,41
1602831588.3474,31
1602831588.3494,31
1602831588.3514,31
1602831588.3534,34
1602831588.3554,49
1602831588.3574,66
1602831588.3594,76
1602831588.3614,68
1602831588.3634,56
1602831588.3653,63
1602831588.3660,66
1602831588.3675,51
1602831588.3694,36
1602831588.3714,34
1602831588.3734,44
1602831588.3754,51
1602831588.8120,44
1602831588.8128,41
1602831588.8142,56
1602831588.8162,56
1602831588.8183,71
1602831588.8204,228
1602831588.8222,491
1602831588.8229,447
1602831588.8243,-130
1602831588.8262,-550
1602831588.8282,-262
1602831588.8304,73
1602831588.8322,56
1602831588.8342,58
1602831588.8362,117
1602831588.8382,78
1602831588.8402,46
1602831588.8422,63
1602831588.8442,73
1602831588.8462,81
1602831588.8482,83
1602831588.8503,78
1602831588.8522,86
1602831588.8528,95
1602831588.8542,93
1602831588.8562,98
1602831588.8582,115
1602831588.8602,125
1602831588.8622,115
1602831588.8642,113
1602831588.8662,135
1602831588.8682,157
1602831588.8702,152
1602831588.8722,152
1602831588.8742,172
1602831588.8761,189
1602831588.8781,181
1602831588.8802,167
1602831588.8823,172
1602831588.8828,184
1602831588.8842,179
1602831588.8862,164
1602831588.8882,162
1602831588.8902,162
1602831588.8922,127
1602831588.8942,93
1602831588.8963,86
1602831588.8982,63
1602831588.9002,22
1602831588.9021,9
1602831588.9041,12
1602831588.9061,9
1602831588.9081,9
1602831588.9102,9
1602831588.9122,9
1602831588.9128,12
1602831588.9141,14
1602831588.9161,24
1602831588.9181,31
1602831588.9202,29
1602831588.9221,24
1602831588.9242,24
1602831588.9261,34
1602831588.9282,41
1602831588.9302,44
1602831588.9322,56
1602831588.9342,58
1602831588.9362,49
1602831588.9382,44
1602831588.9401,46
1602831588.9422,54
1602831588.9428,66
1602831588.9442,54
1602831589.3521,27
1602831589.3530,27
1602831589.3555,41
1602831589.3580,31
1602831589.3601,17
1602831589.3620,36
1602831589.3641,46
1602831589.3660,24
1602831589.3680,19
1602831589.3701,12
1602831589.3721,-7
1602831589.3740,12
1602831589.3760,49
1602831589.3780,54
1602831589.3786,49
1602831589.3801,49
1602831589.3820,46
1602831589.3840,46
1602831589.3860,39
1602831589.3880,27
1602831589.3901,24
1602831589.3919,22
1602831589.3940,14
1602831589.3959,24
1602831589.3981,46
1602831589.4001,46
1602831589.4019,29
1602831589.4039,63
1602831589.4060,258
1602831589.4081,523
1602831589.4086,425
1602831589.4100,-213
1602831589.4120,-592
1602831589.4139,-226
1602831589.4160,100
1602831589.4179,36
1602831589.4201,39
1602831589.4220,113
1602831589.4239,78
1602831589.4259,54
1602831589.4279,78
1602831589.4300,76
1602831589.4319,76
1602831589.4339,93
1602831589.4359,98
1602831589.4380,88
1602831589.4386,88
1602831589.4400,100
1602831589.4419,110
1602831589.4439,95
1602831589.4459,98
1602831589.4479,117
1602831589.4500,120
1602831589.4520,115
1602831589.4539,125
1602831589.4559,132
1602831589.4579,142
1602831589.4601,159
1602831589.4612,159
1602831589.4629,162
1602831589.4649,174
1602831589.4656,167
1602831589.4669,149
1602831589.4689,147
1602831589.4711,149
1602831589.4730,152
1602831589.4749,140
1602831589.4769,105
1602831589.4789,83
1602831589.4810,68
1602831589.4829,36
1602831589.4849,17
1602831589.4869,12
1602831589.9515,4
1602831589.9523,7
1602831589.9550,7
1602831589.9574,2
1602831589.9594,7
1602831589.9615,19
1602831589.9635,14
1602831589.9654,-2
1602831589.9674,4
1602831589.9694,19
1602831589.9713,19
1602831589.9733,19
1602831589.9754,17
1602831589.9773,24
1602831589.9793,44
1602831589.9814,46
1602831589.9833,31
1602831589.9840,31
1602831589.9853,44
1602831589.9873,44
1602831589.9893,34
1602831589.9914,29
1602831589.9933,36
1602831589.9953,44
1602831589.9973,44
1602831589.9993,34
1602831590.0014,27
1602831590.0033,39
1602831590.0054,44
1602831590.0073,17
1602831590.0093,12
1602831590.0113,27
1602831590.0133,14
1602831590.0139,2
1602831590.0153,24
1602831590.0173,54
1602831590.0193,54
1602831590.0213,44
1602831590.0233,54
1602831590.0253,51
1602831590.0274,31
1602831590.0293,29
1602831590.0313,31
1602831590.0333,22
1602831590.0354,24
1602831590.0373,24
1602831590.0393,7
1602831590.0413,19
1602831590.0433,46
1602831590.0439,31
1602831590.0453,29
1602831590.0474,189
1602831590.0493,466
1602831590.0515,459
1602831590.0533,-88
1602831590.0553,-533
1602831590.0573,-270
1602831590.0593,78
1602831590.0613,31
1602831590.0633,2
1602831590.0653,78
1602831590.0673,71
1602831590.0693,51
1602831590.0713,76
1602831590.0733,83
1602831590.0739,73
1602831590.0753,81
1602831590.0773,90
1602831590.0793,86
1602831590.0813,78
1602831590.0833,81
1602831590.0853,98
1602831590.0873,117
1602831590.4618,105
1602831590.4624,100
1602831590.4648,122
1602831590.4674,130
1602831590.4694,125
1602831590.4714,140
1602831590.4735,152
1602831590.4741,145
1602831590.4754,149
1602831590.4774,167
1602831590.4794,181
1602831590.4815,181
1602831590.4834,167
1602831590.4854,149
1602831590.4874,135
1602831590.4894,130
1602831590.4915,127
1602831590.4934,115
1602831590.4954,86
1602831590.4974,44
1602831590.4994,12
1602831590.5015,4
1602831590.5034,24
1602831590.5040,31
1602831590.5055,-2
1602831590.5074,-24
1602831590.5094,-2
1602831590.5114,19
1602831590.5134,19
1602831590.5154,7
1602831590.5174,12
1602831590.5195,27
1602831590.5215,24
1602831590.5234,34
1602831590.5254,54
1602831590.5274,44
1602831590.5294,36
1602831590.5314,46
1602831590.5335,39
1602831590.5340,29
1602831590.5354,34
1602831590.5374,41
1602831590.5394,46
1602831590.5414,44
1602831590.5434,39
1602831590.5454,46
1602831590.5474,49
1602831590.5494,24
1602831590.5514,24
1602831590.5534,56
1602831590.5554,54
1602831590.5574,27
1602831590.5594,31
1602831590.5614,44
1602831590.5634,29
1602831590.5640,12
1602831590.5654,34
1602831590.5674,54
1602831590.5694,36
1602831590.5714,24
1602831590.5734,34
1602831590.5754,39
1602831590.5774,41
1602831590.5794,54
1602831590.5814,68
1602831590.5834,56
1602831590.5854,41
1602831590.5874,49
1602831590.5894,46
1602831590.5914,41
1602831590.5934,44
1602831590.5940,46
1602831590.5954,44
1602831591.0019,31
1602831591.0026,22
1602831591.0038,31
1602831591.0058,44
1602831591.0078,51
1602831591.0098,105
1602831591.0118,307
1602831591.0138,501
1602831591.0152,260
1602831591.0172,-336
1602831591.0177,-476
1602831591.0188,-81
1602831591.0208,88
1602831591.0228,0
1602831591.0248,44
1602831591.0268,105
1602831591.0288,68
1602831591.0308,58
1602831591.0327,71
1602831591.0347,61
1602831591.0367,73
1602831591.0388,98
1602831591.0408,98
1602831591.0427,88
1602831591.0447,86
1602831591.0467,98
1602831591.0473,110
1602831591.0487,108
1602831591.0508,105
1602831591.0527,113
1602831591.0547,117
1602831591.0567,135
1602831591.0588,152
1602831591.0609,140
1602831591.0627,130
1602831591.0647,147
1602831591.0667,162
1602831591.0687,159
1602831591.0708,162
1602831591.0728,169
1602831591.0747,162
1602831591.0767,157
1602831591.0773,157
1602831591.0787,140
1602831591.0808,120
1602831591.0827,105
1602831591.0847,86
1602831591.0867,63
1602831591.0888,54
1602831591.0908,31
1602831591.0927,9
1602831591.0947,9
1602831591.0967,12
1602831591.0987,7
1602831591.1007,17
1602831591.1027,31
1602831591.1047,29
1602831591.1067,14
1602831591.1073,12
1602831591.1087,19
1602831591.1110,34
1602831591.1127,58
1602831591.1147,68
1602831591.1167,66
1602831591.1187,63
1602831591.1208,56
1602831591.1228,49
1602831591.1248,51
1602831591.1267,58
1602831591.1287,63
1602831591.1308,71
1602831591.1327,68
1602831591.1347,56
1602831591.6020,41
1602831591.6028,39
1602831591.6052,44
1602831591.6069,39
1602831591.6089,29
1602831591.6110,34
1602831591.6129,44
1602831591.6149,46
1602831591.6170,41
1602831591.6189,31
1602831591.6209,24
1602831591.6228,22
1602831591.6248,29
1602831591.6269,34
1602831591.6288,36
1602831591.6309,34
1602831591.6314,36
1602831591.6328,29
1602831591.6348,24
1602831591.6368,44
1602831591.6388,56
1602831591.6408,41
1602831591.6428,34
1602831591.6448,46
1602831591.6468,61
1602831591.6488,63
1602831591.6508,61
1602831591.6528,58
1602831591.6548,46
1602831591.6568,46
1602831591.6588,56
1602831591.6608,51
1602831591.6614,34
1602831591.6628,27
1602831591.6648,39
1602831591.6668,58
1602831591.6688,56
1602831591.6709,41
1602831591.6730,132
1602831591.6749,400
1602831591.6768,540
