,hr,rr,ecg,gsr,temperature
1602831544.5049,77.0,799.0,3632.0,392.0000000000001,36.44
1602831544.5072,77.0,799.0,4327.0,392.0000000000001,36.44
1602831544.5092,77.0,799.0,4984.0,392.0000000000001,36.44
1602831544.5112,77.0,799.0,5490.0,392.0000000000001,36.44
1602831544.5126,77.0,799.0,5984.0,392.0000000000001,36.44
1602831544.5144,77.0,799.0,6456.0,392.0000000000001,36.44
1602831544.5164,77.0,799.0,6856.0,392.0000000000001,36.44
1602831544.5184,77.0,799.0,7245.0,392.0000000000001,36.44
1602831544.5204,77.0,799.0,7613.0,392.0000000000001,36.44
1602831544.5227,77.0,799.0,7950.0,392.0000000000001,36.44
1602831544.5248,77.0,799.0,8275.0,392.0000000000001,36.44
1602831544.5268,77.0,799.0,8572.0,392.0000000000001,36.44
1602831544.5287,77.0,799.0,8832.0,392.0000000000001,36.44
1602831544.5309,77.0,799.0,9076.0,392.0000000000001,36.44
1602831544.5325,77.0,799.0,9324.0,392.0000000000001,36.44
1602831544.5345,77.0,799.0,9550.0,392.0000000000001,36.44
1602831544.5364,77.0,799.0,9752.0,392.0000000000001,36.44
1602831544.5385,77.0,799.0,9953.0,392.0000000000001,36.44
1602831544.5405,77.0,799.0,10147.0,392.0000000000001,36.44
1602831544.5425,77.0,799.0,10317.0,392.0000000000001,36.44
1602831544.5444,77.0,799.0,10486.0,392.0000000000001,36.44
1602831544.5464,77.0,799.0,10646.0,392.0000000000001,36.44
1602831544.5485,77.0,799.0,10781.0,392.0000000000001,36.44
1602831544.5504,77.0,799.0,10919.0,392.0000000000001,36.44
1602831544.5524,77.0,799.0,11034.0,392.0000000000001,36.44
1602831544.5544,77.0,799.0,11140.0,392.0000000000001,36.44
1602831544.5564,77.0,799.0,11270.0,392.0000000000001,36.44
1602831544.5584,77.0,799.0,11403.0,392.0000000000001,36.44
1602831544.5604,77.0,799.0,11499.0,392.0000000000001,36.44
1602831544.5624,77.0,799.0,11556.0,392.0000000000001,36.44
1602831544.5644,77.0,799.0,11627.0,392.0000000000001,36.44
1602831544.5664,77.0,799.0,11723.0,392.0000000000001,36.44
1602831544.5684,77.0,799.0,11779.0,392.0000000000001,36.44
1602831544.5704,77.0,799.0,11791.0,392.0000000000001,36.44
1602831544.5724,77.0,799.0,11831.0,392.0000000000001,36.44
1602831544.5744,77.0,799.0,11892.0,392.0000000000001,36.44
1602831544.5764,77.0,799.0,11914.0,392.0000000000001,36.44
1602831544.5784,77.0,799.0,11924.0,392.0000000000001,36.44
1602831544.5804,77.0,799.0,11963.0,392.0000000000001,36.44
1602831544.5824,77.0,799.0,12000.0,392.0000000000001,36.44
1602831544.5844,77.0,799.0,12018.0,392.0000000000001,36.44
1602831544.5864,77.0,799.0,12035.0,392.0000000000001,36.44
1602831544.5884,77.0,799.0,12052.0,392.0000000000001,36.44
1602831544.5904,77.0,799.0,12185.0,392.0000000000001,36.44
1602831544.5924,77.0,799.0,12448.0,392.0000000000001,36.44
1602831544.5944,77.0,799.0,12440.0,392.0000000000001,36.44
1602831544.5964,77.0,799.0,11905.0,392.0000000000001,36.44
1602831544.5984,77.0,799.0,11474.0,392.00000000000006,36.44
1602831544.6004,77.0,799.0,11708.0,392.00000000000006,36.44
1602831544.6024,77.0,799.0,12008.0,392.00000000000006,36.44
1602831544.605,77.0,799.0,11934.0,391.9999999999439,36.44
1602831544.6064,77.0,799.0,11875.0,391.9999999999439,36.44
1602831544.6083,77.0,799.0,11917.0,391.9999999999439,36.44
1602831544.6103,77.0,799.0,11858.0,391.9999999999439,36.44
1602831544.6123,77.0,799.0,11782.0,391.9999999999439,36.44
1602831544.6143,77.0,799.0,11774.0,391.9999999999439,36.44
1602831544.6163,77.0,799.0,11745.0,391.9999999999439,36.44
1602831544.6183,77.0,799.0,11683.0,391.9999999999439,36.44
1602831544.6203,77.0,799.0,11654.0,391.9999999999439,36.44
1602831544.6224,77.0,799.0,11622.0,391.9999999999439,36.44
1602831544.6243,77.0,799.0,11551.0,391.9999999999439,36.44
1602831544.6263,77.0,799.0,11477.0,391.9999999999439,36.44
1602831544.6283,77.0,799.0,11438.0,391.9999999999439,36.44
1602831544.6303,77.0,799.0,11403.0,391.9999999999439,36.44
1602831544.6323,77.0,799.0,11352.0,391.9999999999439,36.44
1602831544.6343,77.0,799.0,11288.0,391.9999999999439,36.44
1602831544.6363,77.0,799.0,11229.0,391.9999999999439,36.44
1602831544.6383,77.0,799.0,11162.0,391.9999999999439,36.44
1602831544.6403,77.0,799.0,11096.0,391.9999999999439,36.44
1602831544.6423,77.0,799.0,11054.0,391.9999999999439,36.44
1602831544.6443,77.0,799.0,11005.0,391.9999999999439,36.44
1602831544.6463,77.0,799.0,10919.0,391.9999999999439,36.44
1602831544.6483,77.0,799.0,10831.0,391.9999999999439,36.44
1602831545.0123,77.0,813.0,10789.0,391.9999999999439,36.44
1602831545.0131,77.0,813.0,10747.0,391.9999999999439,36.44
1602831545.0156,77.0,813.0,10651.0,391.9999999999439,36.44
1602831545.0182,77.0,813.0,10558.0,391.9999999999439,36.44
1602831545.0202,77.0,813.0,10496.0,391.9999999999439,36.44
1602831545.0222,77.0,813.0,10420.0,391.9999999999439,36.44
1602831545.0242,77.0,813.0,10332.0,391.9999999999439,36.44
1602831545.0261,77.0,813.0,10250.0,391.9999999999439,36.44
1602831545.0281,77.0,813.0,10155.0,391.9999999999439,36.44
1602831545.0301,77.0,813.0,10044.0,391.9999999999439,36.44
1602831545.0322,77.0,813.0,9951.0,391.9999999999439,36.44
1602831545.0341,77.0,813.0,9855.0,391.9999999999439,36.44
1602831545.0361,77.0,813.0,9759.0,391.9999999999439,36.44
1602831545.0381,77.0,813.0,9680.0,391.9999999999439,36.44
1602831545.0401,77.0,813.0,9562.0,391.9999999999439,36.44
1602831545.0422,77.0,813.0,9412.0,391.9999999999439,36.44
1602831545.0441,77.0,813.0,9341.0,391.9999999999439,36.44
1602831545.0461,77.0,813.0,9304.0,391.9999999999439,36.44
1602831545.0481,77.0,813.0,9199.0,391.9999999999439,36.44
1602831545.0501,77.0,813.0,9098.0,391.9999999999439,36.44
1602831545.0522,77.0,813.0,9051.0,391.9999999999439,36.44
1602831545.0541,77.0,813.0,8977.0,391.9999999999439,36.44
1602831545.0561,77.0,813.0,8877.0,391.9999999999439,36.44
1602831545.0581,77.0,813.0,8793.0,391.9999999999439,36.44
1602831545.0602,77.0,813.0,8714.0,391.9999999999439,36.44
1602831545.0621,77.0,813.0,8648.0,391.9999999999439,36.44
1602831545.0641,77.0,813.0,8584.0,391.9999999999439,36.44
1602831545.0661,77.0,813.0,8476.0,391.9999999999439,36.44
1602831545.0683,77.0,813.0,8400.0,391.9999999999439,36.44
1602831545.0702,77.0,813.0,8356.0,391.9999999999439,36.44
1602831545.0721,77.0,813.0,8257.0,391.9999999999439,36.44
1602831545.0741,77.0,813.0,8152.0,391.9999999999439,36.44
1602831545.0761,77.0,813.0,8085.0,391.9999999999439,36.44
1602831545.0781,77.0,813.0,8016.0,391.9999999999439,36.44
1602831545.0802,77.0,813.0,7935.0,391.9999999999439,36.44
1602831545.0821,77.0,813.0,7852.0,391.9999999999439,36.44
1602831545.0841,77.0,813.0,7766.0,391.9999999999439,36.44
1602831545.0861,77.0,813.0,7690.0,391.9999999999439,36.44
1602831545.0881,77.0,813.0,7621.0,391.9999999999439,36.44
1602831545.0901,77.0,813.0,7535.0,391.9999999999439,36.44
1602831545.0921,77.0,813.0,7454.0,391.9999999999439,36.44
1602831545.0941,77.0,813.0,7390.0,391.9999999999439,36.44
1602831545.0961,77.0,813.0,7314.0,391.9999999999439,36.44
1602831545.0981,77.0,813.0,7223.0,391.9999999999439,36.44
1602831545.1001,77.0,813.0,7129.0,391.9999999999439,36.44
1602831545.1021,77.0,813.0,7043.0,391.9999999999439,36.44
1602831545.1041,77.0,813.0,6979.0,391.9999999999439,36.44
1602831545.1061,77.0,813.0,6928.0,391.9999999999439,36.44
1602831545.1081,77.0,813.0,6866.0,391.9999999999439,36.44
1602831545.1101,77.0,813.0,6780.0,391.9999999999439,36.44
1602831545.1121,77.0,813.0,6687.0,391.9999999999439,36.44
1602831545.1141,77.0,813.0,6616.0,391.9999999999439,36.44
1602831545.1161,77.0,813.0,6562.0,391.9999999999439,36.44
1602831545.1181,77.0,813.0,6515.0,391.9999999999439,36.44
1602831545.1202,77.0,813.0,6453.0,391.9999999999439,36.44
1602831545.1221,77.0,813.0,6365.0,391.9999999999439,36.44
1602831545.1241,77.0,813.0,6264.0,391.9999999999439,36.44
1602831545.1261,77.0,813.0,6181.0,391.9999999999439,36.44
1602831545.1281,77.0,813.0,6146.0,391.9999999999439,36.44
1602831545.1301,77.0,813.0,6134.0,391.9999999999439,36.44
1602831545.1321,77.0,813.0,6058.0,391.9999999999439,36.44
1602831545.134,77.0,813.0,5947.0,391.9999999999439,36.44
1602831545.1361,77.0,813.0,5888.0,391.9999999999439,36.44
1602831545.1381,77.0,813.0,5846.0,391.9999999999439,36.44
1602831545.1401,77.0,813.0,5760.0,391.9999999999439,36.44
1602831545.1421,77.0,813.0,5684.0,391.9999999999439,36.44
1602831545.1441,77.0,813.0,5633.0,391.9999999999439,36.44
1602831545.1461,77.0,813.0,5559.0,391.9999999999439,36.44
1602831545.1481,77.0,813.0,5488.0,391.9999999999439,36.44
1602831545.1501,77.0,813.0,5448.0,391.9999999999439,36.44
1602831545.1521,77.0,813.0,5382.0,391.9999999999439,36.44
1602831545.1541,77.0,813.0,5301.0,391.9999999999439,36.44
1602831545.1561,77.0,813.0,5252.0,391.9999999999439,36.44
1602831545.5826,77.0,813.0,5225.0,391.9999999999439,36.44
1602831545.5834,77.0,813.0,5303.0,391.9999999999439,36.44
1602831545.5858,77.0,813.0,5500.0,391.9999999999439,36.44
1602831545.5885,77.0,813.0,5438.0,391.9999999999439,36.44
1602831545.5902,77.0,813.0,4826.0,391.9999999999439,36.44
1602831545.5915,77.0,813.0,4325.0,391.9999999999439,36.44
1602831545.5936,77.0,813.0,4549.0,391.9999999999439,36.44
1602831545.5955,77.0,813.0,4826.0,391.9999999999439,36.44
1602831545.5974,77.0,813.0,4706.0,391.9999999999439,36.44
1602831545.5994,77.0,813.0,4642.0,391.9999999999439,36.44
1602831545.6015,77.0,813.0,4679.0,391.9999999999439,36.44
1602831545.6035,77.0,813.0,4600.0,391.9999999999439,36.44
1602831545.6055,77.0,813.0,4527.0,391.9999999999439,36.44
1602831545.6075,77.0,813.0,4490.0,391.9999999999439,36.44
1602831545.6094,77.0,813.0,4421.0,391.9999999999439,36.44
1602831545.6115,77.0,813.0,4384.0,391.9999999999439,36.44
1602831545.6134,77.0,813.0,4367.0,391.9999999999439,36.44
1602831545.6154,77.0,813.0,4298.0,391.9999999999439,36.44
1602831545.6174,77.0,813.0,4244.0,391.9999999999439,36.44
1602831545.6194,77.0,813.0,4212.0,391.9999999999439,36.44
1602831545.6215,77.0,813.0,4146.0,391.9999999999439,36.44
1602831545.6234,77.0,813.0,4096.0,391.9999999999439,36.44
1602831545.6254,77.0,813.0,4074.0,391.9999999999439,36.44
1602831545.6274,77.0,813.0,4015.0,391.9999999999439,36.44
1602831545.6294,77.0,813.0,3959.0,391.9999999999439,36.44
1602831545.6314,77.0,813.0,3949.0,391.9999999999439,36.44
1602831545.6334,77.0,813.0,3920.0,391.9999999999439,36.44
1602831545.6354,77.0,813.0,3856.0,391.9999999999439,36.44
1602831545.6374,77.0,813.0,3816.0,391.9999999999439,36.44
1602831545.6394,77.0,813.0,3809.0,391.9999999999439,36.44
1602831545.6414,77.0,813.0,3779.0,391.9999999999439,36.44
1602831545.6434,77.0,813.0,3713.0,391.9999999999439,36.44
1602831545.6454,77.0,813.0,3661.0,391.9999999999439,36.44
1602831545.6474,77.0,813.0,3629.0,391.9999999999439,36.44
1602831545.6494,77.0,813.0,3590.0,391.9999999999439,36.44
1602831545.6514,77.0,813.0,3556.0,391.9999999999439,36.44
1602831545.6535,77.0,813.0,3534.0,391.9999999999439,36.44
1602831545.6554,77.0,813.0,3470.0,391.9999999999439,36.44
1602831545.6574,77.0,813.0,3376.0,391.9999999999439,36.44
1602831545.6594,77.0,813.0,3337.0,391.9999999999439,36.44
1602831545.6614,77.0,813.0,3310.0,391.9999999999439,36.44
1602831545.6634,77.0,813.0,3226.0,391.9999999999439,36.44
1602831545.6655,77.0,813.0,3150.0,391.9999999999439,36.44
1602831545.6674,77.0,813.0,3104.0,391.9999999999439,36.44
1602831545.6694,77.0,813.0,3047.0,391.9999999999439,36.44
1602831545.6714,77.0,813.0,2990.0,391.9999999999439,36.44
1602831545.6735,77.0,813.0,2939.0,391.9999999999439,36.44
1602831545.6754,77.0,813.0,2909.0,391.9999999999439,36.44
1602831545.6774,77.0,813.0,2902.0,391.9999999999439,36.44
1602831545.6796,77.0,813.0,2873.0,391.9999999999439,36.44
1602831545.6815,77.0,813.0,2806.0,391.9999999999439,36.44
1602831545.6834,77.0,813.0,2752.0,391.9999999999439,36.44
1602831545.6854,77.0,813.0,2735.0,391.9999999999439,36.44
1602831545.6874,77.0,813.0,2728.0,391.9999999999439,36.44
1602831545.6894,77.0,813.0,2686.0,391.9999999999439,36.44
1602831545.6914,77.0,813.0,2646.0,391.9999999999439,36.44
1602831545.6934,77.0,813.0,2634.0,391.9999999999439,36.44
1602831545.6955,77.0,813.0,2590.0,391.9999999999439,36.44
1602831545.6974,77.0,813.0,2541.0,391.9999999999439,36.44
1602831545.6994,77.0,813.0,2541.0,391.9999999999439,36.44
1602831545.7014,77.0,813.0,2536.0,391.9999999999439,36.44
1602831545.7035,77.0,813.0,2492.0,391.9999999999439,36.44
1602831545.7054,77.0,813.0,2462.0,391.9999999999439,36.44
1602831545.7074,77.0,813.0,2430.0,391.9999999999439,36.44
1602831545.7094,77.0,813.0,2371.0,391.9999999999439,36.44
1602831545.7114,77.0,813.0,2339.0,391.9999999999439,36.44
1602831545.7134,77.0,813.0,2339.0,391.9999999999439,36.44
1602831545.7154,77.0,813.0,2329.0,391.9999999999439,36.44
1602831545.7174,77.0,813.0,2297.0,391.9999999999439,36.44
1602831545.7194,77.0,813.0,2251.0,391.9999999999439,36.44
1602831545.7214,77.0,813.0,2219.0,391.9999999999439,36.44
1602831545.7234,77.0,813.0,2209.0,391.9999999999439,36.44
1602831545.7254,77.0,813.0,2179.0,391.9999999999439,36.44
1602831546.1223,77.0,821.0,2130.0,391.9999999999439,36.44
1602831546.1232,77.0,821.0,2103.0,391.9999999999439,36.44
1602831546.1256,77.0,821.0,2091.0,391.9999999999439,36.44
1602831546.1282,77.0,821.0,2061.0,391.9999999999439,36.44
1602831546.1302,77.0,821.0,2044.0,391.9999999999439,36.44
1602831546.1323,77.0,821.0,2025.0,391.9999999999439,36.44
1602831546.1343,77.0,821.0,2003.0,391.9999999999439,36.44
1602831546.1362,77.0,821.0,2007.0,391.9999999999439,36.44
1602831546.1385,77.0,821.0,1983.0,391.9999999999439,36.44
1602831546.1401,77.0,821.0,1909.0,391.9999999999439,36.44
1602831546.1423,77.0,821.0,1872.0,391.9999999999439,36.44
1602831546.1442,77.0,821.0,1858.0,391.9999999999439,36.44
1602831546.1462,77.0,821.0,1821.0,391.9999999999439,36.44
1602831546.1482,77.0,821.0,1813.0,391.9999999999439,36.44
1602831546.1503,77.0,821.0,1833.0,391.9999999999439,36.44
1602831546.1522,77.0,821.0,1818.0,391.9999999999439,36.44
1602831546.1542,77.0,821.0,1791.0,391.9999999999439,36.44
1602831546.1562,77.0,821.0,1784.0,391.9999999999439,36.44
1602831546.1582,77.0,821.0,1764.0,391.9999999999439,36.44
1602831546.1604,77.0,821.0,1740.0,391.9999999999439,36.44
1602831546.1622,77.0,821.0,1705.0,391.9999999999439,36.44
1602831546.1641,77.0,821.0,1663.0,391.9999999999439,36.44
1602831546.1661,77.0,821.0,1639.0,391.9999999999439,36.44
1602831546.1681,77.0,821.0,1626.0,391.9999999999439,36.44
1602831546.1701,77.0,821.0,1622.0,391.9999999999439,36.44
1602831546.1721,77.0,821.0,1609.0,391.9999999999439,36.44
1602831546.1741,77.0,821.0,1580.0,391.9999999999439,36.44
1602831546.1762,77.0,821.0,1558.0,391.9999999999439,36.44
1602831546.1781,77.0,821.0,1553.0,391.9999999999439,36.44
1602831546.1801,77.0,821.0,1545.0,391.9999999999439,36.44
1602831546.1821,77.0,821.0,1536.0,391.9999999999439,36.44
1602831546.1841,77.0,821.0,1644.0,391.9999999999439,36.44
1602831546.1861,77.0,821.0,1882.0,391.9999999999439,36.44
1602831546.1881,77.0,821.0,1865.0,391.9999999999439,36.44
1602831546.1901,77.0,821.0,1309.0,391.9999999999439,36.44
1602831546.1923,77.0,821.0,847.0,391.9999999999439,36.44
1602831546.1941,77.0,821.0,1101.0,391.9999999999439,36.44
1602831546.1961,77.0,821.0,1445.0,391.9999999999439,36.44
1602831546.1981,77.0,821.0,1371.0,391.9999999999439,36.44
1602831546.2002,77.0,821.0,1307.0,391.9999999999439,36.44
1602831546.2021,77.0,821.0,1383.0,391.9999999999439,36.44
1602831546.2041,77.0,821.0,1366.0,391.9999999999439,36.44
1602831546.2062,77.0,821.0,1319.0,391.9999999999439,36.44
1602831546.2082,77.0,821.0,1332.0,391.9999999999439,36.44
1602831546.2101,77.0,821.0,1324.0,391.9999999999439,36.44
1602831546.2121,77.0,821.0,1295.0,391.9999999999439,36.44
1602831546.2141,77.0,821.0,1297.0,391.9999999999439,36.44
1602831546.2161,77.0,821.0,1307.0,391.9999999999439,36.44
1602831546.2181,77.0,821.0,1287.0,391.9999999999439,36.44
1602831546.2201,77.0,821.0,1258.0,391.9999999999439,36.44
1602831546.2221,77.0,821.0,1241.0,391.9999999999439,36.44
1602831546.2242,77.0,821.0,1231.0,391.9999999999439,36.44
1602831546.2261,77.0,821.0,1214.0,391.9999999999439,36.44
1602831546.2284,77.0,821.0,1191.0,391.9999999999439,36.44
1602831546.2301,77.0,821.0,1204.0,391.9999999999439,36.44
1602831546.2321,77.0,821.0,1226.0,391.9999999999439,36.44
1602831546.2341,77.0,821.0,1206.0,391.9999999999439,36.44
1602831546.2361,77.0,821.0,1189.0,391.9999999999439,36.44
1602831546.2381,77.0,821.0,1194.0,391.9999999999439,36.44
1602831546.2401,77.0,821.0,1184.0,391.9999999999439,36.44
1602831546.2421,77.0,821.0,1172.0,391.9999999999439,36.44
1602831546.2441,77.0,821.0,1172.0,391.9999999999439,36.44
1602831546.2461,77.0,821.0,1162.0,391.9999999999439,36.44
1602831546.2481,77.0,821.0,1135.0,391.9999999999439,36.44
1602831546.2501,77.0,821.0,1132.0,391.9999999999439,36.44
1602831546.2521,77.0,821.0,1152.0,391.9999999999439,36.44
1602831546.2541,77.0,821.0,1155.0,391.9999999999439,36.44
1602831546.2561,77.0,821.0,1120.0,391.9999999999439,36.44
1602831546.2581,77.0,821.0,1078.0,391.9999999999439,36.44
1602831546.2601,77.0,821.0,1054.0,391.9999999999439,36.44
1602831546.2621,77.0,821.0,1037.0,391.9999999999439,36.44
1602831546.2641,77.0,821.0,992.0,391.9999999999439,36.44
1602831546.2661,77.0,821.0,924.0,391.9999999999439,36.44
1602831546.6927,77.0,821.0,892.0,391.9999999999439,36.44
1602831546.6935,77.0,821.0,906.0,391.9999999999439,36.44
1602831546.6961,77.0,821.0,897.0,391.9999999999439,36.44
1602831546.6986,77.0,821.0,855.0,391.9999999999439,36.44
1602831546.7006,77.0,821.0,830.0,391.9999999999439,36.44
1602831546.7025,77.0,821.0,820.0,391.9999999999439,36.44
1602831546.7045,77.0,821.0,813.0,391.9999999999439,36.44
1602831546.7065,77.0,821.0,808.0,391.9999999999439,36.44
1602831546.7085,77.0,821.0,793.0,391.9999999999439,36.44
1602831546.7105,77.0,821.0,771.0,391.9999999999439,36.44
1602831546.7125,77.0,821.0,776.0,391.9999999999439,36.44
1602831546.7145,77.0,821.0,788.0,391.9999999999439,36.44
1602831546.7165,77.0,821.0,764.0,391.9999999999439,36.44
1602831546.7187,77.0,821.0,754.0,391.9999999999439,36.44
1602831546.7205,77.0,821.0,764.0,391.9999999999439,36.44
1602831546.7225,77.0,821.0,759.0,391.9999999999439,36.44
1602831546.7245,77.0,821.0,747.0,391.9999999999439,36.44
1602831546.7265,77.0,821.0,727.0,391.9999999999439,36.44
1602831546.7285,77.0,821.0,715.0,391.9999999999439,36.44
1602831546.7305,77.0,821.0,727.0,391.9999999999439,36.44
1602831546.7325,77.0,821.0,727.0,391.9999999999439,36.44
1602831546.7345,77.0,821.0,700.0,391.9999999999439,36.44
1602831546.7365,77.0,821.0,695.0,391.9999999999439,36.44
1602831546.7385,77.0,821.0,697.0,391.9999999999439,36.44
1602831546.7405,77.0,821.0,670.0,391.9999999999439,36.44
1602831546.7425,77.0,821.0,666.0,391.9999999999439,36.44
1602831546.7445,77.0,821.0,685.0,391.9999999999439,36.44
1602831546.7465,77.0,821.0,670.0,391.9999999999439,36.44
1602831546.7485,77.0,821.0,638.0,391.9999999999439,36.44
1602831546.7505,77.0,821.0,648.0,391.9999999999439,36.44
1602831546.7525,77.0,821.0,668.0,391.9999999999439,36.44
1602831546.7545,77.0,821.0,643.0,391.9999999999439,36.44
1602831546.7565,77.0,821.0,626.0,391.9999999999439,36.44
1602831546.7585,77.0,821.0,629.0,391.9999999999439,36.44
1602831546.7605,77.0,821.0,616.0,391.9999999999439,36.44
1602831546.7625,77.0,821.0,611.0,391.9999999999439,36.44
1602831546.7645,77.0,821.0,626.0,391.9999999999439,36.44
1602831546.7665,77.0,821.0,629.0,391.9999999999439,36.44
1602831546.7685,77.0,821.0,609.0,391.9999999999439,36.44
1602831546.7705,77.0,821.0,589.0,391.9999999999439,36.44
1602831546.7725,77.0,821.0,575.0,391.9999999999439,36.44
1602831546.7745,77.0,821.0,584.0,391.9999999999439,36.44
1602831546.7765,77.0,821.0,607.0,391.9999999999439,36.44
1602831546.7785,77.0,821.0,592.0,391.9999999999439,36.44
1602831546.7805,77.0,821.0,557.0,391.9999999999439,36.44
1602831546.7825,77.0,821.0,555.0,391.9999999999439,36.44
1602831546.7845,77.0,821.0,582.0,391.9999999999439,36.44
1602831546.7865,77.0,821.0,587.0,391.9999999999439,36.44
1602831546.7886,77.0,821.0,570.0,391.9999999999439,36.44
1602831546.7905,77.0,821.0,567.0,391.9999999999439,36.44
1602831546.7925,77.0,821.0,582.0,391.9999999999439,36.44
1602831546.7945,77.0,821.0,567.0,391.9999999999439,36.44
1602831546.7965,77.0,821.0,523.0,391.9999999999439,36.44
1602831546.7985,77.0,821.0,493.0,391.9999999999439,36.44
1602831546.8005,77.0,821.0,489.0,391.9999999999439,36.44
1602831546.8025,77.0,821.0,506.0,391.9999999999439,36.44
1602831546.8045,77.0,821.0,538.0,391.9999999999439,36.44
1602831546.8065,77.0,821.0,533.0,391.9999999999439,36.44
1602831546.8085,77.0,821.0,503.0,391.9999999999439,36.44
1602831546.8105,77.0,821.0,503.0,391.9999999999439,36.44
1602831546.8125,77.0,821.0,506.0,391.9999999999439,36.44
1602831546.8145,77.0,821.0,552.0,391.9999999999439,36.44
1602831546.8165,77.0,821.0,788.0,391.9999999999439,36.44
1602831546.8185,77.0,821.0,1029.0,391.9999999999439,36.44
1602831546.8206,77.0,821.0,749.0,391.9999999999439,36.44
1602831546.8225,77.0,821.0,105.0,391.9999999999439,36.44
1602831546.8245,77.0,821.0,-19.0,391.9999999999439,36.44
1602831546.8265,77.0,821.0,376.0,391.9999999999439,36.44
1602831546.8285,77.0,821.0,508.0,391.9999999999439,36.44
1602831546.8305,77.0,821.0,437.0,391.9999999999439,36.44
1602831546.8325,77.0,821.0,503.0,391.9999999999439,36.44
1602831546.8345,77.0,821.0,513.0,391.9999999999439,36.44
1602831546.8365,77.0,821.0,442.0,391.9999999999439,36.44
1602831547.2624,77.0,830.0,466.0,391.9999999999439,36.44
1602831547.2632,77.0,830.0,508.0,391.9999999999439,36.44
1602831547.2656,77.0,830.0,481.0,391.9999999999439,36.44
1602831547.2682,77.0,830.0,462.0,391.9999999999439,36.44
1602831547.2703,77.0,830.0,493.0,391.9999999999439,36.44
1602831547.2723,77.0,830.0,501.0,391.9999999999439,36.44
1602831547.2743,77.0,830.0,422.0,391.9999999999439,36.44
1602831547.2762,77.0,830.0,380.0,391.9999999999439,36.44
1602831547.2782,77.0,830.0,447.0,391.9999999999439,36.44
1602831547.2802,77.0,830.0,476.0,391.9999999999439,36.44
1602831547.2822,77.0,830.0,442.0,391.9999999999439,36.44
1602831547.2842,77.0,830.0,442.0,391.9999999999439,36.44
1602831547.2862,77.0,830.0,457.0,391.9999999999439,36.44
1602831547.2884,77.0,830.0,452.0,391.9999999999439,36.44
1602831547.2902,77.0,830.0,466.0,391.9999999999439,36.44
1602831547.2922,77.0,830.0,484.0,391.9999999999439,36.44
1602831547.2941,77.0,830.0,471.0,391.9999999999439,36.44
1602831547.2961,77.0,830.0,454.0,391.9999999999439,36.44
1602831547.2981,77.0,830.0,481.0,391.9999999999439,36.44
1602831547.3002,77.0,830.0,508.0,391.9999999999439,36.44
1602831547.3022,77.0,830.0,498.0,391.9999999999439,36.44
1602831547.3041,77.0,830.0,508.0,391.9999999999439,36.44
1602831547.3061,77.0,830.0,513.0,391.9999999999439,36.44
1602831547.3081,77.0,830.0,491.0,391.9858694606764,36.44
1602831547.3101,77.0,830.0,474.0,391.9731808131708,36.44
1602831547.3121,77.0,830.0,466.0,391.96190492830084,36.44
1602831547.3141,77.0,830.0,464.0,391.9520126769398,36.44
1602831547.3162,77.0,830.0,442.0,391.94347492996116,36.44
1602831547.3181,77.0,830.0,388.0,391.9362625582385,36.44
1602831547.3203,77.0,830.0,348.0,391.9303464326454,36.44
1602831547.3223,77.0,830.0,351.0,391.9256974240553,36.44
1602831547.3242,77.0,830.0,348.0,391.9222864033415,36.44
1602831547.3261,77.0,830.0,312.0,391.92008424137777,36.44
1602831547.3282,77.0,830.0,297.0,391.9190618090374,36.44
1602831547.3301,77.0,830.0,302.0,391.9191899771941,36.44
1602831547.3322,77.0,830.0,302.0,391.9204396167211,36.44
1602831547.3341,77.0,830.0,314.0,391.9227815984921,36.44
1602831547.3361,77.0,830.0,309.0,391.9261867933805,36.44
1602831547.3381,77.0,830.0,287.0,391.9306260722598,36.44
1602831547.3401,77.0,830.0,299.0,391.9360703060036,36.44
1602831547.3422,77.0,830.0,312.0,391.9424903654853,36.44
1602831547.3441,77.0,830.0,272.0,391.9498571215784,36.44
1602831547.3463,77.0,830.0,243.0,391.9581414451564,36.44
1602831547.3482,77.0,830.0,270.0,391.9673142070928,36.44
1602831547.3502,77.0,830.0,292.0,391.977346278261,36.44
1602831547.3522,77.0,830.0,280.0,391.9882085295347,36.44
1602831547.3542,77.0,830.0,292.0,391.9998718317873,36.44
1602831547.3561,77.0,830.0,304.0,392.0123070558922,36.44
1602831547.3581,77.0,830.0,282.0,392.02548507272303,36.44
1602831547.3602,77.0,830.0,285.0,392.03937675315314,36.44
1602831547.3622,77.0,830.0,314.0,392.0539529680562,36.44
1602831547.3641,77.0,830.0,297.0,392.06918458830563,36.44
1602831547.3661,77.0,830.0,265.0,392.0850424847749,36.44
1602831547.3681,77.0,830.0,272.0,392.10149752833746,36.44
1602831547.3702,77.0,830.0,277.0,392.11852058986693,36.44
1602831547.3721,77.0,830.0,267.0,392.1360825402367,36.44
1602831547.3742,77.0,830.0,270.0,392.15415425032035,36.44
1602831547.3761,77.0,830.0,285.0,392.17270659099137,36.44
1602831547.3782,77.0,830.0,292.0,392.1917104331231,36.44
1602831547.3801,77.0,830.0,287.0,392.21113664758917,36.44
1602831547.3821,77.0,830.0,294.0,392.23095610526315,36.44
1602831547.3842,77.0,830.0,287.0,392.25113967701833,36.44
1602831547.3861,77.0,830.0,248.0,392.2716582337284,36.44
1602831547.3882,77.0,830.0,248.0,392.2924826462667,36.44
1602831547.3901,77.0,830.0,290.0,392.31358378550686,36.44
1602831547.3922,77.0,830.0,285.0,392.3349325223223,36.44
1602831547.3941,77.0,830.0,243.0,392.3564997275865,36.44
1602831547.3961,77.0,830.0,235.0,392.37825627217296,36.44
1602831547.3981,77.0,830.0,258.0,392.40017302695526,36.44
1602831547.4001,77.0,830.0,260.0,392.42222086280685,36.44
1602831547.4022,77.0,830.0,243.0,392.4443706506012,36.44
1602831547.4042,77.0,830.0,260.0,392.46659326121176,36.44
1602831547.4062,77.0,830.0,294.0,392.4888595655121,36.44
1602831547.8332,76.0,819.0,287.0,392.5111404343757,36.44
1602831547.834,76.0,819.0,255.0,392.53340673867604,36.44
1602831547.8355,76.0,819.0,243.0,392.55562934928656,36.44
1602831547.8375,76.0,819.0,250.0,392.5777791370809,36.44
1602831547.8395,76.0,819.0,258.0,392.5998269729325,36.44
1602831547.8414,76.0,819.0,275.0,392.6217437277148,36.44
1602831547.8434,76.0,819.0,275.0,392.6435002723012,36.44
1602831547.8454,76.0,819.0,238.0,392.6650674775654,36.44
1602831547.8474,76.0,819.0,218.0,392.6864162143808,36.44
1602831547.8494,76.0,819.0,243.0,392.707517353621,36.44
1602831547.8514,76.0,819.0,248.0,392.7283417661593,36.44
1602831547.8534,76.0,819.0,221.0,392.74886032286935,36.44
1602831547.8553,76.0,819.0,199.0,392.76904389462453,36.44
1602831547.8573,76.0,819.0,196.0,392.7888633522985,36.44
1602831547.8593,76.0,819.0,206.0,392.8082895667646,36.44
1602831547.8614,76.0,819.0,226.0,392.8272934088963,36.44
1602831547.8634,76.0,819.0,262.0,392.84584574956733,36.44
1602831547.8654,76.0,819.0,297.0,392.86391745965096,36.44
1602831547.8673,76.0,819.0,275.0,392.88147941002075,36.44
1602831547.8693,76.0,819.0,233.0,392.8985024715502,36.44
1602831547.8715,76.0,819.0,344.0,392.9149575151128,36.44
1602831547.8734,76.0,819.0,619.0,392.93081541158205,36.44
1602831547.8753,76.0,819.0,695.0,392.9460470318315,36.44
1602831547.8774,76.0,819.0,238.0,392.96062324673443,36.44
1602831547.8793,76.0,819.0,-272.0,392.97451492716465,36.44
1602831547.8814,76.0,819.0,-145.0,392.98769294399546,36.44
1602831547.8833,76.0,819.0,186.0,393.0001281681004,36.44
1602831547.8853,76.0,819.0,184.0,393.011791470353,36.44
1602831547.8873,76.0,819.0,199.0,393.02265372162657,36.44
1602831547.8893,76.0,819.0,326.0,393.0326857927949,36.44
1602831547.8915,76.0,819.0,285.0,393.0418585547313,36.44
1602831547.8934,76.0,819.0,206.0,393.05014287830926,36.44
1602831547.8953,76.0,819.0,258.0,393.0575096344024,36.44
1602831547.8973,76.0,819.0,290.0,393.06392969388406,36.44
1602831547.8993,76.0,819.0,253.0,393.06937392762774,36.44
1602831547.9014,76.0,819.0,250.0,393.07381320650717,36.44
1602831547.9033,76.0,819.0,270.0,393.07721840139556,36.44
1602831547.9053,76.0,819.0,262.0,393.07956038316655,36.44
1602831547.9074,76.0,819.0,253.0,393.0808100226936,36.44
1602831547.9093,76.0,819.0,258.0,393.0809381908502,36.44
1602831547.9114,76.0,819.0,277.0,393.0799157585099,36.44
1602831547.9133,76.0,819.0,292.0,393.0777135965462,36.44
1602831547.9153,76.0,819.0,280.0,393.0743025758324,36.44
1602831547.9173,76.0,819.0,265.0,393.06965356724226,36.44
1602831547.9193,76.0,819.0,280.0,393.06373744164904,36.44
1602831547.9213,76.0,819.0,299.0,393.0565250699265,36.44
1602831547.9233,76.0,819.0,312.0,393.0479873229479,36.44
1602831547.9254,76.0,819.0,317.0,393.03809507158684,36.44
1602831547.9274,76.0,819.0,321.0,393.02681918671686,36.44
1602831547.9294,76.0,819.0,334.0,393.0141305392113,36.44
1602831547.9314,76.0,819.0,348.0,392.9999999999438,36.44
1602831547.9333,76.0,819.0,346.0,392.9999999999438,36.44
1602831547.9353,76.0,819.0,339.0,392.9999999999438,36.44
1602831547.9373,76.0,819.0,336.0,392.9999999999438,36.44
1602831547.9393,76.0,819.0,339.0,392.9999999999438,36.44
1602831547.9414,76.0,819.0,329.0,392.9999999999438,36.44
1602831547.9433,76.0,819.0,309.0,392.9999999999438,36.44
1602831547.9453,76.0,819.0,297.0,392.9999999999438,36.44
1602831547.9473,76.0,819.0,280.0,392.9999999999438,36.44
1602831547.9493,76.0,819.0,255.0,392.9999999999438,36.44
1602831547.9514,76.0,819.0,248.0,392.9999999999438,36.44
1602831547.9533,76.0,819.0,235.0,392.9999999999438,36.44
1602831547.9553,76.0,819.0,196.0,392.9999999999438,36.44
1602831547.9573,76.0,819.0,169.0,392.9999999999438,36.44
1602831547.9593,76.0,819.0,179.0,392.9999999999438,36.44
1602831547.9614,76.0,819.0,181.0,392.9999999999438,36.44
1602831547.9633,76.0,819.0,152.0,392.9999999999438,36.44
1602831547.9653,76.0,819.0,142.0,392.9999999999438,36.44
1602831547.9673,76.0,819.0,157.0,392.9999999999438,36.44
1602831547.9693,76.0,819.0,164.0,392.9999999999438,36.44
1602831547.9714,76.0,819.0,157.0,392.9999999999438,36.44
1602831547.9735,76.0,819.0,149.0,392.9999999999438,36.44
1602831547.9754,76.0,819.0,145.0,392.9999999999438,36.44
1602831548.4023,76.0,819.0,135.0,392.9999999999438,36.44
1602831548.4032,76.0,819.0,127.0,392.9999999999438,36.44
1602831548.4044,76.0,819.0,122.0,392.9999999999438,36.44
1602831548.4064,76.0,819.0,130.0,392.9999999999438,36.44
1602831548.4084,76.0,819.0,152.0,392.9999999999438,36.44
1602831548.4104,76.0,819.0,172.0,392.9999999999438,36.44
1602831548.4124,76.0,819.0,181.0,392.9999999999438,36.44
1602831548.4144,76.0,819.0,179.0,392.9999999999438,36.44
1602831548.4164,76.0,819.0,162.0,392.9999999999438,36.44
1602831548.4185,76.0,819.0,145.0,392.9999999999438,36.44
1602831548.4203,76.0,819.0,137.0,392.9999999999438,36.44
1602831548.4223,76.0,819.0,142.0,392.9999999999438,36.44
1602831548.4243,76.0,819.0,152.0,392.9999999999438,36.44
1602831548.4263,76.0,819.0,157.0,392.9999999999438,36.44
1602831548.4283,76.0,819.0,152.0,392.9999999999438,36.44
1602831548.4303,76.0,819.0,149.0,392.9999999999438,36.44
1602831548.4323,76.0,819.0,162.0,392.9999999999438,36.44
1602831548.4342,76.0,819.0,159.0,392.9999999999438,36.44
1602831548.4362,76.0,819.0,142.0,392.9999999999438,36.44
1602831548.4382,76.0,819.0,140.0,392.9999999999438,36.44
1602831548.4402,76.0,819.0,149.0,392.9999999999438,36.44
1602831548.4422,76.0,819.0,174.0,392.9999999999438,36.44
1602831548.4442,76.0,819.0,189.0,392.9999999999438,36.44
1602831548.4462,76.0,819.0,162.0,393.0141305392113,36.44
1602831548.4482,76.0,819.0,145.0,393.02681918671686,36.44
1602831548.4502,76.0,819.0,159.0,393.03809507158684,36.44
1602831548.4522,76.0,819.0,152.0,393.0479873229479,36.44
1602831548.4542,76.0,819.0,132.0,393.0565250699265,36.44
1602831548.4562,76.0,819.0,147.0,393.06373744164904,36.44
1602831548.4582,76.0,819.0,164.0,393.06965356724226,36.44
1602831548.4602,76.0,819.0,157.0,393.0743025758324,36.44
1602831548.4622,76.0,819.0,152.0,393.0777135965462,36.44
1602831548.4642,76.0,819.0,145.0,393.0799157585099,36.44
1602831548.4662,76.0,819.0,135.0,393.0809381908502,36.44
1602831548.4682,76.0,819.0,149.0,393.0808100226936,36.44
1602831548.4703,76.0,819.0,181.0,393.07956038316655,36.44
1602831548.4723,76.0,819.0,223.0,393.07721840139556,36.44
1602831548.4742,76.0,819.0,243.0,393.07381320650717,36.44
1602831548.4763,76.0,819.0,208.0,393.06937392762774,36.44
1602831548.4782,76.0,819.0,181.0,393.06392969388406,36.44
1602831548.4802,76.0,819.0,179.0,393.0575096344024,36.44
1602831548.4823,76.0,819.0,179.0,393.05014287830926,36.44
1602831548.4842,76.0,819.0,186.0,393.0418585547313,36.44
1602831548.4862,76.0,819.0,189.0,393.0326857927949,36.44
1602831548.4882,76.0,819.0,164.0,393.02265372162657,36.44
1602831548.4902,76.0,819.0,137.0,393.011791470353,36.44
1602831548.4923,76.0,819.0,147.0,393.0001281681004,36.44
1602831548.4942,76.0,819.0,172.0,392.98769294399546,36.44
1602831548.4962,76.0,819.0,179.0,392.97451492716465,36.44
1602831548.4985,76.0,819.0,167.0,392.96062324673443,36.44
1602831548.5003,76.0,819.0,174.0,392.9460470318315,36.44
1602831548.5023,76.0,819.0,309.0,392.93081541158205,36.44
1602831548.5042,76.0,819.0,580.0,392.9149575151128,36.44
1602831548.5062,76.0,819.0,634.0,392.8985024715502,36.44
1602831548.5082,76.0,819.0,117.0,392.88147941002075,36.44
1602831548.5103,76.0,819.0,-393.0,392.86391745965096,36.44
1602831548.5123,76.0,819.0,-181.0,392.84584574956733,36.44
1602831548.5142,76.0,819.0,186.0,392.8272934088963,36.44
1602831548.5162,76.0,819.0,154.0,392.8082895667646,36.44
1602831548.5183,76.0,819.0,122.0,392.7888633522985,36.44
1602831548.5203,76.0,819.0,218.0,392.76904389462453,36.44
1602831548.5222,76.0,819.0,201.0,392.74886032286935,36.44
1602831548.5242,76.0,819.0,145.0,392.7283417661593,36.44
1602831548.5262,76.0,819.0,174.0,392.707517353621,36.44
1602831548.5282,76.0,819.0,196.0,392.6864162143808,36.44
1602831548.5302,76.0,819.0,184.0,392.6650674775654,36.44
1602831548.5323,76.0,819.0,184.0,392.6435002723012,36.44
1602831548.5342,76.0,819.0,186.0,392.6217437277148,36.44
1602831548.5362,76.0,819.0,189.0,392.5998269729325,36.44
1602831548.5382,76.0,819.0,203.0,392.5777791370809,36.44
1602831548.5402,76.0,819.0,211.0,392.55562934928656,36.44
1602831548.5423,76.0,819.0,208.0,392.53340673867604,36.44
1602831548.5442,76.0,819.0,208.0,392.5111404343757,36.44
1602831548.9427,76.0,815.0,206.0,392.4888595655121,36.38
1602831548.9435,76.0,815.0,213.0,392.46659326121176,36.38
1602831548.946,76.0,815.0,228.0,392.4443706506012,36.38
1602831548.9486,76.0,815.0,238.0,392.42222086280685,36.38
1602831548.9506,76.0,815.0,243.0,392.40017302695526,36.38
1602831548.9525,76.0,815.0,240.0,392.37825627217296,36.38
1602831548.9545,76.0,815.0,245.0,392.3564997275865,36.38
1602831548.9565,76.0,815.0,258.0,392.3349325223223,36.38
1602831548.9585,76.0,815.0,272.0,392.31358378550686,36.38
1602831548.9605,76.0,815.0,275.0,392.2924826462667,36.38
1602831548.9625,76.0,815.0,262.0,392.2716582337284,36.38
1602831548.9645,76.0,815.0,258.0,392.25113967701833,36.38
1602831548.9665,76.0,815.0,265.0,392.23095610526315,36.38
1602831548.9685,76.0,815.0,265.0,392.21113664758917,36.38
1602831548.9704,76.0,815.0,248.0,392.1917104331231,36.38
1602831548.9725,76.0,815.0,238.0,392.17270659099137,36.38
1602831548.9744,76.0,815.0,233.0,392.15415425032035,36.38
1602831548.9764,76.0,815.0,218.0,392.1360825402367,36.38
1602831548.9785,76.0,815.0,196.0,392.11852058986693,36.38
1602831548.9805,76.0,815.0,167.0,392.10149752833746,36.38
1602831548.9825,76.0,815.0,135.0,392.0850424847749,36.38
1602831548.9846,76.0,815.0,108.0,392.06918458830563,36.38
1602831548.9851,76.0,815.0,90.0,392.0539529680562,36.38
1602831548.9864,76.0,815.0,95.0,392.0252462138856,36.38
1602831548.9884,76.0,815.0,95.0,391.99866588594995,36.38
1602831548.9905,76.0,815.0,81.0,391.97421198424905,36.38
1602831548.9924,76.0,815.0,76.0,391.95188450878317,36.38
1602831548.9946,76.0,815.0,86.0,391.93168345955195,36.38
1602831548.9965,76.0,815.0,88.0,391.91360883655574,36.38
1602831548.9984,76.0,815.0,88.0,391.8976606397943,36.38
1602831549.0004,76.0,815.0,88.0,391.88383886926766,36.38
1602831549.0025,76.0,815.0,86.0,391.872143524976,36.38
1602831549.0044,76.0,815.0,88.0,391.86257460691917,36.38
1602831549.0064,76.0,815.0,95.0,391.8551321150972,36.38
1602831549.0084,76.0,815.0,95.0,391.84981604951,36.38
1602831549.0104,76.0,815.0,98.0,391.84662641015774,36.38
1602831549.0124,76.0,815.0,108.0,391.84556319704035,36.38
1602831549.0145,76.0,815.0,110.0,391.84662641015774,36.38
1602831549.0152,76.0,815.0,110.0,391.84981604951,36.38
1602831549.0174,76.0,815.0,110.0,391.8551321150972,36.38
1602831549.0194,76.0,815.0,103.0,391.86257460691917,36.38
1602831549.0215,76.0,815.0,100.0,391.872143524976,36.38
1602831549.0234,76.0,815.0,108.0,391.88383886926766,36.38
1602831549.0254,76.0,815.0,110.0,391.8976606397943,36.38
1602831549.0275,76.0,815.0,110.0,391.91360883655574,36.38
1602831549.0294,76.0,815.0,105.0,391.93168345955195,36.38
1602831549.0315,76.0,815.0,105.0,391.95188450878317,36.38
1602831549.0335,76.0,815.0,110.0,391.97421198424905,36.38
1602831549.0354,76.0,815.0,105.0,391.99866588594995,36.38
1602831549.0375,76.0,815.0,98.0,392.0252462138856,36.38
1602831549.0396,76.0,815.0,108.0,392.0539529680562,36.38
1602831549.0416,76.0,815.0,125.0,392.06918458830563,36.38
1602831549.0435,76.0,815.0,125.0,392.0850424847749,36.38
1602831549.0454,76.0,815.0,120.0,392.10149752833746,36.38
1602831549.0462,76.0,815.0,115.0,392.11852058986693,36.38
1602831549.0484,76.0,815.0,103.0,392.1360825402367,36.38
1602831549.0504,76.0,815.0,95.0,392.15415425032035,36.38
1602831549.0525,76.0,815.0,103.0,392.17270659099137,36.38
1602831549.0544,76.0,815.0,113.0,392.1917104331231,36.38
1602831549.0565,76.0,815.0,105.0,392.21113664758917,36.38
1602831549.0584,76.0,815.0,93.0,392.23095610526315,36.38
1602831549.0604,76.0,815.0,100.0,392.25113967701833,36.38
1602831549.0625,76.0,815.0,117.0,392.2716582337284,36.38
1602831549.0645,76.0,815.0,130.0,392.2924826462667,36.38
1602831549.0664,76.0,815.0,137.0,392.31358378550686,36.38
1602831549.0685,76.0,815.0,140.0,392.3349325223223,36.38
1602831549.0704,76.0,815.0,135.0,392.3564997275865,36.38
1602831549.0725,76.0,815.0,130.0,392.37825627217296,36.38
1602831549.0744,76.0,815.0,127.0,392.40017302695526,36.38
1602831549.0765,76.0,815.0,127.0,392.42222086280685,36.38
1602831549.0772,76.0,815.0,120.0,392.4443706506012,36.38
1602831549.0795,76.0,815.0,110.0,392.46659326121176,36.38
1602831549.0815,76.0,815.0,108.0,392.4888595655121,36.38
1602831549.5123,76.0,815.0,113.0,392.5111404343757,36.44
1602831549.5131,76.0,815.0,117.0,392.53340673867604,36.44
1602831549.5155,76.0,815.0,120.0,392.55562934928656,36.44
1602831549.5182,76.0,815.0,122.0,392.5777791370809,36.44
1602831549.5202,76.0,815.0,117.0,392.5998269729325,36.44
1602831549.5224,76.0,815.0,154.0,392.6217437277148,36.44
1602831549.5241,76.0,815.0,353.0,392.6435002723012,36.44
1602831549.5261,76.0,815.0,616.0,392.6650674775654,36.44
1602831549.5281,76.0,815.0,464.0,392.6864162143808,36.44
1602831549.5301,76.0,815.0,-216.0,392.707517353621,36.44
1602831549.5321,76.0,815.0,-550.0,392.7283417661593,36.44
1602831549.5341,76.0,815.0,-132.0,392.74886032286935,36.44
1602831549.5348,76.0,815.0,174.0,392.76904389462453,36.44
1602831549.5371,76.0,815.0,86.0,392.7888633522985,36.44
1602831549.539,76.0,815.0,93.0,392.8082895667646,36.44
1602831549.5411,76.0,815.0,179.0,392.8272934088963,36.44
1602831549.543,76.0,815.0,152.0,392.84584574956733,36.44
1602831549.5452,76.0,815.0,135.0,392.86391745965096,36.44
1602831549.547,76.0,815.0,164.0,392.88147941002075,36.44
1602831549.5491,76.0,815.0,152.0,392.8985024715502,36.44
1602831549.5511,76.0,815.0,140.0,392.9149575151128,36.44
1602831549.553,76.0,815.0,169.0,392.93081541158205,36.44
1602831549.555,76.0,815.0,174.0,392.9460470318315,36.44
1602831549.5571,76.0,815.0,154.0,392.96062324673443,36.44
1602831549.5591,76.0,815.0,162.0,392.97451492716465,36.44
1602831549.5611,76.0,815.0,184.0,392.98769294399546,36.44
1602831549.5632,76.0,815.0,181.0,393.0001281681004,36.44
1602831549.5637,76.0,815.0,176.0,393.011791470353,36.44
1602831549.5651,76.0,815.0,189.0,393.02265372162657,36.44
1602831549.5671,76.0,815.0,199.0,393.0326857927949,36.44
1602831549.5691,76.0,815.0,194.0,393.0418585547313,36.44
1602831549.5711,76.0,815.0,201.0,393.05014287830926,36.44
1602831549.5731,76.0,815.0,211.0,393.0575096344024,36.44
1602831549.5751,76.0,815.0,213.0,393.06392969388406,36.44
1602831549.5771,76.0,815.0,216.0,393.06937392762774,36.44
1602831549.5791,76.0,815.0,228.0,393.07381320650717,36.44
1602831549.5811,76.0,815.0,243.0,393.07721840139556,36.44
1602831549.583,76.0,815.0,250.0,393.07956038316655,36.44
1602831549.5852,76.0,815.0,253.0,393.0808100226936,36.44
1602831549.5871,76.0,815.0,258.0,393.0809381908502,36.44
1602831549.589,76.0,815.0,258.0,393.0799157585099,36.44
1602831549.5911,76.0,815.0,243.0,393.0777135965462,36.44
1602831549.5931,76.0,815.0,226.0,393.0743025758324,36.44
1602831549.5938,76.0,815.0,213.0,393.06965356724226,36.44
1602831549.596,76.0,815.0,199.0,393.06373744164904,36.44
1602831549.5981,76.0,815.0,176.0,393.0565250699265,36.44
1602831549.6,76.0,815.0,147.0,393.0479873229479,36.44
1602831549.6021,76.0,815.0,110.0,393.03809507158684,36.44
1602831549.604,76.0,815.0,78.0,393.02681918671686,36.44
1602831549.606,76.0,815.0,66.0,393.0141305392113,36.44
1602831549.608,76.0,815.0,63.0,392.9999999999438,36.44
1602831549.6101,76.0,815.0,51.0,392.9999999999438,36.44
1602831549.6121,76.0,815.0,46.0,392.9999999999438,36.44
1602831549.6141,76.0,815.0,51.0,392.9999999999438,36.44
1602831549.6161,76.0,815.0,49.0,392.9999999999438,36.44
1602831549.618,76.0,815.0,51.0,392.9999999999438,36.44
1602831549.6202,76.0,815.0,63.0,392.9999999999438,36.44
1602831549.6221,76.0,815.0,61.0,392.9999999999438,36.44
1602831549.624,76.0,815.0,61.0,392.9999999999438,36.44
1602831549.6248,76.0,815.0,76.0,392.9999999999438,36.44
1602831549.627,76.0,815.0,81.0,392.9999999999438,36.44
1602831549.629,76.0,815.0,81.0,392.9999999999438,36.44
1602831549.6311,76.0,815.0,78.0,392.9999999999438,36.44
1602831549.6331,76.0,815.0,68.0,392.9999999999438,36.44
1602831549.6351,76.0,815.0,73.0,392.9999999999438,36.44
1602831549.6371,76.0,815.0,90.0,392.9999999999438,36.44
1602831549.6391,76.0,815.0,90.0,392.9999999999438,36.44
1602831549.6411,76.0,815.0,78.0,392.9999999999438,36.44
1602831549.643,76.0,815.0,83.0,392.9999999999438,36.44
1602831549.645,76.0,815.0,86.0,392.9999999999438,36.44
1602831549.647,76.0,815.0,78.0,392.9999999999438,36.44
1602831549.649,76.0,815.0,83.0,392.9999999999438,36.44
1602831549.6511,76.0,815.0,93.0,392.9999999999438,36.44
1602831550.0524,76.0,824.0,81.0,392.9999999999438,36.44
1602831550.0531,76.0,824.0,78.0,392.9999999999438,36.44
1602831550.0555,76.0,824.0,86.0,392.9999999999438,36.44
1602831550.0581,76.0,824.0,81.0,392.9999999999438,36.44
1602831550.0601,76.0,824.0,76.0,392.9999999999438,36.44
1602831550.0621,76.0,824.0,81.0,392.9999999999438,36.44
1602831550.0642,76.0,824.0,81.0,392.9999999999438,36.44
1602831550.0662,76.0,824.0,83.0,392.9999999999438,36.44
1602831550.0681,76.0,824.0,81.0,392.9999999999438,36.44
1602831550.0701,76.0,824.0,81.0,392.9999999999438,36.44
1602831550.0721,76.0,824.0,86.0,392.9999999999438,36.44
1602831550.074,76.0,824.0,78.0,392.9999999999438,36.44
1602831550.0761,76.0,824.0,66.0,392.9999999999438,36.44
1602831550.078,76.0,824.0,68.0,392.9999999999438,36.44
1602831550.08,76.0,824.0,71.0,392.9999999999438,36.44
1602831550.0821,76.0,824.0,88.0,392.9999999999438,36.44
1602831550.0828,76.0,824.0,105.0,392.9999999999438,36.44
1602831550.085,76.0,824.0,105.0,392.9999999999438,36.44
1602831550.087,76.0,824.0,105.0,392.9999999999438,36.44
1602831550.089,76.0,824.0,125.0,392.9999999999438,36.44
1602831550.0911,76.0,824.0,137.0,392.9999999999438,36.44
1602831550.093,76.0,824.0,108.0,392.9999999999438,36.44
1602831550.095,76.0,824.0,71.0,392.9999999999438,36.44
1602831550.097,76.0,824.0,71.0,392.9999999999438,36.44
1602831550.099,76.0,824.0,86.0,392.9999999999438,36.44
1602831550.1011,76.0,824.0,86.0,392.9999999999438,36.44
1602831550.103,76.0,824.0,88.0,392.9999999999438,36.44
1602831550.105,76.0,824.0,93.0,392.9999999999438,36.44
1602831550.107,76.0,824.0,95.0,392.9999999999438,36.44
1602831550.109,76.0,824.0,88.0,392.9999999999438,36.44
1602831550.1111,76.0,824.0,113.0,392.9999999999438,36.44
1602831550.113,76.0,824.0,285.0,392.9999999999438,36.44
1602831550.1137,76.0,824.0,580.0,392.9999999999438,36.44
1602831550.116,76.0,824.0,575.0,392.9999999999438,36.44
1602831550.1182,76.0,824.0,-86.0,392.9999999999438,36.44
1602831550.1201,76.0,824.0,-621.0,392.9999999999438,36.44
1602831550.1222,76.0,824.0,-270.0,392.9999999999438,36.44
1602831550.1241,76.0,824.0,145.0,392.9999999999438,36.44
1602831550.126,76.0,824.0,68.0,392.9999999999438,36.44
1602831550.128,76.0,824.0,58.0,392.9999999999438,36.44
1602831550.13,76.0,824.0,164.0,392.9999999999438,36.44
1602831550.1321,76.0,824.0,122.0,392.9999999999438,36.44
1602831550.134,76.0,824.0,90.0,392.9999999999438,36.44
1602831550.136,76.0,824.0,149.0,392.9999999999438,36.44
1602831550.138,76.0,824.0,164.0,392.9999999999438,36.44
1602831550.14,76.0,824.0,135.0,392.9999999999438,36.44
1602831550.1421,76.0,824.0,125.0,392.9999999999438,36.44
1602831550.144,76.0,824.0,127.0,392.9999999999438,36.44
1602831550.1524,76.0,824.0,120.0,392.9999999999438,36.44
1602831550.154,76.0,824.0,140.0,392.9999999999438,36.44
1602831550.156,76.0,824.0,162.0,392.9999999999438,36.44
1602831550.158,76.0,824.0,140.0,392.9999999999438,36.44
1602831550.16,76.0,824.0,135.0,392.9999999999438,36.44
1602831550.162,76.0,824.0,167.0,392.9999999999438,36.44
1602831550.164,76.0,824.0,179.0,392.9999999999438,36.44
1602831550.166,76.0,824.0,169.0,392.9999999999438,36.44
1602831550.168,76.0,824.0,162.0,392.9999999999438,36.44
1602831550.17,76.0,824.0,167.0,392.9999999999438,36.44
1602831550.1721,76.0,824.0,186.0,392.9999999999438,36.44
1602831550.1741,76.0,824.0,196.0,392.9999999999438,36.44
1602831550.176,76.0,824.0,208.0,392.9999999999438,36.44
1602831550.178,76.0,824.0,221.0,392.9999999999438,36.44
1602831550.18,76.0,824.0,221.0,392.9999999999438,36.44
1602831550.1807,76.0,824.0,221.0,392.9999999999438,36.44
1602831550.183,76.0,824.0,223.0,392.9999999999438,36.44
1602831550.185,76.0,824.0,223.0,392.9999999999438,36.44
1602831550.1871,76.0,824.0,226.0,392.9999999999438,36.44
1602831550.189,76.0,824.0,218.0,392.9999999999438,36.44
1602831550.1911,76.0,824.0,191.0,392.9999999999438,36.44
1602831550.193,76.0,824.0,167.0,392.9999999999438,36.44
1602831550.195,76.0,824.0,147.0,392.9999999999438,36.44
1602831550.197,76.0,824.0,120.0,392.9999999999438,36.44
1602831550.199,76.0,824.0,100.0,392.9999999999438,36.44
1602831550.6223,76.0,824.0,86.0,392.9999999999438,36.44
1602831550.6232,76.0,824.0,76.0,392.9999999999438,36.44
1602831550.6257,76.0,824.0,68.0,392.9999999999438,36.44
1602831550.6282,76.0,824.0,51.0,392.9999999999438,36.44
1602831550.6302,76.0,824.0,29.0,392.9999999999438,36.44
1602831550.6322,76.0,824.0,19.0,392.9999999999438,36.44
1602831550.6342,76.0,824.0,24.0,392.9999999999438,36.44
1602831550.6362,76.0,824.0,49.0,392.9999999999438,36.44
1602831550.6382,76.0,824.0,56.0,392.9999999999438,36.44
1602831550.6402,76.0,824.0,34.0,392.9999999999438,36.44
1602831550.6422,76.0,824.0,22.0,392.9999999999438,36.44
1602831550.6442,76.0,824.0,41.0,392.9999999999438,36.44
1602831550.6464,76.0,824.0,76.0,392.9999999999438,36.44
1602831550.6482,76.0,824.0,76.0,392.9999999999438,36.44
1602831550.6502,76.0,824.0,56.0,392.9999999999438,36.44
1602831550.6522,76.0,824.0,63.0,392.9999999999438,36.44
1602831550.6541,76.0,824.0,73.0,392.9999999999438,36.44
1602831550.6561,76.0,824.0,66.0,392.9999999999438,36.44
1602831550.6582,76.0,824.0,66.0,392.9999999999438,36.44
1602831550.6602,76.0,824.0,68.0,392.9999999999438,36.44
1602831550.6621,76.0,824.0,58.0,392.9999999999438,36.44
1602831550.6641,76.0,824.0,58.0,392.9999999999438,36.44
1602831550.6661,76.0,824.0,73.0,392.9999999999438,36.44
1602831550.6681,76.0,824.0,61.0,393.07065269628134,36.44
1602831550.6702,76.0,824.0,46.0,393.13409593380896,36.44
1602831550.6721,76.0,824.0,66.0,393.1904753581592,36.44
1602831550.6741,76.0,824.0,78.0,393.2399366149645,36.44
1602831550.6761,76.0,824.0,58.0,393.28262534985737,36.44
1602831550.6781,76.0,824.0,61.0,393.3186872084704,36.44
1602831550.6801,76.0,824.0,73.0,393.34826783643615,36.44
1602831550.6821,76.0,824.0,63.0,393.371512879387,36.44
1602831550.6841,76.0,824.0,51.0,393.38856798295564,36.44
1602831550.6861,76.0,824.0,44.0,393.39957879277443,36.44
1602831550.6881,76.0,824.0,41.0,393.40469095447605,36.44
1602831550.6901,76.0,824.0,58.0,393.4040501136929,36.44
1602831550.6921,76.0,824.0,66.0,393.39780191605763,36.44
1602831550.6941,76.0,824.0,61.0,393.38609200720265,36.44
1602831550.6961,76.0,824.0,56.0,393.3690660327606,36.44
1602831550.6981,76.0,824.0,54.0,393.3468696383639,36.44
1602831550.7001,76.0,824.0,58.0,393.3196484696451,36.44
1602831550.7021,76.0,824.0,58.0,393.28754817223665,36.44
1602831550.7041,76.0,824.0,68.0,393.2507143917713,36.44
1602831550.7061,76.0,824.0,90.0,393.2092927738814,36.44
1602831550.7081,76.0,824.0,93.0,393.16342896419945,36.44
1602831550.7101,76.0,824.0,90.0,393.11326860835806,36.44
1602831550.7121,76.0,824.0,100.0,393.0589573519897,36.44
1602831550.7141,76.0,824.0,93.0,393.00064084072693,36.44
1602831550.7161,76.0,824.0,78.0,392.93846472020226,36.44
1602831550.7181,76.0,824.0,66.0,392.8725746360482,36.44
1602831550.7201,76.0,824.0,63.0,392.80311623389736,36.44
1602831550.7222,76.0,824.0,73.0,392.73023515938206,36.44
1602831550.7241,76.0,824.0,81.0,392.6540770581351,36.44
1602831550.7261,76.0,824.0,76.0,392.5747875757888,36.44
1602831550.7281,76.0,824.0,73.0,392.49251235797584,36.44
1602831550.7301,76.0,824.0,81.0,392.4073970503285,36.44
1602831550.7321,76.0,824.0,83.0,392.3195872984796,36.44
1602831550.7341,76.0,824.0,147.0,392.2292287480614,36.44
1602831550.7361,76.0,824.0,383.0,392.13646704470665,36.44
1602831550.7381,76.0,824.0,634.0,392.0414478340477,36.44
1602831550.7401,76.0,824.0,376.0,391.9443167617172,36.44
1602831550.7421,76.0,824.0,-366.0,391.84521947334764,36.44
1602831550.7441,76.0,824.0,-572.0,391.7443016145715,36.44
1602831550.7461,76.0,824.0,-61.0,391.6417088310213,36.44
1602831550.7483,76.0,824.0,159.0,391.5375867683296,36.44
1602831550.7501,76.0,824.0,36.0,391.43208107212894,36.44
1602831550.7522,76.0,824.0,95.0,391.32533738805176,36.44
1602831550.7541,76.0,824.0,169.0,391.21750136173074,36.44
1602831550.7561,76.0,824.0,115.0,391.1087186387983,36.44
1602831550.7581,76.0,824.0,108.0,390.9991348648869,36.44
1602831550.7601,76.0,824.0,142.0,390.88889568562917,36.44
1602831550.7622,76.0,824.0,145.0,390.77814674665757,36.44
1602831550.7641,76.0,824.0,135.0,390.66703369360465,36.44
1602831550.7661,76.0,824.0,142.0,390.555702172103,36.44
1602831551.2225,76.0,818.0,145.0,390.4442978277851,36.44
1602831551.2233,76.0,818.0,140.0,390.3329663062834,36.44
1602831551.2258,76.0,818.0,147.0,390.22185325323056,36.44
1602831551.2284,76.0,818.0,152.0,390.111104314259,36.44
1602831551.2304,76.0,818.0,145.0,390.00086513500133,36.44
1602831551.2324,76.0,818.0,135.0,389.89128136108997,36.44
1602831551.2345,76.0,818.0,142.0,389.7824986381575,36.44
1602831551.2364,76.0,818.0,157.0,389.6746626118364,36.44
1602831551.2384,76.0,818.0,162.0,389.5679189277593,36.44
1602831551.2404,76.0,818.0,164.0,389.4624132315586,36.44
1602831551.2424,76.0,818.0,167.0,389.35829116886697,36.44
1602831551.2444,76.0,818.0,169.0,389.25569838531675,36.44
1602831551.2464,76.0,818.0,179.0,389.1547805265406,36.44
1602831551.2484,76.0,818.0,191.0,389.055683238171,36.44
1602831551.2504,76.0,818.0,196.0,388.95855216584044,36.44
1602831551.2524,76.0,818.0,199.0,388.86353295518154,36.44
1602831551.2544,76.0,818.0,199.0,388.7707712518268,36.44
1602831551.2564,76.0,818.0,199.0,388.6804127014086,36.44
1602831551.2584,76.0,818.0,196.0,388.59260294955965,36.44
1602831551.2604,76.0,818.0,191.0,388.5074876419124,36.44
1602831551.2624,76.0,818.0,184.0,388.42521242409936,36.44
1602831551.2643,76.0,818.0,172.0,388.3459229417531,36.44
1602831551.2663,76.0,818.0,152.0,388.26976484050607,36.44
1602831551.2684,76.0,818.0,132.0,388.1968837659909,36.44
1602831551.2704,76.0,818.0,108.0,388.12742536383996,36.44
1602831551.2724,76.0,818.0,78.0,388.0615352796859,36.44
1602831551.2743,76.0,818.0,51.0,387.9993591591613,36.44
1602831551.2763,76.0,818.0,41.0,387.94104264789854,36.44
1602831551.2783,76.0,818.0,44.0,387.8867313915302,36.44
1602831551.2804,76.0,818.0,41.0,387.8365710356888,36.44
1602831551.2824,76.0,818.0,34.0,387.7907072260068,36.44
1602831551.2843,76.0,818.0,31.0,387.7492856081169,36.44
1602831551.2863,76.0,818.0,34.0,387.7124518276515,36.44
1602831551.2884,76.0,818.0,29.0,387.6803515302431,36.44
1602831551.2903,76.0,818.0,29.0,387.6531303615243,36.44
1602831551.2924,76.0,818.0,36.0,387.6309339671276,36.44
1602831551.2943,76.0,818.0,49.0,387.6139079926855,36.44
1602831551.2963,76.0,818.0,56.0,387.6021980838305,36.44
1602831551.2983,76.0,818.0,54.0,387.5959498861952,36.44
1602831551.3003,76.0,818.0,51.0,387.5953090454121,36.44
1602831551.3024,76.0,818.0,51.0,387.6004212071137,36.44
1602831551.3045,76.0,818.0,54.0,387.61143201693255,36.44
1602831551.3064,76.0,818.0,56.0,387.6284871205011,36.44
1602831551.3083,76.0,818.0,58.0,387.65173216345204,36.44
1602831551.3103,76.0,818.0,61.0,387.6813127914177,36.44
1602831551.3124,76.0,818.0,68.0,387.71737465003076,36.44
1602831551.3144,76.0,818.0,68.0,387.7600633849237,36.44
1602831551.3163,76.0,818.0,68.0,387.80952464172896,36.44
1602831551.3183,76.0,818.0,71.0,387.86590406607917,36.44
1602831551.3204,76.0,818.0,68.0,387.9293473036068,36.44
1602831551.3224,76.0,818.0,63.0,387.99999999994435,36.44
1602831551.3243,76.0,818.0,61.0,387.99999999994435,36.44
1602831551.3264,76.0,818.0,56.0,387.99999999994435,36.44
1602831551.3283,76.0,818.0,54.0,387.99999999994435,36.44
1602831551.3303,76.0,818.0,54.0,387.99999999994435,36.44
1602831551.3324,76.0,818.0,63.0,387.99999999994435,36.44
1602831551.3343,76.0,818.0,71.0,387.99999999994435,36.44
1602831551.3363,76.0,818.0,63.0,387.99999999994435,36.44
1602831551.3384,76.0,818.0,56.0,387.99999999994435,36.44
1602831551.3403,76.0,818.0,66.0,387.99999999994435,36.44
1602831551.3424,76.0,818.0,66.0,387.99999999994435,36.44
1602831551.3443,76.0,818.0,51.0,387.99999999994435,36.44
1602831551.3463,76.0,818.0,51.0,387.99999999994435,36.44
1602831551.3483,76.0,818.0,58.0,387.99999999994435,36.44
1602831551.3503,76.0,818.0,54.0,387.99999999994435,36.44
1602831551.3524,76.0,818.0,63.0,387.99999999994435,36.44
1602831551.3543,76.0,818.0,93.0,387.99999999994435,36.44
1602831551.3563,76.0,818.0,110.0,387.99999999994435,36.44
1602831551.3583,76.0,818.0,93.0,387.99999999994435,36.44
1602831551.3603,76.0,818.0,78.0,387.99999999994435,36.44
1602831551.3624,76.0,818.0,86.0,387.99999999994435,36.44
1602831551.3643,76.0,818.0,81.0,387.99999999994435,36.44
1602831551.3663,76.0,818.0,71.0,387.99999999994435,36.44
1602831551.7917,76.0,818.0,71.0,387.99999999994435,36.44
1602831551.7926,76.0,818.0,71.0,387.99999999994435,36.44
1602831551.7951,76.0,818.0,63.0,387.99999999994435,36.44
1602831551.7978,76.0,818.0,66.0,387.99999999994435,36.44
1602831551.7997,76.0,818.0,86.0,387.99999999994435,36.44
1602831551.8018,76.0,818.0,93.0,387.99999999994435,36.44
1602831551.8037,76.0,818.0,86.0,387.99999999994435,36.44
1602831551.8057,76.0,818.0,93.0,387.99999999994435,36.44
1602831551.8077,76.0,818.0,218.0,387.99999999994435,36.44
1602831551.8097,76.0,818.0,498.0,387.99999999994435,36.44
1602831551.8117,76.0,818.0,597.0,387.99999999994435,36.44
1602831551.8137,76.0,818.0,81.0,387.99999999994435,36.44
1602831551.8156,76.0,818.0,-538.0,387.99999999994435,36.44
1602831551.8177,76.0,818.0,-390.0,387.99999999994435,36.44
1602831551.8196,76.0,818.0,61.0,387.99999999994435,36.44
1602831551.8217,76.0,818.0,86.0,387.99999999994435,36.44
1602831551.8236,76.0,818.0,19.0,387.99999999994435,36.44
1602831551.8258,76.0,818.0,108.0,387.99999999994435,36.44
1602831551.8276,76.0,818.0,120.0,387.99999999994435,36.44
1602831551.8298,76.0,818.0,83.0,387.99999999994435,36.44
1602831551.8316,76.0,818.0,105.0,387.99999999994435,36.44
1602831551.8336,76.0,818.0,113.0,387.99999999994435,36.44
1602831551.8356,76.0,818.0,93.0,387.99999999994435,36.44
1602831551.8376,76.0,818.0,98.0,388.2543497067597,36.44
1602831551.8396,76.0,818.0,113.0,388.48274536185914,36.44
1602831551.8416,76.0,818.0,117.0,388.6857112895198,36.44
1602831551.8436,76.0,818.0,122.0,388.86377181401883,36.44
1602831551.8456,76.0,818.0,127.0,389.0174512596333,36.44
1602831551.8476,76.0,818.0,117.0,389.1472739506402,36.44
1602831551.8496,76.0,818.0,122.0,389.25376421131676,36.44
1602831551.8516,76.0,818.0,142.0,389.33744636594,36.44
1602831551.8536,76.0,818.0,149.0,389.398844738787,36.44
1602831551.8556,76.0,818.0,147.0,389.4384836541348,36.44
1602831551.8576,76.0,818.0,149.0,389.4568874362606,36.44
1602831551.8596,76.0,818.0,162.0,389.45458040944146,36.44
1602831551.8616,76.0,818.0,174.0,389.4320868979544,36.44
1602831551.8636,76.0,818.0,181.0,389.3899312260765,36.44
1602831551.8656,76.0,818.0,191.0,389.32863771808496,36.44
1602831551.8676,76.0,818.0,199.0,389.2487306982568,36.44
1602831551.8696,76.0,818.0,194.0,389.15073449086907,36.44
1602831551.8716,76.0,818.0,194.0,389.0351734201989,36.44
1602831551.8736,76.0,818.0,213.0,388.9025718105234,36.44
1602831551.8756,76.0,818.0,223.0,388.7534539861196,36.44
1602831551.8776,76.0,818.0,211.0,388.58834427126465,36.44
1602831551.8796,76.0,818.0,201.0,388.4077669902356,36.44
1602831551.8816,76.0,818.0,196.0,388.21224646730957,36.44
1602831551.8836,76.0,818.0,181.0,388.0023070267636,36.44
1602831551.8856,76.0,818.0,147.0,387.7784729928748,36.44
1602831551.8876,76.0,818.0,113.0,387.5412686899203,36.44
1602831551.8896,76.0,818.0,90.0,387.29121844217707,36.44
1602831551.8916,76.0,818.0,71.0,387.02884657392235,36.44
1602831551.8936,76.0,818.0,61.0,386.7546774094331,36.44
1602831551.8957,76.0,818.0,56.0,386.4692352729865,36.44
1602831551.8976,76.0,818.0,51.0,386.1730444888596,36.44
1602831551.8996,76.0,818.0,49.0,385.86662938132946,36.44
1602831551.9016,76.0,818.0,44.0,385.5505142746732,36.44
1602831551.9036,76.0,818.0,41.0,385.2252234931679,36.44
1602831551.9056,76.0,818.0,56.0,384.8912813610907,36.44
1602831551.9076,76.0,818.0,61.0,384.5492122027186,36.44
1602831551.9096,76.0,818.0,49.0,384.1995403423287,36.44
1602831551.9116,76.0,818.0,54.0,383.8427901041982,36.44
1602831551.9136,76.0,818.0,76.0,383.479485812604,36.44
1602831551.9157,76.0,818.0,71.0,383.11015179182334,36.44
1602831551.9176,76.0,818.0,61.0,382.73531236613326,36.44
1602831551.9196,76.0,818.0,68.0,382.35549185981085,36.44
1602831551.9216,76.0,818.0,73.0,381.97121459713316,36.44
1602831551.9236,76.0,818.0,71.0,381.58300490237735,36.44
1602831551.9256,76.0,818.0,76.0,381.1913870998204,36.44
1602831551.9276,76.0,818.0,88.0,380.79688551373954,36.44
1602831551.9296,76.0,818.0,100.0,380.40002446841174,36.44
1602831551.9318,76.0,818.0,98.0,380.00132828811417,36.44
1602831551.9336,76.0,818.0,88.0,379.6013212971239,36.44
1602831551.9356,76.0,818.0,86.0,379.200527819718,36.44
1602831552.3312,76.0,773.0,78.0,378.7994721801735,36.44
1602831552.332,76.0,773.0,76.0,378.39867870276754,36.44
1602831552.3344,76.0,773.0,88.0,377.9986717117772,36.44
1602831552.3371,76.0,773.0,83.0,377.5999755314797,36.44
1602831552.3391,76.0,773.0,68.0,377.2031144861519,36.44
1602831552.341,76.0,773.0,66.0,376.808612900071,36.44
1602831552.3431,76.0,773.0,68.0,376.41699509751413,36.44
1602831552.345,76.0,773.0,73.0,376.0287854027582,36.44
1602831552.347,76.0,773.0,73.0,375.6445081400806,36.44
1602831552.349,76.0,773.0,66.0,375.2646876337582,36.44
1602831552.3511,76.0,773.0,56.0,374.8898482080681,36.44
1602831552.353,76.0,773.0,46.0,374.5205141872874,36.44
1602831552.355,76.0,773.0,39.0,374.1572098956932,36.44
1602831552.3571,76.0,773.0,36.0,373.80045965756267,36.44
1602831552.359,76.0,773.0,39.0,373.4507877971728,36.44
1602831552.3611,76.0,773.0,49.0,373.1087186388007,36.44
1602831552.363,76.0,773.0,63.0,372.77477650672347,36.44
1602831552.365,76.0,773.0,73.0,372.4494857252182,36.44
1602831552.367,76.0,773.0,68.0,372.1333706185619,36.44
1602831552.3691,76.0,773.0,61.0,371.82695551103177,36.44
1602831552.371,76.0,773.0,66.0,371.53076472690486,36.44
1602831552.373,76.0,773.0,66.0,371.2453225904583,36.44
1602831552.375,76.0,773.0,46.0,370.9711534259691,36.44
1602831552.377,76.0,773.0,34.0,370.90660910745953,36.44
1602831552.379,76.0,773.0,36.0,370.8341999247938,36.44
1602831552.381,76.0,773.0,44.0,370.7548580100198,36.44
1602831552.383,76.0,773.0,51.0,370.6695154951858,36.44
1602831552.385,76.0,773.0,56.0,370.5791045123399,36.44
1602831552.387,76.0,773.0,63.0,370.48455719353035,36.44
1602831552.389,76.0,773.0,63.0,370.3868056708053,36.44
1602831552.391,76.0,773.0,71.0,370.28678207621283,36.44
1602831552.393,76.0,773.0,172.0,370.18541854180114,36.44
1602831552.395,76.0,773.0,417.0,370.08364719961844,36.44
1602831552.397,76.0,773.0,557.0,369.9824001817128,36.44
1602831552.399,76.0,773.0,167.0,369.88260962013237,36.44
1602831552.401,76.0,773.0,-425.0,369.7852076469254,36.44
1602831552.403,76.0,773.0,-388.0,369.6911263941399,36.44
1602831552.405,76.0,773.0,34.0,369.6012979938241,36.44
1602831552.407,76.0,773.0,113.0,369.5166545780263,36.44
1602831552.409,76.0,773.0,36.0,369.43812827879447,36.44
1602831552.411,76.0,773.0,95.0,369.3666512281768,36.44
1602831552.413,76.0,773.0,122.0,369.3031555582214,36.44
1602831552.415,76.0,773.0,88.0,369.2485734009766,36.44
1602831552.417,76.0,773.0,95.0,369.2038368884904,36.44
1602831552.419,76.0,773.0,108.0,369.16987815281095,36.44
1602831552.4209,76.0,773.0,100.0,369.1476293259866,36.44
1602831552.423,76.0,773.0,108.0,369.1380225400652,36.44
1602831552.425,76.0,773.0,125.0,369.1419899270952,36.44
1602831552.4271,76.0,773.0,130.0,369.1604636191246,36.44
1602831552.429,76.0,773.0,125.0,369.19437574820154,36.44
1602831552.4311,76.0,773.0,113.0,369.2446584463743,36.44
1602831552.4329,76.0,773.0,108.0,369.0314157628827,36.44
1602831552.435,76.0,773.0,122.0,368.8094052123131,36.44
1602831552.437,76.0,773.0,132.0,368.57903460243665,36.44
1602831552.439,76.0,773.0,135.0,368.3407117410243,36.44
1602831552.441,76.0,773.0,152.0,368.0948444358472,36.44
1602831552.443,76.0,773.0,172.0,367.8418404946764,36.44
1602831552.445,76.0,773.0,169.0,367.582107725283,36.44
1602831552.4471,76.0,773.0,162.0,367.31605393543805,36.44
1602831552.4486,76.0,773.0,164.0,367.0440869329126,36.44
1602831552.45,76.0,773.0,174.0,366.76661452547773,36.44
1602831552.4521,76.0,773.0,184.0,366.4840445209045,36.44
1602831552.454,76.0,773.0,196.0,366.196784726964,36.44
1602831552.456,76.0,773.0,199.0,365.9052429514272,36.44
1602831552.458,76.0,773.0,199.0,365.60982700206534,36.44
1602831552.46,76.0,773.0,203.0,365.31094468664935,36.44
1602831552.462,76.0,773.0,211.0,365.0090038129505,36.44
1602831552.464,76.0,773.0,208.0,364.7044121887395,36.44
1602831552.466,76.0,773.0,184.0,364.3975776217877,36.44
1602831552.468,76.0,773.0,167.0,364.0889079198662,36.44
1602831552.47,76.0,773.0,149.0,363.77881089074583,36.44
1602831552.472,76.0,773.0,122.0,363.4676943421978,36.44
1602831552.474,76.0,773.0,100.0,363.15596608199314,36.44
1602831552.8716,76.0,776.0,81.0,362.84403391790295,36.44
1602831552.8722,76.0,776.0,56.0,362.5323056576984,36.44
1602831552.874,76.0,776.0,46.0,362.2211891091504,36.44
1602831552.876,76.0,776.0,44.0,361.91109208003,36.44
1602831552.878,76.0,776.0,39.0,361.60242237810843,36.44
1602831552.88,76.0,776.0,34.0,361.2955878111566,36.44
1602831552.882,76.0,776.0,19.0,360.99099618694567,36.44
1602831552.884,76.0,776.0,17.0,360.6890553132467,36.44
1602831552.886,76.0,776.0,34.0,360.39017299783075,36.44
1602831552.8879,76.0,776.0,36.0,360.09475704846886,36.44
1602831552.8899,76.0,776.0,17.0,359.8032152729321,36.44
1602831552.8919,76.0,776.0,12.0,359.5159554789916,36.44
1602831552.8939,76.0,776.0,27.0,359.23338547441836,36.44
1602831552.8959,76.0,776.0,36.0,358.9559130669835,36.44
1602831552.8979,76.0,776.0,36.0,358.68394606445804,36.44
1602831552.8999,76.0,776.0,39.0,358.4178922746131,36.44
1602831552.9019,76.0,776.0,56.0,358.15815950521966,36.44
1602831552.9039,76.0,776.0,68.0,357.9051555640489,36.44
1602831552.9059,76.0,776.0,66.0,357.6592882588718,36.44
1602831552.9079,76.0,776.0,63.0,357.4209653974595,36.44
1602831552.9099,76.0,776.0,61.0,357.190594787583,36.44
1602831552.912,76.0,776.0,54.0,356.96858423701343,36.44
1602831552.9139,76.0,776.0,54.0,356.7553415535218,36.44
1602831552.9159,76.0,776.0,58.0,356.5512745448792,36.44
1602831552.918,76.0,776.0,63.0,356.3567910188567,36.44
1602831552.9199,76.0,776.0,66.0,356.1722987832254,36.44
1602831552.9221,76.0,776.0,61.0,355.99820564575634,36.44
1602831552.9239,76.0,776.0,61.0,355.8349194142206,36.44
1602831552.9259,76.0,776.0,66.0,355.68284789638926,36.44
1602831552.9279,76.0,776.0,66.0,355.54239890003333,36.44
1602831552.9299,76.0,776.0,58.0,355.4139802329239,36.44
1602831552.9319,76.0,776.0,61.0,355.2979997028321,36.44
1602831552.9339,76.0,776.0,66.0,355.1948651175289,36.44
1602831552.9359,76.0,776.0,61.0,355.1049842847854,36.44
1602831552.9379,76.0,776.0,58.0,355.0287650123728,36.44
1602831552.9399,76.0,776.0,58.0,354.96661510806194,36.44
1602831552.9419,76.0,776.0,44.0,354.91894237962407,36.44
1602831552.9439,76.0,776.0,36.0,354.8861546348302,36.44
1602831552.9459,76.0,776.0,51.0,354.86865968145133,36.44
1602831552.9479,76.0,776.0,78.0,354.86686532725867,36.44
1602831552.9499,76.0,776.0,98.0,354.8811793800231,36.44
1602831552.952,76.0,776.0,88.0,354.9120096475159,36.44
1602831552.9539,76.0,776.0,63.0,354.959763937508,36.44
1602831552.9559,76.0,776.0,61.0,355.0248500577705,36.44
1602831552.9579,76.0,776.0,73.0,355.10767581607445,36.44
1602831552.9599,76.0,776.0,63.0,355.208649020191,36.44
1602831552.9619,76.0,776.0,49.0,355.32817747789113,36.44
1602831552.9639,76.0,776.0,56.0,355.4666689969459,36.44
1602831552.9659,76.0,776.0,63.0,355.62453138512643,36.44
1602831552.9679,76.0,776.0,54.0,355.8021724502038,36.44
1602831552.9699,76.0,776.0,54.0,355.99999999994907,36.44
1602831552.972,76.0,776.0,61.0,355.99999999994907,36.44
1602831552.974,76.0,776.0,58.0,355.99999999994907,36.44
1602831552.9759,76.0,776.0,54.0,355.99999999994907,36.44
1602831552.9779,76.0,776.0,86.0,355.99999999994907,36.44
1602831552.9799,76.0,776.0,250.0,355.99999999994907,36.44
1602831552.982,76.0,776.0,511.0,355.99999999994907,36.44
1602831552.9839,76.0,776.0,469.0,355.99999999994907,36.44
1602831552.986,76.0,776.0,-88.0,355.99999999994907,36.44
1602831552.9879,76.0,776.0,-486.0,355.99999999994907,36.44
1602831552.9899,76.0,776.0,-208.0,355.99999999994907,36.44
1602831552.9919,76.0,776.0,103.0,355.99999999994907,36.44
1602831552.9939,76.0,776.0,63.0,355.99999999994907,36.44
1602831552.9959,76.0,776.0,39.0,355.99999999994907,36.44
1602831552.9979,76.0,776.0,103.0,355.99999999994907,36.44
1602831552.9999,76.0,776.0,103.0,355.99999999994907,36.44
1602831553.0019,76.0,776.0,95.0,355.99999999994907,36.44
1602831553.0039,76.0,776.0,108.0,355.99999999994907,36.44
1602831553.0059,76.0,776.0,100.0,355.99999999994907,36.44
1602831553.0079,76.0,776.0,93.0,355.99999999994907,36.44
1602831553.0099,76.0,776.0,103.0,355.99999999994907,36.44
1602831553.012,76.0,776.0,105.0,355.99999999994907,36.44
1602831553.0139,76.0,776.0,100.0,355.99999999994907,36.44
1602831553.4124,76.0,776.0,98.0,355.99999999994907,36.44
1602831553.4132,76.0,776.0,105.0,355.99999999994907,36.44
1602831553.4157,76.0,776.0,127.0,355.99999999994907,36.44
1602831553.4183,76.0,776.0,132.0,355.99999999994907,36.44
1602831553.4206,76.0,776.0,115.0,355.99999999994907,36.44
1602831553.4223,76.0,776.0,120.0,355.99999999994907,36.44
1602831553.4243,76.0,776.0,140.0,355.99999999994907,36.44
1602831553.4263,76.0,776.0,137.0,355.99999999994907,36.44
1602831553.4282,76.0,776.0,125.0,355.99999999994907,36.44
1602831553.4302,76.0,776.0,142.0,355.99999999994907,36.44
1602831553.4323,76.0,776.0,164.0,355.99999999994907,36.44
1602831553.4342,76.0,776.0,167.0,355.99999999994907,36.44
1602831553.4362,76.0,776.0,176.0,355.99999999994907,36.44
1602831553.4382,76.0,776.0,186.0,355.99999999994907,36.44
1602831553.4402,76.0,776.0,179.0,355.99999999994907,36.44
1602831553.4422,76.0,776.0,176.0,355.99999999994907,36.44
1602831553.4442,76.0,776.0,176.0,355.99999999994907,36.44
1602831553.4462,76.0,776.0,164.0,355.99999999994907,36.44
1602831553.4482,76.0,776.0,167.0,355.99999999994907,36.44
1602831553.4502,76.0,776.0,169.0,355.99999999994907,36.44
1602831553.4522,76.0,776.0,147.0,355.99999999994907,36.44
1602831553.4542,76.0,776.0,117.0,355.99999999994907,36.44
1602831553.4562,76.0,776.0,103.0,355.99999999994907,36.44
1602831553.4582,76.0,776.0,86.0,356.0565221570191,36.44
1602831553.4602,76.0,776.0,73.0,356.1072767470412,36.44
1602831553.4622,76.0,776.0,66.0,356.15238028652135,36.44
1602831553.4642,76.0,776.0,51.0,356.1919492919656,36.44
1602831553.4662,76.0,776.0,34.0,356.2261002798799,36.44
1602831553.4682,76.0,776.0,29.0,356.2549497667703,36.44
1602831553.4702,76.0,776.0,34.0,356.2786142691429,36.44
1602831553.4722,76.0,776.0,39.0,356.2972103035036,36.44
1602831553.4742,76.0,776.0,39.0,356.3108543863585,36.44
1602831553.4762,76.0,776.0,41.0,356.3196630342136,36.44
1602831553.4783,76.0,776.0,46.0,356.3237527635749,36.44
1602831553.4803,76.0,776.0,54.0,356.3232400909484,36.44
1602831553.4822,76.0,776.0,49.0,356.31824153284015,36.44
1602831553.4842,76.0,776.0,49.0,356.30887360575616,36.44
1602831553.4862,76.0,776.0,61.0,356.2952528262025,36.44
1602831553.4882,76.0,776.0,68.0,356.2774957106851,36.44
1602831553.4902,76.0,776.0,58.0,356.2557187757101,36.44
1602831553.4922,76.0,776.0,63.0,356.2300385377834,36.44
1602831553.4943,76.0,776.0,81.0,356.20057151341103,36.44
1602831553.4962,76.0,776.0,83.0,356.1674342190991,36.44
1602831553.4982,76.0,776.0,76.0,356.1307431713536,36.44
1602831553.5002,76.0,776.0,76.0,356.09061488668044,36.44
1602831553.5022,76.0,776.0,78.0,356.0471658815858,36.44
1602831553.5042,76.0,776.0,76.0,356.00051267257555,36.44
1602831553.5062,76.0,776.0,71.0,355.9507717761558,36.44
1602831553.5082,76.0,776.0,73.0,355.8980597088326,36.44
1602831553.5102,76.0,776.0,76.0,355.8424929871119,36.44
1602831553.5122,76.0,776.0,68.0,355.7841881274997,36.44
1602831553.5142,76.0,776.0,66.0,355.7232616465021,36.44
1602831553.5163,76.0,776.0,73.0,355.6598300606251,36.44
1602831553.5182,76.0,776.0,71.0,355.59400988637464,36.44
1602831553.5202,76.0,776.0,66.0,355.52591764025686,36.44
1602831553.5226,76.0,776.0,66.0,355.4556698387777,36.44
1602831553.5242,76.0,776.0,66.0,355.38338299844315,36.44
1602831553.5262,76.0,776.0,71.0,355.30917363575935,36.44
1602831553.5282,76.0,776.0,73.0,355.23315826723217,36.44
1602831553.5302,76.0,776.0,68.0,355.15545340936774,36.44
1602831553.5323,76.0,776.0,56.0,355.07617557867206,36.44
1602831553.5342,76.0,776.0,46.0,354.9954412916511,36.44
1602831553.5362,76.0,776.0,41.0,354.913367064811,36.44
1602831553.5382,76.0,776.0,46.0,354.8300694146576,36.44
1602831553.5402,76.0,776.0,66.0,354.7456648576971,36.44
1602831553.5422,76.0,776.0,78.0,354.6602699104354,36.44
1602831553.5442,76.0,776.0,71.0,354.5740010893785,36.44
1602831553.5462,76.0,776.0,63.0,354.4869749110325,36.44
1602831553.5482,76.0,776.0,76.0,354.39930789190345,36.44
1602831553.5502,76.0,776.0,81.0,354.31111654849724,36.44
1602831553.5523,76.0,776.0,56.0,354.22251739732,36.44
1602831553.5542,76.0,776.0,39.0,354.13362695487774,36.44
1602831553.5563,76.0,776.0,41.0,354.0445617376764,36.44
1602831553.9822,77.0,768.0,49.0,353.9554382622221,36.44
1602831553.983,77.0,768.0,49.0,353.8663730450208,36.44
1602831553.9855,77.0,768.0,49.0,353.7774826025785,36.44
1602831553.9881,77.0,768.0,49.0,353.6888834514013,36.44
1602831553.9901,77.0,768.0,39.0,353.60069210799514,36.44
1602831553.992,77.0,768.0,34.0,353.5130250888661,36.44
1602831553.994,77.0,768.0,100.0,353.4259989105201,36.44
1602831553.996,77.0,768.0,312.0,353.3397300894633,36.44
1602831553.998,77.0,768.0,540.0,353.25433514220157,36.44
1602831554.0001,77.0,768.0,351.0,353.169930585241,36.44
1602831554.002,77.0,768.0,-280.0,353.08663293508766,36.44
1602831554.004,77.0,768.0,-513.0,353.0045587082475,36.44
1602831554.006,77.0,768.0,-110.0,352.9238244212266,36.44
1602831554.0081,77.0,768.0,115.0,352.8445465905309,36.44
1602831554.01,77.0,768.0,24.0,352.7668417326665,36.44
1602831554.012,77.0,768.0,54.0,352.69082636413935,36.44
1602831554.014,77.0,768.0,120.0,352.61661700145555,36.44
1602831554.016,77.0,768.0,88.0,352.544330161121,36.44
1602831554.018,77.0,768.0,73.0,352.4740823596419,36.44
1602831554.02,77.0,768.0,95.0,352.40599011352407,36.44
1602831554.022,77.0,768.0,98.0,352.34016993927366,36.44
1602831554.024,77.0,768.0,98.0,352.27673835339664,36.44
1602831554.026,77.0,768.0,105.0,352.215811872399,36.44
1602831554.028,77.0,768.0,105.0,352.24229024839195,36.44
1602831554.03,77.0,768.0,103.0,352.26285541170444,36.44
1602831554.032,77.0,768.0,110.0,352.2777986536014,36.44
1602831554.034,77.0,768.0,122.0,352.28741126534806,36.44
1602831554.036,77.0,768.0,135.0,352.2919845382093,36.44
1602831554.038,77.0,768.0,135.0,352.29180976345026,36.44
1602831554.04,77.0,768.0,130.0,352.287178232336,36.44
1602831554.042,77.0,768.0,132.0,352.2783812361315,36.44
1602831554.044,77.0,768.0,142.0,352.26571006610186,36.44
1602831554.046,77.0,768.0,152.0,352.24945601351214,36.44
1602831554.0483,77.0,768.0,162.0,352.2299103696274,36.44
1602831554.0501,77.0,768.0,172.0,352.2073644257126,36.44
1602831554.0521,77.0,768.0,179.0,352.1821094730329,36.44
1602831554.054,77.0,768.0,181.0,352.15443680285324,36.44
1602831554.056,77.0,768.0,184.0,352.12463770643876,36.44
1602831554.058,77.0,768.0,196.0,352.09300347505445,36.44
1602831554.06,77.0,768.0,203.0,352.0598253999654,36.44
1602831554.062,77.0,768.0,196.0,352.02539477243664,36.44
1602831554.064,77.0,768.0,189.0,351.9900028837332,36.44
1602831554.066,77.0,768.0,196.0,351.9539410251202,36.44
1602831554.068,77.0,768.0,194.0,351.9175004878626,36.44
1602831554.07,77.0,768.0,179.0,351.88097256322544,36.44
1602831554.072,77.0,768.0,167.0,351.84464854247386,36.44
1602831554.074,77.0,768.0,140.0,351.80881971687285,36.44
1602831554.076,77.0,768.0,105.0,351.7737773776875,36.44
1602831554.078,77.0,768.0,88.0,351.7398128161828,36.44
1602831554.08,77.0,768.0,73.0,351.70721732362387,36.44
1602831554.082,77.0,768.0,58.0,351.6762821912757,36.44
1602831554.084,77.0,768.0,51.0,351.5848924697793,36.44
1602831554.0859,77.0,768.0,46.0,351.4897450909637,36.44
1602831554.088,77.0,768.0,39.0,351.3910148295881,36.44
1602831554.09,77.0,768.0,24.0,351.28887646041136,36.44
1602831554.092,77.0,768.0,14.0,351.1835047581926,36.44
1602831554.094,77.0,768.0,31.0,351.0750744976909,36.44
1602831554.096,77.0,768.0,41.0,350.9637604536651,36.44
1602831554.098,77.0,768.0,34.0,350.8497374008744,36.44
1602831554.1,77.0,768.0,39.0,350.73318011407775,36.44
1602831554.102,77.0,768.0,56.0,350.61426336803424,36.44
1602831554.104,77.0,768.0,66.0,350.49316193750286,36.44
1602831554.1059,77.0,768.0,61.0,350.37005059724265,36.44
1602831554.108,77.0,768.0,58.0,350.2451041220126,36.44
1602831554.11,77.0,768.0,63.0,350.1184972865718,36.44
1602831554.112,77.0,768.0,66.0,349.99040486567924,36.44
1602831554.114,77.0,768.0,68.0,349.86100163409395,36.44
1602831554.116,77.0,768.0,73.0,349.730462366575,36.44
1602831554.1179,77.0,768.0,78.0,349.59896183788135,36.44
1602831554.12,77.0,768.0,81.0,349.46667482277206,36.44
1602831554.122,77.0,768.0,78.0,349.3337760960062,36.44
1602831554.124,77.0,768.0,76.0,349.20044043234276,36.44
1602831554.126,77.0,768.0,71.0,349.0668426065408,36.44
1602831554.5823,77.0,768.0,68.0,348.9331573933593,36.44
1602831554.5831,77.0,768.0,71.0,348.7995595675573,36.44
1602831554.5856,77.0,768.0,66.0,348.66622390389387,36.44
1602831554.5882,77.0,768.0,66.0,348.533325177128,36.44
1602831554.5902,77.0,768.0,81.0,348.4010381620188,36.44
1602831554.5921,77.0,768.0,76.0,348.26953763332517,36.44
1602831554.5942,77.0,768.0,49.0,348.13899836580623,36.44
1602831554.5961,77.0,768.0,44.0,348.00959513422094,36.44
1602831554.5982,77.0,768.0,56.0,347.88150271332836,36.44
1602831554.6001,77.0,768.0,54.0,347.7548958778876,36.44
1602831554.6022,77.0,768.0,46.0,347.62994940265753,36.44
1602831554.6043,77.0,768.0,46.0,347.5068380623973,36.44
1602831554.6061,77.0,768.0,46.0,347.38573663186594,36.44
1602831554.6081,77.0,768.0,58.0,347.26681988582243,36.44
1602831554.6101,77.0,768.0,78.0,347.15026259902584,36.44
1602831554.6121,77.0,768.0,76.0,347.03623954623515,36.44
1602831554.6141,77.0,768.0,61.0,346.9249255022094,36.44
1602831554.6161,77.0,768.0,61.0,346.8164952417076,36.44
1602831554.6181,77.0,768.0,66.0,346.7111235394889,36.44
1602831554.6201,77.0,768.0,56.0,346.60898517031217,36.44
1602831554.6221,77.0,768.0,39.0,346.51025490893653,36.44
1602831554.6241,77.0,768.0,36.0,346.415107530121,36.44
1602831554.6261,77.0,768.0,56.0,346.32371780862456,36.44
1602831554.6281,77.0,768.0,66.0,346.2362605192063,36.44
1602831554.6301,77.0,768.0,56.0,346.1529104366253,36.44
1602831554.6321,77.0,768.0,51.0,346.07384233564045,36.44
1602831554.6341,77.0,768.0,58.0,345.99923099101085,36.44
1602831554.6361,77.0,768.0,63.0,345.92925117749553,36.44
1602831554.6381,77.0,768.0,90.0,345.8640776698535,36.44
1602831554.6401,77.0,768.0,235.0,345.8038852428438,36.44
1602831554.6421,77.0,768.0,498.0,345.7488486712255,36.44
1602831554.6442,77.0,768.0,498.0,345.69914272975757,36.44
1602831554.6461,77.0,768.0,-81.0,345.6549421931991,36.44
1602831554.6481,77.0,768.0,-572.0,345.61642183630903,36.44
1602831554.6501,77.0,768.0,-292.0,345.5837564338464,36.44
1602831554.6521,77.0,768.0,103.0,345.5571207605704,36.44
1602831554.6542,77.0,768.0,63.0,345.53668959123985,36.44
1602831554.6561,77.0,768.0,31.0,345.5226377006139,36.44
1602831554.6581,77.0,768.0,120.0,345.51513986345157,36.44
1602831554.6601,77.0,768.0,108.0,345.5143708545118,36.44
1602831554.6621,77.0,768.0,83.0,345.52050544855376,36.44
1602831554.6641,77.0,768.0,115.0,345.53371842033636,36.44
1602831554.6661,77.0,768.0,113.0,345.5541845446187,36.44
1602831554.6681,77.0,768.0,98.0,345.58207859615976,36.44
1602831554.6701,77.0,768.0,113.0,345.6175753497186,36.44
1602831554.6721,77.0,768.0,115.0,345.6608495800542,36.44
1602831554.6741,77.0,768.0,95.0,345.7120760619257,36.44
1602831554.6761,77.0,768.0,93.0,345.7714295700921,36.44
1602831554.6781,77.0,768.0,105.0,345.8390848793123,36.44
1602831554.6801,77.0,768.0,115.0,345.9152167643455,36.44
1602831554.6821,77.0,768.0,117.0,345.99999999995055,36.44
1602831554.6842,77.0,768.0,120.0,345.99999999995055,36.44
1602831554.6861,77.0,768.0,127.0,345.99999999995055,36.44
1602831554.6881,77.0,768.0,140.0,345.99999999995055,36.44
1602831554.6901,77.0,768.0,149.0,345.99999999995055,36.44
1602831554.6921,77.0,768.0,154.0,345.99999999995055,36.44
1602831554.6941,77.0,768.0,154.0,345.99999999995055,36.44
1602831554.6961,77.0,768.0,162.0,345.99999999995055,36.44
1602831554.6981,77.0,768.0,174.0,345.99999999995055,36.44
1602831554.7001,77.0,768.0,172.0,345.99999999995055,36.44
1602831554.7021,77.0,768.0,164.0,345.99999999995055,36.44
1602831554.7041,77.0,768.0,172.0,345.99999999995055,36.44
1602831554.7062,77.0,768.0,184.0,345.99999999995055,36.44
1602831554.7082,77.0,768.0,189.0,345.99999999995055,36.44
1602831554.7101,77.0,768.0,189.0,345.99999999995055,36.44
1602831554.7121,77.0,768.0,174.0,345.99999999995055,36.44
1602831554.7141,77.0,768.0,162.0,345.99999999995055,36.44
1602831554.7161,77.0,768.0,162.0,345.99999999995055,36.44
1602831554.7181,77.0,768.0,149.0,345.99999999995055,36.44
1602831554.7201,77.0,768.0,117.0,345.99999999995055,36.44
1602831554.7221,77.0,768.0,90.0,345.99999999995055,36.44
1602831554.7241,77.0,768.0,76.0,345.99999999995055,36.44
1602831554.7261,77.0,768.0,63.0,345.99999999995055,36.44
1602831555.1225,77.0,760.0,44.0,345.99999999995055,36.44
1602831555.1237,77.0,760.0,34.0,345.99999999995055,36.44
1602831555.1256,77.0,760.0,34.0,345.99999999995055,36.44
1602831555.1273,77.0,760.0,17.0,345.99999999995055,36.44
1602831555.1294,77.0,760.0,-2.0,345.99999999995055,36.44
1602831555.1313,77.0,760.0,-2.0,345.99999999995055,36.44
1602831555.1333,77.0,760.0,4.0,345.99999999995055,36.44
1602831555.1353,77.0,760.0,12.0,345.99999999995055,36.44
1602831555.1373,77.0,760.0,24.0,345.99999999995055,36.44
1602831555.1393,77.0,760.0,51.0,345.99999999995055,36.44
1602831555.1413,77.0,760.0,49.0,345.99999999995055,36.44
1602831555.1432,77.0,760.0,14.0,345.99999999995055,36.44
1602831555.1452,77.0,760.0,2.0,345.99999999995055,36.44
1602831555.1472,77.0,760.0,19.0,345.99999999995055,36.44
1602831555.1492,77.0,760.0,34.0,345.99999999995055,36.44
1602831555.1513,77.0,760.0,39.0,345.99999999995055,36.44
1602831555.1532,77.0,760.0,56.0,345.99999999995055,36.44
1602831555.1552,77.0,760.0,68.0,345.99999999995055,36.44
1602831555.1572,77.0,760.0,66.0,345.99999999995055,36.44
1602831555.1592,77.0,760.0,71.0,345.99999999995055,36.44
1602831555.1612,77.0,760.0,95.0,345.99999999995055,36.44
1602831555.1632,77.0,760.0,90.0,345.99999999995055,36.44
1602831555.1652,77.0,760.0,51.0,345.99999999995055,36.44
1602831555.1672,77.0,760.0,29.0,346.16956647116075,36.44
1602831555.1692,77.0,760.0,44.0,346.3218302412271,36.44
1602831555.1712,77.0,760.0,63.0,346.4571408596675,36.44
1602831555.1732,77.0,760.0,58.0,346.57584787600024,36.44
1602831555.1752,77.0,760.0,51.0,346.67830083974314,36.44
1602831555.1772,77.0,760.0,54.0,346.7648493004145,36.44
1602831555.1792,77.0,760.0,36.0,346.8358428075322,36.44
1602831555.1812,77.0,760.0,27.0,346.8916309106143,36.44
1602831555.1832,77.0,760.0,49.0,346.932563159179,36.44
1602831555.1852,77.0,760.0,44.0,346.95898910274417,36.44
1602831555.1872,77.0,760.0,36.0,346.9712582908281,36.44
1602831555.1892,77.0,760.0,61.0,346.9697202729486,36.44
1602831555.1912,77.0,760.0,73.0,346.9547245986239,36.44
1602831555.1932,77.0,760.0,68.0,346.926620817372,36.44
1602831555.1952,77.0,760.0,58.0,346.88575847871095,36.44
1602831555.1972,77.0,760.0,51.0,346.8324871321588,36.44
1602831555.1992,77.0,760.0,81.0,346.76715632723364,36.44
1602831555.2014,77.0,760.0,100.0,346.69011561345354,36.44
1602831555.2032,77.0,760.0,56.0,346.60171454033656,36.44
1602831555.2052,77.0,760.0,19.0,346.5023026574007,36.44
1602831555.2072,77.0,760.0,36.0,346.39222951416406,36.44
1602831555.2092,77.0,760.0,49.0,346.27184466014467,36.44
1602831555.2112,77.0,760.0,7.0,346.14149764486064,36.44
1602831555.2132,77.0,760.0,-41.0,346.00153801783,36.44
1602831555.2152,77.0,760.0,-27.0,345.8523153285708,36.44
1602831555.2172,77.0,760.0,31.0,345.6941791266011,36.44
1602831555.2192,77.0,760.0,71.0,345.527478961439,36.44
1602831555.2212,77.0,760.0,127.0,345.3525643826025,36.44
1602831555.2232,77.0,760.0,329.0,345.16978493960966,36.44
1602831555.2253,77.0,760.0,567.0,344.9794901819786,36.44
1602831555.2272,77.0,760.0,344.0,344.7820296592273,36.44
1602831555.2292,77.0,760.0,-272.0,344.5777529208739,36.44
1602831555.2312,77.0,760.0,-388.0,344.3670095164364,36.44
1602831555.2332,77.0,760.0,2.0,344.15014899543286,36.44
1602831555.2352,77.0,760.0,58.0,343.9275209073814,36.44
1602831555.2372,77.0,760.0,-61.0,343.69947480179997,36.44
1602831555.2392,77.0,760.0,54.0,343.4663602282067,36.44
1602831555.2412,77.0,760.0,113.0,343.22852673611965,36.44
1602831555.2432,77.0,760.0,61.0,342.9863238750569,36.44
1602831555.2452,77.0,760.0,86.0,342.74010119453646,36.44
1602831555.2472,77.0,760.0,78.0,342.49020824407637,36.44
1602831555.2492,77.0,760.0,31.0,342.23699457319475,36.44
1602831555.2512,77.0,760.0,49.0,341.98080973140964,36.44
1602831555.2518,77.0,760.0,108.0,341.7220032682391,36.44
1602831555.2532,77.0,760.0,147.0,341.4609247332012,36.44
1602831555.2552,77.0,760.0,103.0,341.1979236758139,36.44
1602831555.2572,77.0,760.0,76.0,340.9333496455954,36.44
1602831555.2592,77.0,760.0,167.0,340.6675521920636,36.44
1602831555.2612,77.0,760.0,181.0,340.40088086473673,36.44
1602831555.2632,77.0,760.0,95.0,340.13368521313276,36.44
1602831555.6923,77.0,760.0,122.0,339.8663147867698,36.44
1602831555.6932,77.0,760.0,186.0,339.59911913516584,36.44
1602831555.6956,77.0,760.0,169.0,339.332447807839,36.44
1602831555.6983,77.0,760.0,176.0,339.0666503543073,36.44
1602831555.7002,77.0,760.0,208.0,338.8020763240888,36.44
1602831555.7022,77.0,760.0,172.0,338.53907526670156,36.44
1602831555.7042,77.0,760.0,125.0,338.27799673166356,36.44
1602831555.7062,77.0,760.0,152.0,338.019190268493,36.44
1602831555.7069,77.0,760.0,179.0,337.76300542670793,36.44
1602831555.7082,77.0,760.0,159.0,337.50979175582626,36.44
1602831555.7102,77.0,760.0,152.0,337.2598988053663,36.44
1602831555.7122,77.0,760.0,167.0,337.01367612484574,36.44
1602831555.7142,77.0,760.0,169.0,336.771473263783,36.44
1602831555.7162,77.0,760.0,154.0,336.53363977169596,36.44
1602831555.7182,77.0,760.0,159.0,336.3005251981028,36.44
1602831555.7202,77.0,760.0,181.0,336.0724790925213,36.44
1602831555.7221,77.0,760.0,152.0,335.8498510044698,36.44
1602831555.7242,77.0,760.0,110.0,335.63299048346636,36.44
1602831555.7263,77.0,760.0,98.0,335.42224707902875,36.44
1602831555.7282,77.0,760.0,56.0,335.21797034067544,36.44
1602831555.7301,77.0,760.0,51.0,335.02050981792416,36.44
1602831555.7322,77.0,760.0,95.0,334.830215060293,36.44
1602831555.7341,77.0,760.0,63.0,334.64743561730023,36.44
1602831555.7361,77.0,760.0,-17.0,334.5149126562663,36.44
1602831555.7368,77.0,760.0,17.0,334.3862784336207,36.44
1602831555.7382,77.0,760.0,132.0,334.26196988626117,36.44
1602831555.7402,77.0,760.0,83.0,334.14242395108516,36.44
1602831555.7421,77.0,760.0,-100.0,334.02807756499027,36.44
1602831555.7441,77.0,760.0,-88.0,333.91936766487396,36.44
1602831555.7462,77.0,760.0,68.0,333.81673118763405,36.44
1602831555.7481,77.0,760.0,98.0,333.720605070168,36.44
1602831555.7502,77.0,760.0,31.0,333.6314262493733,36.44
1602831555.7522,77.0,760.0,31.0,333.54963166214753,36.44
1602831555.7541,77.0,760.0,86.0,333.4756582453884,36.44
1602831555.7561,77.0,760.0,83.0,333.40994293599346,36.44
1602831555.7581,77.0,760.0,78.0,333.3529226708601,36.44
1602831555.7601,77.0,760.0,152.0,333.3050343868861,36.44
1602831555.7621,77.0,760.0,162.0,333.2667150209689,36.44
1602831555.7641,77.0,760.0,63.0,333.2384015100062,36.44
1602831555.7661,77.0,760.0,34.0,333.22053079089545,36.44
1602831555.7669,77.0,760.0,44.0,333.2135398005343,36.44
1602831555.7681,77.0,760.0,27.0,333.21786547582025,36.44
1602831555.7701,77.0,760.0,44.0,333.233944753651,36.44
1602831555.7722,77.0,760.0,49.0,333.26221457092396,36.44
1602831555.7741,77.0,760.0,34.0,333.3031118645368,36.44
1602831555.7762,77.0,760.0,63.0,333.35707357138705,36.44
1602831555.7781,77.0,760.0,90.0,333.4245366283723,36.44
1602831555.7802,77.0,760.0,88.0,333.5059379723902,36.44
1602831555.7822,77.0,760.0,86.0,333.60171454033826,36.44
1602831555.7841,77.0,760.0,66.0,333.7123032691141,36.44
1602831555.7862,77.0,760.0,51.0,333.8381410956152,36.44
1602831555.7881,77.0,760.0,58.0,333.792446234867,36.44
1602831555.7903,77.0,760.0,54.0,333.74487254545915,36.44
1602831555.7922,77.0,760.0,63.0,333.6955074147714,36.44
1602831555.7941,77.0,760.0,95.0,333.64443823018297,36.44
1602831555.7961,77.0,760.0,86.0,333.5917523790736,36.44
1602831555.7968,77.0,760.0,54.0,333.53753724882273,36.44
1602831555.7981,77.0,760.0,71.0,333.4818802268099,36.44
1602831555.8001,77.0,760.0,83.0,333.4248687004145,36.44
1602831555.8021,77.0,760.0,46.0,333.36659005701625,36.44
1602831555.8042,77.0,760.0,56.0,333.30713168399444,36.44
1602831555.8061,77.0,760.0,110.0,333.2465809687288,36.44
1602831555.8081,77.0,760.0,100.0,333.18502529859865,36.44
1602831555.8101,77.0,760.0,66.0,333.12255206098365,36.44
1602831555.8121,77.0,760.0,98.0,333.0592486432632,36.44
1602831555.8141,77.0,760.0,103.0,332.99520243281694,36.44
1602831555.8161,77.0,760.0,24.0,332.9305008170243,36.44
1602831555.8181,77.0,760.0,4.0,332.8652311832648,36.44
1602831555.8201,77.0,760.0,46.0,332.799480918918,36.44
1602831555.8223,77.0,760.0,56.0,332.7333374113633,36.44
1602831555.8242,77.0,760.0,61.0,332.6668880479804,36.44
1602831555.8261,77.0,760.0,71.0,332.60022021614867,36.44
1602831555.8268,77.0,760.0,149.0,332.5334213032477,36.44
1602831556.2922,78.0,770.0,378.0,332.46657869665694,36.44
1602831556.293,78.0,770.0,538.0,332.399779783756,36.44
1602831556.2955,78.0,770.0,208.0,332.33311195192425,36.44
1602831556.2981,78.0,770.0,-339.0,332.2666625885413,36.44
1602831556.3001,78.0,770.0,-309.0,332.20051908098674,36.44
1602831556.3022,78.0,770.0,56.0,332.13476881663985,36.44
1602831556.3041,78.0,770.0,54.0,332.06949918288035,36.44
1602831556.3061,78.0,770.0,-41.0,332.00479756708773,36.44
1602831556.3081,78.0,770.0,66.0,331.9407513566415,36.44
1602831556.3101,78.0,770.0,103.0,331.87744793892114,36.44
1602831556.3121,78.0,770.0,56.0,331.81497470130614,36.44
1602831556.314,78.0,770.0,90.0,331.753419031176,36.44
1602831556.3147,78.0,770.0,103.0,331.69286831591023,36.44
1602831556.317,78.0,770.0,63.0,331.63340994288853,36.44
1602831556.319,78.0,770.0,90.0,331.5751312994902,36.44
1602831556.321,78.0,770.0,127.0,331.5181197730949,36.44
1602831556.323,78.0,770.0,105.0,331.46246275108194,36.44
1602831556.325,78.0,770.0,83.0,331.40824762083105,36.44
1602831556.327,78.0,770.0,90.0,331.3555617697217,36.44
1602831556.329,78.0,770.0,98.0,331.3044925851334,36.44
1602831556.3311,78.0,770.0,105.0,331.2551274544455,36.44
1602831556.3331,78.0,770.0,132.0,331.2075537650378,36.44
1602831556.335,78.0,770.0,132.0,331.1618589042896,36.44
1602831556.337,78.0,770.0,83.0,331.1181302595804,36.44
1602831556.339,78.0,770.0,78.0,331.0764552182899,36.44
1602831556.341,78.0,770.0,122.0,331.03692116779746,36.44
1602831556.343,78.0,770.0,147.0,330.99961549548266,36.44
1602831556.345,78.0,770.0,167.0,330.9646255887251,36.44
1602831556.3457,78.0,770.0,194.0,330.932038834904,36.44
1602831556.347,78.0,770.0,179.0,330.90194262139914,36.44
1602831556.349,78.0,770.0,154.0,330.87442433559,36.44
1602831556.351,78.0,770.0,174.0,330.84957136485605,36.44
1602831556.353,78.0,770.0,201.0,330.8274710965768,36.44
1602831556.355,78.0,770.0,206.0,330.80821091813175,36.44
1602831556.357,78.0,770.0,194.0,330.7918782169005,36.44
1602831556.359,78.0,770.0,176.0,330.77856038026243,36.44
1602831556.3611,78.0,770.0,167.0,330.7683447955973,36.44
1602831556.363,78.0,770.0,149.0,330.7613188502843,36.44
1602831556.365,78.0,770.0,105.0,330.7575699317031,36.44
1602831556.3671,78.0,770.0,71.0,330.75718542723314,36.44
1602831556.369,78.0,770.0,71.0,330.7602527242542,36.44
1602831556.371,78.0,770.0,78.0,330.7668592101455,36.44
1602831556.373,78.0,770.0,58.0,330.7770922722866,36.44
1602831556.375,78.0,770.0,22.0,330.79103929805717,36.44
1602831556.3757,78.0,770.0,29.0,330.8087876748366,36.44
1602831556.377,78.0,770.0,61.0,330.8304247900044,36.44
1602831556.379,78.0,770.0,58.0,330.8560380309401,36.44
1602831556.3812,78.0,770.0,29.0,330.8857147850233,36.44
1602831556.383,78.0,770.0,14.0,330.91954243963346,36.44
1602831556.385,78.0,770.0,19.0,330.95760838215006,36.44
1602831556.387,78.0,770.0,46.0,330.9999999999526,36.44
1602831556.389,78.0,770.0,81.0,330.9999999999526,36.44
1602831556.391,78.0,770.0,76.0,330.9999999999526,36.44
1602831556.3931,78.0,770.0,61.0,330.9999999999526,36.44
1602831556.395,78.0,770.0,66.0,330.9999999999526,36.44
1602831556.397,78.0,770.0,66.0,330.9999999999526,36.44
1602831556.399,78.0,770.0,63.0,330.9999999999526,36.44
1602831556.401,78.0,770.0,66.0,330.9999999999526,36.44
1602831556.403,78.0,770.0,66.0,330.9999999999526,36.44
1602831556.4037,78.0,770.0,56.0,330.9999999999526,36.44
1602831556.405,78.0,770.0,61.0,330.9999999999526,36.44
1602831556.407,78.0,770.0,88.0,330.9999999999526,36.44
1602831556.409,78.0,770.0,90.0,330.9999999999526,36.44
1602831556.411,78.0,770.0,78.0,330.9999999999526,36.44
1602831556.413,78.0,770.0,81.0,330.9999999999526,36.44
1602831556.415,78.0,770.0,68.0,330.9999999999526,36.44
1602831556.417,78.0,770.0,56.0,330.9999999999526,36.44
1602831556.419,78.0,770.0,73.0,330.9999999999526,36.44
1602831556.421,78.0,770.0,73.0,330.9999999999526,36.44
1602831556.423,78.0,770.0,61.0,330.9999999999526,36.44
1602831556.425,78.0,770.0,78.0,330.9999999999526,36.44
1602831556.427,78.0,770.0,76.0,330.9999999999526,36.44
1602831556.429,78.0,770.0,44.0,330.9999999999526,36.44
1602831556.8016,78.0,770.0,36.0,330.9999999999526,36.44
1602831556.8026,78.0,770.0,73.0,330.9999999999526,36.44
1602831556.8043,78.0,770.0,93.0,330.9999999999526,36.44
1602831556.8067,78.0,770.0,63.0,330.9999999999526,36.44
1602831556.8087,78.0,770.0,49.0,330.9999999999526,36.44
1602831556.8107,78.0,770.0,81.0,330.9999999999526,36.44
1602831556.8126,78.0,770.0,113.0,330.9999999999526,36.44
1602831556.8146,78.0,770.0,95.0,330.9999999999526,36.44
1602831556.8166,78.0,770.0,39.0,330.9999999999526,36.44
1602831556.8186,78.0,770.0,36.0,330.9999999999526,36.44
1602831556.8206,78.0,770.0,71.0,330.9999999999526,36.44
1602831556.8226,78.0,770.0,58.0,330.9999999999526,36.44
1602831556.8246,78.0,770.0,24.0,330.9999999999526,36.44
1602831556.8266,78.0,770.0,31.0,330.9999999999526,36.44
1602831556.8285,78.0,770.0,39.0,330.9999999999526,36.44
1602831556.8306,78.0,770.0,24.0,330.9999999999526,36.44
1602831556.8326,78.0,770.0,22.0,330.9999999999526,36.44
1602831556.8345,78.0,770.0,36.0,330.9999999999526,36.44
1602831556.8352,78.0,770.0,36.0,330.9999999999526,36.44
1602831556.8365,78.0,770.0,12.0,330.9999999999526,36.44
1602831556.8386,78.0,770.0,4.0,330.9999999999526,36.44
1602831556.8405,78.0,770.0,140.0,330.9999999999526,36.44
1602831556.8426,78.0,770.0,430.0,330.9999999999526,36.44
1602831556.8446,78.0,770.0,474.0,330.9858694606851,36.44
1602831556.8466,78.0,770.0,-61.0,330.9731808131795,36.44
1602831556.8487,78.0,770.0,-525.0,330.96190492830954,36.44
1602831556.8506,78.0,770.0,-277.0,330.95201267694847,36.44
1602831556.8526,78.0,770.0,66.0,330.94347492996985,36.44
1602831556.8546,78.0,770.0,39.0,330.9362625582472,36.44
1602831556.8566,78.0,770.0,14.0,330.9303464326541,36.44
1602831556.8586,78.0,770.0,81.0,330.92569742406397,36.44
1602831556.8606,78.0,770.0,78.0,330.9222864033502,36.44
1602831556.8626,78.0,770.0,76.0,330.92008424138646,36.44
1602831556.8646,78.0,770.0,108.0,330.91906180904607,36.44
1602831556.8652,78.0,770.0,98.0,330.9191899772028,36.44
1602831556.8666,78.0,770.0,71.0,330.9204396167298,36.44
1602831556.8685,78.0,770.0,83.0,330.9227815985008,36.44
1602831556.8707,78.0,770.0,100.0,330.9261867933892,36.44
1602831556.8726,78.0,770.0,98.0,330.9306260722685,36.44
1602831556.8746,78.0,770.0,103.0,330.9360703060123,36.44
1602831556.8766,78.0,770.0,100.0,330.942490365494,36.44
1602831556.8786,78.0,770.0,98.0,330.9498571215871,36.44
1602831556.8806,78.0,770.0,108.0,330.9581414451651,36.44
1602831556.8827,78.0,770.0,120.0,330.9673142071015,36.44
1602831556.8846,78.0,770.0,142.0,330.9773462782697,36.44
1602831556.8866,78.0,770.0,149.0,330.9882085295434,36.44
1602831556.8887,78.0,770.0,142.0,330.999871831796,36.44
1602831556.8906,78.0,770.0,147.0,331.0123070559009,36.44
1602831556.8926,78.0,770.0,164.0,331.0254850727317,36.44
1602831556.8946,78.0,770.0,174.0,331.03937675316183,36.44
1602831556.8966,78.0,770.0,172.0,331.0539529680649,36.44
1602831556.8986,78.0,770.0,172.0,331.06918458831433,36.44
1602831556.9006,78.0,770.0,179.0,331.08504248478357,36.44
1602831556.9026,78.0,770.0,191.0,331.10149752834616,36.44
1602831556.9046,78.0,770.0,189.0,331.11852058987563,36.44
1602831556.9066,78.0,770.0,167.0,331.1360825402454,36.44
1602831556.9086,78.0,770.0,157.0,331.15415425032904,36.44
1602831556.9106,78.0,770.0,157.0,331.17270659100006,36.44
1602831556.9126,78.0,770.0,152.0,331.1917104331318,36.44
1602831556.9146,78.0,770.0,140.0,331.21113664759787,36.44
1602831556.9166,78.0,770.0,120.0,331.23095610527184,36.44
1602831556.9186,78.0,770.0,93.0,331.251139677027,36.44
1602831556.9207,78.0,770.0,73.0,331.27165823373707,36.44
1602831556.9226,78.0,770.0,63.0,331.2924826462754,36.44
1602831556.9246,78.0,770.0,54.0,331.31358378551556,36.44
1602831556.9266,78.0,770.0,36.0,331.334932522331,36.44
1602831556.9286,78.0,770.0,17.0,331.3564997275952,36.44
1602831556.9306,78.0,770.0,7.0,331.3782562721817,36.44
1602831556.9326,78.0,770.0,0.0,331.400173026964,36.44
1602831556.9347,78.0,770.0,2.0,331.4222208628155,36.44
1602831556.9366,78.0,770.0,19.0,331.4443706506098,36.44
1602831556.9386,78.0,770.0,24.0,331.4665932612204,36.44
1602831556.9406,78.0,770.0,19.0,331.4888595655208,36.44
1602831557.3422,78.0,750.0,51.0,331.5111404343844,36.44
1602831557.3431,78.0,750.0,86.0,331.5334067386847,36.44
1602831557.3456,78.0,750.0,66.0,331.5556293492952,36.44
1602831557.3484,78.0,750.0,46.0,331.5777791370895,36.44
1602831557.3502,78.0,750.0,58.0,331.59982697294106,36.44
1602831557.3522,78.0,750.0,63.0,331.6217437277233,36.44
1602831557.3542,78.0,750.0,56.0,331.6435002723098,36.44
1602831557.3561,78.0,750.0,44.0,331.665067477574,36.44
1602831557.3581,78.0,750.0,34.0,331.6864162143894,36.44
1602831557.3602,78.0,750.0,41.0,331.70751735362956,36.44
1602831557.3621,78.0,750.0,49.0,331.7283417661679,36.44
1602831557.3641,78.0,750.0,36.0,331.74886032287793,36.44
1602831557.3662,78.0,750.0,14.0,331.76904389463317,36.44
1602831557.3682,78.0,750.0,9.0,331.7888633523071,36.44
1602831557.3701,78.0,750.0,36.0,331.80828956677317,36.44
1602831557.3721,78.0,750.0,63.0,331.82729340890495,36.44
1602831557.3741,78.0,750.0,51.0,331.8458457495759,36.44
1602831557.3761,78.0,750.0,29.0,331.86391745965955,36.44
1602831557.3782,78.0,750.0,27.0,331.8814794100293,36.44
1602831557.3801,78.0,750.0,34.0,331.8985024715588,36.44
1602831557.3822,78.0,750.0,41.0,331.9149575151214,36.44
1602831557.3842,78.0,750.0,51.0,331.93081541159063,36.44
1602831557.3861,78.0,750.0,49.0,331.94604703184007,36.44
1602831557.3881,78.0,750.0,39.0,331.91823162894053,36.44
1602831557.3901,78.0,750.0,46.0,331.89405736685416,36.44
1602831557.3921,78.0,750.0,54.0,331.8734077290748,36.44
1602831557.394,78.0,750.0,44.0,331.8561661990966,36.44
1602831557.3961,78.0,750.0,54.0,331.8422162604134,36.44
1602831557.3981,78.0,750.0,68.0,331.83144139651927,36.44
1602831557.4001,78.0,750.0,73.0,331.8237250909081,36.44
1602831557.4022,78.0,750.0,76.0,331.818950827074,36.44
1602831557.4041,78.0,750.0,88.0,331.8170020885108,36.44
1602831557.4061,78.0,750.0,88.0,331.81776235871257,36.44
1602831557.4081,78.0,750.0,61.0,331.82111512117325,36.44
1602831557.4101,78.0,750.0,41.0,331.8269438593869,36.44
1602831557.4121,78.0,750.0,39.0,331.83513205684744,36.44
1602831557.4141,78.0,750.0,39.0,331.8455631970488,36.44
1602831557.4161,78.0,750.0,31.0,331.85812076348503,36.44
1602831557.4182,78.0,750.0,31.0,331.87268823965013,36.44
1602831557.4201,78.0,750.0,36.0,331.88914910903804,36.44
1602831557.4221,78.0,750.0,29.0,331.90738685514276,36.44
1602831557.424,78.0,750.0,63.0,331.92728496145827,36.44
1602831557.4261,78.0,750.0,265.0,331.9487269114785,36.44
1602831557.428,78.0,750.0,540.0,331.97159618869745,36.44
1602831557.43,78.0,750.0,417.0,331.99577627660915,36.44
1602831557.4321,78.0,750.0,-233.0,332.02115065870754,36.44
1602831557.4343,78.0,750.0,-582.0,332.04760281848667,36.44
1602831557.4361,78.0,750.0,-199.0,332.0750162394404,36.44
1602831557.4381,78.0,750.0,105.0,332.1032744050628,36.44
1602831557.4401,78.0,750.0,34.0,332.13226079884777,36.44
1602831557.442,78.0,750.0,46.0,332.1618589042894,36.44
1602831557.4441,78.0,750.0,125.0,332.20755376503763,36.44
1602831557.4461,78.0,750.0,100.0,332.25512745444536,36.44
1602831557.448,78.0,750.0,90.0,332.3044925851332,36.44
1602831557.4503,78.0,750.0,108.0,332.35556176972153,36.44
1602831557.4521,78.0,750.0,98.0,332.40824762083093,36.44
1602831557.4541,78.0,750.0,95.0,332.4624627510818,36.44
1602831557.4561,78.0,750.0,108.0,332.51811977309467,36.44
1602831557.458,78.0,750.0,105.0,332.57513129949,36.44
1602831557.46,78.0,750.0,100.0,332.6334099428883,36.44
1602831557.4621,78.0,750.0,113.0,332.69286831591006,36.44
1602831557.4641,78.0,750.0,115.0,332.7534190311758,36.44
1602831557.4661,78.0,750.0,110.0,332.81497470130586,36.44
1602831557.4681,78.0,750.0,117.0,332.8774479389209,36.44
1602831557.47,78.0,750.0,130.0,332.9407513566413,36.44
1602831557.4721,78.0,750.0,132.0,333.00479756708756,36.44
1602831557.4741,78.0,750.0,135.0,333.0694991828802,36.44
1602831557.4761,78.0,750.0,147.0,333.1347688166397,36.44
1602831557.478,78.0,750.0,162.0,333.2005190809865,36.44
1602831557.48,78.0,750.0,172.0,333.2666625885412,36.44
1602831557.4821,78.0,750.0,181.0,333.33311195192414,36.44
1602831557.4842,78.0,750.0,184.0,333.3997797837559,36.44
1602831557.4861,78.0,750.0,186.0,333.4665786966569,36.44
1602831557.9423,79.0,746.0,196.0,333.5334213032476,36.44
1602831557.9431,79.0,746.0,194.0,333.6002202161486,36.44
1602831557.9457,79.0,746.0,184.0,333.6668880479803,36.44
1602831557.9482,79.0,746.0,176.0,333.7333374113632,36.44
1602831557.9502,79.0,746.0,167.0,333.7994809189178,36.44
1602831557.9522,79.0,746.0,152.0,333.86523118326465,36.44
1602831557.9543,79.0,746.0,140.0,333.93050081702415,36.44
1602831557.9562,79.0,746.0,125.0,333.99520243281677,36.44
1602831557.9582,79.0,746.0,105.0,334.05924864326306,36.44
1602831557.9602,79.0,746.0,86.0,334.1225520609835,36.44
1602831557.9623,79.0,746.0,58.0,334.18502529859853,36.44
1602831557.9643,79.0,746.0,31.0,334.2465809687286,36.44
1602831557.9662,79.0,746.0,24.0,334.3071316839943,36.44
1602831557.9682,79.0,746.0,19.0,334.3665900570161,36.44
1602831557.9702,79.0,746.0,4.0,334.4248687004144,36.44
1602831557.9721,79.0,746.0,0.0,334.4818802268097,36.44
1602831557.9742,79.0,746.0,12.0,334.5375372488226,36.44
1602831557.9762,79.0,746.0,19.0,334.5917523790735,36.44
1602831557.9782,79.0,746.0,14.0,334.64443823018286,36.44
1602831557.9802,79.0,746.0,12.0,334.6955074147712,36.44
1602831557.9822,79.0,746.0,22.0,334.74487254545903,36.44
1602831557.9841,79.0,746.0,27.0,334.7924462348668,36.44
1602831557.9861,79.0,746.0,34.0,334.838141095615,36.44
1602831557.9881,79.0,746.0,49.0,334.88186974032413,36.44
1602831557.9901,79.0,746.0,56.0,334.9235447816146,36.44
1602831557.9921,79.0,746.0,56.0,334.96307883210704,36.44
1602831557.9942,79.0,746.0,54.0,335.00038450442185,36.44
1602831557.9961,79.0,746.0,51.0,335.03537441117953,36.44
1602831557.9981,79.0,746.0,51.0,335.06796116500055,36.44
1602831558.0001,79.0,746.0,58.0,335.09805737850536,36.44
1602831558.0021,79.0,746.0,63.0,335.1255756643145,36.44
1602831558.0042,79.0,746.0,63.0,335.1504286350485,36.44
1602831558.0063,79.0,746.0,58.0,335.17252890332776,36.44
1602831558.0081,79.0,746.0,49.0,335.19178908177275,36.44
1602831558.0102,79.0,746.0,51.0,335.20812178300406,36.44
1602831558.0122,79.0,746.0,66.0,335.22143961964207,36.44
1602831558.0141,79.0,746.0,63.0,335.23165520430734,36.44
1602831558.0161,79.0,746.0,49.0,335.23868114962033,36.44
1602831558.0181,79.0,746.0,49.0,335.2424300682015,36.44
1602831558.0201,79.0,746.0,58.0,335.24281457267136,36.44
1602831558.0221,79.0,746.0,56.0,335.2397472756504,36.44
1602831558.0241,79.0,746.0,44.0,335.2331407897591,36.44
1602831558.0262,79.0,746.0,31.0,335.22290772761795,36.44
1602831558.0283,79.0,746.0,31.0,335.2089607018474,36.44
1602831558.0301,79.0,746.0,54.0,335.19121232506797,36.44
1602831558.0322,79.0,746.0,78.0,335.1695752099002,36.44
1602831558.0341,79.0,746.0,90.0,335.14396196896445,36.44
1602831558.0361,79.0,746.0,95.0,335.11428521488125,36.44
1602831558.0382,79.0,746.0,88.0,335.08045756027116,36.44
1602831558.0401,79.0,746.0,88.0,335.04239161775456,36.44
1602831558.0421,79.0,746.0,98.0,334.999999999952,36.44
1602831558.0442,79.0,746.0,81.0,334.999999999952,36.44
1602831558.0461,79.0,746.0,54.0,334.999999999952,36.44
1602831558.0481,79.0,746.0,49.0,334.999999999952,36.44
1602831558.0501,79.0,746.0,49.0,334.999999999952,36.44
1602831558.0521,79.0,746.0,49.0,334.999999999952,36.44
1602831558.0541,79.0,746.0,54.0,334.999999999952,36.44
1602831558.0561,79.0,746.0,39.0,334.999999999952,36.44
1602831558.0582,79.0,746.0,36.0,334.999999999952,36.44
1602831558.0602,79.0,746.0,58.0,334.999999999952,36.44
1602831558.0622,79.0,746.0,66.0,334.999999999952,36.44
1602831558.0641,79.0,746.0,145.0,334.999999999952,36.44
1602831558.0661,79.0,746.0,393.0,334.999999999952,36.44
1602831558.0681,79.0,746.0,518.0,334.999999999952,36.44
1602831558.0701,79.0,746.0,86.0,334.999999999952,36.44
1602831558.0721,79.0,746.0,-508.0,334.999999999952,36.44
1602831558.0741,79.0,746.0,-422.0,334.999999999952,36.44
1602831558.0761,79.0,746.0,19.0,334.999999999952,36.44
1602831558.0782,79.0,746.0,73.0,334.999999999952,36.44
1602831558.0801,79.0,746.0,-2.0,334.999999999952,36.44
1602831558.0822,79.0,746.0,68.0,334.999999999952,36.44
1602831558.0841,79.0,746.0,78.0,334.999999999952,36.44
1602831558.0861,79.0,746.0,44.0,334.999999999952,36.44
1602831558.5122,79.0,746.0,68.0,334.999999999952,36.44
1602831558.5131,79.0,746.0,81.0,334.999999999952,36.44
1602831558.5155,79.0,746.0,58.0,334.999999999952,36.44
1602831558.5182,79.0,746.0,68.0,334.999999999952,36.44
1602831558.5202,79.0,746.0,88.0,334.999999999952,36.44
1602831558.5222,79.0,746.0,88.0,334.999999999952,36.44
1602831558.5242,79.0,746.0,90.0,334.999999999952,36.44
1602831558.5262,79.0,746.0,95.0,334.999999999952,36.44
1602831558.5282,79.0,746.0,103.0,334.999999999952,36.44
1602831558.5302,79.0,746.0,108.0,334.999999999952,36.44
1602831558.5323,79.0,746.0,100.0,334.999999999952,36.44
1602831558.5341,79.0,746.0,90.0,334.999999999952,36.44
1602831558.5362,79.0,746.0,100.0,334.999999999952,36.44
1602831558.5381,79.0,746.0,125.0,334.999999999952,36.44
1602831558.5402,79.0,746.0,135.0,334.999999999952,36.44
1602831558.5421,79.0,746.0,137.0,334.999999999952,36.44
1602831558.5441,79.0,746.0,137.0,334.999999999952,36.44
1602831558.5461,79.0,746.0,140.0,334.999999999952,36.44
1602831558.5481,79.0,746.0,152.0,334.999999999952,36.44
1602831558.5501,79.0,746.0,162.0,334.999999999952,36.44
1602831558.5522,79.0,746.0,167.0,334.999999999952,36.44
1602831558.5541,79.0,746.0,164.0,334.999999999952,36.44
1602831558.5563,79.0,746.0,154.0,334.999999999952,36.44
1602831558.5581,79.0,746.0,147.0,334.95760838214943,36.44
1602831558.5601,79.0,746.0,159.0,334.9195424396329,36.44
1602831558.5622,79.0,746.0,162.0,334.88571478502274,36.44
1602831558.5641,79.0,746.0,140.0,334.8560380309396,36.44
1602831558.5661,79.0,746.0,125.0,334.83042479000386,36.44
1602831558.5681,79.0,746.0,100.0,334.808787674836,36.44
1602831558.5701,79.0,746.0,71.0,334.7910392980566,36.44
1602831558.5722,79.0,746.0,56.0,334.77709227228604,36.44
1602831558.5741,79.0,746.0,44.0,334.7668592101449,36.44
1602831558.5761,79.0,746.0,22.0,334.7602527242536,36.44
1602831558.5781,79.0,746.0,17.0,334.7571854272326,36.44
1602831558.5801,79.0,746.0,24.0,334.7575699317025,36.44
1602831558.5821,79.0,746.0,27.0,334.76131885028366,36.44
1602831558.5841,79.0,746.0,31.0,334.76834479559665,36.44
1602831558.5861,79.0,746.0,36.0,334.7785603802619,36.44
1602831558.5882,79.0,746.0,34.0,334.79187821689993,36.44
1602831558.5901,79.0,746.0,41.0,334.80821091813124,36.44
1602831558.5922,79.0,746.0,54.0,334.82747109657623,36.44
1602831558.5941,79.0,746.0,61.0,334.84957136485554,36.44
1602831558.5961,79.0,746.0,61.0,334.8744243355895,36.44
1602831558.5981,79.0,746.0,68.0,334.90194262139863,36.44
1602831558.6002,79.0,746.0,78.0,334.9320388349035,36.44
1602831558.6021,79.0,746.0,73.0,334.96462558872446,36.44
1602831558.6041,79.0,746.0,68.0,334.99961549548215,36.44
1602831558.6061,79.0,746.0,78.0,335.03692116779695,36.44
1602831558.6081,79.0,746.0,76.0,335.07645521828937,36.44
1602831558.61,79.0,746.0,66.0,335.1181302595799,36.44
1602831558.6121,79.0,746.0,63.0,335.16185890428903,36.44
1602831558.6141,79.0,746.0,68.0,335.20755376503723,36.44
1602831558.6161,79.0,746.0,73.0,335.255127454445,36.44
1602831558.6181,79.0,746.0,73.0,335.30449258513283,36.44
1602831558.6202,79.0,746.0,71.0,335.3555617697212,36.44
1602831558.6221,79.0,746.0,66.0,335.40824762083054,36.44
1602831558.6241,79.0,746.0,66.0,335.46246275108143,36.44
1602831558.6261,79.0,746.0,73.0,335.5181197730943,36.44
1602831558.6281,79.0,746.0,76.0,335.57513129948967,36.44
1602831558.6301,79.0,746.0,71.0,335.63340994288797,36.44
1602831558.6321,79.0,746.0,73.0,335.6928683159098,36.44
1602831558.6343,79.0,746.0,68.0,335.75341903117544,36.44
1602831558.6361,79.0,746.0,58.0,335.8149747013056,36.44
1602831558.6381,79.0,746.0,61.0,335.87744793892057,36.44
1602831558.6401,79.0,746.0,66.0,335.940751356641,36.44
1602831558.6421,79.0,746.0,78.0,336.0047975670872,36.44
1602831558.6441,79.0,746.0,100.0,336.0694991828799,36.44
1602831558.6461,79.0,746.0,90.0,336.13476881663934,36.44
1602831558.6481,79.0,746.0,71.0,336.2005190809861,36.44
1602831558.6501,79.0,746.0,76.0,336.2666625885407,36.44
1602831558.6521,79.0,746.0,83.0,336.3331119519237,36.44
1602831558.6541,79.0,746.0,76.0,336.39977978375543,36.44
1602831558.6562,79.0,746.0,68.0,336.4665786966564,36.44
1602831559.0519,79.0,745.0,63.0,336.53342130324717,36.44
1602831559.0531,79.0,745.0,63.0,336.60022021614816,36.44
1602831559.0555,79.0,745.0,63.0,336.66688804797985,36.44
1602831559.0581,79.0,745.0,68.0,336.73333741136275,36.44
1602831559.0601,79.0,745.0,76.0,336.79948091891737,36.44
1602831559.0621,79.0,745.0,76.0,336.8652311832642,36.44
1602831559.0642,79.0,745.0,66.0,336.9305008170237,36.44
1602831559.0661,79.0,745.0,108.0,336.9952024328163,36.44
1602831559.0682,79.0,745.0,312.0,337.0592486432626,36.44
1602831559.0702,79.0,745.0,543.0,337.122552060983,36.44
1602831559.0721,79.0,745.0,344.0,337.1850252985981,36.44
1602831559.0741,79.0,745.0,-294.0,337.24658096872815,36.44
1602831559.0761,79.0,745.0,-508.0,337.3071316839939,36.44
1602831559.0781,79.0,745.0,-95.0,337.3665900570156,36.44
1602831559.0801,79.0,745.0,115.0,337.4248687004139,36.44
1602831559.082,79.0,745.0,7.0,337.48188022680927,36.44
1602831559.0841,79.0,745.0,39.0,337.53753724882216,36.44
1602831559.0863,79.0,745.0,115.0,337.591752379073,36.44
1602831559.0881,79.0,745.0,83.0,337.6444382301824,36.44
1602831559.09,79.0,745.0,71.0,337.69550741477076,36.44
1602831559.092,79.0,745.0,103.0,337.7448725454586,36.44
1602831559.094,79.0,745.0,98.0,337.79244623486636,36.44
1602831559.096,79.0,745.0,90.0,337.83814109561456,36.44
1602831559.098,79.0,745.0,103.0,337.86773920105617,36.44
1602831559.1001,79.0,745.0,105.0,337.89672559484114,36.44
1602831559.1021,79.0,745.0,100.0,337.92498376046353,36.44
1602831559.104,79.0,745.0,105.0,337.9523971814173,36.44
1602831559.106,79.0,745.0,110.0,337.9788493411964,36.44
1602831559.108,79.0,745.0,122.0,338.0042237232948,36.44
1602831559.11,79.0,745.0,132.0,338.0284038112065,36.44
1602831559.1121,79.0,745.0,130.0,338.05127308842543,36.44
1602831559.1141,79.0,745.0,125.0,338.0727150384457,36.44
1602831559.1161,79.0,745.0,145.0,338.0926131447612,36.44
1602831559.118,79.0,745.0,167.0,338.1108508908659,36.44
1602831559.1201,79.0,745.0,174.0,338.1273117602538,36.44
1602831559.1222,79.0,745.0,174.0,338.1418792364189,36.44
1602831559.124,79.0,745.0,179.0,338.1544368028551,36.44
1602831559.126,79.0,745.0,186.0,338.16486794305655,36.44
1602831559.128,79.0,745.0,194.0,338.1730561405171,36.44
1602831559.1302,79.0,745.0,189.0,338.1788848787307,36.44
1602831559.1321,79.0,745.0,184.0,338.18223764119136,36.44
1602831559.134,79.0,745.0,184.0,338.18299791139316,36.44
1602831559.136,79.0,745.0,181.0,338.18104917283,36.44
1602831559.138,79.0,745.0,172.0,338.1762749089959,36.44
1602831559.14,79.0,745.0,169.0,338.1685586033847,36.44
1602831559.142,79.0,745.0,162.0,338.1577837394905,36.44
1602831559.144,79.0,745.0,149.0,338.1438338008074,36.44
1602831559.146,79.0,745.0,127.0,338.1265922708291,36.44
1602831559.1481,79.0,745.0,100.0,338.10594263304984,36.44
1602831559.15,79.0,745.0,71.0,338.0817683709634,36.44
1602831559.1521,79.0,745.0,54.0,338.0539529680639,36.44
1602831559.154,79.0,745.0,56.0,338.0691845883133,36.44
1602831559.156,79.0,745.0,56.0,338.08504248478255,36.44
1602831559.158,79.0,745.0,46.0,338.10149752834513,36.44
1602831559.16,79.0,745.0,39.0,338.1185205898746,36.44
1602831559.162,79.0,745.0,34.0,338.1360825402444,36.44
1602831559.164,79.0,745.0,36.0,338.154154250328,36.44
1602831559.1661,79.0,745.0,41.0,338.172706590999,36.44
1602831559.168,79.0,745.0,44.0,338.1917104331308,36.44
1602831559.17,79.0,745.0,54.0,338.2111366475969,36.44
1602831559.1721,79.0,745.0,66.0,338.2309561052708,36.44
1602831559.1741,79.0,745.0,61.0,338.25113967702606,36.44
1602831559.1761,79.0,745.0,61.0,338.2716582337361,36.44
1602831559.1781,79.0,745.0,66.0,338.29248264627444,36.44
1602831559.18,79.0,745.0,61.0,338.3135837855146,36.44
1602831559.1821,79.0,745.0,63.0,338.33493252233,36.44
1602831559.184,79.0,745.0,76.0,338.3564997275942,36.44
1602831559.186,79.0,745.0,78.0,338.3782562721807,36.44
1602831559.188,79.0,745.0,68.0,338.400173026963,36.44
1602831559.19,79.0,745.0,71.0,338.4222208628146,36.44
1602831559.192,79.0,745.0,73.0,338.4443706506089,36.44
1602831559.194,79.0,745.0,68.0,338.4665932612195,36.44
1602831559.196,79.0,745.0,78.0,338.4888595655198,36.44
1602831559.5922,79.0,745.0,83.0,338.51114043438344,36.44
1602831559.593,79.0,745.0,71.0,338.53340673868377,36.44
1602831559.5956,79.0,745.0,68.0,338.55562934929435,36.44
1602831559.5982,79.0,745.0,73.0,338.57777913708867,36.44
1602831559.6001,79.0,745.0,66.0,338.5998269729402,36.44
1602831559.6022,79.0,745.0,63.0,338.62174372772245,36.44
1602831559.6042,79.0,745.0,73.0,338.6435002723089,36.44
1602831559.6061,79.0,745.0,76.0,338.66506747757313,36.44
1602831559.6081,79.0,745.0,56.0,338.6864162143886,36.44
1602831559.6101,79.0,745.0,41.0,338.7075173536287,36.44
1602831559.6122,79.0,745.0,49.0,338.72834176616703,36.44
1602831559.6141,79.0,745.0,56.0,338.7488603228771,36.44
1602831559.6161,79.0,745.0,76.0,338.76904389463226,36.44
1602831559.6181,79.0,745.0,95.0,338.7888633523062,36.44
1602831559.6201,79.0,745.0,86.0,338.8082895667723,36.44
1602831559.622,79.0,745.0,68.0,338.8272934089041,36.44
1602831559.624,79.0,745.0,81.0,338.845845749575,36.44
1602831559.6264,79.0,745.0,88.0,338.86391745965864,36.44
1602831559.6281,79.0,745.0,73.0,338.8814794100284,36.44
1602831559.6301,79.0,745.0,61.0,338.8985024715579,36.44
1602831559.6321,79.0,745.0,61.0,338.9149575151205,36.44
1602831559.634,79.0,745.0,61.0,338.9308154115897,36.44
1602831559.6361,79.0,745.0,61.0,338.94604703183916,36.44
1602831559.638,79.0,745.0,66.0,338.96062324674216,36.44
1602831559.6401,79.0,745.0,66.0,338.9745149271724,36.44
1602831559.642,79.0,745.0,66.0,338.9876929440032,36.44
1602831559.6441,79.0,745.0,68.0,339.0001281681081,36.44
1602831559.646,79.0,745.0,132.0,339.01179147036066,36.44
1602831559.6482,79.0,745.0,346.0,339.0226537216343,36.44
1602831559.6501,79.0,745.0,550.0,339.0326857928026,36.44
1602831559.652,79.0,745.0,277.0,339.041858554739,36.44
1602831559.6541,79.0,745.0,-348.0,339.050142878317,36.44
1602831559.656,79.0,745.0,-454.0,339.05750963441005,36.44
1602831559.658,79.0,745.0,-31.0,339.06392969389174,36.44
1602831559.6601,79.0,745.0,110.0,339.06937392763547,36.44
1602831559.6621,79.0,745.0,12.0,339.07381320651484,36.44
1602831559.664,79.0,745.0,56.0,339.0772184014033,36.44
1602831559.666,79.0,745.0,105.0,339.0795603831742,36.44
1602831559.668,79.0,745.0,78.0,339.0808100227013,36.44
1602831559.67,79.0,745.0,88.0,339.0809381908579,36.44
1602831559.672,79.0,745.0,108.0,339.0799157585176,36.44
1602831559.674,79.0,745.0,95.0,339.07771359655385,36.44
1602831559.6761,79.0,745.0,95.0,339.0743025758401,36.44
1602831559.678,79.0,745.0,103.0,339.06965356724993,36.44
1602831559.68,79.0,745.0,100.0,339.06373744165677,36.44
1602831559.6821,79.0,745.0,100.0,339.0565250699342,36.44
1602831559.684,79.0,745.0,108.0,339.0479873229556,36.44
1602831559.686,79.0,745.0,113.0,339.03809507159457,36.44
1602831559.688,79.0,745.0,110.0,339.0268191867245,36.44
1602831559.69,79.0,745.0,110.0,339.01413053921897,36.44
1602831559.692,79.0,745.0,113.0,338.99999999995146,36.44
1602831559.6941,79.0,745.0,127.0,338.99999999995146,36.44
1602831559.696,79.0,745.0,149.0,338.99999999995146,36.44
1602831559.698,79.0,745.0,154.0,338.99999999995146,36.44
1602831559.7,79.0,745.0,149.0,338.99999999995146,36.44
1602831559.7021,79.0,745.0,154.0,338.99999999995146,36.44
1602831559.7041,79.0,745.0,169.0,338.99999999995146,36.44
1602831559.7061,79.0,745.0,179.0,338.99999999995146,36.44
1602831559.708,79.0,745.0,181.0,338.99999999995146,36.44
1602831559.7101,79.0,745.0,181.0,338.99999999995146,36.44
1602831559.712,79.0,745.0,181.0,338.99999999995146,36.44
1602831559.714,79.0,745.0,181.0,338.99999999995146,36.44
1602831559.716,79.0,745.0,172.0,338.99999999995146,36.44
1602831559.718,79.0,745.0,164.0,338.99999999995146,36.44
1602831559.72,79.0,745.0,167.0,338.99999999995146,36.44
1602831559.722,79.0,745.0,152.0,338.99999999995146,36.44
1602831559.724,79.0,745.0,122.0,338.99999999995146,36.44
1602831559.7262,79.0,745.0,108.0,338.99999999995146,36.44
1602831559.7282,79.0,745.0,93.0,338.99999999995146,36.44
1602831559.73,79.0,745.0,71.0,338.99999999995146,36.44
1602831559.732,79.0,745.0,49.0,338.99999999995146,36.44
1602831559.734,79.0,745.0,39.0,338.99999999995146,36.44
1602831559.736,79.0,745.0,36.0,338.99999999995146,36.44
1602831560.1622,80.0,738.0,39.0,338.99999999995146,36.44
1602831560.163,80.0,738.0,41.0,338.99999999995146,36.44
1602831560.1655,80.0,738.0,39.0,338.99999999995146,36.44
1602831560.1681,80.0,738.0,39.0,338.99999999995146,36.44
1602831560.1701,80.0,738.0,46.0,338.99999999995146,36.44
1602831560.1721,80.0,738.0,44.0,338.99999999995146,36.44
1602831560.1743,80.0,738.0,36.0,338.99999999995146,36.44
1602831560.1761,80.0,738.0,41.0,338.99999999995146,36.44
1602831560.1781,80.0,738.0,56.0,338.99999999995146,36.44
1602831560.1801,80.0,738.0,58.0,338.99999999995146,36.44
1602831560.1821,80.0,738.0,54.0,338.99999999995146,36.44
1602831560.184,80.0,738.0,54.0,338.99999999995146,36.44
1602831560.186,80.0,738.0,54.0,338.99999999995146,36.44
1602831560.1881,80.0,738.0,56.0,338.99999999995146,36.44
1602831560.1901,80.0,738.0,58.0,338.99999999995146,36.44
1602831560.192,80.0,738.0,56.0,338.99999999995146,36.44
1602831560.194,80.0,738.0,61.0,338.99999999995146,36.44
1602831560.196,80.0,738.0,76.0,338.99999999995146,36.44
1602831560.198,80.0,738.0,78.0,338.99999999995146,36.44
1602831560.2,80.0,738.0,71.0,338.99999999995146,36.44
1602831560.2021,80.0,738.0,68.0,338.99999999995146,36.44
1602831560.204,80.0,738.0,71.0,338.99999999995146,36.44
1602831560.2061,80.0,738.0,63.0,338.99999999995146,36.44
1602831560.2081,80.0,738.0,58.0,338.97173892141643,36.44
1602831560.21,80.0,738.0,63.0,338.9463616264054,36.44
1602831560.212,80.0,738.0,66.0,338.9238098566653,36.44
1602831560.214,80.0,738.0,66.0,338.9040253539432,36.44
1602831560.216,80.0,738.0,68.0,338.88694985998603,36.44
1602831560.218,80.0,738.0,66.0,338.8725251165408,36.44
1602831560.22,80.0,738.0,56.0,338.8606928653545,36.44
1602831560.2222,80.0,738.0,46.0,338.85139484817415,36.44
1602831560.224,80.0,738.0,54.0,338.8445728067467,36.44
1602831560.226,80.0,738.0,86.0,338.8401684828192,36.44
1602831560.228,80.0,738.0,113.0,338.8381236181385,36.44
1602831560.23,80.0,738.0,95.0,338.8383799544518,36.44
1602831560.2321,80.0,738.0,68.0,338.8408792335059,36.44
1602831560.234,80.0,738.0,78.0,338.8455631970479,36.44
1602831560.236,80.0,738.0,93.0,338.85237358682474,36.44
1602831560.2382,80.0,738.0,81.0,338.86125214458343,36.44
1602831560.24,80.0,738.0,66.0,338.87214061207095,36.44
1602831560.242,80.0,738.0,58.0,338.8849807310343,36.44
1602831560.244,80.0,738.0,56.0,338.89971424322044,36.44
1602831560.246,80.0,738.0,56.0,338.91628289037646,36.44
1602831560.248,80.0,738.0,56.0,338.93462841424923,36.44
1602831560.25,80.0,738.0,61.0,338.95469255658577,36.44
1602831560.252,80.0,738.0,66.0,338.9764170591331,36.44
1602831560.2543,80.0,738.0,56.0,338.99974366363824,36.44
1602831560.256,80.0,738.0,90.0,339.0246141118481,36.44
1602831560.258,80.0,738.0,287.0,339.0509701455097,36.44
1602831560.26,80.0,738.0,538.0,339.07875350637005,36.44
1602831560.262,80.0,738.0,380.0,339.1079059361761,36.44
1602831560.264,80.0,738.0,-235.0,339.1383691766749,36.44
1602831560.266,80.0,738.0,-491.0,339.17008496961347,36.44
1602831560.268,80.0,738.0,-120.0,339.20299505673864,36.44
1602831560.27,80.0,738.0,103.0,339.2370411797976,36.44
1602831560.272,80.0,738.0,24.0,339.27216508053715,36.44
1602831560.274,80.0,738.0,49.0,339.3083085007044,36.44
1602831560.276,80.0,738.0,103.0,339.34541318204634,36.44
1602831560.278,80.0,738.0,68.0,339.3834208663099,36.44
1602831560.28,80.0,738.0,58.0,339.42227329524206,36.44
1602831560.282,80.0,738.0,88.0,339.4619122105899,36.44
1602831560.284,80.0,738.0,95.0,339.5022793541004,36.44
1602831560.286,80.0,738.0,88.0,339.54331646752047,36.44
1602831560.2881,80.0,738.0,88.0,339.5849652925972,36.44
1602831560.29,80.0,738.0,93.0,339.62716757107745,36.44
1602831560.292,80.0,738.0,100.0,339.6698650447083,36.44
1602831560.294,80.0,738.0,105.0,339.7129994552367,36.44
