Time,ECG
1607178022.4808,50
1607178022.4836,165
1607178022.4862,1126
1607178022.4888,3216
1607178022.4910,5028
1607178022.4936,5907
1607178022.4959,6770
1607178022.4981,7721
1607178022.5002,8347
1607178022.5022,8853
1607178022.5036,9385
1607178022.5056,9792
1607178022.5076,10113
1607178022.5097,10444
1607178022.5117,10736
1607178022.5136,10952
1607178022.5156,11151
1607178022.5176,11336
1607178022.5196,11494
1607178022.5217,11616
1607178022.5236,11722
1607178022.5256,11837
1607178022.5276,11944
1607178022.5296,12019
1607178022.5317,12076
1607178022.5336,12139
1607178022.5356,12189
1607178022.5376,12201
1607178022.5396,12191
1607178022.5415,12201
1607178022.5435,12227
1607178022.5455,12249
1607178022.5475,12251
1607178022.5495,12242
1607178022.5516,12239
1607178022.5535,12230
1607178022.5555,12201
1607178022.5575,12170
1607178022.5596,12059
1607178022.5616,11834
1607178022.5635,11882
1607178022.5655,12563
1607178022.5676,13636
1607178022.5695,14300
1607178022.5716,13517
1607178022.5735,11853
1607178022.5755,11288
1607178022.5775,11690
1607178022.5796,11638
1607178022.5816,11396
1607178022.5838,11470
1607178022.5855,11479
1607178022.5875,11381
1607178022.5895,11355
1607178022.5915,11307
1607178022.5935,11233
1607178022.5955,11206
1607178022.5975,11165
1607178022.5995,11086
1607178022.6015,11034
1607178022.6035,11000
1607178022.6055,10952
1607178022.6075,10885
1607178022.6095,10823
1607178022.6115,10782
1607178022.6135,10736
1607178022.6155,10689
1607178022.6175,10660
1607178022.6195,10626
1607178022.6215,10571
1607178022.6235,10538
1607178022.6255,10530
1607178022.6275,10516
1607178022.9897,10473
1607178022.9907,10420
1607178022.9931,10363
1607178022.9958,10286
1607178022.9978,10173
1607178022.9998,10017
1607178023.0018,9843
1607178023.0038,9670
1607178023.0058,9502
1607178023.0078,9344
1607178023.0098,9212
1607178023.0118,9112
1607178023.0137,9011
1607178023.0157,8908
1607178023.0178,8853
1607178023.0197,8810
1607178023.0218,8704
1607178023.0237,8611
1607178023.0257,8568
1607178023.0277,8508
1607178023.0297,8409
1607178023.0317,8323
1607178023.0337,8263
1607178023.0357,8194
1607178023.0377,8115
1607178023.0397,8047
1607178023.0417,7983
1607178023.0437,7913
1607178023.0459,7839
1607178023.0477,7762
1607178023.0497,7700
1607178023.0517,7633
1607178023.0537,7542
1607178023.0557,7477
1607178023.0577,7436
1607178023.0597,7350
1607178023.0617,7249
1607178023.0637,7180
1607178023.0657,7120
1607178023.0676,7053
1607178023.0697,6983
1607178023.0717,6911
1607178023.0737,6844
1607178023.0757,6784
1607178023.0776,6722
1607178023.0796,6650
1607178023.0817,6590
1607178023.0837,6547
1607178023.0857,6499
1607178023.0876,6427
1607178023.0897,6339
1607178023.0917,6276
1607178023.0938,6238
1607178023.0958,6171
1607178023.0977,6082
1607178023.0997,6015
1607178023.1018,5965
1607178023.1036,5895
1607178023.1057,5828
1607178023.1077,5773
1607178023.1097,5706
1607178023.1117,5644
1607178023.1137,5596
1607178023.1157,5541
1607178023.1177,5476
1607178023.1197,5330
1607178023.1217,5056
1607178023.1237,5004
1607178023.1256,5644
1607178023.1277,6854
1607178023.1297,7630
1607178023.1317,6691
1607178023.1337,4795
1607178023.5300,4294
1607178023.5309,4858
1607178023.5333,4754
1607178023.5360,4464
1607178023.5380,4601
1607178023.5400,4618
1607178023.5422,4476
1607178023.5440,4476
1607178023.5459,4491
1607178023.5480,4407
1607178023.5500,4328
1607178023.5520,4318
1607178023.5540,4299
1607178023.5560,4258
1607178023.5580,4234
1607178023.5600,4201
1607178023.5620,4165
1607178023.5639,4148
1607178023.5659,4134
1607178023.5679,4119
1607178023.5699,4105
1607178023.5720,4081
1607178023.5740,4071
1607178023.5759,4095
1607178023.5779,4119
1607178023.5800,4124
1607178023.5820,4139
1607178023.5840,4160
1607178023.5859,4158
1607178023.5881,4129
1607178023.5900,4071
1607178023.5919,3983
1607178023.5939,3851
1607178023.5959,3678
1607178023.5979,3503
1607178023.5999,3355
1607178023.6019,3240
1607178023.6039,3156
1607178023.6059,3084
1607178023.6079,3019
1607178023.6099,2981
1607178023.6119,2952
1607178023.6139,2914
1607178023.6159,2883
1607178023.6179,2861
1607178023.6199,2830
1607178023.6220,2813
1607178023.6239,2799
1607178023.6259,2763
1607178023.6279,2729
1607178023.6300,2715
1607178023.6320,2693
1607178023.6339,2653
1607178023.6359,2621
1607178023.6379,2612
1607178023.6399,2597
1607178023.6419,2554
1607178023.6441,2528
1607178023.6460,2521
1607178023.6479,2485
1607178023.6499,2444
1607178023.6519,2418
1607178023.6539,2379
1607178023.6559,2339
1607178023.6579,2322
1607178023.6599,2307
1607178023.6619,2276
1607178023.6639,2250
1607178023.6659,2236
1607178023.6679,2233
1607178023.6699,2233
1607178023.6720,2212
1607178023.6739,2164
1607178024.0993,2135
1607178024.1003,2121
1607178024.1029,2089
1607178024.1054,2049
1607178024.1074,2010
1607178024.1094,1984
1607178024.1115,1967
1607178024.1134,1938
1607178024.1153,1914
1607178024.1173,1912
1607178024.1193,1893
1607178024.1214,1864
1607178024.1233,1847
1607178024.1253,1826
1607178024.1273,1715
1607178024.1293,1464
1607178024.1314,1416
1607178024.1333,2073
1607178024.1353,3352
1607178024.1373,4321
1607178024.1393,3563
1607178024.1414,1576
1607178024.1433,893
1607178024.1453,1505
1607178024.1473,1507
1607178024.1493,1215
1607178024.1513,1378
1607178024.1533,1459
1607178024.1553,1346
1607178024.1573,1363
1607178024.1593,1404
1607178024.1613,1368
1607178024.1633,1368
1607178024.1653,1394
1607178024.1673,1378
1607178024.1695,1361
1607178024.1714,1373
1607178024.1733,1382
1607178024.1753,1382
1607178024.1773,1392
1607178024.1793,1392
1607178024.1813,1390
1607178024.1833,1414
1607178024.1853,1435
1607178024.1873,1454
1607178024.1893,1495
1607178024.1913,1543
1607178024.1933,1586
1607178024.1953,1627
1607178024.1973,1663
1607178024.1993,1689
1607178024.2013,1699
1607178024.2033,1682
1607178024.2053,1610
1607178024.2073,1476
1607178024.2093,1332
1607178024.2113,1212
1607178024.2133,1107
1607178024.2153,1025
1607178024.2173,968
1607178024.2193,920
1607178024.2213,891
1607178024.2233,886
1607178024.2253,877
1607178024.2273,874
1607178024.2293,881
1607178024.2313,874
1607178024.2333,853
1607178024.2353,855
1607178024.2373,862
1607178024.2393,855
1607178024.2412,853
1607178024.2433,848
1607178024.6995,838
1607178024.7003,841
1607178024.7027,836
1607178024.7053,826
1607178024.7073,834
1607178024.7093,838
1607178024.7114,819
1607178024.7134,802
1607178024.7153,802
1607178024.7173,795
1607178024.7193,764
1607178024.7213,750
1607178024.7233,757
1607178024.7255,752
1607178024.7273,745
1607178024.7293,742
1607178024.7312,735
1607178024.7332,718
1607178024.7353,702
1607178024.7372,697
1607178024.7392,704
1607178024.7413,718
1607178024.7433,733
1607178024.7454,723
1607178024.7473,704
1607178024.7492,711
1607178024.7513,721
1607178024.7532,695
1607178024.7552,654
1607178024.7572,651
1607178024.7593,671
1607178024.7614,663
1607178024.7634,642
1607178024.7653,639
1607178024.7672,647
1607178024.7693,639
1607178024.7713,632
1607178024.7734,627
1607178024.7752,568
1607178024.7772,371
1607178024.7792,280
1607178024.7813,774
1607178024.7833,1905
1607178024.7852,2995
1607178024.7872,2751
1607178024.7893,992
1607178024.7913,-107
1607178024.7932,311
1607178024.7953,524
1607178024.7972,227
1607178024.7992,287
1607178024.8013,421
1607178024.8032,352
1607178024.8052,352
1607178024.8073,414
1607178024.8092,405
1607178024.8112,397
1607178024.8133,426
1607178024.8152,431
1607178024.8172,426
1607178024.8193,443
1607178024.8213,464
1607178024.8232,479
1607178024.8253,488
1607178024.8274,500
1607178024.8293,524
1607178024.8313,544
1607178024.8332,563
1607178024.8352,603
1607178024.8372,659
1607178024.8393,690
1607178024.8412,718
1607178024.8433,778
1607178025.2095,831
1607178025.2103,855
1607178025.2117,872
1607178025.2134,877
1607178025.2154,834
1607178025.2174,738
1607178025.2194,620
1607178025.2214,520
1607178025.2234,433
1607178025.2254,354
1607178025.2275,299
1607178025.2294,258
1607178025.2314,222
1607178025.2334,220
1607178025.2354,239
1607178025.2374,239
1607178025.2394,234
1607178025.2414,246
1607178025.2434,254
1607178025.2454,251
1607178025.2474,258
1607178025.2494,261
1607178025.2513,263
1607178025.2534,275
1607178025.2554,280
1607178025.2575,261
1607178025.2594,254
1607178025.2615,263
1607178025.2634,268
1607178025.2654,270
1607178025.2673,278
1607178025.2694,275
1607178025.2714,273
1607178025.2734,280
1607178025.2754,280
1607178025.2775,275
1607178025.2794,268
1607178025.2814,261
1607178025.2835,266
1607178025.2855,266
1607178025.2875,261
1607178025.2895,266
1607178025.2918,278
1607178025.2935,297
1607178025.2954,309
1607178025.2975,306
1607178025.2994,301
1607178025.3014,294
1607178025.3034,287
1607178025.3055,280
1607178025.3074,266
1607178025.3094,254
1607178025.3114,258
1607178025.3134,268
1607178025.3154,275
1607178025.3174,268
1607178025.3193,258
1607178025.3214,273
1607178025.3233,282
1607178025.3254,263
1607178025.3274,162
1607178025.3294,-19
1607178025.3314,74
1607178025.3333,805
1607178025.3353,1943
1607178025.3373,2571
1607178025.3393,1687
1607178025.3414,115
1607178025.3434,-268
1607178025.3453,148
1607178025.3474,93
1607178025.3493,-52
1607178025.3514,81
1607178025.8103,119
1607178025.8106,67
1607178025.8119,95
1607178025.8140,117
1607178025.8159,103
1607178025.8180,131
1607178025.8198,165
1607178025.8218,167
1607178025.8238,170
1607178025.8258,184
1607178025.8278,191
1607178025.8298,203
1607178025.8319,220
1607178025.8341,237
1607178025.8358,278
1607178025.8378,321
1607178025.8398,342
1607178025.8418,371
1607178025.8438,417
1607178025.8458,467
1607178025.8482,515
1607178025.8499,551
1607178025.8518,589
1607178025.8538,623
1607178025.8558,630
1607178025.8578,623
1607178025.8598,577
1607178025.8618,462
1607178025.8640,349
1607178025.8659,273
1607178025.8678,194
1607178025.8699,127
1607178025.8718,88
1607178025.8738,67
1607178025.8754,59
1607178025.8770,71
1607178025.8788,74
1607178025.8809,67
1607178025.8829,74
1607178025.8848,91
1607178025.8868,88
1607178025.8888,93
1607178025.8908,117
1607178025.8928,119
1607178025.8948,105
1607178025.8974,110
1607178025.8990,124
1607178025.9009,127
1607178025.9028,119
1607178025.9048,124
1607178025.9068,134
1607178025.9088,134
1607178025.9108,131
1607178025.9128,136
1607178025.9149,150
1607178025.9169,162
1607178025.9188,141
1607178025.9210,127
1607178025.9228,150
1607178025.9248,162
1607178025.9268,153
1607178025.9288,150
1607178025.9310,148
1607178025.9330,146
1607178025.9348,139
1607178025.9368,155
1607178025.9388,194
1607178025.9408,213
1607178025.9428,201
1607178025.9448,191
1607178025.9473,179
1607178025.9491,153
1607178025.9509,148
1607178026.4370,172
1607178026.4377,182
1607178026.4390,172
1607178026.4411,172
1607178026.4430,172
1607178026.4450,165
1607178026.4471,165
1607178026.4492,174
1607178026.4510,160
1607178026.4530,38
1607178026.4550,-153
1607178026.4570,2
1607178026.4590,848
1607178026.4610,2068
1607178026.4630,2564
1607178026.4651,1332
1607178026.4671,-318
1607178026.4690,-376
1607178026.4710,155
1607178026.4730,-26
1607178026.4751,-146
1607178026.4770,57
1607178026.4790,52
1607178026.4811,-21
1607178026.4830,55
1607178026.4850,98
1607178026.4870,50
1607178026.4890,45
1607178026.4911,88
1607178026.4931,115
1607178026.4950,134
1607178026.4986,153
1607178026.5000,146
1607178026.5020,162
1607178026.5040,213
1607178026.5061,225
1607178026.5080,210
1607178026.5100,249
1607178026.5120,311
1607178026.5143,354
1607178026.5162,405
1607178026.5180,469
1607178026.5200,527
1607178026.5220,579
1607178026.5240,630
1607178026.5260,663
1607178026.5280,654
1607178026.5300,608
1607178026.5320,546
1607178026.5341,438
1607178026.5360,299
1607178026.5382,182
1607178026.5400,103
1607178026.5420,40
1607178026.5440,-2
1607178026.5460,-28
1607178026.5483,-52
1607178026.5501,-55
1607178026.5521,-50
1607178026.5540,-67
1607178026.5560,-62
1607178026.5580,-19
1607178026.5600,-2
1607178026.5620,-14
1607178026.5644,-11
1607178026.5661,14
1607178026.5680,23
1607178026.5700,16
1607178026.5720,19
1607178026.5740,31
1607178026.5760,35
1607178026.5780,40
1607178026.5800,57
1607178026.9193,62
1607178026.9202,57
1607178026.9227,62
1607178026.9253,76
1607178026.9273,67
1607178026.9293,38
1607178026.9313,40
1607178026.9333,59
1607178026.9353,50
1607178026.9373,52
1607178026.9393,71
1607178026.9413,83
1607178026.9433,93
1607178026.9453,105
1607178026.9474,103
1607178026.9495,79
1607178026.9513,74
1607178026.9533,79
1607178026.9553,62
1607178026.9573,57
1607178026.9579,83
1607178026.9593,91
1607178026.9613,74
1607178026.9633,67
1607178026.9655,79
1607178026.9674,98
1607178026.9693,107
1607178026.9716,35
1607178026.9733,-186
1607178026.9754,-268
1607178026.9775,313
1607178026.9793,1557
1607178026.9834,2624
1607178026.9854,2092
1607178026.9874,172
1607178026.9893,-656
1607178026.9902,-55
1607178026.9916,33
1607178026.9933,-268
1607178026.9953,-105
1607178026.9973,21
1607178026.9993,-76
1607178027.0014,-57
1607178027.0033,19
1607178027.0053,16
1607178027.0075,-2
1607178027.0093,7
1607178027.0115,45
1607178027.0133,71
1607178027.0153,57
1607178027.0175,57
1607178027.0193,93
1607178027.0202,119
1607178027.0215,139
1607178027.0233,170
1607178027.0253,194
1607178027.0274,225
1607178027.0293,275
1607178027.0315,333
1607178027.0333,369
1607178027.0353,402
1607178027.0373,467
1607178027.0394,529
1607178027.0414,558
1607178027.0433,572
1607178027.0453,558
1607178027.0473,488
1607178027.0493,373
1607178027.0501,249
1607178027.0514,146
1607178027.0533,64
1607178027.0553,-9
1607178027.0573,-76
1607178027.4595,-103
1607178027.4604,-98
1607178027.4614,-93
1607178027.4634,-93
1607178027.4658,-88
1607178027.4676,-76
1607178027.4694,-69
1607178027.4715,-67
1607178027.4734,-55
1607178027.4742,-47
1607178027.4753,-59
1607178027.4774,-52
1607178027.4794,-28
1607178027.4815,-26
1607178027.4836,-23
1607178027.4856,-7
1607178027.4876,0
1607178027.4895,4
1607178027.4915,19
1607178027.4943,21
1607178027.4960,14
1607178027.4976,26
1607178027.5014,26
1607178027.5027,16
1607178027.5045,19
1607178027.5061,23
1607178027.5075,21
1607178027.5095,31
1607178027.5119,33
1607178027.5159,35
1607178027.5188,59
1607178027.5225,88
1607178027.5245,88
1607178027.5266,86
1607178027.5285,86
1607178027.5312,71
1607178027.5344,52
1607178027.5361,35
1607178027.5375,33
1607178027.5395,57
1607178027.5408,69
1607178027.5426,62
1607178027.5445,64
1607178027.5465,57
1607178027.5486,52
1607178027.5506,62
1607178027.5529,-7
1607178027.5545,-225
1607178027.5565,-270
1607178027.5585,342
1607178027.5607,1560
1607178027.5625,2578
1607178027.5645,2085
1607178027.5665,244
1607178027.5685,-632
1607178027.5705,-124
1607178027.5736,-7
1607178027.5777,-278
1607178027.5804,-139
1607178027.5826,-14
1607178027.5845,-107
1607178027.5865,-98
1607178027.5887,-28
1607178027.5905,-33
1607178027.5925,-38
1607178027.5945,-4
1607178027.5965,16
1607178027.5985,26
1607178027.6005,40
1607178027.6025,67
1607178027.6045,79
1607178027.6065,74
1607178027.6081,88
1607178028.0315,131
1607178028.0346,167
1607178028.0371,189
1607178028.0399,227
1607178028.0422,278
1607178028.0443,318
1607178028.0463,349
1607178028.0483,405
1607178028.0503,469
1607178028.0526,498
1607178028.0553,500
1607178028.0580,486
1607178028.0611,426
1607178028.0628,325
1607178028.0643,210
1607178028.0663,103
1607178028.0683,16
1607178028.0703,-35
1607178028.0726,-69
1607178028.0754,-95
1607178028.0778,-107
1607178028.0808,-98
1607178028.0828,-88
1607178028.0843,-95
1607178028.0863,-103
1607178028.0884,-88
1607178028.0903,-71
1607178028.0923,-59
1607178028.0943,-50
1607178028.0958,-45
1607178028.0972,-38
1607178028.0994,-35
1607178028.1017,-43
1607178028.1036,-50
1607178028.1060,-47
1607178028.1080,-40
1607178028.1098,-33
1607178028.1114,-26
1607178028.1133,-19
1607178028.1153,-7
1607178028.1173,-7
1607178028.1194,-21
1607178028.1213,-23
1607178028.1233,-9
1607178028.1255,-4
1607178028.1268,-14
1607178028.1283,-14
1607178028.1304,0
1607178028.1323,21
1607178028.1343,45
1607178028.1363,55
1607178028.1383,55
1607178028.1403,62
1607178028.1427,47
1607178028.1452,16
1607178028.1478,9
1607178028.1505,16
1607178028.1525,16
1607178028.1543,28
1607178028.1563,35
1607178028.1584,31
1607178028.1600,33
1607178028.1614,40
1607178028.1633,40
1607178028.1656,45
1607178028.1673,2
1607178028.1695,-184
1607178028.1714,-289
1607178028.1733,162
1607178028.1753,1239
1607178028.1773,2298
1607178028.1794,2142
1607178028.1813,558
1607178028.5716,-541
1607178028.5736,-234
1607178028.5760,0
1607178028.5774,-246
1607178028.5794,-206
1607178028.5808,-69
1607178028.5829,-124
1607178028.5848,-127
1607178028.5867,-64
1607178028.5886,-71
1607178028.5905,-76
1607178028.5926,-35
1607178028.5949,-11
1607178028.5975,-11
1607178028.5995,7
1607178028.6016,28
1607178028.6035,38
1607178028.6055,59
1607178028.6075,79
1607178028.6100,88
1607178028.6118,122
1607178028.6145,160
1607178028.6166,182
1607178028.6187,220
1607178028.6221,273
1607178028.6236,330
1607178028.6255,385
1607178028.6276,409
1607178028.6296,414
1607178028.6342,436
1607178028.6355,445
1607178028.6375,395
1607178028.6395,309
1607178028.6415,210
1607178028.6435,112
1607178028.6455,35
1607178028.6476,-28
1607178028.6496,-81
1607178028.6516,-100
1607178028.6536,-103
1607178028.6555,-105
1607178028.6575,-91
1607178028.6595,-81
1607178028.6615,-86
1607178028.6638,-67
1607178028.6671,-38
1607178028.6689,-52
1607178028.6705,-69
1607178028.6725,-45
1607178028.6745,-21
1607178028.6766,-28
1607178028.6785,-40
1607178028.6807,-28
1607178028.6826,-16
1607178028.6847,-16
1607178028.6866,-7
1607178028.6885,7
1607178028.6905,-7
1607178028.6926,-21
1607178028.6945,9
1607178028.6965,28
1607178028.6986,16
1607178028.7019,16
1607178028.7040,23
1607178028.7055,14
1607178028.7077,9
1607178028.7095,16
1607178028.7115,35
1607178028.7137,55
1607178028.7156,55
1607178028.7176,59
1607178028.7198,83
1607178028.7215,93
1607178029.2777,71
1607178029.2781,43
1607178029.2819,38
1607178029.2834,45
1607178029.2852,43
1607178029.2872,43
1607178029.2893,52
1607178029.2912,64
1607178029.2934,55
1607178029.2952,47
1607178029.2974,59
1607178029.2994,19
1607178029.3015,-160
1607178029.3032,-266
1607178029.3052,160
1607178029.3072,1200
1607178029.3092,2274
1607178029.3156,2166
1607178029.3253,558
1607178029.3273,-570
1607178029.3292,-227
1607178029.3314,19
1607178029.3339,-232
1607178029.3354,-182
1607178029.3374,-40
1607178029.3393,-93
1607178029.3412,-103
1607178029.3433,-40
1607178029.3452,-40
1607178029.3475,-47
1607178029.3493,-7
1607178029.3514,26
1607178029.3533,31
1607178029.3553,45
1607178029.3572,71
1607178029.3593,79
1607178029.3613,83
1607178029.3632,110
1607178029.3654,139
1607178029.3675,165
1607178029.3693,206
1607178029.3715,254
1607178029.3733,292
1607178029.3753,337
1607178029.3773,405
1607178029.3793,469
1607178029.3814,515
1607178029.3838,546
1607178029.3854,556
1607178029.3873,524
1607178029.3893,479
1607178029.3913,397
1607178029.3933,275
1607178029.3953,158
1607178029.3974,69
1607178029.3996,-9
1607178029.4013,-76
1607178029.4033,-103
1607178029.4053,-95
1607178029.4073,-100
1607178029.4093,-107
1607178029.4114,-95
1607178029.4133,-98
1607178029.4171,-107
1607178029.4183,-83
1607178029.4245,-71
1607178029.4264,-79
1607178029.4733,-71
1607178029.4906,-52
1607178029.4926,-38
1607178029.4935,-28
1607178029.4955,-33
1607178029.4977,-38
1607178029.7375,-23
1607178029.7380,-16
1607178029.7396,-14
1607178029.7422,4
1607178029.7546,16
1607178029.7576,0
1607178029.7585,-11
1607178029.7606,0
1607178029.7625,-4
1607178029.7645,-23
1607178029.7665,-9
1607178029.7686,19
1607178029.7705,21
1607178029.7725,19
1607178029.7745,33
1607178029.7765,40
1607178029.7785,28
1607178029.7806,9
1607178029.7826,9
1607178029.7846,28
1607178029.7865,31
1607178029.7885,19
1607178029.7905,11
1607178029.7925,9
1607178029.7945,23
1607178029.7965,40
1607178029.7985,40
1607178029.8005,28
1607178029.8025,-79
1607178029.8045,-309
1607178029.8065,-242
1607178029.8085,579
1607178029.8105,1929
1607178029.8125,2679
1607178029.8145,1533
1607178029.8165,-400
1607178029.8185,-647
1607178029.8205,35
1607178029.8225,-100
1607178029.8245,-304
1607178029.8266,-81
1607178029.8285,-59
1607178029.8306,-143
1607178029.8325,-55
1607178029.8345,-2
1607178029.8365,-45
1607178029.8386,-38
1607178029.8405,0
1607178029.8425,11
1607178029.8445,21
1607178029.8465,40
1607178029.8485,64
1607178029.8505,81
1607178029.8526,93
1607178029.8546,129
1607178029.8566,174
1607178029.8586,191
1607178029.8606,206
1607178029.8626,254
1607178029.8646,323
1607178029.8666,395
1607178029.8686,455
1607178029.8706,500
1607178029.8726,544
1607178029.8746,572
1607178029.8766,572
1607178029.8787,522
1607178029.8806,428
1607178029.8826,304
1607178029.8846,167
1607178029.8868,45
1607178029.8886,-38
1607178029.8906,-88
1607178030.3642,-124
1607178030.3649,-148
1607178030.3773,-150
1607178030.3793,-155
1607178030.3813,-167
1607178030.3832,-155
1607178030.3852,-141
1607178030.3872,-165
1607178030.3892,-170
1607178030.3913,-134
1607178030.3933,-119
1607178030.3953,-122
1607178030.3973,-105
1607178030.3993,-83
1607178030.4014,-81
1607178030.4033,-74
1607178030.4053,-52
1607178030.4073,-35
1607178030.4093,-45
1607178030.4114,-64
1607178030.4134,-52
1607178030.4153,-31
1607178030.4173,-38
1607178030.4193,-47
1607178030.4214,-52
1607178030.4233,-52
1607178030.4254,-38
1607178030.4273,-19
1607178030.4293,-4
1607178030.4314,4
1607178030.4333,9
1607178030.4353,4
1607178030.4373,0
1607178030.4393,-7
1607178030.4413,-11
1607178030.4434,-2
1607178030.4453,2
1607178030.4474,-19
1607178030.4493,-26
1607178030.4514,-9
1607178030.4533,0
1607178030.4554,9
1607178030.4573,19
1607178030.4593,-40
1607178030.4614,-246
1607178030.4633,-366
1607178030.4653,91
1607178030.4673,1248
1607178030.4696,2478
1607178030.4715,2365
1607178030.4735,534
1607178030.4755,-730
1607178030.4774,-285
1607178030.4794,11
1607178030.4815,-306
1607178030.4834,-256
1607178030.4855,-100
1607178030.4874,-172
1607178030.4894,-167
1607178030.4916,-95
1607178030.4936,-100
1607178030.4955,-91
1607178030.4975,-57
1607178030.4995,-45
1607178030.5015,-26
1607178030.5035,0
1607178030.5054,-4
1607178030.5075,-4
1607178030.5095,31
1607178030.5115,55
1607178030.5137,71
1607178030.5154,117
1607178030.5174,155
1607178030.8509,177
1607178030.8534,213
1607178030.8561,280
1607178030.8590,342
1607178030.8612,385
1607178030.8626,428
1607178030.8644,469
1607178030.8664,484
1607178030.8686,467
1607178030.8704,405
1607178030.8727,306
1607178030.8757,184
1607178030.8782,62
1607178030.8805,-23
1607178030.8824,-67
1607178030.8844,-110
1607178030.8864,-148
1607178030.8884,-162
1607178030.8904,-162
1607178030.8927,-160
1607178030.8949,-139
1607178030.8973,-124
1607178030.8994,-129
1607178030.9016,-134
1607178030.9034,-127
1607178030.9054,-117
1607178030.9078,-107
1607178030.9094,-100
1607178030.9114,-91
1607178030.9134,-83
1607178030.9154,-86
1607178030.9174,-86
1607178030.9194,-69
1607178030.9216,-52
1607178030.9238,-64
1607178030.9261,-76
1607178030.9283,-59
1607178030.9308,-40
1607178030.9326,-43
1607178030.9344,-45
1607178030.9364,-35
1607178030.9384,-23
1607178030.9404,-23
1607178030.9424,-26
1607178030.9444,-9
1607178030.9464,7
1607178030.9484,11
1607178030.9506,2
1607178030.9524,-19
1607178030.9544,-28
1607178030.9564,-23
1607178030.9584,-14
1607178030.9606,-7
1607178030.9627,-9
1607178030.9679,-16
1607178030.9702,-11
1607178030.9721,0
1607178030.9734,-2
1607178030.9755,-35
1607178030.9774,-191
1607178030.9794,-342
1607178030.9814,-11
1607178030.9834,1001
1607178030.9854,2188
1607178030.9874,2336
1607178030.9895,824
1607178030.9914,-579
1607178030.9935,-400
1607178030.9955,-19
1607178030.9974,-246
1607178030.9994,-263
1607178031.0017,-112
1607178031.0043,-165
1607178031.3956,-179
1607178031.3963,-93
1607178031.3993,-95
1607178031.4076,-117
1607178031.4095,-71
1607178031.4114,-40
1607178031.4133,-45
1607178031.4153,-33
1607178031.4174,-7
1607178031.4193,2
1607178031.4213,0
1607178031.4233,16
1607178031.4255,55
1607178031.4275,81
1607178031.4293,100
1607178031.4313,143
1607178031.4333,201
1607178031.4354,249
1607178031.4423,287
1607178031.4443,337
1607178031.4463,388
1607178031.4483,402
1607178031.4503,414
1607178031.4523,424
1607178031.4543,378
1607178031.4576,282
1607178031.4586,179
1607178031.4603,83
1607178031.4623,-4
1607178031.4688,-62
1607178031.4696,-88
1607178031.4713,-117
1607178031.4733,-141
1607178031.4752,-129
1607178031.4778,-105
1607178031.4792,-103
1607178031.4820,-100
1607178031.5182,-86
1607178031.5202,-91
1607178031.5225,-100
1607178031.5319,-91
1607178031.5332,-79
1607178031.5352,-81
1607178031.5385,-81
1607178031.5402,-81
1607178031.5421,-79
1607178031.5441,-69
1607178031.5461,-62
1607178031.5483,-57
1607178031.5502,-45
1607178031.5522,-52
1607178031.5541,-57
1607178031.5562,-40
1607178031.5582,-31
1607178031.5601,-43
1607178031.5624,-57
1607178031.5643,-45
1607178031.5664,-16
1607178031.5682,-7
1607178031.5702,-9
1607178031.5722,7
1607178031.5742,21
1607178031.5763,14
1607178031.5782,4
1607178031.5802,-4
1607178031.5824,-9
1607178031.5842,-4
1607178031.5862,2
1607178031.5882,2
1607178031.5902,4
1607178031.5922,9
1607178031.5942,16
1607178031.5962,26
1607178031.9300,7
1607178031.9322,-134
1607178031.9347,-304
1607178031.9373,-62
1607178031.9393,834
1607178031.9413,1965
1607178031.9434,2267
1607178031.9453,1020
1607178031.9476,-400
1607178031.9493,-414
1607178031.9516,-31
1607178031.9533,-198
1607178031.9553,-254
1607178031.9577,-95
1607178031.9593,-112
1607178031.9615,-155
1607178031.9633,-100
1607178031.9653,-71
1607178031.9866,-76
1607178031.9884,-47
1607178031.9904,-16
1607178031.9924,-14
1607178031.9943,-19
1607178031.9957,9
1607178031.9976,43
1607178031.9993,50
1607178032.0015,69
1607178032.0035,107
1607178032.0053,129
1607178032.0064,146
1607178032.0085,194
1607178032.0104,249
1607178032.0124,289
1607178032.0142,318
1607178032.0153,364
1607178032.0174,417
1607178032.0200,445
1607178032.0214,450
1607178032.0221,445
1607178032.0244,414
1607178032.0263,345
1607178032.0283,237
1607178032.0304,119
1607178032.0323,38
1607178032.0343,-9
1607178032.0363,-55
1607178032.0383,-98
1607178032.0403,-110
1607178032.0423,-105
1607178032.0443,-105
1607178032.0463,-100
1607178032.0483,-88
1607178032.0503,-76
1607178032.0523,-71
1607178032.0543,-74
1607178032.0563,-86
1607178032.0583,-81
1607178032.0603,-59
1607178032.0623,-52
1607178032.0643,-57
1607178032.0663,-45
1607178032.0683,-40
1607178032.0703,-57
1607178032.0723,-52
1607178032.0743,-33
1607178032.0763,-26
1607178032.0783,-26
1607178032.0804,-28
1607178032.0823,-38
1607178032.0843,-26
1607178032.0864,-11
1607178032.0883,-9
1607178032.0903,2
1607178032.5299,19
1607178032.5314,21
1607178032.5338,16
1607178032.5364,4
1607178032.5384,-11
1607178032.5404,-19
1607178032.5426,-11
1607178032.5445,4
1607178032.5465,4
1607178032.5485,-11
1607178032.5504,-11
1607178032.5528,7
1607178032.5545,19
1607178032.5564,19
1607178032.5584,9
1607178032.5604,-79
1607178032.5626,-292
1607178032.5646,-285
1607178032.5668,409
1607178032.5686,1658
1607178032.5706,2504
1607178032.5726,1639
1607178032.5746,-213
1607178032.5766,-642
1607178032.5786,-2
1607178032.5811,-74
1607178032.5826,-330
1607178032.5846,-136
1607178032.5868,-79
1607178032.5886,-170
1607178032.5906,-98
1607178032.5926,-28
1607178032.5946,-59
1607178032.5966,-50
1607178032.5986,2
1607178032.6006,16
1607178032.6026,-4
1607178032.6045,-2
1607178032.6066,28
1607178032.6086,69
1607178032.6106,100
1607178032.6126,95
1607178032.6146,103
1607178032.6168,155
1607178032.6186,206
1607178032.6206,242
1607178032.6228,297
1607178032.6246,361
1607178032.6286,419
1607178032.6311,464
1607178032.6329,503
1607178032.6674,532
1607178032.6690,527
1607178032.6786,486
1607178032.6814,402
1607178032.6839,270
1607178032.6869,127
1607178032.6891,28
1607178032.6918,-33
1607178032.6936,-79
1607178032.6956,-115
1607178032.6977,-143
1607178032.7002,-146
1607178032.7018,-131
1607178032.7036,-131
1607178032.7056,-131
1607178032.7076,-134
1607178032.7095,-139
1607178032.7116,-127
1607178032.7136,-105
1607178032.7157,-93
1607178032.7178,-86
1607178032.7196,-74
1607178033.1007,-59
1607178033.1035,-45
1607178033.1061,-40
1607178033.1089,-52
1607178033.1112,-71
1607178033.1125,-64
1607178033.1148,-45
1607178033.1164,-50
1607178033.1184,-64
1607178033.1204,-62
1607178033.1230,-55
1607178033.1263,-50
1607178033.1287,-28
1607178033.1311,-21
1607178033.1327,-45
1607178033.1344,-45
1607178033.1366,-9
1607178033.1384,-19
1607178033.1404,-57
1607178033.1425,-52
1607178033.1445,-26
1607178033.1465,-31
1607178033.1484,-45
1607178033.1505,-33
1607178033.1581,-28
1607178033.1595,-33
1607178033.1618,-14
1607178033.1643,0
1607178033.1666,-74
1607178033.1688,-292
1607178033.1709,-388
1607178033.1726,160
1607178033.1744,1390
1607178033.1764,2526
1607178033.1784,2125
1607178033.1805,182
1607178033.1824,-800
1607178033.1844,-210
1607178033.1867,-38
1607178033.1880,-352
1607178033.1899,-220
1607178033.1915,-86
1607178033.1935,-184
1607178033.1955,-177
1607178033.1975,-105
1607178033.1995,-103
1607178033.2017,-91
1607178033.2040,-59
1607178033.2063,-50
1607178033.2087,-38
1607178033.2110,-11
1607178033.2129,4
1607178033.2147,9
1607178033.2165,35
1607178033.2324,71
1607178033.2334,88
1607178033.2345,107
1607178033.2365,148
1607178033.2385,196
1607178033.2405,242
1607178033.2426,306
1607178033.2446,383
1607178033.2466,424
1607178033.2486,436
1607178033.2506,481
1607178033.2527,503
1607178033.2546,438
1607178033.2566,364
1607178033.2586,285
1607178033.2606,143
1607178033.2628,11
1607178033.2642,-47
1607178033.2656,-86
1607178033.6409,-117
1607178033.6442,-134
1607178033.6469,-155
1607178033.6497,-170
1607178033.6563,-153
1607178033.6582,-143
1607178033.6602,-150
1607178033.6622,-129
1607178033.6652,-88
1607178033.6678,-93
1607178033.6693,-124
1607178033.6705,-117
1607178033.6722,-93
1607178033.6742,-95
1607178033.6762,-88
1607178033.6782,-79
1607178033.6802,-86
1607178033.6825,-67
1607178033.6854,-45
1607178033.6880,-64
1607178033.6903,-79
1607178033.6923,-59
1607178033.6942,-55
1607178033.6962,-62
1607178033.6982,-47
1607178033.7002,-31
1607178033.7022,-28
1607178033.7037,-33
1607178033.7052,-28
1607178033.7072,-26
1607178033.7092,-43
1607178033.7112,-62
1607178033.7132,-59
1607178033.7152,-47
1607178033.7172,-33
1607178033.7193,-23
1607178033.7215,-28
1607178033.7238,-38
1607178033.7287,-35
1607178033.7314,-23
1607178033.7332,-40
1607178033.7352,-196
1607178033.7372,-393
1607178033.7385,-127
1607178033.7402,867
1607178033.7423,2154
1607178033.7442,2502
1607178033.7462,1016
1607178033.7482,-603
1607178033.7502,-500
1607178033.7522,-28
1607178033.7542,-270
1607178033.7562,-311
1607178033.7583,-110
1607178033.7603,-158
1607178033.7622,-206
1607178033.7642,-112
1607178033.7662,-88
1607178033.7682,-119
1607178033.7695,-107
1607178033.7715,-74
1607178033.7738,-55
1607178033.7778,-43
1607178033.7801,-26
1607178033.7823,0
1607178033.7846,31
1607178033.7973,59
1607178033.7988,76
1607178033.8003,81
1607178033.8027,105
1607178033.8044,150
1607178033.8063,189
1607178033.8084,237
1607178034.2092,306
1607178034.2097,361
1607178034.2115,397
1607178034.2140,433
1607178034.2161,452
1607178034.2178,448
1607178034.2198,388
1607178034.2218,254
1607178034.2238,119
1607178034.2258,43
1607178034.2278,-19
1607178034.2298,-86
1607178034.2320,-124
1607178034.2341,-136
1607178034.2358,-143
1607178034.2378,-139
1607178034.2398,-131
1607178034.2405,-136
1607178034.2428,-139
1607178034.2449,-124
1607178034.2469,-103
1607178034.2490,-95
1607178034.2511,-105
1607178034.2529,-93
1607178034.2549,-76
1607178034.2569,-79
1607178034.2589,-98
1607178034.2609,-98
1607178034.2629,-74
1607178034.2651,-62
1607178034.2670,-62
1607178034.2689,-55
1607178034.2710,-55
1607178034.2717,-57
1607178034.2729,-64
1607178034.2750,-76
1607178034.2769,-55
1607178034.2789,-16
1607178034.2810,-21
1607178034.2831,-33
1607178034.2849,-14
1607178034.2869,-14
1607178034.2889,-45
1607178034.2910,-50
1607178034.2929,-45
1607178034.2949,-45
1607178034.2969,-33
1607178034.2993,-16
1607178034.3009,-21
1607178034.3023,-28
1607178034.3039,-16
1607178034.3060,-11
1607178034.3079,-81
1607178034.3100,-268
1607178034.3119,-347
1607178034.3142,129
1607178034.3160,1229
1607178034.3180,2291
1607178034.3199,2068
1607178034.3219,417
1607178034.3239,-635
1607178034.3260,-261
1607178034.3279,-50
1607178034.3299,-306
1607178034.3320,-242
1607178034.3330,-115
1607178034.3350,-182
1607178034.3369,-179
1607178034.3389,-115
1607178034.3411,-107
1607178034.3429,-100
1607178034.3449,-74
1607178034.3469,-57
1607178034.7491,-40
1607178034.7495,-33
1607178034.7520,-31
1607178034.7531,0
1607178034.7546,26
1607178034.7566,33
1607178034.7586,52
1607178034.7607,91
1607178034.7627,117
1607178034.7647,150
1607178034.7667,203
1607178034.7686,227
1607178034.7706,249
1607178034.7727,309
1607178034.7746,352
1607178034.7766,359
1607178034.7786,371
1607178034.7806,349
1607178034.7826,285
1607178034.7833,206
1607178034.7846,117
1607178034.7860,28
1607178034.7877,-47
1607178034.7937,-95
1607178034.8006,-110
1607178034.8028,-117
1607178034.8046,-129
1607178034.8066,-119
1607178034.8086,-103
1607178034.8106,-110
1607178034.8126,-117
1607178034.8147,-95
1607178034.8193,-81
1607178034.8206,-88
1607178034.8226,-81
1607178034.8248,-69
1607178034.8266,-76
1607178034.8286,-64
1607178034.8306,-45
1607178034.8328,-55
1607178034.8346,-64
1607178034.8367,-52
1607178034.8386,-47
1607178034.8407,-38
1607178034.8426,-33
1607178034.8446,-47
1607178034.8466,-62
1607178034.8486,-45
1607178034.8506,-21
1607178034.8527,-7
1607178034.8546,0
1607178034.8566,9
1607178034.8586,-4
1607178034.8606,-31
1607178034.8626,-33
1607178034.8646,-35
1607178034.8666,-43
1607178034.8686,-33
1607178034.8707,-31
1607178034.8726,-35
1607178034.8746,-19
1607178034.8766,7
1607178034.8786,0
1607178034.8806,-21
1607178034.8826,-88
1607178034.8846,-266
1607178034.8866,-287
1607178034.8886,278
1607178034.8907,1382
1607178034.8926,2274
1607178034.8946,1785
1607178034.8966,160
1607178034.8986,-587
1607178035.3200,-165
1607178035.3221,-81
1607178035.3248,-313
1607178035.3278,-208
1607178035.3302,-105
1607178035.3321,-177
1607178035.3343,-177
1607178035.3361,-117
1607178035.3381,-103
1607178035.3401,-95
1607178035.3423,-69
1607178035.3446,-50
1607178035.3476,-40
1607178035.3504,-35
1607178035.3522,-21
1607178035.3542,4
1607178035.3561,28
1607178035.3583,47
1607178035.3601,71
1607178035.3623,112
1607178035.3646,165
1607178035.3667,203
1607178035.3687,220
1607178035.3707,254
1607178035.3722,313
1607178035.3741,361
1607178035.3761,378
1607178035.3782,395
1607178035.3801,405
1607178035.3823,378
1607178035.3847,313
1607178035.3869,225
1607178035.3891,129
1607178035.3913,38
1607178035.3931,-21
1607178035.3951,-57
1607178035.3972,-107
1607178035.3991,-150
1607178035.4013,-131
1607178035.4034,-95
1607178035.4054,-105
1607178035.4080,-119
1607178035.4101,-105
1607178035.4144,-86
1607178035.4161,-71
1607178035.4181,-59
1607178035.4201,-74
1607178035.4221,-91
1607178035.4241,-79
1607178035.4261,-59
1607178035.4283,-59
1607178035.4301,-55
1607178035.4322,-40
1607178035.4341,-35
1607178035.4364,-31
1607178035.4381,-11
1607178035.4401,-9
1607178035.4423,-40
1607178035.4446,-57
1607178035.4481,-31
1607178035.4501,0
1607178035.4520,11
1607178035.4531,9
1607178035.4551,9
1607178035.4571,9
1607178035.4591,0
1607178035.4613,-7
1607178035.4634,-26
1607178035.4658,-45
1607178035.4678,-38
1607178035.4698,-28
1607178035.4720,-26
1607178035.4731,-19
1607178035.9320,-11
1607178035.9344,-4
1607178035.9359,-16
1607178035.9378,-150
1607178035.9397,-364
1607178035.9417,-208
1607178035.9437,663
1607178035.9457,1917
1607178035.9484,2430
1607178035.9499,1147
1607178035.9517,-546
1607178035.9577,-548
1607178035.9637,19
1607178035.9656,-210
1607178035.9706,-340
1607178035.9767,-117
1607178035.9786,-122
1607178035.9848,-184
1607178035.9867,-93
1607178035.9887,-50
1607178035.9908,-76
1607178035.9927,-62
1607178035.9947,-28
1607178035.9967,-21
1607178035.9987,-19
1607178036.0008,9
1607178036.0027,33
1607178036.0047,38
1607178036.0067,62
1607178036.0087,110
1607178036.0107,136
1607178036.0127,160
1607178036.0150,208
1607178036.0167,254
1607178036.0187,297
1607178036.0208,352
1607178036.0227,397
1607178036.0248,440
1607178036.0267,493
1607178036.0287,508
1607178036.0307,474
1607178036.0327,407
1607178036.0347,304
1607178036.0367,189
1607178036.0387,81
1607178036.0408,-7
1607178036.0427,-55
1607178036.0447,-83
1607178036.0467,-117
1607178036.0487,-129
1607178036.0507,-129
1607178036.0527,-146
1607178036.0547,-153
1607178036.0567,-139
1607178036.0587,-117
1607178036.0608,-103
1607178036.0628,-95
1607178036.0647,-93
1607178036.0667,-86
1607178036.0688,-76
1607178036.0708,-55
1607178036.0727,-47
1607178036.0749,-67
1607178036.0769,-81
1607178036.0788,-57
1607178036.0809,-40
1607178036.0827,-50
1607178036.0849,-50
1607178036.0868,-35
1607178036.0887,-45
1607178036.0911,-74
1607178036.0928,-62
1607178036.0947,-19
1607178036.4606,-11
1607178036.4631,-2
1607178036.4655,9
1607178036.4692,-28
1607178036.4836,-59
1607178036.4853,-47
1607178036.4872,-38
1607178036.4892,-28
1607178036.4916,-16
1607178036.4932,-23
1607178036.4956,-43
1607178036.4975,-43
1607178036.4992,-38
1607178036.5017,-43
1607178036.5038,-112
1607178036.5052,-321
1607178036.5072,-388
1607178036.5092,201
1607178036.5112,1452
1607178036.5132,2518
1607178036.5152,1965
1607178036.5175,26
1607178036.5202,-795
1607178036.5214,-189
1607178036.5232,-103
1607178036.5252,-400
1607178036.5272,-232
1607178036.5292,-105
1607178036.5317,-201
1607178036.5340,-170
1607178036.5388,-100
1607178036.5423,-122
1607178036.5442,-98
1607178036.5534,-59
1607178036.5553,-95
1607178036.5574,-88
1607178036.5592,-23
1607178036.5612,-4
1607178036.5632,-2
1607178036.5654,26
1607178036.5675,57
1607178036.5730,79
1607178036.5744,107
1607178036.5770,143
1607178036.5783,182
1607178036.5803,218
1607178036.5826,275
1607178036.5884,340
1607178036.5905,376
1607178036.5924,402
1607178036.5942,431
1607178036.5962,431
1607178036.5983,383
1607178036.6003,287
1607178036.6029,177
1607178036.6043,81
1607178036.6062,-4
1607178036.6082,-81
1607178036.6102,-131
1607178036.6121,-150
1607178036.6145,-160
1607178036.6165,-162
1607178036.6201,-155
1607178036.6212,-153
1607178036.6233,-150
1607178036.6252,-134
1607178036.6272,-122
1607178036.6292,-115
1607178036.6317,-107
1607178036.6373,-110
1607178036.6398,-105
1607178036.6412,-91
1607178036.6432,-86
1607178037.0004,-71
1607178037.0037,-62
1607178037.0063,-57
1607178037.0090,-47
1607178037.0112,-52
1607178037.0127,-69
1607178037.0147,-76
1607178037.0167,-71
1607178037.0187,-52
1607178037.0207,-33
1607178037.0229,-28
1607178037.0254,-16
1607178037.0278,-9
1607178037.0300,-33
1607178037.0322,-64
1607178037.0337,-74
1607178037.0357,-62
1607178037.0377,-47
1607178037.0397,-50
1607178037.0417,-45
1607178037.0438,-40
1607178037.0457,-45
1607178037.0477,-35
1607178037.0497,-19
1607178037.0517,-67
1607178037.0537,-244
1607178037.0557,-390
1607178037.0577,-69
1607178037.0597,913
1607178037.0617,2125
1607178037.0637,2343
1607178037.0657,838
1607178037.0677,-611
1607178037.0697,-443
1607178037.0717,-57
1607178037.0737,-299
1607178037.0757,-321
1607178037.0777,-150
1607178037.0797,-182
1607178037.0821,-191
1607178037.0836,-127
1607178037.0858,-134
1607178037.0877,-134
1607178037.0897,-93
1607178037.0917,-79
1607178037.0937,-79
1607178037.0957,-67
1607178037.0977,-33
1607178037.0998,0
1607178037.1021,9
1607178037.1043,7
1607178037.1057,16
1607178037.1077,50
1607178037.1097,103
1607178037.1117,141
1607178037.1137,167
1607178037.1157,215
1607178037.1177,280
1607178037.1203,325
1607178037.1217,335
1607178037.1237,340
1607178037.1257,352
1607178037.1277,354
1607178037.1297,309
1607178037.1325,220
1607178037.1357,110
1607178037.1378,7
1607178037.1399,-62
1607178037.1424,-100
1607178037.1437,-117
1607178037.1457,-117
1607178037.1477,-119
1607178037.1497,-134
1607178037.5715,-139
1607178037.5732,-117
1607178037.5757,-103
1607178037.5783,-98
1607178037.5803,-86
1607178037.5825,-98
1607178037.5878,-122
1607178037.5893,-117
1607178037.5918,-107
1607178037.5932,-105
1607178037.5952,-103
1607178037.5978,-88
1607178037.5993,-64
1607178037.6019,-62
1607178037.6036,-62
1607178037.6054,-55
1607178037.6072,-76
1607178037.6095,-93
1607178037.6113,-55
1607178037.6132,-26
1607178037.6153,-31
1607178037.6173,-21
1607178037.6198,-16
1607178037.6212,-38
1607178037.6233,-45
1607178037.6252,-26
1607178037.6272,-31
1607178037.6293,-52
1607178037.6313,-50
1607178037.6333,-35
1607178037.6355,-38
1607178037.6373,-38
1607178037.6395,-21
1607178037.6414,-16
1607178037.6432,-95
1607178037.6452,-285
1607178037.6478,-287
1607178037.6537,306
1607178037.6548,1437
1607178037.6562,2300
1607178037.6583,1699
1607178037.6603,33
1607178037.6622,-620
1607178037.6642,-170
1607178037.6663,-117
1607178037.6682,-325
1607178037.6702,-230
1607178037.6723,-158
1607178037.6743,-194
1607178037.6763,-155
1607178037.6783,-115
1607178037.6803,-110
1607178037.6823,-83
1607178037.6843,-69
1607178037.6863,-79
1607178037.6883,-55
1607178037.6903,-11
1607178037.6923,-9
1607178037.6943,-9
1607178037.6963,28
1607178037.6983,59
1607178037.7003,69
1607178037.7023,107
1607178037.7043,167
1607178037.7066,194
1607178037.7083,203
1607178037.7104,242
1607178037.7123,299
1607178037.7146,337
1607178037.7163,357
1607178037.7184,376
1607178037.7213,376
1607178037.7233,335
1607178038.1111,278
1607178038.1136,194
1607178038.1163,74
1607178038.1184,-19
1607178038.1206,-57
1607178038.1225,-76
1607178038.1247,-95
1607178038.1265,-117
1607178038.1285,-117
1607178038.1307,-95
1607178038.1330,-100
1607178038.1351,-122
1607178038.1373,-103
1607178038.1395,-74
1607178038.1418,-91
1607178038.1436,-98
1607178038.1456,-64
1607178038.1476,-50
1607178038.1495,-57
1607178038.1516,-55
1607178038.1535,-59
1607178038.1555,-57
1607178038.1575,-35
1607178038.1595,-50
1607178038.1618,-62
1607178038.1641,-31
1607178038.1664,-4
1607178038.1685,2
1607178038.1706,11
1607178038.1725,11
1607178038.1745,-2
1607178038.1765,2
1607178038.1785,7
1607178038.1808,-14
1607178038.1833,-19
1607178038.1854,-9
1607178038.1876,-19
1607178038.1902,-19
1607178038.1923,7
1607178038.1936,23
1607178038.1955,11
1607178038.1979,-9
1607178038.1995,-9
1607178038.2016,-43
1607178038.2035,-222
1607178038.2055,-349
1607178038.2078,74
1607178038.2095,1157
1607178038.2116,2276
1607178038.2135,2156
1607178038.2155,457
1607178038.2175,-695
1607178038.2195,-261
1607178038.2221,16
1607178038.2249,-297
1607178038.2272,-268
1607178038.2293,-105
1607178038.2316,-146
1607178038.2335,-153
1607178038.2355,-88
1607178038.2375,-83
1607178038.2395,-86
1607178038.2416,-55
1607178038.2435,-40
1607178038.2456,-23
1607178038.2476,4
1607178038.2495,16
1607178038.2517,19
1607178038.2539,33
1607178038.2560,69
1607178038.2583,110
1607178038.2604,136
1607178038.2622,167
1607178038.6797,215
1607178038.6820,270
1607178038.6851,313
1607178038.6873,352
1607178038.6891,388
1607178038.6911,409
1607178038.6933,428
1607178038.6951,438
1607178038.6971,409
1607178038.6991,337
1607178038.7015,230
1607178038.7044,107
1607178038.7066,11
1607178038.7090,-43
1607178038.7113,-79
1607178038.7132,-112
1607178038.7151,-139
1607178038.7175,-150
1607178038.7245,-143
1607178038.7264,-136
1607178038.7282,-129
1607178038.7356,-105
1607178038.7371,-86
1607178038.7392,-103
1607178038.7417,-115
1607178038.7434,-93
1607178038.7452,-74
1607178038.7477,-79
1607178038.7491,-79
1607178038.7512,-59
1607178038.7531,-52
1607178038.7551,-62
1607178038.7571,-57
1607178038.7592,-43
1607178038.7611,-52
1607178038.7631,-59
1607178038.7651,-31
1607178038.7671,-7
1607178038.7693,-2
1607178038.7711,4
1607178038.7884,4
1607178038.7901,-11
1607178038.7921,-38
1607178038.7941,-50
1607178038.7961,-31
1607178038.7987,-21
1607178038.8003,-28
1607178038.8021,-26
1607178038.8040,-14
1607178038.8061,0
1607178038.8082,9
1607178038.8101,-21
1607178038.8121,-191
1607178038.8143,-400
1607178038.8161,-155
1607178038.8180,853
1607178038.8241,2192
1607178038.8261,2538
1607178038.8281,965
1607178038.8302,-680
1607178038.8321,-508
1607178038.8341,-19
1607178038.8360,-282
1607178038.8461,-330
1607178038.8500,-127
1607178038.8631,-155
1607178038.8656,-196
1607178038.8670,-127
1607178038.8690,-107
1607178038.8710,-117
1607178038.8729,-88
1607178038.8750,-67
1607178038.8770,-59
1607178039.3100,-40
1607178039.3116,-14
1607178039.3150,-7
1607178039.3167,7
1607178039.3193,47
1607178039.3210,79
1607178039.3230,93
1607178039.3249,124
1607178039.3267,167
1607178039.3287,206
1607178039.3313,254
1607178039.3327,318
1607178039.3348,376
1607178039.3370,405
1607178039.3387,412
1607178039.3408,417
1607178039.3428,390
1607178039.3448,313
1607178039.3467,206
1607178039.3532,93
1607178039.3548,4
1607178039.3568,-57
1607178039.3588,-110
1607178039.3607,-150
1607178039.3803,-170
1607178039.3838,-170
1607178039.3849,-170
1607178039.3868,-165
1607178039.3889,-158
1607178039.3902,-162
1607178039.3918,-153
1607178039.3938,-129
1607178039.3958,-115
1607178039.3991,-103
1607178039.4002,-93
1607178039.4018,-100
1607178039.4038,-95
1607178039.4058,-67
1607178039.4066,-50
1607178039.4088,-59
1607178039.4108,-59
1607178039.4121,-59
1607178039.4144,-57
1607178039.4160,-38
1607178039.4170,-14
1607178039.4188,-14
1607178039.4208,-33
1607178039.4228,-38
1607178039.4250,-31
1607178039.4268,-31
1607178039.4289,-47
1607178039.4312,-62
1607178039.4329,-52
1607178039.4348,-35
1607178039.4359,-38
1607178039.4378,-31
1607178039.4398,-9
1607178039.4418,-9
1607178039.4438,-76
1607178039.4458,-268
1607178039.4479,-342
1607178039.4500,177
1607178039.4518,1342
1607178039.4538,2446
1607178039.4563,2109
1607178039.4592,258
1607178039.4769,-754
1607178039.4840,-244
1607178039.4859,-67
1607178039.4878,-364
1607178039.4898,-258
1607178039.4918,-119
1607178039.4939,-191
1607178039.8191,-179
1607178039.8196,-136
1607178039.8211,-160
1607178039.8217,-139
1607178039.8230,-83
1607178039.8250,-74
1607178039.8270,-81
1607178039.8290,-64
1607178039.8312,-31
1607178039.8333,-9
1607178039.8350,7
1607178039.8370,35
1607178039.8390,57
1607178039.8411,74
1607178039.8430,112
1607178039.8451,158
1607178039.8470,184
1607178039.8491,237
1607178039.8510,301
1607178039.8517,335
1607178039.8530,349
1607178039.8551,364
1607178039.8570,359
1607178039.8591,318
1607178039.8611,239
1607178039.8630,139
1607178039.8651,40
1607178039.8672,-33
1607178039.8690,-83
1607178039.8711,-119
1607178039.8730,-150
1607178039.8752,-172
1607178039.8770,-165
1607178039.8790,-141
1607178039.8811,-143
1607178039.8818,-148
1607178039.8832,-134
1607178039.8850,-127
1607178039.8870,-124
1607178039.8890,-107
1607178039.8910,-88
1607178039.8931,-79
1607178039.8950,-88
1607178039.8971,-98
1607178039.8991,-88
1607178039.9011,-86
1607178039.9031,-88
1607178039.9050,-67
1607178039.9070,-43
1607178039.9090,-33
1607178039.9111,-21
1607178039.9117,-9
1607178039.9130,-21
1607178039.9152,-45
1607178039.9172,-59
1607178039.9191,-62
1607178039.9211,-64
1607178039.9230,-64
1607178039.9250,-40
1607178039.9270,-26
1607178039.9291,-40
1607178039.9312,-50
1607178039.9334,-40
1607178039.9352,-50
1607178039.9371,-184
1607178039.9391,-369
1607178039.9411,-136
1607178039.9417,812
1607178039.9431,2056
1607178039.9451,2391
1607178039.9470,999
1607178039.9493,-524
1607178039.9513,-467
1607178040.3890,-55
1607178040.3896,-287
1607178040.3916,-340
1607178040.3934,-150
1607178040.3954,-177
1607178040.3975,-225
1607178040.3994,-150
1607178040.4014,-134
1607178040.4034,-158
1607178040.4056,-124
1607178040.4076,-88
1607178040.4094,-79
1607178040.4115,-69
1607178040.4135,-69
1607178040.4155,-71
1607178040.4175,-40
1607178040.4182,2
1607178040.4195,33
1607178040.4216,64
1607178040.4235,88
1607178040.4255,122
1607178040.4275,179
1607178040.4295,232
1607178040.4316,261
1607178040.4336,289
1607178040.4356,311
1607178040.4377,325
1607178040.4396,325
1607178040.4419,294
1607178040.4443,244
1607178040.4465,167
1607178040.4491,47
1607178040.4516,-45
1607178040.4528,-71
1607178040.4546,-95
1607178040.4568,-131
1607178040.4586,-141
1607178040.4607,-127
1607178040.4630,-134
1607178040.4655,-148
1607178040.4677,-129
1607178040.4699,-103
1607178040.4720,-107
1607178040.4737,-103
1607178040.4757,-81
1607178040.4776,-88
1607178040.4796,-107
1607178040.4817,-93
1607178040.4830,-69
1607178040.4847,-69
1607178040.4866,-74
1607178040.4886,-69
1607178040.4908,-62
1607178040.4927,-45
1607178040.4946,-26
1607178040.4966,-16
1607178040.4986,-16
1607178040.5007,-31
1607178040.5030,-40
1607178040.5062,-45
1607178040.5093,-59
1607178040.5119,-59
1607178040.5136,-40
1607178040.5156,-23
1607178040.5169,-28
1607178040.5186,-45
1607178040.5207,-43
1607178040.5226,-16
1607178040.5247,-7
1607178040.5266,-64
1607178040.5286,-222
1607178040.5307,-354
1607178040.5327,-59
1607178040.9309,869
1607178040.9336,1991
1607178040.9362,2171
1607178040.9389,802
1607178040.9412,-505
1607178040.9435,-381
1607178040.9460,-55
1607178040.9485,-268
1607178040.9507,-297
1607178040.9525,-155
1607178040.9545,-189
1607178040.9566,-210
1607178040.9586,-139
1607178040.9607,-115
1607178040.9630,-122
1607178040.9656,-98
1607178040.9679,-86
1607178040.9701,-93
1607178040.9720,-76
1607178040.9735,-38
1607178040.9749,-11
1607178040.9766,4
1607178040.9785,26
1607178040.9808,35
1607178040.9826,55
1607178040.9846,93
1607178040.9865,136
1607178040.9885,170
1607178040.9907,208
1607178040.9926,251
1607178040.9945,285
1607178040.9965,299
1607178040.9985,304
1607178041.0017,306
1607178041.0080,282
1607178041.0108,225
1607178041.0124,146
1607178041.0145,69
1607178041.0169,7
1607178041.0185,-40
1607178041.0205,-79
1607178041.0225,-107
1607178041.0246,-129
1607178041.0265,-119
1607178041.0285,-98
1607178041.0306,-98
1607178041.0325,-107
1607178041.0345,-100
1607178041.0365,-88
1607178041.0385,-79
1607178041.0408,-79
1607178041.0431,-81
1607178041.0452,-71
1607178041.0472,-57
1607178041.0496,-55
1607178041.0518,-59
1607178041.0535,-71
1607178041.0555,-71
1607178041.0575,-52
1607178041.0596,-35
1607178041.0615,-31
1607178041.0635,-7
1607178041.0655,14
1607178041.0675,4
1607178041.0695,-16
1607178041.0716,-31
1607178041.0735,-38
1607178041.0755,-35
1607178041.0775,-35
1607178041.0795,-43
1607178041.0817,-43
1607178041.0844,-33
1607178041.0871,-26
1607178041.5002,-11
1607178041.5017,2
1607178041.5042,-40
1607178041.5068,-222
1607178041.5088,-349
1607178041.5108,64
1607178041.5128,1116
1607178041.5174,2219
1607178041.5193,2116
1607178041.5208,448
1607178041.5227,-702
1607178041.5247,-292
1607178041.5267,-38
1607178041.5290,-328
1607178041.5326,-242
1607178041.5338,-74
1607178041.5361,-162
1607178041.5377,-174
1607178041.5397,-91
1607178041.5417,-81
1607178041.5438,-93
1607178041.5457,-74
1607178041.5494,-62
1607178041.5510,-45
1607178041.5584,-19
1607178041.5598,-4
1607178041.5618,4
1607178041.5637,31
1607178041.5665,62
1607178041.5678,83
1607178041.5698,95
1607178041.5718,131
1607178041.5738,196
1607178041.5758,242
1607178041.5777,275
1607178041.5798,330
1607178041.5840,373
1607178041.5855,378
1607178041.5868,373
1607178041.5888,371
1607178041.5909,328
1607178041.5927,239
1607178041.5947,139
1607178041.5967,50
1607178041.5993,-19
1607178041.6011,-74
1607178041.6027,-110
1607178041.6047,-127
1607178041.6067,-141
1607178041.6088,-150
1607178041.6108,-155
1607178041.6128,-150
1607178041.6160,-143
1607178041.6178,-134
1607178041.6199,-115
1607178041.6219,-103
1607178041.6238,-103
1607178041.6258,-95
1607178041.6278,-100
1607178041.6298,-105
1607178041.6340,-79
1607178041.6359,-55
1607178041.6378,-64
1607178041.6398,-74
1607178041.6417,-55
1607178041.6438,-40
1607178041.6458,-50
1607178041.6524,-47
1607178041.6535,-16
1607178041.6548,-4
1607178041.6569,-33
1607178041.6588,-59
1607178041.6608,-62
1607178042.0398,-52
1607178042.0410,-45
1607178042.0434,-38
1607178042.0461,-26
1607178042.0493,-28
1607178042.0512,-43
1607178042.0531,-35
1607178042.0550,-21
1607178042.0570,-67
1607178042.0590,-244
1607178042.0611,-393
1607178042.0630,-28
1607178042.0660,1059
1607178042.0672,2317
1607178042.0691,2327
1607178042.0712,539
1607178042.0731,-795
1607178042.0751,-347
1607178042.0772,4
1607178042.0791,-321
1607178042.0846,-278
1607178042.0862,-107
1607178042.0881,-194
1607178042.0901,-191
1607178042.0920,-105
1607178042.0940,-117
1607178042.0960,-115
1607178042.0992,-62
1607178042.1013,-57
1607178042.1030,-62
1607178042.1050,-38
1607178042.1070,-23
1607178042.1090,-9
1607178042.1111,28
1607178042.1131,55
1607178042.1161,67
1607178042.1170,105
1607178042.1191,155
1607178042.1211,182
1607178042.1230,206
1607178042.1250,263
1607178042.1271,335
1607178042.1291,383
1607178042.1326,400
1607178042.1341,388
1607178042.1365,361
1607178042.1381,325
1607178042.1400,254
1607178042.1420,153
1607178042.1440,45
1607178042.1460,-52
1607178042.1495,-122
1607178042.1511,-155
1607178042.1530,-167
1607178042.1550,-184
1607178042.1570,-189
1607178042.1590,-177
1607178042.1611,-162
1607178042.1630,-165
1607178042.1659,-165
1607178042.1672,-146
1607178042.1693,-131
1607178042.1712,-141
1607178042.1732,-143
1607178042.1751,-115
1607178042.1771,-95
1607178042.1791,-103
1607178042.1834,-100
1607178042.1854,-76
1607178042.1871,-71
1607178042.1890,-83
1607178042.1910,-81
1607178042.1930,-71
1607178042.6698,-52
1607178042.6710,-26
1607178042.6735,-26
1607178042.6761,-47
1607178042.6781,-57
1607178042.6801,-76
1607178042.6828,-103
1607178042.6842,-100
1607178042.6861,-71
1607178042.6881,-59
1607178042.6901,-62
1607178042.6921,-64
1607178042.6940,-52
1607178042.6961,-43
1607178042.6995,-153
1607178042.7025,-371
1607178042.7041,-294
1607178042.7063,472
1607178042.7081,1756
1607178042.7101,2562
1607178042.7121,1548
1607178042.7159,-366
1607178042.7172,-721
1607178042.7198,-83
1607178042.7220,-182
1607178042.7233,-393
1607178042.7253,-186
1607178042.7272,-139
1607178042.7292,-222
1607178042.7335,-160
1607178042.7358,-119
1607178042.7373,-148
1607178042.7391,-127
1607178042.7411,-91
1607178042.7431,-83
1607178042.7451,-59
1607178042.7471,-31
1607178042.7498,-23
1607178042.7512,-9
1607178042.7531,21
1607178042.7551,43
1607178042.7571,64
1607178042.7591,100
1607178042.7611,141
1607178042.7631,179
1607178042.7661,227
1607178042.7674,280
1607178042.7692,323
1607178042.7712,347
1607178042.7731,359
1607178042.7751,361
1607178042.7772,335
1607178042.7792,263
1607178042.7827,160
1607178042.7842,59
1607178042.7861,-16
1607178042.7882,-79
1607178042.7901,-124
1607178042.7921,-153
1607178042.7942,-167
1607178042.7961,-172
1607178042.8019,-170
1607178042.8034,-162
1607178042.8076,-165
1607178042.8091,-153
1607178042.8112,-139
1607178042.8132,-139
1607178042.8177,-127
1607178042.8192,-110
1607178042.8212,-105
1607178042.8232,-98
1607178042.8253,-91
1607178042.8272,-95
1607178043.1814,-95
1607178043.1849,-86
1607178043.1900,-74
1607178043.1925,-59
1607178043.1941,-45
1607178043.1961,-33
1607178043.1981,-16
1607178043.2001,-19
1607178043.2023,-47
1607178043.2045,-71
1607178043.2061,-71
1607178043.2081,-69
1607178043.2101,-76
1607178043.2121,-74
1607178043.2144,-64
1607178043.2161,-55
1607178043.2185,-50
1607178043.2209,-45
1607178043.2223,-47
1607178043.2241,-155
1607178043.2261,-390
1607178043.2281,-309
1607178043.2301,536
1607178043.2328,1893
1607178043.2360,2650
1607178043.2400,1565
1607178043.2420,-328
1607178043.2433,-692
1607178043.2455,-115
1607178043.2471,-208
1607178043.2498,-390
1607178043.2544,-189
1607178043.2562,-148
1607178043.2582,-246
1607178043.2601,-198
1607178043.2621,-139
1607178043.2660,-158
1607178043.2673,-150
1607178043.2756,-115
1607178043.2773,-93
1607178043.2792,-81
1607178043.2827,-71
1607178043.2845,-47
1607178043.2906,-19
1607178043.2923,-9
1607178043.2941,2
1607178043.2961,31
1607178043.3045,67
1607178043.3063,95
1607178043.3083,127
1607178043.3102,184
1607178043.3122,239
1607178043.3210,256
1607178043.3231,268
1607178043.3245,285
1607178043.3263,278
1607178043.3283,237
1607178043.3303,184
1607178043.3340,117
1607178043.3424,31
1607178043.3442,-50
1607178043.3462,-103
1607178043.3495,-127
1607178043.3532,-141
1607178043.3543,-160
1607178043.3562,-162
1607178043.3582,-153
1607178043.3602,-150
1607178043.3622,-155
1607178043.3668,-155
1607178043.3683,-134
1607178043.3702,-100
1607178043.3722,-93
1607178043.7511,-110
1607178043.7529,-112
1607178043.7554,-103
1607178043.7582,-107
1607178043.7600,-122
1607178043.7620,-172
1607178043.7669,-189
1607178043.7683,-81
1607178043.7701,-23
1607178043.7719,-81
1607178043.7739,-59
1607178043.7759,4
1607178043.7779,-21
1607178043.7799,-71
1607178043.7830,-74
1607178043.7840,-74
1607178043.7859,-81
1607178043.7879,-76
1607178043.7899,-76
1607178043.7919,-76
1607178043.7940,-59
1607178043.7959,-45
1607178043.7995,-50
1607178043.8011,-88
1607178043.8029,-242
1607178043.8050,-373
1607178043.8069,-26
1607178043.8089,987
1607178043.8109,2121
1607178043.8129,2156
1607178043.8179,661
1607178043.8267,-568
1607178043.8287,-366
1607178043.8299,-81
1607178043.8333,-304
1607178043.8359,-301
1607178043.8375,-167
1607178043.8390,-206
1607178043.8410,-218
1607178043.8430,-158
1607178043.8450,-143
1607178043.8470,-131
1607178043.8490,-95
1607178043.8511,-86
1607178043.8531,-79
1607178043.8550,-52
1607178043.8570,-40
1607178043.8590,-33
1607178043.8611,-11
1607178043.8631,9
1607178043.8663,31
1607178043.8716,59
1607178043.8733,91
1607178043.8752,112
1607178043.8772,136
1607178043.8791,172
1607178043.8827,203
1607178043.8843,220
1607178043.8887,220
1607178043.8903,215
1607178043.8920,203
1607178043.8940,177
1607178043.8960,129
1607178043.8994,67
1607178043.9013,11
1607178043.9037,-31
1607178043.9050,-69
1607178043.9070,-105
1607178043.9090,-112
1607178043.9110,-95
1607178043.9130,-88
1607178043.9155,-95
1607178043.9222,-91
1607178044.3203,-81
1607178044.3216,-81
1607178044.3241,-74
1607178044.3267,-67
1607178044.3287,-67
1607178044.3307,-62
1607178044.3338,-45
1607178044.3358,-26
1607178044.3383,-31
1607178044.3401,-43
1607178044.3418,-33
1607178044.3439,-31
1607178044.3458,-40
1607178044.3501,-28
1607178044.3520,-4
1607178044.3537,7
1607178044.3557,9
1607178044.3577,14
1607178044.3597,9
1607178044.3617,-2
1607178044.3637,-26
1607178044.3664,-43
1607178044.3677,-23
1607178044.3697,14
1607178044.3718,2
1607178044.3738,-26
1607178044.3757,-4
1607178044.3777,19
1607178044.3797,-95
1607178044.3827,-316
1607178044.3837,-215
1607178044.3857,579
1607178044.3877,1754
1607178044.3897,2295
1607178044.3917,1308
1607178044.3938,-189
1607178044.3957,-438
1607178044.3994,-45
1607178044.4009,-170
1607178044.4028,-289
1607178044.4049,-134
1607178044.4068,-129
1607178044.4088,-189
1607178044.4109,-124
1607178044.4128,-69
1607178044.4169,-88
1607178044.4189,-79
1607178044.4207,-43
1607178044.4227,-33
1607178044.4247,-28
1607178044.4267,-11
1607178044.4287,-7
1607178044.4308,9
1607178044.4335,59
1607178044.4347,98
1607178044.4367,105
1607178044.4387,115
1607178044.4407,146
1607178044.4427,182
1607178044.4450,222
1607178044.4467,261
1607178044.4494,280
1607178044.4509,285
1607178044.4527,280
1607178044.4547,275
1607178044.4567,256
1607178044.4587,203
1607178044.4607,122
1607178044.4627,47
1607178044.4662,4
1607178044.4677,-31
1607178044.4698,-76
1607178044.4718,-107
1607178044.8901,-112
1607178044.8919,-107
1607178044.8945,-110
1607178044.8971,-117
1607178044.9011,-112
1607178044.9034,-107
1607178044.9050,-98
1607178044.9070,-74
1607178044.9090,-55
1607178044.9110,-67
1607178044.9130,-76
1607178044.9171,-81
1607178044.9192,-95
1607178044.9212,-100
1607178044.9231,-81
1607178044.9250,-67
1607178044.9271,-74
1607178044.9291,-62
1607178044.9364,-33
1607178044.9381,-19
1607178044.9403,-23
1607178044.9421,-38
1607178044.9442,-67
1607178044.9461,-86
1607178044.9500,-74
1607178044.9520,-57
1607178044.9537,-43
1607178044.9551,-38
1607178044.9571,-45
1607178044.9591,-45
1607178044.9611,-31
1607178044.9632,-50
1607178044.9669,-206
1607178044.9685,-409
1607178044.9701,-184
1607178044.9721,790
1607178044.9741,2037
1607178044.9769,2264
1607178044.9784,793
1607178044.9801,-599
1607178044.9838,-385
1607178044.9855,-4
1607178044.9870,-287
1607178044.9891,-311
1607178044.9909,-110
1607178044.9930,-150
1607178044.9950,-189
1607178044.9970,-112
1607178044.9997,-93
1607178045.0016,-107
1607178045.0031,-79
1607178045.0051,-59
1607178045.0071,-59
1607178045.0091,-45
1607178045.0111,-19
1607178045.0131,-4
1607178045.0168,21
1607178045.0183,62
1607178045.0203,88
1607178045.0219,103
1607178045.0240,136
1607178045.0260,177
1607178045.0280,208
1607178045.0300,239
1607178045.0330,278
1607178045.0341,313
1607178045.0360,323
1607178045.0381,318
1607178045.0400,299
1607178045.0420,261
1607178045.0440,191
1607178045.0460,100
1607178045.0495,14
1607178045.4025,-47
1607178045.4045,-88
1607178045.4070,-119
1607178045.4097,-150
1607178045.4117,-158
1607178045.4137,-143
1607178045.4195,-141
1607178045.4212,-141
1607178045.4240,-131
1607178045.4257,-122
1607178045.4276,-119
1607178045.4297,-122
1607178045.4339,-115
1607178045.4359,-91
1607178045.4376,-76
1607178045.4401,-83
1607178045.4417,-88
1607178045.4437,-81
1607178045.4457,-76
1607178045.4535,-62
1607178045.4549,-47
1607178045.4569,-47
1607178045.4587,-45
1607178045.4608,-26
1607178045.4627,-26
1607178045.4667,-57
1607178045.4690,-71
1607178045.4707,-64
1607178045.4727,-69
1607178045.4748,-71
1607178045.4767,-59
1607178045.4787,-40
1607178045.4854,-31
1607178045.4878,-33
1607178045.4911,-47
1607178045.4927,-158
1607178045.4947,-393
1607178045.4967,-342
1607178045.5004,474
1607178045.5021,1809
1607178045.5037,2516
1607178045.5057,1473
1607178045.5081,-266
1607178045.5105,-587
1607178045.5117,-83
1607178045.5137,-206
1607178045.5209,-378
1607178045.5223,-186
1607178045.5238,-143
1607178045.5258,-227
1607178045.5278,-177
1607178045.5298,-107
1607178045.5337,-117
1607178045.5351,-115
1607178045.5368,-83
1607178045.5388,-64
1607178045.5408,-62
1607178045.5430,-59
1607178045.5448,-33
1607178045.5468,4
1607178045.5511,14
1607178045.5531,26
1607178045.5550,62
1607178045.5568,98
1607178045.5588,124
1607178045.5609,160
1607178045.5632,194
1607178045.5675,225
1607178045.5700,251
1607178045.5709,256
1607178045.5727,244
1607178045.5747,246
1607178045.5757,234
1607178046.0001,172
1607178046.0018,86
1607178046.0041,9
1607178046.0068,-47
1607178046.0088,-100
1607178046.0108,-148
1607178046.0128,-167
1607178046.0162,-158
1607178046.0179,-146
1607178046.0199,-150
1607178046.0219,-146
1607178046.0239,-131
1607178046.0259,-129
1607178046.0274,-129
1607178046.0289,-112
1607178046.0334,-98
1607178046.0348,-93
1607178046.0368,-91
1607178046.0387,-83
1607178046.0409,-74
1607178046.0428,-67
1607178046.0447,-67
1607178046.0468,-71
1607178046.0496,-71
1607178046.0519,-43
1607178046.0539,-19
1607178046.0557,-31
1607178046.0577,-59
1607178046.0598,-74
1607178046.0606,-76
1607178046.0628,-76
1607178046.0662,-69
1607178046.0678,-47
1607178046.0697,-31
1607178046.0717,-38
1607178046.0737,-57
1607178046.0757,-45
1607178046.0778,-64
1607178046.0797,-266
1607178046.0842,-436
1607178046.0857,-4
1607178046.0877,1167
1607178046.0898,2360
1607178046.0917,2240
1607178046.0941,584
1607178046.0951,-584
1607178046.0967,-299
1607178046.0995,-88
1607178046.1012,-354
1607178046.1027,-301
1607178046.1047,-153
1607178046.1067,-213
1607178046.1087,-225
1607178046.1108,-158
1607178046.1128,-146
1607178046.1162,-150
1607178046.1179,-131
1607178046.1294,-112
1607178046.1369,-93
1607178046.1384,-59
1607178046.1399,-28
1607178046.1411,-21
1607178046.1430,-33
1607178046.1450,-21
1607178046.1470,16
1607178046.1490,50
1607178046.1510,76
1607178046.1539,107
1607178046.1555,136
1607178046.1570,170
1607178046.1590,203
1607178046.1610,220
1607178046.1630,218
1607178046.6046,215
1607178046.6067,213
1607178046.6092,184
1607178046.6105,127
1607178046.6118,52
1607178046.6138,-19
1607178046.6235,-69
1607178046.6256,-100
1607178046.6269,-129
1607178046.6289,-141
1607178046.6332,-127
1607178046.6384,-110
1607178046.6406,-117
1607178046.6419,-134
1607178046.6438,-124
1607178046.6458,-107
1607178046.6490,-122
1607178046.6516,-129
1607178046.6549,-105
1607178046.6569,-95
1607178046.6589,-98
1607178046.6609,-91
1607178046.6633,-91
1607178046.6669,-98
1607178046.6723,-98
1607178046.6743,-76
1607178046.6759,-45
1607178046.6779,-31
1607178046.6799,-40
1607178046.6935,-55
1607178046.6949,-69
1607178046.6969,-74
1607178046.7022,-67
1607178046.7039,-62
1607178046.7049,-71
1607178046.7069,-76
1607178046.7089,-52
1607178046.7109,-31
1607178046.7129,-50
1607178046.7165,-117
1607178046.7179,-289
1607178046.7199,-381
1607178046.7219,88
1607178046.7239,1198
1607178046.7259,2231
1607178046.7279,1994
1607178046.7299,455
1607178046.7331,-534
1607178046.7349,-294
1607178046.7369,-146
1607178046.7378,-335
1607178046.7392,-258
1607178046.7409,-165
1607178046.7429,-239
1607178046.7450,-237
1607178046.7469,-160
1607178046.7497,-139
1607178046.7511,-143
1607178046.7529,-134
1607178046.7549,-134
1607178046.7569,-119
1607178046.7589,-81
1607178046.7610,-55
1607178046.7630,-40
1607178046.7701,-23
1607178046.7721,-14
1607178046.7735,-11
1607178046.7751,9
1607178046.7771,55
1607178046.7791,93
1607178046.7833,115
1607178046.7867,139
1607178046.7881,172
1607178047.1104,198
1607178047.1123,201
1607178047.1170,191
1607178047.1185,177
1607178047.1204,148
1607178047.1223,93
1607178047.1243,23
1607178047.1252,-31
1607178047.1274,-50
1607178047.1293,-64
1607178047.1327,-91
1607178047.1345,-107
1607178047.1363,-107
1607178047.1383,-115
1607178047.1405,-129
1607178047.1423,-119
1607178047.1443,-105
1607178047.1463,-107
1607178047.1495,-110
1607178047.1514,-112
1607178047.1534,-117
1607178047.1553,-112
1607178047.1573,-100
1607178047.1584,-100
1607178047.1605,-98
1607178047.1623,-79
1607178047.1661,-55
1607178047.1675,-43
1607178047.1695,-35
1607178047.1715,-28
1607178047.1736,-31
1607178047.1755,-52
1607178047.1775,-69
1607178047.1795,-71
1607178047.1833,-71
1607178047.1850,-69
1607178047.1867,-59
1607178047.1884,-50
1607178047.1903,-35
1607178047.1993,-14
1607178047.2008,-14
1607178047.2023,-64
1607178047.2042,-244
1607178047.2062,-364
1607178047.2082,47
1607178047.2102,1090
1607178047.2122,2135
1607178047.2158,1986
1607178047.2174,431
1607178047.2192,-596
1607178047.2213,-254
1607178047.2238,-59
1607178047.2253,-318
1607178047.2273,-263
1607178047.2292,-131
1607178047.2326,-177
1607178047.2344,-165
1607178047.2364,-107
1607178047.2383,-107
1607178047.2405,-98
1607178047.2423,-64
1607178047.2443,-55
1607178047.2463,-57
1607178047.2498,-26
1607178047.2513,11
1607178047.2533,26
1607178047.2552,33
1607178047.2575,59
1607178047.2593,95
1607178047.2612,124
1607178047.2632,162
1607178047.2660,203
1607178047.2673,225
1607178047.7096,244
1607178047.7101,282
1607178047.7117,301
1607178047.7136,299
1607178047.7158,289
1607178047.7178,268
1607178047.7196,232
1607178047.7216,177
1607178047.7236,95
1607178047.7256,14
1607178047.7276,-45
1607178047.7297,-86
1607178047.7321,-112
1607178047.7337,-110
1607178047.7357,-95
1607178047.7377,-98
1607178047.7396,-95
1607178047.7417,-81
1607178047.7438,-81
1607178047.7456,-81
1607178047.7485,-81
1607178047.7496,-103
1607178047.7516,-107
1607178047.7536,-88
1607178047.7556,-88
1607178047.7579,-98
1607178047.7596,-79
1607178047.7616,-45
1607178047.7636,-45
1607178047.7661,-50
1607178047.7677,-31
1607178047.7696,-21
1607178047.7716,-38
1607178047.7736,-59
1607178047.7756,-64
1607178047.7776,-67
1607178047.7796,-71
1607178047.7825,-71
1607178047.7836,-69
1607178047.7856,-67
1607178047.7876,-59
1607178047.7896,-50
1607178047.7916,-47
1607178047.7936,-119
1607178047.7956,-340
1607178047.7983,-405
1607178047.7997,194
1607178047.8016,1394
1607178047.8036,2327
1607178047.8056,1744
1607178047.8076,28
1607178047.8096,-647
1607178047.8126,-165
1607178047.8137,-139
1607178047.8158,-376
1607178047.8177,-234
1607178047.8197,-146
1607178047.8216,-218
1607178047.8238,-189
1607178047.8257,-143
1607178047.8276,-155
1607178047.8296,-139
1607178047.8316,-100
1607178047.8336,-86
1607178047.8356,-62
1607178047.8376,-33
1607178047.8396,-28
1607178047.8416,-33
1607178047.8436,-11
1607178047.8456,26
1607178047.8478,55
1607178047.8496,81
1607178047.8517,110
1607178048.2208,136
1607178048.2224,165
1607178048.2249,194
1607178048.2275,220
1607178048.2295,225
1607178048.2336,206
1607178048.2350,196
1607178048.2372,191
1607178048.2387,148
1607178048.2406,69
1607178048.2425,11
1607178048.2445,-33
1607178048.2466,-81
1607178048.2505,-107
1607178048.2521,-110
1607178048.2535,-124
1607178048.2555,-139
1607178048.2576,-134
1607178048.2595,-119
1607178048.2615,-107
1607178048.2635,-98
1607178048.2673,-88
1607178048.2689,-100
1607178048.2705,-117
1607178048.2725,-103
1607178048.2746,-74
1607178048.2765,-100
1607178048.2785,-146
1607178048.2806,-79
1607178048.2858,-57
1607178048.2866,-153
1607178048.2885,-119
1607178048.2909,7
1607178048.2925,-2
1607178048.2945,-160
1607178048.2965,-198
1607178048.2996,-59
1607178048.3015,-31
1607178048.3035,-95
1607178048.3055,-74
1607178048.3075,-52
1607178048.3095,-86
1607178048.3115,-86
1607178048.3135,-110
1607178048.3161,-237
1607178048.3177,-376
1607178048.3196,-244
1607178048.3216,472
1607178048.3236,1579
1607178048.3255,2070
1607178048.3276,1102
1607178048.3296,-285
1607178048.3334,-510
1607178048.3349,-172
1607178048.3366,-330
1607178048.3385,-414
1607178048.3406,-160
1607178048.3425,-172
1607178048.3448,-313
1607178048.3465,-254
1607178048.3518,-153
1607178048.3536,-98
1607178048.3555,-100
1607178048.3577,-153
1607178048.3595,-129
1607178048.3615,-52
1607178048.3635,-47
1607178048.3661,-91
1607178048.3677,-76
1607178048.3695,-7
1607178048.3715,4
1607178048.3735,-19
1607178048.3755,16
1607178048.7602,69
1607178048.7618,62
1607178048.7669,43
1607178048.7683,47
1607178048.7701,112
1607178048.7719,239
1607178048.7739,225
1607178048.7760,107
1607178048.7780,98
1607178048.7799,110
1607178048.7835,50
1607178048.7853,-16
1607178048.7875,-45
1607178048.7890,-23
1607178048.7911,-38
1607178048.7929,-95
1607178048.7950,-98
1607178048.7970,-71
1607178048.8008,-64
1607178048.8026,-57
1607178048.8041,-62
1607178048.8060,-88
1607178048.8081,-88
1607178048.8100,-64
1607178048.8122,-35
1607178048.8140,-35
1607178048.8177,-55
1607178048.8192,-50
1607178048.8210,-21
1607178048.8230,-11
1607178048.8250,-26
1607178048.8270,-14
1607178048.8290,7
1607178048.8367,-11
1607178048.8382,-50
1607178048.8400,-67
1607178048.8425,-57
1607178048.8438,-45
1607178048.8450,-35
1607178048.8470,-45
1607178048.8508,-52
1607178048.8523,-26
1607178048.8540,-9
1607178048.8559,-16
1607178048.8580,-45
1607178048.8599,-158
1607178048.8620,-234
1607178048.8639,86
1607178048.8669,862
1607178048.8679,1591
1607178048.8701,1399
1607178048.8720,278
1607178048.8740,-381
1607178048.8754,-162
1607178048.8770,-91
1607178048.8790,-249
1607178048.8834,-167
1607178048.8854,-95
1607178048.8870,-153
1607178048.8889,-153
1607178048.8909,-100
1607178048.8929,-83
1607178048.8949,-76
1607178048.8969,-59
1607178048.8996,-50
1607178048.9012,-45
1607178048.9029,-28
1607178048.9049,-7
1607178048.9070,9
1607178048.9089,35
1607178048.9109,67
1607178048.9129,83
1607178048.9162,81
1607178049.3601,93
1607178049.3617,139
1607178049.3642,167
1607178049.3679,174
1607178049.3700,196
1607178049.3717,210
1607178049.3737,186
1607178049.3757,167
1607178049.3777,174
1607178049.3797,160
1607178049.3828,112
1607178049.3838,71
1607178049.3857,28
1607178049.3877,0
1607178049.3900,7
1607178049.3918,-31
1607178049.3937,-98
1607178049.3957,-76
1607178049.3996,-28
1607178049.4008,-55
1607178049.4028,-88
1607178049.4048,-64
1607178049.4068,-35
1607178049.4089,-31
1607178049.4109,-28
1607178049.4128,-23
1607178049.4168,-11
1607178049.4182,-4
1607178049.4200,-14
1607178049.4217,-11
1607178049.4237,9
1607178049.4257,11
1607178049.4277,-7
1607178049.4297,-31
1607178049.4329,-47
1607178049.4348,-38
1607178049.4367,-23
1607178049.4388,-16
1607178049.4407,-9
1607178049.4427,-14
1607178049.4448,-38
1607178049.4467,-38
1607178049.4497,-23
1607178049.4509,-21
1607178049.4527,-79
1607178049.4547,-254
1607178049.4567,-278
1607178049.4587,278
1607178049.4608,1315
1607178049.4627,2032
1607178049.4662,1375
1607178049.4678,-146
1607178049.4698,-587
1607178049.4717,-81
1607178049.4737,-98
1607178049.4757,-297
1607178049.4777,-134
1607178049.4797,-57
1607178049.4832,-139
1607178049.4842,-112
1607178049.4864,-45
1607178049.5039,-47
1607178049.5051,-59
1607178049.5070,-43
1607178049.5088,-31
1607178049.5111,-14
1607178049.5128,19
1607178049.5149,40
1607178049.5168,50
1607178049.5189,74
1607178049.5209,105
1607178049.5232,141
1607178049.5248,177
1607178049.9301,201
1607178049.9343,222
1607178049.9368,246
1607178049.9394,287
1607178049.9414,330
1607178049.9435,340
1607178049.9455,333
1607178049.9474,318
1607178049.9513,285
1607178049.9527,232
1607178049.9544,146
1607178049.9567,38
1607178049.9584,-40
1607178049.9604,-79
1607178049.9624,-98
1607178049.9636,-122
1607178049.9676,-141
1607178049.9700,-129
1607178049.9714,-112
1607178049.9734,-124
1607178049.9754,-122
1607178049.9774,-100
1607178049.9794,-95
1607178049.9837,-95
1607178049.9856,-88
1607178049.9874,-71
1607178049.9894,-59
1607178049.9914,-47
1607178049.9934,-28
1607178049.9954,-14
1607178049.9974,-23
1607178050.0034,-57
1607178050.0047,-95
1607178050.0068,-107
1607178050.0084,-91
1607178050.0105,-83
1607178050.0124,-86
1607178050.0167,-74
1607178050.0185,-69
1607178050.0204,-76
1607178050.0223,-59
1607178050.0244,-47
1607178050.0263,-74
1607178050.0289,-186
1607178050.0303,-378
1607178050.0367,-258
1607178050.0383,558
1607178050.0392,1799
1607178050.0406,2365
1607178050.0423,1162
1607178050.0443,-541
1607178050.0463,-623
1607178050.0499,-55
1607178050.0515,-232
1607178050.0534,-361
1607178050.0554,-158
1607178050.0573,-160
1607178050.0593,-218
1607178050.0613,-134
1607178050.0633,-103
1607178050.0665,-127
1607178050.0675,-81
1607178050.0695,-40
1607178050.0707,-50
1607178050.0725,-43
1607178050.0747,2
1607178050.0764,21
1607178050.0785,2
1607178050.0807,26
1607178050.0849,86
1607178050.0866,105
1607178050.0884,115
1607178050.0904,174
1607178050.4698,242
1607178050.4715,285
1607178050.4741,313
1607178050.4767,325
1607178050.4786,325
1607178050.4807,318
1607178050.4848,289
1607178050.4870,220
1607178050.4885,141
1607178050.4906,79
1607178050.4925,14
1607178050.4945,-50
1607178050.4965,-115
1607178050.4996,-167
1607178050.5008,-165
1607178050.5026,-136
1607178050.5034,-150
1607178050.5045,-158
1607178050.5065,-122
1607178050.5085,-100
1607178050.5106,-136
1607178050.5128,-141
1607178050.5162,-93
1607178050.5176,-74
1607178050.5196,-81
1607178050.5216,-62
1607178050.5235,-40
1607178050.5255,-47
1607178050.5275,-59
1607178050.5295,-74
1607178050.5332,-98
1607178050.5346,-98
1607178050.5359,-81
1607178050.5376,-93
1607178050.5397,-107
1607178050.5533,-100
1607178050.5546,-91
1607178050.5567,-79
1607178050.5586,-57
1607178050.5607,-52
1607178050.5626,-110
1607178050.5664,-292
1607178050.5678,-400
1607178050.5696,50
1607178050.5716,1169
1607178050.5736,2312
1607178050.5756,2118
1607178050.5776,299
1607178050.5784,-848
1607178050.5796,-335
1607178050.5832,-55
1607178050.5847,-371
1607178050.5937,-292
1607178050.5947,-122
1607178050.5967,-206
1607178050.6011,-220
1607178050.6029,-141
1607178050.6047,-134
1607178050.6067,-134
1607178050.6086,-100
1607178050.6106,-71
1607178050.6126,-38
1607178050.6149,-26
1607178050.6166,-43
1607178050.6175,-23
1607178050.6186,35
1607178050.6207,69
1607178050.6227,71
1607178050.6246,103
1607178050.6266,162
1607178050.6286,210
1607178050.6308,251
1607178050.6331,301
1607178051.0396,335
1607178051.0415,328
1607178051.0440,306
1607178051.0467,297
1607178051.0503,270
1607178051.0518,203
1607178051.0540,119
1607178051.0556,31
1607178051.0577,-45
1607178051.0596,-93
1607178051.0616,-119
1607178051.0636,-155
1607178051.0676,-182
1607178051.0690,-170
1607178051.0706,-155
1607178051.0726,-150
1607178051.0747,-134
1607178051.0766,-115
1607178051.0788,-117
1607178051.0806,-117
1607178051.0846,-100
1607178051.0861,-83
1607178051.0876,-76
1607178051.0896,-69
1607178051.0917,-45
1607178051.0936,-43
1607178051.0956,-83
1607178051.0976,-107
1607178051.1016,-91
1607178051.1035,-83
1607178051.1046,-86
1607178051.1067,-67
1607178051.1085,-59
1607178051.1106,-79
1607178051.1125,-83
1607178051.1163,-71
1607178051.1172,-71
1607178051.1188,-95
1607178051.1206,-234
1607178051.1225,-405
1607178051.1246,-127
1607178051.1265,874
1607178051.1286,2099
1607178051.1306,2291
1607178051.1328,747
1607178051.1346,-728
1607178051.1366,-510
1607178051.1385,-67
1607178051.1405,-316
1607178051.1425,-337
1607178051.1448,-146
1607178051.1465,-186
1607178051.1474,-210
1607178051.1502,-127
1607178051.1517,-119
1607178051.1536,-136
1607178051.1556,-110
1607178051.1577,-83
1607178051.1596,-69
1607178051.1616,-50
1607178051.1637,-38
1607178051.1675,-21
1607178051.1692,14
1607178051.1705,45
1607178051.1725,62
1607178051.1747,81
1607178051.1765,127
1607178051.1785,196
1607178051.1794,242
1607178051.1806,246
1607178051.1826,263
1607178051.1846,280
1607178051.1867,275
1607178051.6397,278
1607178051.6415,261
1607178051.6439,198
1607178051.6466,112
1607178051.6486,26
1607178051.6508,-40
1607178051.6528,-83
1607178051.6545,-115
1607178051.6565,-131
1607178051.6586,-146
1607178051.6598,-167
1607178051.6616,-172
1607178051.6636,-153
1607178051.6663,-139
1607178051.6678,-134
1607178051.6696,-122
1607178051.6715,-105
1607178051.6738,-88
1607178051.6756,-79
1607178051.6777,-69
1607178051.6796,-47
1607178051.6819,-35
1607178051.6836,-62
1607178051.6855,-95
1607178051.6875,-93
1607178051.6896,-83
1607178051.6916,-83
1607178051.6938,-83
1607178051.6966,-76
1607178051.6994,-57
1607178051.7013,-50
1607178051.7026,-83
1607178051.7045,-100
1607178051.7066,-71
1607178051.7085,-83
1607178051.7107,-234
1607178051.7127,-371
1607178051.7147,-64
1607178051.7166,881
1607178051.7186,2008
1607178051.7206,2140
1607178051.7226,656
1607178051.7239,-671
1607178051.7256,-443
1607178051.7276,-98
1607178051.7296,-347
1607178051.7316,-335
1607178051.7336,-160
1607178051.7356,-203
1607178051.7376,-218
1607178051.7396,-146
1607178051.7415,-141
1607178051.7436,-136
1607178051.7455,-98
1607178051.7476,-103
1607178051.7495,-112
1607178051.7515,-67
1607178051.7535,-26
1607178051.7548,-19
1607178051.7565,-9
1607178051.7586,21
1607178051.7608,50
1607178051.7630,69
1607178051.7654,100
1607178051.7676,148
1607178051.7701,189
1607178051.7720,218
1607178051.7736,242
1607178051.7756,239
1607178051.7776,220
1607178051.7796,220
1607178051.7816,213
1607178051.7836,148
1607178052.1507,59
1607178052.1534,7
1607178052.1560,-31
1607178052.1587,-86
1607178052.1609,-139
1607178052.1624,-162
1607178052.1650,-158
1607178052.1664,-141
1607178052.1684,-139
1607178052.1706,-139
1607178052.1728,-129
1607178052.1751,-110
1607178052.1774,-100
1607178052.1795,-107
1607178052.1817,-105
1607178052.1829,-83
1607178052.1844,-79
1607178052.1865,-76
1607178052.1886,-59
1607178052.1904,-57
1607178052.1924,-71
1607178052.1945,-81
1607178052.1964,-79
1607178052.1985,-76
1607178052.2005,-74
1607178052.2024,-67
1607178052.2044,-71
1607178052.2064,-83
1607178052.2084,-76
1607178052.2109,-59
1607178052.2131,-45
1607178052.2155,-47
1607178052.2177,-153
1607178052.2198,-325
1607178052.2218,-182
1607178052.2234,582
1607178052.2254,1684
1607178052.2274,2164
1607178052.2296,1097
1607178052.2387,-405
1607178052.2406,-544
1607178052.2427,-110
1607178052.2456,-254
1607178052.2489,-349
1607178052.2511,-162
1607178052.2524,-148
1607178052.2545,-222
1607178052.2555,-177
1607178052.2574,-136
1607178052.2594,-143
1607178052.2615,-127
1607178052.2635,-100
1607178052.2655,-81
1607178052.2675,-55
1607178052.2695,-28
1607178052.2715,-9
1607178052.2735,4
1607178052.2759,19
1607178052.2775,47
1607178052.2796,81
1607178052.2817,112
1607178052.2835,143
1607178052.2855,170
1607178052.2868,206
1607178052.2885,244
1607178052.2906,258
1607178052.2925,258
1607178052.2945,263
1607178052.2965,256
1607178052.2985,191
1607178052.3006,88
1607178052.3025,21
1607178052.3045,-7
1607178052.7500,-47
1607178052.7532,-91
1607178052.7558,-107
1607178052.7585,-105
1607178052.7607,-105
1607178052.7622,-112
1607178052.7643,-107
1607178052.7662,-86
1607178052.7682,-91
1607178052.7702,-134
1607178052.7725,-129
1607178052.7747,-86
1607178052.7771,-76
1607178052.7794,-79
1607178052.7816,-62
1607178052.7832,-45
1607178052.7852,-28
1607178052.7872,-14
1607178052.7893,-40
1607178052.7912,-74
1607178052.7924,-76
1607178052.7942,-74
1607178052.7962,-79
1607178052.7982,-67
1607178052.8004,-45
1607178052.8027,-43
1607178052.8049,-62
1607178052.8071,-69
1607178052.8092,-47
1607178052.8112,-35
1607178052.8132,-103
1607178052.8152,-294
1607178052.8172,-335
1607178052.8192,227
1607178052.8211,1363
1607178052.8275,2298
1607178052.8300,1802
1607178052.8324,57
1607178052.8342,-750
1607178052.8364,-251
1607178052.8381,-136
1607178052.8421,-378
1607178052.8433,-242
1607178052.8453,-122
1607178052.8474,-189
1607178052.8493,-158
1607178052.8514,-95
1607178052.8532,-122
1607178052.8551,-136
1607178052.8571,-93
1607178052.8591,-67
1607178052.8613,-67
1607178052.8631,-33
1607178052.8651,9
1607178052.8671,23
1607178052.8691,38
1607178052.8712,59
1607178052.8726,79
1607178052.8743,119
1607178052.8762,172
1607178052.8782,218
1607178052.8802,261
1607178052.8822,297
1607178052.8842,316
1607178052.8862,325
1607178052.8882,309
1607178052.8903,278
1607178052.8915,249
1607178052.8932,179
1607178052.8953,81
1607178052.8972,14
1607178052.8992,-28
1607178052.9012,-79
1607178053.2900,-119
1607178053.2918,-136
1607178053.2943,-129
1607178053.2969,-124
1607178053.2989,-124
1607178053.3010,-124
1607178053.3031,-112
1607178053.3049,-86
1607178053.3070,-76
1607178053.3083,-105
1607178053.3099,-112
1607178053.3121,-83
1607178053.3154,-74
1607178053.3182,-83
1607178053.3207,-76
1607178053.3219,-52
1607178053.3239,-33
1607178053.3259,-28
1607178053.3279,-45
1607178053.3299,-64
1607178053.3324,-71
1607178053.3346,-64
1607178053.3367,-57
1607178053.3389,-71
1607178053.3414,-86
1607178053.3426,-59
1607178053.3439,-28
1607178053.3459,-40
1607178053.3483,-52
1607178053.3499,-67
1607178053.3519,-222
1607178053.3539,-397
1607178053.3559,-79
1607178053.3579,949
1607178053.3599,2195
1607178053.3619,2399
1607178053.3639,762
1607178053.3659,-793
1607178053.3679,-517
1607178053.3699,-50
1607178053.3719,-340
1607178053.3731,-354
1607178053.3749,-136
1607178053.3770,-189
1607178053.3789,-222
1607178053.3809,-127
1607178053.3829,-134
1607178053.3849,-172
1607178053.3869,-117
1607178053.3883,-83
1607178053.3899,-91
1607178053.3919,-59
1607178053.3939,-9
1607178053.3959,7
1607178053.3980,14
1607178053.3999,47
1607178053.4012,79
1607178053.4030,107
1607178053.4049,155
1607178053.4069,208
1607178053.4089,254
1607178053.4109,301
1607178053.4129,335
1607178053.4150,340
1607178053.4172,349
1607178053.4189,352
1607178053.4208,299
1607178053.4229,203
1607178053.4249,105
1607178053.4269,19
1607178053.4289,-50
1607178053.4311,-88
1607178053.4335,-119
1607178053.8291,-150
1607178053.8297,-167
1607178053.8323,-165
1607178053.8339,-148
1607178053.8358,-134
1607178053.8377,-134
1607178053.8397,-136
1607178053.8418,-131
1607178053.8437,-129
1607178053.8457,-131
1607178053.8477,-127
1607178053.8499,-107
1607178053.8518,-91
1607178053.8523,-79
1607178053.8538,-52
1607178053.8557,-35
1607178053.8577,-50
1607178053.8597,-74
1607178053.8618,-95
1607178053.8638,-100
1607178053.8660,-83
1607178053.8680,-79
1607178053.8698,-83
1607178053.8718,-79
1607178053.8738,-71
1607178053.8758,-74
1607178053.8778,-81
1607178053.8798,-74
1607178053.8819,-67
1607178053.8826,-117
1607178053.8840,-316
1607178053.8859,-402
1607178053.8878,131
1607178053.8898,1318
1607178053.8919,2413
1607178053.8938,2025
1607178053.8958,136
1607178053.8978,-841
1607178053.8999,-299
1607178053.9020,-141
1607178053.9038,-431
1607178053.9058,-292
1607178053.9081,-153
1607178053.9099,-237
1607178053.9118,-218
1607178053.9124,-143
1607178053.9138,-153
1607178053.9160,-150
1607178053.9180,-110
1607178053.9202,-98
1607178053.9218,-88
1607178053.9238,-50
1607178053.9258,-23
1607178053.9278,-7
1607178053.9298,21
1607178053.9320,47
1607178053.9340,76
1607178053.9359,127
1607178053.9379,174
1607178053.9398,206
1607178053.9418,246
1607178053.9424,285
1607178053.9438,304
1607178053.9458,325
1607178053.9572,330
1607178053.9589,301
1607178053.9609,242
1607178053.9629,160
1607178053.9651,69
1607178053.9670,-7
1607178053.9690,-62
1607178053.9712,-117
1607178053.9729,-158
1607178054.4008,-165
1607178054.4035,-160
1607178054.4056,-160
1607178054.4079,-148
1607178054.4101,-139
1607178054.4117,-143
1607178054.4135,-148
1607178054.4155,-141
1607178054.4175,-129
1607178054.4195,-131
1607178054.4217,-127
1607178054.4239,-103
1607178054.4260,-81
1607178054.4284,-76
1607178054.4305,-71
1607178054.4321,-64
1607178054.4335,-55
1607178054.4355,-55
1607178054.4366,-71
1607178054.4385,-88
1607178054.4413,-88
1607178054.4439,-86
1607178054.4460,-91
1607178054.4484,-88
1607178054.4506,-71
1607178054.4525,-64
1607178054.4545,-64
1607178054.4566,-47
1607178054.4585,-43
1607178054.4604,-98
1607178054.4625,-254
1607178054.4646,-383
1607178054.4666,-59
1607178054.4685,934
1607178054.4696,2111
1607178054.4715,2248
1607178054.4735,709
1607178054.4755,-675
1607178054.4775,-443
1607178054.4795,-95
1607178054.4815,-366
1607178054.4835,-349
1607178054.4855,-160
1607178054.4875,-201
1607178054.4895,-215
1607178054.4915,-136
1607178054.4935,-131
1607178054.4955,-146
1607178054.4975,-107
1607178054.4995,-83
1607178054.5008,-76
1607178054.5025,-57
1607178054.5045,-31
1607178054.5066,-4
1607178054.5084,23
1607178054.5107,50
1607178054.5156,74
1607178054.5175,100
1607178054.5199,139
1607178054.5266,189
1607178054.5285,222
1607178054.5395,254
1607178054.5424,289
1607178054.5437,294
1607178054.5457,275
1607178054.5475,266
1607178054.5526,244
1607178054.5545,189
1607178054.5605,110
1607178054.5664,19
1607178054.5684,-47
1607178054.5765,-76
1607178054.5775,-98
1607178054.9704,-129
1607178054.9731,-146
1607178054.9757,-131
1607178054.9783,-122
1607178054.9806,-122
1607178054.9822,-115
1607178054.9834,-100
1607178054.9851,-100
1607178054.9871,-100
1607178054.9891,-103
1607178054.9914,-105
1607178054.9935,-93
1607178054.9957,-86
1607178054.9984,-91
1607178055.0006,-74
1607178055.0021,-43
1607178055.0041,-43
1607178055.0061,-55
1607178055.0081,-45
1607178055.0101,-50
1607178055.0123,-76
1607178055.0146,-86
1607178055.0168,-76
1607178055.0189,-71
1607178055.0210,-69
1607178055.0224,-57
1607178055.0241,-45
1607178055.0261,-55
1607178055.0281,-69
1607178055.0302,-59
1607178055.0321,-55
1607178055.0341,-150
1607178055.0361,-318
1607178055.0381,-210
1607178055.0404,515
1607178055.0426,1641
1607178055.0450,2238
1607178055.0471,1270
1607178055.0495,-328
1607178055.0515,-603
1607178055.0531,-136
1607178055.0551,-232
1607178055.0571,-357
1607178055.0591,-184
1607178055.0611,-162
1607178055.0632,-218
1607178055.0651,-155
1607178055.0671,-107
1607178055.0691,-129
1607178055.0715,-122
1607178055.0731,-83
1607178055.0751,-71
1607178055.0772,-71
1607178055.0792,-45
1607178055.0809,-11
1607178055.0822,19
1607178055.0841,47
1607178055.0861,74
1607178055.0881,98
1607178055.0904,117
1607178055.0928,153
1607178055.0951,203
1607178055.0972,230
1607178055.0996,246
1607178055.1015,268
1607178055.1031,275
1607178055.1052,268
1607178055.1071,237
1607178055.1091,182
1607178055.1111,131
1607178055.1123,59
1607178055.1141,-26
1607178055.1161,-67
1607178055.5110,-79
1607178055.5136,-107
1607178055.5161,-117
1607178055.5183,-100
1607178055.5203,-98
1607178055.5220,-107
1607178055.5236,-100
1607178055.5256,-86
1607178055.5277,-107
1607178055.5296,-122
1607178055.5319,-86
1607178055.5340,-57
1607178055.5361,-71
1607178055.5385,-81
1607178055.5406,-76
1607178055.5421,-69
1607178055.5436,-57
1607178055.5456,-45
1607178055.5476,-26
1607178055.5497,-7
1607178055.5519,-7
1607178055.5541,-23
1607178055.5561,-55
1607178055.5583,-79
1607178055.5604,-64
1607178055.5619,-52
1607178055.5636,-57
1607178055.5660,-55
1607178055.5676,-50
1607178055.5687,-47
1607178055.5707,-35
1607178055.5726,-23
1607178055.5746,-31
1607178055.5768,-117
1607178055.5786,-289
1607178055.5808,-251
1607178055.5831,349
1607178055.5853,1418
1607178055.5877,2200
1607178055.5901,1550
1607178055.5918,-86
1607178055.5936,-647
1607178055.5958,-167
1607178055.5976,-155
1607178055.5996,-345
1607178055.6008,-194
1607178055.6026,-141
1607178055.6046,-218
1607178055.6066,-170
1607178055.6086,-103
1607178055.6106,-110
1607178055.6126,-103
1607178055.6146,-74
1607178055.6166,-64
1607178055.6186,-52
1607178055.6208,-31
1607178055.6232,-14
1607178055.6254,7
1607178055.6275,40
1607178055.6296,83
1607178055.6317,122
1607178055.6328,146
1607178055.6346,177
1607178055.6366,237
1607178055.6386,285
1607178055.6406,306
1607178055.6427,318
1607178055.6446,325
1607178055.6466,321
1607178055.6486,299
1607178055.6506,232
1607178055.6526,141
1607178055.6546,71
1607178056.1107,21
1607178056.1132,-40
1607178056.1158,-103
1607178056.1186,-136
1607178056.1208,-127
1607178056.1226,-122
1607178056.1243,-148
1607178056.1263,-158
1607178056.1283,-134
1607178056.1304,-131
1607178056.1322,-129
1607178056.1342,-98
1607178056.1363,-74
1607178056.1383,-79
1607178056.1406,-93
1607178056.1432,-93
1607178056.1458,-76
1607178056.1482,-81
1607178056.1507,-83
1607178056.1523,-64
1607178056.1543,-52
1607178056.1562,-45
1607178056.1584,-31
1607178056.1604,-14
1607178056.1623,-35
1607178056.1642,-81
1607178056.1663,-93
1607178056.1683,-79
1607178056.1703,-57
1607178056.1723,-50
1607178056.1745,-67
1607178056.1762,-67
1607178056.1783,-59
1607178056.1795,-69
1607178056.1817,-67
1607178056.1841,-57
1607178056.1864,-150
1607178056.1886,-323
1607178056.1909,-194
1607178056.1923,601
1607178056.1943,1869
1607178056.1963,2487
1607178056.1983,1215
1607178056.2004,-591
1607178056.2026,-663
1607178056.2051,-57
1607178056.2076,-244
1607178056.2100,-376
1607178056.2117,-165
1607178056.2128,-158
1607178056.2142,-201
1607178056.2163,-115
1607178056.2182,-98
1607178056.2205,-139
1607178056.2223,-110
1607178056.2243,-64
1607178056.2266,-59
1607178056.2283,-45
1607178056.2304,-9
1607178056.2323,31
1607178056.2342,57
1607178056.2363,57
1607178056.2383,81
1607178056.2404,131
1607178056.2423,170
1607178056.2436,206
1607178056.2453,268
1607178056.2473,337
1607178056.2493,359
1607178056.2516,349
1607178056.2539,361
1607178056.2563,361
1607178056.2590,316
1607178056.6494,244
1607178056.6519,162
1607178056.6528,67
1607178056.6543,-14
1607178056.6563,-83
1607178056.6570,-143
1607178056.6583,-170
1607178056.6605,-167
1607178056.6624,-162
1607178056.6643,-165
1607178056.6665,-162
1607178056.6686,-158
1607178056.6705,-160
1607178056.6724,-160
1607178056.6744,-139
1607178056.6763,-117
1607178056.6784,-107
1607178056.6804,-93
1607178056.6826,-98
1607178056.6845,-122
1607178056.6864,-100
1607178056.6870,-79
1607178056.6884,-110
1607178056.6905,-100
1607178056.6923,-40
1607178056.6944,-38
1607178056.6964,-88
1607178056.6985,-105
1607178056.7006,-91
1607178056.7027,-93
1607178056.7044,-100
1607178056.7064,-88
1607178056.7084,-76
1607178056.7104,-86
1607178056.7127,-98
1607178056.7143,-69
1607178056.7164,-45
1607178056.7173,-62
1607178056.7184,-124
1607178056.7205,-309
1607178056.7224,-402
1607178056.7244,127
1607178056.7263,1332
1607178056.7284,2473
1607178056.7304,2123
1607178056.7324,191
1607178056.7354,-853
1607178056.7364,-289
1607178056.7383,-107
1607178056.7405,-426
1607178056.7424,-289
1607178056.7444,-131
1607178056.7464,-222
1607178056.7473,-203
1607178056.7484,-122
1607178056.7506,-139
1607178056.7523,-146
1607178056.7543,-98
1607178056.7563,-86
1607178056.7583,-105
1607178056.7605,-64
1607178056.7623,-4
1607178056.7643,4
1607178056.7665,14
1607178056.7684,67
1607178056.7704,117
1607178056.7723,150
1607178056.7744,191
1607178056.7763,232
1607178056.7771,268
1607178056.7783,325
1607178056.7805,359
1607178056.7825,345
1607178057.2210,328
1607178057.2236,323
1607178057.2262,280
1607178057.2288,186
1607178057.2307,81
1607178057.2326,11
1607178057.2347,-52
1607178057.2366,-158
1607178057.2386,-210
1607178057.2408,-170
1607178057.2430,-158
1607178057.2454,-189
1607178057.2488,-174
1607178057.2512,-134
1607178057.2526,-150
1607178057.2546,-177
1607178057.2566,-141
1607178057.2590,-112
1607178057.2671,-136
1607178057.2696,-131
1607178057.2708,-105
1607178057.2725,-117
1607178057.2745,-105
1607178057.2766,-69
1607178057.2786,-91
1607178057.2806,-98
1607178057.2825,-43
1607178057.2833,-40
1607178057.2846,-98
1607178057.2866,-107
1607178057.2886,-86
1607178057.2906,-95
1607178057.2925,-110
1607178057.2945,-95
1607178057.2966,-69
1607178057.2985,-55
1607178057.3005,-64
1607178057.3027,-81
1607178057.3046,-62
1607178057.3066,-50
1607178057.3086,-170
1607178057.3106,-378
1607178057.3127,-280
1607178057.3140,486
1607178057.3156,1735
1607178057.3177,2511
1607178057.3196,1553
1607178057.3217,-299
1607178057.3236,-723
1607178057.3256,-162
1607178057.3277,-227
1607178057.3296,-412
1607178057.3317,-220
1607178057.3336,-165
1607178057.3356,-239
1607178057.3377,-179
1607178057.3396,-124
1607178057.3416,-150
1607178057.3436,-127
1607178057.3449,-76
1607178057.3466,-76
1607178057.3487,-74
1607178057.3507,-40
1607178057.3530,-9
1607178057.3546,19
1607178057.3566,47
1607178057.3586,74
1607178057.3607,107
1607178057.3627,141
1607178057.3647,179
1607178057.3666,234
1607178057.3686,292
1607178057.3708,328
1607178057.7595,325
1607178057.7604,316
1607178057.7627,325
1607178057.7644,297
1607178057.7664,198
1607178057.7684,100
1607178057.7704,35
1607178057.7723,-35
1607178057.7743,-103
1607178057.7763,-139
1607178057.7783,-153
1607178057.7804,-165
1607178057.7824,-172
1607178057.7843,-165
1607178057.7863,-153
1607178057.7883,-150
1607178057.7889,-143
1607178057.7904,-129
1607178057.7924,-122
1607178057.7944,-119
1607178057.7964,-122
1607178057.7984,-117
1607178057.8005,-112
1607178057.8024,-107
1607178057.8045,-105
1607178057.8064,-86
1607178057.8084,-57
1607178057.8104,-40
1607178057.8124,-47
1607178057.8144,-67
1607178057.8164,-86
1607178057.8185,-88
1607178057.8202,-86
1607178057.8214,-98
1607178057.8234,-86
1607178057.8254,-57
1607178057.8274,-59
1607178057.8294,-81
1607178057.8331,-86
1607178057.8343,-71
1607178057.8398,-55
1607178057.8427,-64
1607178057.8438,-160
1607178057.8456,-335
1607178057.8537,-254
1607178057.8603,464
1607178057.8614,1648
1607178057.8634,2360
1607178057.8739,1459
1607178057.8756,-256
1607178057.8776,-668
1607178057.8796,-165
1607178057.8816,-210
1607178057.8836,-361
1607178057.8856,-189
1607178057.8876,-153
1607178057.8897,-203
1607178057.8916,-136
1607178057.8936,-141
1607178057.8956,-182
1607178057.8976,-117
1607178057.9006,-71
1607178057.9026,-91
1607178057.9046,-69
1607178057.9051,-21
1607178057.9066,9
1607178057.9088,31
1607178057.9106,40
1607178057.9126,59
1607178057.9149,107
1607178057.9166,134
1607178057.9186,146
1607178057.9206,186
1607178058.3308,242
1607178058.3340,282
1607178058.3367,294
1607178058.3395,297
1607178058.3422,311
1607178058.3435,280
1607178058.3453,162
1607178058.3475,69
1607178058.3533,40
1607178058.3550,-31
1607178058.3570,-112
1607178058.3590,-122
1607178058.3612,-119
1607178058.3634,-146
1607178058.3652,-136
1607178058.3673,-117
1607178058.3690,-122
1607178058.3710,-131
1607178058.3730,-134
1607178058.3752,-127
1607178058.3772,-119
1607178058.3877,-105
1607178058.3891,-93
1607178058.3911,-91
1607178058.3931,-95
1607178058.3951,-95
1607178058.3971,-86
1607178058.4006,-76
1607178058.4051,-69
1607178058.4071,-57
1607178058.4091,-47
1607178058.4110,-50
1607178058.4130,-40
1607178058.4150,-50
1607178058.4171,-100
1607178058.4190,-122
1607178058.4210,-95
1607178058.4216,-74
1607178058.4230,-59
1607178058.4250,-52
1607178058.4270,-50
1607178058.4290,-50
1607178058.4311,-74
1607178058.4331,-76
1607178058.4350,-69
1607178058.4370,-184
1607178058.4390,-328
1607178058.4410,-64
1607178058.4430,798
1607178058.4450,1845
1607178058.4470,2082
1607178058.4491,850
1607178058.4511,-481
1607178058.4517,-455
1607178058.4530,-95
1607178058.4550,-263
1607178058.4570,-301
1607178058.4590,-139
1607178058.4611,-155
1607178058.4631,-222
1607178058.4652,-179
1607178058.4673,-127
1607178058.4691,-115
1607178058.4711,-93
1607178058.4732,-59
1607178058.4751,-47
1607178058.4771,-52
1607178058.4791,-28
1607178058.4811,21
1607178058.4823,31
1607178058.4847,23
1607178058.4861,74
1607178058.4881,139
1607178058.8703,148
1607178058.8730,155
1607178058.8759,218
1607178058.8783,266
1607178058.8804,251
1607178058.8822,273
1607178058.8843,313
1607178058.8861,266
1607178058.8881,191
1607178058.8985,170
1607178058.8998,112
1607178058.9012,0
1607178058.9031,-71
1607178058.9051,-79
1607178058.9071,-83
1607178058.9091,-110
1607178058.9111,-134
1607178058.9131,-136
1607178058.9151,-131
1607178058.9172,-127
1607178058.9286,-119
1607178058.9311,-115
1607178058.9327,-105
1607178058.9343,-105
1607178058.9362,-119
1607178058.9382,-112
1607178058.9394,-83
1607178058.9411,-91
1607178058.9432,-112
1607178058.9452,-98
1607178058.9473,-79
1607178058.9492,-76
1607178058.9512,-59
1607178058.9532,-23
1607178058.9552,-11
1607178058.9572,-40
1607178058.9592,-67
1607178058.9612,-74
1607178058.9632,-79
1607178058.9652,-76
1607178058.9672,-64
1607178058.9685,-59
1607178058.9706,-50
1607178058.9730,-35
1607178058.9753,-45
1607178058.9778,-67
1607178058.9799,-38
1607178058.9819,-7
1607178058.9835,-112
1607178058.9858,-321
1607178058.9871,-282
1607178058.9894,371
1607178058.9912,1514
1607178058.9932,2315
1607178058.9952,1603
1607178058.9972,-100
1607178058.9992,-656
1607178059.0006,-150
1607178059.0077,-158
1607178059.0093,-364
1607178059.0113,-201
1607178059.0183,-134
1607178059.0203,-198
1607178059.0222,-131
1607178059.0243,-83
1607178059.0262,-117
1607178059.0282,-103
1607178059.0302,-71
1607178059.0322,-59
1607178059.0476,-21
1607178059.0493,9
1607178059.0513,4
1607178059.0534,21
1607178059.4694,64
1607178059.4713,98
1607178059.4730,136
1607178059.4750,167
1607178059.4770,182
1607178059.4790,230
1607178059.4810,299
1607178059.4830,325
1607178059.4850,316
1607178059.4871,323
1607178059.4892,328
1607178059.4910,301
1607178059.4930,246
1607178059.4950,150
1607178059.4958,50
1607178059.4970,-14
1607178059.4991,-71
1607178059.5013,-127
1607178059.5030,-143
1607178059.5050,-155
1607178059.5070,-170
1607178059.5090,-158
1607178059.5109,-153
1607178059.5130,-153
1607178059.5152,-129
1607178059.5171,-100
1607178059.5198,-105
1607178059.5213,-134
1607178059.5230,-143
1607178059.5250,-117
1607178059.5256,-95
1607178059.5270,-100
1607178059.5290,-103
1607178059.5310,-83
1607178059.5331,-59
1607178059.5364,-69
1607178059.5381,-86
1607178059.5400,-69
1607178059.5565,-40
1607178059.5575,-40
1607178059.5592,-67
1607178059.5612,-71
1607178059.5632,-57
1607178059.5695,-76
1607178059.5712,-93
1607178059.5718,-79
1607178059.5731,-76
1607178059.5751,-71
1607178059.5785,-50
1607178059.5802,-38
1607178059.5850,-33
1607178059.5865,-45
1607178059.5869,-179
1607178059.5890,-378
1607178059.5910,-206
1607178059.5930,654
1607178059.5950,1926
1607178059.5970,2492
1607178059.5992,1205
1607178059.6012,-558
1607178059.6023,-630
1607178059.6040,-69
1607178059.6060,-258
1607178059.6080,-366
1607178059.6101,-148
1607178059.6120,-150
1607178059.6140,-208
1607178059.6162,-141
1607178059.6183,-115
1607178059.6201,-129
1607178059.6220,-103
1607178059.6241,-71
1607178059.6260,-57
1607178060.0096,-45
1607178060.0102,-31
1607178060.0125,0
1607178060.0143,55
1607178060.0167,79
1607178060.0183,81
1607178060.0204,122
1607178060.0223,182
1607178060.0243,230
1607178060.0250,263
1607178060.0263,304
1607178060.0283,347
1607178060.0304,347
1607178060.0323,321
1607178060.0343,316
1607178060.0363,297
1607178060.0383,213
1607178060.0404,117
1607178060.0423,7
1607178060.0444,-107
1607178060.0463,-143
1607178060.0484,-141
1607178060.0504,-174
1607178060.0523,-201
1607178060.0543,-194
1607178060.0549,-184
1607178060.0563,-177
1607178060.0583,-160
1607178060.0604,-162
1607178060.0623,-179
1607178060.0643,-153
1607178060.0663,-119
1607178060.0683,-136
1607178060.0704,-150
1607178060.0723,-129
1607178060.0743,-107
1607178060.0763,-100
1607178060.0783,-91
1607178060.0804,-79
1607178060.0823,-79
1607178060.0843,-81
1607178060.0849,-67
1607178060.0863,-67
1607178060.0883,-83
1607178060.0905,-93
1607178060.0923,-95
1607178060.0944,-91
1607178060.0963,-71
1607178060.0984,-67
1607178060.1004,-69
1607178060.1023,-64
1607178060.1043,-76
1607178060.1063,-86
1607178060.1083,-59
1607178060.1104,-43
1607178060.1126,-91
1607178060.1144,-266
1607178060.1153,-378
1607178060.1163,50
1607178060.1183,1131
1607178060.1203,2272
1607178060.1223,2202
1607178060.1243,517
1607178060.1263,-740
1607178060.1283,-407
1607178060.1303,-110
1607178060.1323,-364
1607178060.1343,-304
1607178060.1363,-136
1607178060.1383,-179
1607178060.1404,-196
1607178060.1424,-155
1607178060.1444,-158
1607178060.5852,-150
1607178060.5867,-110
1607178060.6102,-76
1607178060.6125,-50
1607178060.6146,-33
1607178060.6170,-47
1607178060.6191,-40
1607178060.6213,-2
1607178060.6228,35
1607178060.6248,71
1607178060.6268,115
1607178060.6288,148
1607178060.6311,186
1607178060.6338,251
1607178060.6359,297
1607178060.6380,306
1607178060.6401,309
1607178060.6419,316
1607178060.6438,292
1607178060.6458,220
1607178060.6478,153
1607178060.6498,81
1607178060.6518,-31
1607178060.6530,-107
1607178060.6548,-117
1607178060.6570,-150
1607178060.6588,-194
1607178060.6608,-177
1607178060.6628,-150
1607178060.6649,-155
1607178060.6668,-167
1607178060.6688,-155
1607178060.6710,-139
1607178060.6738,-136
1607178060.6760,-143
1607178060.6783,-141
1607178060.6805,-131
1607178060.6823,-122
1607178060.6838,-107
1607178060.6850,-86
1607178060.6869,-74
1607178060.6888,-88
1607178060.6908,-91
1607178060.6928,-76
1607178060.6948,-64
1607178060.6968,-55
1607178060.6988,-50
1607178060.7008,-67
1607178060.7028,-86
1607178060.7048,-88
1607178060.7068,-76
1607178060.7088,-64
1607178060.7111,-71
1607178060.7133,-74
1607178060.7155,-69
1607178060.7177,-76
1607178060.7200,-74
1607178060.7218,-62
1607178060.7238,-62
1607178060.7259,-127
1607178060.7279,-301
1607178060.7299,-261
1607178060.7324,414
1607178060.7346,1536
1607178060.7367,2252
1607178060.7388,1517
1607178060.7417,-122
1607178060.7441,-656
1607178060.7458,-186
1607178060.7478,-174
1607178060.7498,-352
1607178060.7510,-201
1607178060.7528,-139
1607178061.1805,-232
1607178061.1831,-222
1607178061.1858,-150
1607178061.1884,-119
1607178061.1906,-115
1607178061.1927,-100
1607178061.1951,-79
1607178061.1972,-64
1607178061.1995,-52
1607178061.2015,-31
1607178061.2031,-4
1607178061.2046,26
1607178061.2061,57
1607178061.2081,76
1607178061.2103,91
1607178061.2121,141
1607178061.2141,198
1607178061.2161,237
1607178061.2182,268
1607178061.2203,282
1607178061.2225,275
1607178061.2248,261
1607178061.2270,230
1607178061.2298,177
1607178061.2318,105
1607178061.2331,14
1607178061.2351,-71
1607178061.2363,-107
1607178061.2382,-129
1607178061.2408,-160
1607178061.2422,-160
1607178061.2442,-158
1607178061.2462,-150
1607178061.2482,-131
1607178061.2502,-155
1607178061.2522,-179
1607178061.2542,-134
1607178061.2562,-100
1607178061.2582,-127
1607178061.2605,-139
1607178061.2626,-105
1607178061.2648,-93
1607178061.2674,-122
1607178061.2695,-119
1607178061.2713,-86
1607178061.2731,-79
1607178061.2751,-86
1607178061.2772,-69
1607178061.2792,-50
1607178061.2811,-43
1607178061.2832,-45
1607178061.2852,-69
1607178061.2872,-76
1607178061.2891,-74
1607178061.2914,-93
1607178061.2936,-88
1607178061.2957,-64
1607178061.2977,-69
1607178061.3001,-76
1607178061.3018,-59
1607178061.3032,-38
1607178061.3051,-45
1607178061.3076,-64
1607178061.3091,-67
1607178061.3114,-165
1607178061.3136,-313
1607178061.3159,-127
1607178061.3179,647
1607178061.3200,1701
1607178061.3218,2082
1607178061.3231,989
1607178061.3251,-388
1607178061.3272,-484
1607178061.6904,-136
1607178061.6929,-263
1607178061.6955,-294
1607178061.6983,-146
1607178061.7004,-179
1607178061.7019,-225
1607178061.7040,-150
1607178061.7059,-110
1607178061.7079,-134
1607178061.7101,-134
1607178061.7123,-105
1607178061.7144,-81
1607178061.7171,-62
1607178061.7192,-45
1607178061.7212,-11
1607178061.7229,14
1607178061.7241,7
1607178061.7259,23
1607178061.7280,93
1607178061.7300,124
1607178061.7322,136
1607178061.7339,194
1607178061.7359,244
1607178061.7379,261
1607178061.7399,273
1607178061.7419,261
1607178061.7439,215
1607178061.7459,177
1607178061.7479,146
1607178061.7499,88
1607178061.7521,9
1607178061.7543,-47
1607178061.7627,-76
1607178061.7658,-100
1607178061.7680,-134
1607178061.7702,-155
1607178061.7719,-143
1607178061.7739,-134
1607178061.7759,-131
1607178061.7779,-115
1607178061.7804,-119
1607178061.7837,-136
1607178061.7859,-119
1607178061.7905,-93
1607178061.7920,-83
1607178061.7939,-91
1607178061.7961,-100
1607178061.7973,-88
1607178061.7989,-71
1607178061.8010,-79
1607178061.8029,-81
1607178061.8049,-76
1607178061.8069,-76
1607178061.8089,-69
1607178061.8110,-40
1607178061.8129,-26
1607178061.8150,-31
1607178061.8169,-31
1607178061.8189,-43
1607178061.8211,-76
1607178061.8233,-95
1607178061.8255,-86
1607178061.8277,-69
1607178061.8300,-59
1607178061.8319,-50
1607178061.8331,-45
1607178061.8349,-47
1607178061.8369,-47
1607178061.8389,-31
1607178061.8409,-45
1607178061.8429,-158
1607178061.8449,-301
1607178061.8469,-160
1607178062.2293,558
1607178062.2310,1644
1607178062.2335,2173
1607178062.2362,1188
1607178062.2384,-325
1607178062.2402,-544
1607178062.2416,-119
1607178062.2432,-232
1607178062.2451,-313
1607178062.2471,-143
1607178062.2492,-160
1607178062.2612,-213
1607178062.2622,-139
1607178062.2641,-112
1607178062.2676,-139
1607178062.2692,-115
1607178062.2711,-67
1607178062.2731,-50
1607178062.2754,-31
1607178062.2771,0
1607178062.2791,2
1607178062.2812,7
1607178062.2894,64
1607178062.2943,98
1607178062.2955,105
1607178062.2975,170
1607178062.3015,227
1607178062.3034,230
1607178062.3052,268
1607178062.3072,342
1607178062.3092,347
1607178062.3113,309
1607178062.3132,294
1607178062.3169,280
1607178062.3183,215
1607178062.3202,115
1607178062.3222,31
1607178062.3244,-33
1607178062.3252,-95
1607178062.3262,-146
1607178062.3282,-162
1607178062.3302,-158
1607178062.3357,-158
1607178062.3373,-160
1607178062.3393,-155
1607178062.3416,-153
1607178062.3432,-153
1607178062.3452,-143
1607178062.3472,-131
1607178062.3503,-124
1607178062.3524,-129
1607178062.3542,-131
1607178062.3562,-119
1607178062.3582,-91
1607178062.3590,-71
1607178062.3603,-79
1607178062.3622,-98
1607178062.3642,-100
1607178062.3668,-93
1607178062.3683,-83
1607178062.3703,-91
1607178062.3722,-86
1607178062.3742,-47
1607178062.3762,-4
1607178062.3782,-7
1607178062.3803,-50
1607178062.3840,-74
1607178062.3856,-67
1607178062.3874,-81
1607178062.3898,-86
1607178062.3915,-55
1607178062.3933,-50
1607178062.3953,-55
1607178062.8299,-43
1607178062.8409,-45
1607178062.8420,-43
1607178062.8435,-14
1607178062.8455,-64
1607178062.8475,-263
1607178062.8522,-378
1607178062.8535,52
1607178062.8543,1143
1607178062.8554,2274
1607178062.8575,2111
1607178062.8594,371
1607178062.8614,-776
1607178062.8634,-330
1607178062.8669,-50
1607178062.8684,-345
1607178062.8705,-287
1607178062.8724,-124
1607178062.8744,-179
1607178062.8764,-179
1607178062.8784,-110
1607178062.8804,-110
1607178062.8836,-107
1607178062.8856,-86
1607178062.8867,-69
1607178062.8884,-28
1607178062.8904,-2
1607178062.8924,0
1607178062.8944,33
1607178062.8964,79
1607178062.9002,98
1607178062.9017,110
1607178062.9034,143
1607178062.9054,208
1607178062.9075,268
1607178062.9094,306
1607178062.9114,347
1607178062.9134,388
1607178062.9167,402
1607178062.9184,376
1607178062.9196,337
1607178062.9214,304
1607178062.9234,203
1607178062.9254,50
1607178062.9274,-43
1607178062.9294,-91
1607178062.9315,-139
1607178062.9359,-160
1607178062.9373,-174
1607178062.9384,-191
1607178062.9404,-170
1607178062.9424,-170
1607178062.9445,-215
1607178062.9465,-208
1607178062.9502,-162
1607178062.9515,-150
1607178062.9524,-148
1607178062.9534,-122
1607178062.9554,-100
1607178062.9574,-93
1607178062.9594,-93
1607178062.9613,-117
1607178062.9634,-129
1607178062.9668,-103
1607178062.9684,-81
1607178062.9704,-74
1607178062.9724,-71
1607178062.9744,-88
1607178062.9764,-95
1607178062.9784,-67
1607178062.9804,-35
1607178062.9834,-40
1607178062.9844,-35
1607178063.4011,-19
1607178063.4027,-55
1607178063.4051,-105
1607178063.4068,-83
1607178063.4088,-55
1607178063.4109,-79
1607178063.4128,-79
1607178063.4148,-50
1607178063.4185,-47
1607178063.4199,-50
1607178063.4217,-23
1607178063.4239,-9
1607178063.4258,-131
1607178063.4277,-376
1607178063.4297,-337
1607178063.4305,349
1607178063.4353,1519
1607178063.4367,2399
1607178063.4389,1756
1607178063.4407,-52
1607178063.4427,-740
1607178063.4447,-194
1607178063.4467,-134
1607178063.4502,-364
1607178063.4518,-203
1607178063.4540,-124
1607178063.4557,-237
1607178063.4577,-196
1607178063.4597,-110
1607178063.4617,-131
1607178063.4637,-124
1607178063.4645,-69
1607178063.4673,-59
1607178063.4688,-43
1607178063.4709,14
1607178063.4731,11
1607178063.4748,-28
1607178063.4768,7
1607178063.4788,69
1607178063.4809,103
1607178063.4847,153
1607178063.4861,208
1607178063.4877,242
1607178063.4897,287
1607178063.4918,345
1607178063.4944,352
1607178063.4960,313
1607178063.4968,304
1607178063.5004,299
1607178063.5018,220
1607178063.5037,110
1607178063.5057,40
1607178063.5077,-23
1607178063.5097,-93
1607178063.5117,-139
1607178063.5137,-189
1607178063.5167,-210
1607178063.5177,-189
1607178063.5198,-179
1607178063.5217,-182
1607178063.5238,-153
1607178063.5257,-129
1607178063.5277,-119
1607178063.5286,-115
1607178063.5297,-131
1607178063.5335,-139
1607178063.5349,-131
1607178063.5367,-131
1607178063.5387,-107
1607178063.5407,-91
1607178063.5427,-81
1607178063.5447,-69
1607178063.5467,-86
1607178063.9391,-88
1607178063.9405,-50
1607178063.9429,-64
1607178063.9459,-115
1607178063.9469,-71
1607178063.9502,11
1607178063.9520,-4
1607178063.9536,-69
1607178063.9556,-71
1607178063.9576,-55
1607178063.9596,-76
1607178063.9616,-95
1607178063.9636,-79
1607178063.9669,-47
1607178063.9687,-28
1607178063.9710,-55
1607178063.9727,-86
1607178063.9747,-55
1607178063.9767,-14
1607178063.9787,-38
1607178063.9798,-146
1607178063.9840,-313
1607178063.9861,-249
1607178063.9876,385
1607178063.9896,1490
1607178063.9916,2293
1607178063.9936,1632
1607178063.9956,-55
1607178063.9976,-668
1607178064.0002,-177
1607178064.0016,-134
1607178064.0036,-364
1607178064.0056,-249
1607178064.0076,-153
1607178064.0096,-196
1607178064.0116,-170
1607178064.0124,-134
1607178064.0136,-139
1607178064.0168,-107
1607178064.0186,-74
1607178064.0206,-64
1607178064.0226,-45
1607178064.0246,-21
1607178064.0352,-11
1607178064.0368,-7
1607178064.0387,21
1607178064.0407,59
1607178064.0427,91
1607178064.0448,134
1607178064.0467,186
1607178064.0510,239
1607178064.0529,285
1607178064.0543,301
1607178064.0556,299
1607178064.0579,311
1607178064.0596,321
1607178064.0616,280
1607178064.0636,194
1607178064.0670,112
1607178064.0688,38
1607178064.0707,-43
1607178064.0726,-91
1607178064.0746,-98
1607178064.0769,-112
1607178064.0786,-165
1607178064.0806,-182
1607178064.0836,-143
1607178064.0847,-127
1607178064.0856,-139
1607178064.0867,-150
1607178064.0886,-155
1607178064.0906,-129
1607178064.0927,-98
1607178064.5100,-103
1607178064.5116,-98
1607178064.5141,-83
1607178064.5179,-91
1607178064.5199,-91
1607178064.5218,-62
1607178064.5238,-62
1607178064.5257,-100
1607178064.5277,-107
1607178064.5297,-81
1607178064.5309,-74
1607178064.5345,-52
1607178064.5361,-16
1607178064.5377,-40
1607178064.5398,-74
1607178064.5418,-40
1607178064.5437,-21
1607178064.5458,-52
1607178064.5478,-67
1607178064.5517,-59
1607178064.5531,-59
1607178064.5547,-62
1607178064.5567,-52
1607178064.5588,-45
1607178064.5608,-43
1607178064.5627,-43
1607178064.5639,-45
1607178064.5684,-47
1607178064.5699,-64
1607178064.5717,-177
1607178064.5737,-299
1607178064.5768,-28
1607178064.5813,831
1607178064.5859,1840
1607178064.5881,1998
1607178064.5888,757
1607178064.5897,-452
1607178064.5910,-354
1607178064.6042,-52
1607178064.6076,-261
1607178064.6096,-294
1607178064.6115,-134
1607178064.6136,-143
1607178064.6169,-167
1607178064.6187,-112
1607178064.6206,-95
1607178064.6227,-105
1607178064.6247,-91
1607178064.6251,-69
1607178064.6266,-55
1607178064.6286,-33
1607178064.6307,-4
1607178064.6328,19
1607178064.6348,33
1607178064.6366,47
1607178064.6386,76
1607178064.6406,115
1607178064.6426,155
1607178064.6446,189
1607178064.6465,218
1607178064.6497,254
1607178064.6507,289
1607178064.6526,306
1607178064.6546,297
1607178064.6552,275
1607178064.6566,234
1607178064.6586,170
1607178064.6606,93
1607178064.6626,23
1607178064.6646,-35
1607178064.6668,-86
1607178064.6686,-122
1607178064.6706,-136
1607178065.0800,-129
1607178065.0841,-119
1607178065.0854,-117
1607178065.0868,-119
1607178065.0888,-115
1607178065.0903,-95
1607178065.0918,-91
1607178065.0938,-112
1607178065.0958,-115
1607178065.0978,-91
1607178065.1019,-86
1607178065.1037,-93
1607178065.1054,-83
1607178065.1068,-64
1607178065.1088,-59
1607178065.1109,-64
1607178065.1128,-67
1607178065.1148,-69
1607178065.1188,-67
1607178065.1202,-67
1607178065.1218,-67
1607178065.1230,-57
1607178065.1249,-40
1607178065.1268,-23
1607178065.1288,-16
1607178065.1308,-14
1607178065.1349,-16
1607178065.1369,-26
1607178065.1388,-52
1607178065.1409,-59
1607178065.1428,-35
1607178065.1449,-35
1607178065.1468,-59
1607178065.1513,-50
1607178065.1534,-16
1607178065.1551,-7
1607178065.1562,-9
1607178065.1577,-35
1607178065.1598,-186
1607178065.1618,-321
1607178065.1638,21
1607178065.1679,1008
1607178065.1707,2130
1607178065.1720,2125
1607178065.1738,541
1607178065.1758,-651
1607178065.1778,-311
1607178065.1798,-33
1607178065.1861,-309
1607178065.1902,-254
1607178065.1916,-86
1607178065.1928,-162
1607178065.1939,-177
1607178065.1958,-79
1607178065.1978,-86
1607178065.2015,-124
1607178065.2033,-74
1607178065.2048,-31
1607178065.2068,-43
1607178065.2088,-23
1607178065.2109,11
1607178065.2132,16
1607178065.2148,38
1607178065.2188,98
1607178065.2202,134
1607178065.2218,146
1607178065.2238,196
1607178065.2260,268
1607178065.2275,323
1607178065.2289,366
1607178065.2308,385
1607178065.2347,376
1607178065.2367,371
1607178065.6207,369
1607178065.6223,306
1607178065.6241,191
1607178065.6260,100
1607178065.6280,31
1607178065.6301,-47
1607178065.6346,-115
1607178065.6361,-153
1607178065.6380,-174
1607178065.6391,-186
1607178065.6410,-182
1607178065.6430,-177
1607178065.6449,-179
1607178065.6470,-160
1607178065.6509,-134
1607178065.6523,-146
1607178065.6542,-158
1607178065.6561,-139
1607178065.6580,-127
1607178065.6600,-124
1607178065.6620,-95
1607178065.6640,-79
1607178065.6676,-98
1607178065.6693,-107
1607178065.6710,-91
1607178065.6721,-79
1607178065.6742,-86
1607178065.6760,-95
1607178065.6780,-95
1607178065.6801,-71
1607178065.6841,-45
1607178065.6862,-38
1607178065.6880,-28
1607178065.6901,-28
1607178065.6920,-57
1607178065.6940,-79
1607178065.6960,-76
1607178065.6980,-62
1607178065.7018,-47
1607178065.7041,-35
1607178065.7056,-45
1607178065.7068,-64
1607178065.7081,-57
1607178065.7100,-35
1607178065.7119,-38
1607178065.7140,-62
1607178065.7177,-162
1607178065.7190,-359
1607178065.7209,-263
1607178065.7230,579
1607178065.7250,1948
1607178065.7270,2607
1607178065.7290,1310
1607178065.7312,-565
1607178065.7381,-680
1607178065.7404,-52
1607178065.7416,-232
1607178065.7430,-378
1607178065.7450,-134
1607178065.7470,-115
1607178065.7511,-215
1607178065.7540,-165
1607178065.7549,-110
1607178065.7569,-122
1607178065.7589,-117
1607178065.7609,-88
1607178065.7629,-57
1607178065.7649,-35
1607178065.7678,-19
1607178065.7689,-2
1607178065.7710,26
1607178065.7732,50
1607178065.7742,76
1607178066.1902,127
1607178066.1918,182
1607178066.1945,234
1607178066.1970,309
1607178066.2012,373
1607178066.2034,402
1607178066.2049,421
1607178066.2069,431
1607178066.2089,417
1607178066.2109,349
1607178066.2129,230
1607178066.2149,98
1607178066.2175,-14
1607178066.2189,-88
1607178066.2199,-143
1607178066.2219,-179
1607178066.2238,-208
1607178066.2262,-256
1607178066.2279,-268
1607178066.2299,-222
1607178066.2336,-208
1607178066.2351,-227
1607178066.2369,-213
1607178066.2389,-184
1607178066.2409,-177
1607178066.2429,-160
1607178066.2449,-139
1607178066.2469,-136
1607178066.2503,-139
1607178066.2520,-134
1607178066.2533,-136
1607178066.2550,-129
1607178066.2570,-115
1607178066.2590,-107
1607178066.2609,-105
1607178066.2629,-88
1607178066.2673,-55
1607178066.2687,-33
1607178066.2700,-47
1607178066.2719,-76
1607178066.2739,-81
1607178066.2759,-81
1607178066.2779,-103
1607178066.2799,-103
1607178066.2835,-79
1607178066.2850,-74
1607178066.2861,-86
1607178066.2869,-81
1607178066.2889,-52
1607178066.2909,-26
1607178066.2929,-38
1607178066.2949,-74
1607178066.2969,-110
1607178066.3003,-254
1607178066.3020,-417
1607178066.3039,-98
1607178066.3059,958
1607178066.3079,2281
1607178066.3099,2533
1607178066.3119,846
1607178066.3139,-790
1607178066.3169,-536
1607178066.3178,-52
1607178066.3189,-347
1607178066.3209,-359
1607178066.3230,-129
1607178066.3250,-206
1607178066.3269,-268
1607178066.3294,-162
1607178066.3309,-146
1607178066.3347,-170
1607178066.3360,-122
1607178066.3379,-88
1607178066.7895,-93
1607178066.7909,-71
1607178066.7933,-28
1607178066.7944,11
1607178066.7960,33
1607178066.7980,28
1607178066.8013,62
1607178066.8032,131
1607178066.8051,182
1607178066.8071,232
1607178066.8091,309
1607178066.8110,369
1607178066.8130,397
1607178066.8173,424
1607178066.8186,436
1607178066.8201,412
1607178066.8219,333
1607178066.8240,198
1607178066.8260,55
1607178066.8269,-40
1607178066.8280,-105
1607178066.8300,-165
1607178066.8335,-210
1607178066.8350,-230
1607178066.8370,-232
1607178066.8390,-227
1607178066.8409,-215
1607178066.8429,-198
1607178066.8449,-189
1607178066.8469,-172
1607178066.8504,-162
1607178066.8520,-184
1607178066.8540,-182
1607178066.8559,-160
1607178066.8579,-150
1607178066.8587,-129
1607178066.8600,-112
1607178066.8620,-105
1607178066.8640,-81
1607178066.8669,-79
1607178066.8681,-105
1607178066.8700,-103
1607178066.8719,-83
1607178066.8741,-59
1607178066.8759,-35
1607178066.8779,-45
1607178066.8804,-69
1607178066.8836,-64
1607178066.8854,-67
1607178066.8871,-103
1607178066.8890,-112
1607178066.8905,-83
1607178066.8920,-67
1607178066.8940,-64
1607178066.8960,-52
1607178066.8981,-40
1607178066.9021,-57
1607178066.9038,-74
1607178066.9050,-141
1607178066.9070,-345
1607178066.9089,-345
1607178066.9110,357
1607178066.9129,1632
1607178066.9150,2538
1607178066.9176,1761
1607178066.9190,-141
1607178066.9219,-771
1607178066.9229,-186
1607178066.9239,-153
1607178066.9260,-400
1607178066.9280,-251
1607178066.9300,-167
1607178066.9338,-249
1607178067.3012,-213
1607178067.3026,-139
1607178067.3050,-139
1607178067.3077,-117
1607178067.3097,-62
1607178067.3117,-59
1607178067.3137,-93
1607178067.3169,-79
1607178067.3188,-38
1607178067.3207,-26
1607178067.3215,-9
1607178067.3229,50
1607178067.3247,107
1607178067.3267,148
1607178067.3287,179
1607178067.3307,208
1607178067.3336,268
1607178067.3348,337
1607178067.3367,352
1607178067.3387,347
1607178067.3407,357
1607178067.3427,316
1607178067.3447,213
1607178067.3467,107
1607178067.3507,4
1607178067.3523,-83
1607178067.3543,-134
1607178067.3558,-165
1607178067.3578,-198
1607178067.3598,-222
1607178067.3619,-225
1607178067.3638,-210
1607178067.3677,-194
1607178067.3691,-170
1607178067.3709,-141
1607178067.3728,-158
1607178067.3748,-186
1607178067.3768,-170
1607178067.3788,-146
1607178067.3808,-143
1607178067.3844,-124
1607178067.3863,-86
1607178067.3878,-67
1607178067.3900,-95
1607178067.3918,-134
1607178067.3938,-117
1607178067.3958,-79
1607178067.3978,-67
1607178067.4015,-57
1607178067.4028,-50
1607178067.4047,-55
1607178067.4067,-59
1607178067.4087,-62
1607178067.4108,-47
1607178067.4127,-57
1607178067.4147,-105
1607178067.4173,-105
1607178067.4187,-69
1607178067.4198,-71
1607178067.4217,-79
1607178067.4237,-47
1607178067.4257,-23
1607178067.4277,-23
1607178067.4297,-52
1607178067.4364,-167
1607178067.4377,-340
1607178067.4397,-215
1607178067.4417,541
1607178067.4437,1711
1607178067.4457,2370
1607178067.4477,1423
1607178067.4503,-278
1607178067.4519,-639
1607178067.8697,-107
1607178067.8711,-172
1607178067.8739,-373
1607178067.8762,-215
1607178067.8782,-143
1607178067.8802,-210
1607178067.8846,-179
1607178067.8861,-122
1607178067.8881,-131
1607178067.8902,-127
1607178067.8922,-74
1607178067.8941,-47
1607178067.8961,-76
1607178067.8982,-74
1607178067.9010,-19
1607178067.9022,16
1607178067.9041,35
1607178067.9061,67
1607178067.9081,112
1607178067.9102,162
1607178067.9121,186
1607178067.9141,210
1607178067.9169,280
