,ecg
1606922042.3081,3761.0
1606922042.311,4385.0
1606922042.3136,5129.0
1606922042.3162,5749.0
1606922042.3184,6191.0
1606922042.3206,6644.0
1606922042.3229,7060.0
1606922042.3241,7390.0
1606922042.326,7699.0
1606922042.328,7988.0
1606922042.33,8230.0
1606922042.3323,8450.0
1606922042.3351,8665.0
1606922042.3373,8862.0
1606922042.3394,9031.0
1606922042.3424,9187.0
1606922042.344,9335.0
1606922042.346,9474.0
1606922042.348,9601.0
1606922042.35,9723.0
1606922042.3521,9840.0
1606922042.354,9929.0
1606922042.356,10005.0
1606922042.3581,10094.0
1606922042.3657,10175.0
1606922042.3671,10245.0
1606922042.369,10307.0
1606922042.371,10367.0
1606922042.373,10419.0
1606922042.3749,10462.0
1606922042.3769,10496.0
1606922042.3789,10532.0
1606922042.3809,10572.0
1606922042.383,10594.0
1606922042.3849,10596.0
1606922042.3869,10611.0
1606922042.389,10635.0
1606922042.3909,10644.0
1606922042.393,10642.0
1606922042.3949,10649.0
1606922042.3969,10651.0
1606922042.3989,10630.0
1606922042.4009,10599.0
1606922042.403,10591.0
1606922042.4049,10591.0
1606922042.4069,10563.0
1606922042.4089,10522.0
1606922042.4109,10503.0
1606922042.4129,10484.0
1606922042.4149,10445.0
1606922042.4171,10410.0
1606922042.4189,10388.0
1606922042.4209,10352.0
1606922042.423,10290.0
1606922042.4249,10240.0
1606922042.4269,10209.0
1606922042.4289,10158.0
1606922042.4309,10099.0
1606922042.4329,10058.0
1606922042.4349,10024.0
1606922042.4369,9991.0
1606922042.4389,9960.0
1606922042.4409,9926.0
1606922042.4429,9862.0
1606922042.4449,9759.0
1606922042.4469,9658.0
1606922042.4489,9591.0
1606922042.4509,9541.0
1606922042.4529,9481.0
1606922042.4549,9407.0
1606922042.4569,9340.0
1606922042.4589,9283.0
1606922042.4608,9230.0
1606922042.8162,9189.0
1606922042.8171,9244.0
1606922042.8196,9627.0
1606922042.8222,10245.0
1606922042.8242,10424.0
1606922042.8262,9541.0
1606922042.8282,8007.0
1606922042.8302,7452.0
1606922042.8322,8187.0
1606922042.8342,8598.0
1606922042.8362,8359.0
1606922042.8382,8328.0
1606922042.8402,8405.0
1606922042.8422,8285.0
1606922042.8441,8204.0
1606922042.8461,8177.0
1606922042.8481,8077.0
1606922042.8501,8007.0
1606922042.8522,7979.0
1606922042.8541,7909.0
1606922042.8561,7828.0
1606922042.8581,7780.0
1606922042.8601,7739.0
1606922042.8622,7684.0
1606922042.8641,7629.0
1606922042.8661,7591.0
1606922042.8681,7550.0
1606922042.8701,7507.0
1606922042.8723,7472.0
1606922042.8742,7440.0
1606922042.8761,7405.0
1606922042.8781,7364.0
1606922042.8801,7316.0
1606922042.8821,7244.0
1606922042.8841,7149.0
1606922042.8861,7050.0
1606922042.8881,6948.0
1606922042.8902,6821.0
1606922042.8923,6670.0
1606922042.8942,6500.0
1606922042.8962,6330.0
1606922042.8982,6184.0
1606922042.9002,6065.0
1606922042.9022,5955.0
1606922042.9042,5852.0
1606922042.9062,5773.0
1606922042.9082,5711.0
1606922042.9101,5648.0
1606922042.9122,5601.0
1606922042.9141,5565.0
1606922042.9161,5512.0
1606922042.9181,5447.0
1606922042.9201,5397.0
1606922042.9221,5352.0
1606922042.9241,5297.0
1606922042.9261,5237.0
1606922042.9281,5182.0
1606922042.9301,5132.0
1606922042.9321,5077.0
1606922042.9341,5014.0
1606922042.9361,4962.0
1606922042.9381,4914.0
1606922042.9401,4856.0
1606922042.9421,4792.0
1606922042.9441,4734.0
1606922042.9461,4684.0
1606922042.9481,4627.0
1606922042.9501,4569.0
1606922042.9521,4524.0
1606922042.9541,4478.0
1606922042.9561,4426.0
1606922042.9581,4376.0
1606922042.9601,4332.0
1606922043.3868,4280.0
1606922043.3877,4227.0
1606922043.3901,4175.0
1606922043.3928,4127.0
1606922043.3948,4084.0
1606922043.3968,4041.0
1606922043.3992,4000.0
1606922043.4008,3959.0
1606922043.4028,3907.0
1606922043.4048,3847.0
1606922043.4068,3811.0
1606922043.4088,3777.0
1606922043.4108,3725.0
1606922043.4128,3672.0
1606922043.4147,3636.0
1606922043.4167,3603.0
1606922043.4187,3560.0
1606922043.4207,3517.0
1606922043.4227,3483.0
1606922043.4247,3447.0
1606922043.4267,3404.0
1606922043.4287,3361.0
1606922043.4307,3323.0
1606922043.4327,3289.0
1606922043.4347,3253.0
1606922043.4367,3213.0
1606922043.4387,3167.0
1606922043.4407,3129.0
1606922043.4427,3105.0
1606922043.4447,3079.0
1606922043.4468,3036.0
1606922043.4487,2997.0
1606922043.4508,2978.0
1606922043.4528,2950.0
1606922043.4546,2911.0
1606922043.4567,2899.0
1606922043.4587,2902.0
1606922043.4607,2861.0
1606922043.4628,2787.0
1606922043.4648,2720.0
1606922043.4668,2677.0
1606922043.4687,2655.0
1606922043.4707,2631.0
1606922043.4727,2595.0
1606922043.4748,2560.0
1606922043.4767,2536.0
1606922043.4787,2524.0
1606922043.4808,2536.0
1606922043.4827,2662.0
1606922043.4847,3119.0
1606922043.4867,3804.0
1606922043.4886,3990.0
1606922043.4907,2962.0
1606922043.4927,1361.0
1606922043.4947,1002.0
1606922043.4967,1844.0
1606922043.4987,2234.0
1606922043.5008,2091.0
1606922043.5028,2153.0
1606922043.5047,2253.0
1606922043.5067,2174.0
1606922043.5087,2138.0
1606922043.5107,2167.0
1606922043.5127,2150.0
1606922043.5147,2119.0
1606922043.5167,2115.0
1606922043.5187,2103.0
1606922043.5207,2088.0
1606922043.5227,2086.0
1606922043.5247,2083.0
1606922043.5267,2076.0
1606922043.5287,2074.0
1606922043.5307,2076.0
1606922043.9262,2079.0
1606922043.9268,2086.0
1606922043.9293,2100.0
1606922043.9319,2115.0
1606922043.9339,2122.0
1606922043.9359,2122.0
1606922043.938,2107.0
1606922043.9399,2088.0
1606922043.9419,2057.0
1606922043.9439,2002.0
1606922043.9459,1921.0
1606922043.9479,1835.0
1606922043.9499,1737.0
1606922043.9519,1622.0
1606922043.9538,1512.0
1606922043.9558,1421.0
1606922043.9578,1344.0
1606922043.9598,1284.0
1606922043.9619,1246.0
1606922043.9639,1217.0
1606922043.9658,1203.0
1606922043.9678,1201.0
1606922043.9698,1198.0
1606922043.9719,1198.0
1606922043.9738,1196.0
1606922043.9758,1184.0
1606922043.9778,1177.0
1606922043.9799,1172.0
1606922043.982,1167.0
1606922043.9841,1155.0
1606922043.9858,1143.0
1606922043.9878,1134.0
1606922043.9898,1122.0
1606922043.9919,1112.0
1606922043.9938,1105.0
1606922043.996,1091.0
1606922043.9979,1071.0
1606922043.9998,1057.0
1606922044.0019,1047.0
1606922044.0038,1038.0
1606922044.0058,1024.0
1606922044.0078,1012.0
1606922044.0098,1000.0
1606922044.0119,990.0
1606922044.0138,983.0
1606922044.0158,973.0
1606922044.0178,964.0
1606922044.0199,957.0
1606922044.022,945.0
1606922044.0238,935.0
1606922044.0258,928.0
1606922044.0278,925.0
1606922044.0298,916.0
1606922044.0319,904.0
1606922044.0338,897.0
1606922044.0358,892.0
1606922044.0378,880.0
1606922044.0398,870.0
1606922044.0419,863.0
1606922044.0438,856.0
1606922044.0458,844.0
1606922044.0478,837.0
1606922044.0498,832.0
1606922044.0519,825.0
1606922044.0538,815.0
1606922044.0558,813.0
1606922044.0578,808.0
1606922044.0598,796.0
1606922044.0619,789.0
1606922044.0638,784.0
1606922044.0658,779.0
1606922044.0679,770.0
1606922044.0698,758.0
1606922044.5268,753.0
1606922044.5277,748.0
1606922044.5302,744.0
1606922044.5329,739.0
1606922044.5348,732.0
1606922044.5368,712.0
1606922044.5389,696.0
1606922044.5408,696.0
1606922044.5428,710.0
1606922044.5447,727.0
1606922044.5468,746.0
1606922044.5487,756.0
1606922044.5507,741.0
1606922044.553,696.0
1606922044.5547,648.0
1606922044.5567,629.0
1606922044.5587,629.0
1606922044.5607,624.0
1606922044.5627,614.0
1606922044.5647,612.0
1606922044.5667,612.0
1606922044.5687,614.0
1606922044.5707,634.0
1606922044.5727,729.0
1606922044.5747,1141.0
1606922044.5767,1844.0
1606922044.5787,2193.0
1606922044.5807,1473.0
1606922044.5827,-40.0
1606922044.5847,-708.0
1606922044.5867,52.0
1606922044.5887,643.0
1606922044.5907,473.0
1606922044.5927,459.0
1606922044.5947,634.0
1606922044.5967,586.0
1606922044.5987,535.0
1606922044.6007,598.0
1606922044.6027,605.0
1606922044.6047,583.0
1606922044.6067,602.0
1606922044.6087,614.0
1606922044.6107,612.0
1606922044.6127,629.0
1606922044.6147,648.0
1606922044.6167,657.0
1606922044.6187,677.0
1606922044.6207,698.0
1606922044.6227,720.0
1606922044.6247,741.0
1606922044.6267,772.0
1606922044.6287,806.0
1606922044.6307,830.0
1606922044.6327,851.0
1606922044.6347,861.0
1606922044.6367,858.0
1606922044.6387,844.0
1606922044.6407,811.0
1606922044.6427,760.0
1606922044.6447,698.0
1606922044.6467,614.0
1606922044.6487,512.0
1606922044.6507,409.0
1606922044.6527,327.0
1606922044.6548,265.0
1606922044.6567,220.0
1606922044.6587,191.0
1606922044.6607,181.0
1606922044.6627,179.0
1606922044.6647,184.0
1606922044.6667,193.0
1606922044.6687,205.0
1606922044.6707,215.0
1606922045.0362,222.0
1606922045.0369,234.0
1606922045.0394,241.0
1606922045.042,241.0
1606922045.0439,241.0
1606922045.0459,241.0
1606922045.0482,244.0
1606922045.05,244.0
1606922045.052,241.0
1606922045.0539,244.0
1606922045.0559,244.0
1606922045.0579,236.0
1606922045.0599,224.0
1606922045.062,222.0
1606922045.064,224.0
1606922045.0659,222.0
1606922045.0679,217.0
1606922045.0699,217.0
1606922045.072,220.0
1606922045.0739,222.0
1606922045.0759,222.0
1606922045.0779,222.0
1606922045.0799,222.0
1606922045.0819,222.0
1606922045.0839,224.0
1606922045.086,227.0
1606922045.0879,229.0
1606922045.0899,227.0
1606922045.0919,227.0
1606922045.094,232.0
1606922045.0959,234.0
1606922045.0979,234.0
1606922045.0999,234.0
1606922045.102,236.0
1606922045.1039,236.0
1606922045.1059,236.0
1606922045.1079,236.0
1606922045.1099,241.0
1606922045.112,241.0
1606922045.1139,236.0
1606922045.1159,234.0
1606922045.1179,236.0
1606922045.1201,236.0
1606922045.122,236.0
1606922045.1239,236.0
1606922045.1259,239.0
1606922045.128,236.0
1606922045.1299,234.0
1606922045.132,239.0
1606922045.1339,239.0
1606922045.1359,239.0
1606922045.1379,239.0
1606922045.1399,239.0
1606922045.1419,236.0
1606922045.1439,236.0
1606922045.1459,236.0
1606922045.1479,234.0
1606922045.1499,227.0
1606922045.1519,224.0
1606922045.1539,244.0
1606922045.1559,267.0
1606922045.1579,289.0
1606922045.16,306.0
1606922045.162,315.0
1606922045.1639,299.0
1606922045.1659,256.0
1606922045.1679,224.0
1606922045.1699,217.0
1606922045.172,220.0
1606922045.1739,210.0
1606922045.1759,203.0
1606922045.1779,205.0
1606922045.1799,208.0
1606922045.6667,220.0
1606922045.6676,258.0
1606922045.6701,456.0
1606922045.6728,1016.0
1606922045.6747,1655.0
1606922045.6767,1629.0
1606922045.6789,502.0
1606922045.6807,-861.0
1606922045.6828,-880.0
1606922045.6847,16.0
1606922045.6866,253.0
1606922045.6887,62.0
1606922045.6907,181.0
1606922045.6926,287.0
1606922045.6946,208.0
1606922045.6966,217.0
1606922045.6986,275.0
1606922045.7005,260.0
1606922045.7026,256.0
1606922045.7046,284.0
1606922045.7068,294.0
1606922045.7087,301.0
1606922045.7106,320.0
1606922045.7126,337.0
1606922045.7146,354.0
1606922045.7166,382.0
1606922045.7187,416.0
1606922045.7206,445.0
1606922045.7226,473.0
1606922045.7246,507.0
1606922045.7266,540.0
1606922045.7286,564.0
1606922045.7306,579.0
1606922045.7326,588.0
1606922045.7346,590.0
1606922045.7366,576.0
1606922045.7386,547.0
1606922045.7406,500.0
1606922045.7426,430.0
1606922045.7446,342.0
1606922045.7466,236.0
1606922045.7486,141.0
1606922045.7506,62.0
1606922045.7526,9.0
1606922045.7546,-26.0
1606922045.7566,-45.0
1606922045.7586,-52.0
1606922045.7606,-50.0
1606922045.7626,-40.0
1606922045.7646,-31.0
1606922045.7666,-16.0
1606922045.7686,2.0
1606922045.7706,11.0
1606922045.7726,19.0
1606922045.7746,28.0
1606922045.7766,31.0
1606922045.7786,33.0
1606922045.7806,40.0
1606922045.7826,47.0
1606922045.7846,45.0
1606922045.7866,47.0
1606922045.7886,45.0
1606922045.7906,40.0
1606922045.7926,35.0
1606922045.7946,38.0
1606922045.7966,43.0
1606922045.7986,43.0
1606922045.8006,43.0
1606922045.8026,45.0
1606922045.8046,45.0
1606922045.8066,47.0
1606922045.8087,50.0
1606922045.8107,52.0
1606922046.1758,52.0
1606922046.1766,52.0
1606922046.179,59.0
1606922046.1816,64.0
1606922046.1836,66.0
1606922046.1856,69.0
1606922046.1877,74.0
1606922046.1896,81.0
1606922046.1917,81.0
1606922046.1936,78.0
1606922046.1956,76.0
1606922046.1976,76.0
1606922046.1996,81.0
1606922046.2016,81.0
1606922046.2036,74.0
1606922046.2056,74.0
1606922046.2076,81.0
1606922046.2096,83.0
1606922046.2116,83.0
1606922046.2136,88.0
1606922046.2156,93.0
1606922046.2176,90.0
1606922046.2196,88.0
1606922046.2216,90.0
1606922046.2236,95.0
1606922046.2256,95.0
1606922046.2277,95.0
1606922046.2296,100.0
1606922046.2316,107.0
1606922046.2336,107.0
1606922046.2356,95.0
1606922046.2376,102.0
1606922046.2396,126.0
1606922046.2416,136.0
1606922046.2435,138.0
1606922046.2456,169.0
1606922046.2476,200.0
1606922046.2496,189.0
1606922046.2516,145.0
1606922046.2535,107.0
1606922046.2556,100.0
1606922046.2576,110.0
1606922046.2597,112.0
1606922046.2617,107.0
1606922046.2636,107.0
1606922046.2656,110.0
1606922046.2676,119.0
1606922046.2697,162.0
1606922046.2716,303.0
1606922046.2738,748.0
1606922046.2756,1454.0
1606922046.2776,1758.0
1606922046.2796,882.0
1606922046.2816,-717.0
1606922046.2836,-1234.0
1606922046.2856,-416.0
1606922046.2876,98.0
1606922046.2896,-2.0
1606922046.2916,59.0
1606922046.2936,205.0
1606922046.2956,167.0
1606922046.2976,141.0
1606922046.2996,191.0
1606922046.3016,200.0
1606922046.3036,193.0
1606922046.3056,217.0
1606922046.3076,239.0
1606922046.3096,246.0
1606922046.3116,253.0
1606922046.3136,270.0
1606922046.3156,296.0
1606922046.3175,320.0
1606922046.3196,339.0
1606922046.7462,366.0
1606922046.7471,399.0
1606922046.7495,433.0
1606922046.7522,464.0
1606922046.7542,497.0
1606922046.7562,521.0
1606922046.7583,531.0
1606922046.7602,521.0
1606922046.7622,497.0
1606922046.7641,468.0
1606922046.7671,425.0
1606922046.7692,358.0
1606922046.7711,275.0
1606922046.7731,174.0
1606922046.7751,76.0
1606922046.7771,-4.0
1606922046.7791,-62.0
1606922046.7811,-102.0
1606922046.7837,-126.0
1606922046.784,-136.0
1606922046.7861,-131.0
1606922046.7881,-117.0
1606922046.7901,-100.0
1606922046.7921,-88.0
1606922046.7941,-78.0
1606922046.796,-62.0
1606922046.7982,-50.0
1606922046.8003,-45.0
1606922046.8021,-40.0
1606922046.8041,-28.0
1606922046.806,-23.0
1606922046.8081,-21.0
1606922046.8101,-16.0
1606922046.8122,-11.0
1606922046.8141,-11.0
1606922046.8148,-11.0
1606922046.8161,-7.0
1606922046.8181,-7.0
1606922046.8201,-9.0
1606922046.8221,-7.0
1606922046.8241,0.0
1606922046.8261,2.0
1606922046.8281,0.0
1606922046.83,0.0
1606922046.8321,2.0
1606922046.8341,2.0
1606922046.836,4.0
1606922046.8381,4.0
1606922046.8401,4.0
1606922046.8421,11.0
1606922046.8441,14.0
1606922046.8448,16.0
1606922046.8462,21.0
1606922046.8481,26.0
1606922046.8501,26.0
1606922046.8521,28.0
1606922046.8541,35.0
1606922046.8562,40.0
1606922046.8581,40.0
1606922046.8601,43.0
1606922046.8621,50.0
1606922046.8641,52.0
1606922046.8661,52.0
1606922046.8681,57.0
1606922046.87,59.0
1606922046.8721,59.0
1606922046.874,62.0
1606922046.8748,64.0
1606922046.8771,66.0
1606922046.8791,66.0
1606922046.8811,69.0
1606922046.8831,74.0
1606922046.885,74.0
1606922047.2861,59.0
1606922047.287,57.0
1606922047.2894,76.0
1606922047.2922,98.0
1606922047.294,124.0
1606922047.2963,153.0
1606922047.2983,167.0
1606922047.3,150.0
1606922047.3021,107.0
1606922047.304,64.0
1606922047.306,55.0
1606922047.308,64.0
1606922047.31,69.0
1606922047.312,66.0
1606922047.314,69.0
1606922047.316,74.0
1606922047.318,88.0
1606922047.32,122.0
1606922047.3221,275.0
1606922047.324,775.0
1606922047.326,1469.0
1606922047.328,1634.0
1606922047.3287,674.0
1606922047.331,-813.0
1606922047.3331,-1141.0
1606922047.335,-244.0
1606922047.337,181.0
1606922047.339,-26.0
1606922047.3411,35.0
1606922047.3431,186.0
1606922047.345,117.0
1606922047.347,98.0
1606922047.349,165.0
1606922047.3511,165.0
1606922047.3531,155.0
1606922047.3551,181.0
1606922047.357,193.0
1606922047.3578,198.0
1606922047.36,224.0
1606922047.362,248.0
1606922047.364,260.0
1606922047.366,282.0
1606922047.368,311.0
1606922047.37,339.0
1606922047.372,370.0
1606922047.374,406.0
1606922047.376,442.0
1606922047.378,468.0
1606922047.38,492.0
1606922047.3821,507.0
1606922047.384,502.0
1606922047.386,483.0
1606922047.388,452.0
1606922047.3887,401.0
1606922047.391,330.0
1606922047.393,236.0
1606922047.3952,131.0
1606922047.397,38.0
1606922047.399,-35.0
1606922047.401,-95.0
1606922047.403,-131.0
1606922047.405,-148.0
1606922047.407,-155.0
1606922047.409,-153.0
1606922047.411,-138.0
1606922047.413,-124.0
1606922047.415,-112.0
1606922047.417,-95.0
1606922047.4191,-88.0
1606922047.4197,-78.0
1606922047.4211,-64.0
1606922047.423,-57.0
1606922047.425,-52.0
1606922047.8569,-43.0
1606922047.8588,-35.0
1606922047.8613,-35.0
1606922047.8638,-33.0
1606922047.8658,-26.0
1606922047.8677,-28.0
1606922047.8698,-38.0
1606922047.8718,-35.0
1606922047.8736,-33.0
1606922047.8756,-35.0
1606922047.8776,-35.0
1606922047.8796,-31.0
1606922047.8804,-26.0
1606922047.8827,-23.0
1606922047.8846,-23.0
1606922047.8866,-19.0
1606922047.8886,-16.0
1606922047.8906,-14.0
1606922047.8926,-11.0
1606922047.8946,-7.0
1606922047.8966,-2.0
1606922047.8986,2.0
1606922047.9006,2.0
1606922047.9026,4.0
1606922047.9046,11.0
1606922047.9066,14.0
1606922047.9086,16.0
1606922047.9106,16.0
1606922047.9113,19.0
1606922047.9136,21.0
1606922047.9156,26.0
1606922047.9176,28.0
1606922047.9196,28.0
1606922047.9216,28.0
1606922047.9238,28.0
1606922047.9257,31.0
1606922047.9276,33.0
1606922047.9296,35.0
1606922047.9316,40.0
1606922047.9336,43.0
1606922047.9356,43.0
1606922047.9376,43.0
1606922047.9396,50.0
1606922047.9416,52.0
1606922047.9423,52.0
1606922047.9446,52.0
1606922047.9466,55.0
1606922047.9486,57.0
1606922047.9506,62.0
1606922047.9526,62.0
1606922047.9546,64.0
1606922047.9566,62.0
1606922047.9586,62.0
1606922047.9606,64.0
1606922047.9626,69.0
1606922047.9646,69.0
1606922047.9666,69.0
1606922047.9686,66.0
1606922047.9706,57.0
1606922047.9726,57.0
1606922047.9734,74.0
1606922047.9756,98.0
1606922047.9776,131.0
1606922047.9796,155.0
1606922047.9816,153.0
1606922047.9836,124.0
1606922047.9856,88.0
1606922047.9876,66.0
1606922047.9896,64.0
1606922047.9917,71.0
1606922047.9936,71.0
1606922047.9956,71.0
1606922047.9976,71.0
1606922048.3963,74.0
1606922048.3972,88.0
1606922048.3988,133.0
1606922048.4007,373.0
1606922048.4027,978.0
1606922048.4047,1579.0
1606922048.4067,1402.0
1606922048.4087,124.0
1606922048.4113,-1129.0
1606922048.4132,-894.0
1606922048.4146,-19.0
1606922048.4166,78.0
1606922048.4187,-76.0
1606922048.4207,88.0
1606922048.4226,150.0
1606922048.4246,64.0
1606922048.4266,98.0
1606922048.4286,148.0
1606922048.4306,126.0
1606922048.4326,126.0
1606922048.4346,155.0
1606922048.4366,165.0
1606922048.4386,177.0
1606922048.4406,196.0
1606922048.4426,215.0
1606922048.4446,236.0
1606922048.4466,265.0
1606922048.4486,284.0
1606922048.4506,308.0
1606922048.4526,342.0
1606922048.4546,382.0
1606922048.4566,421.0
1606922048.4586,452.0
1606922048.4606,473.0
1606922048.4626,483.0
1606922048.4646,476.0
1606922048.4666,461.0
1606922048.4686,435.0
1606922048.4706,382.0
1606922048.4726,306.0
1606922048.4746,212.0
1606922048.4766,112.0
1606922048.4786,21.0
1606922048.4806,-55.0
1606922048.4826,-114.0
1606922048.4846,-153.0
1606922048.4866,-169.0
1606922048.4886,-169.0
1606922048.4906,-157.0
1606922048.4926,-143.0
1606922048.4946,-138.0
1606922048.4966,-129.0
1606922048.4986,-114.0
1606922048.5006,-102.0
1606922048.5026,-93.0
1606922048.5046,-81.0
1606922048.5066,-69.0
1606922048.5086,-64.0
1606922048.5106,-59.0
1606922048.5126,-50.0
1606922048.5146,-45.0
1606922048.5166,-47.0
1606922048.5186,-47.0
1606922048.5207,-43.0
1606922048.5226,-38.0
1606922048.5246,-38.0
1606922048.5266,-40.0
1606922048.5286,-45.0
1606922048.5306,-45.0
1606922048.5326,-43.0
1606922048.5346,-43.0
1606922048.5366,-38.0
1606922048.5387,-35.0
1606922048.9967,-31.0
1606922048.9978,-26.0
1606922049.0003,-26.0
1606922049.0029,-33.0
1606922049.0049,-33.0
1606922049.0068,-31.0
1606922049.0089,-28.0
1606922049.0108,-19.0
1606922049.0129,-11.0
1606922049.0148,-19.0
1606922049.0168,-21.0
1606922049.0188,-11.0
1606922049.0209,-2.0
1606922049.0228,2.0
1606922049.0248,2.0
1606922049.0269,2.0
1606922049.0288,2.0
1606922049.0309,7.0
1606922049.0329,9.0
1606922049.0348,9.0
1606922049.0368,7.0
1606922049.0388,11.0
1606922049.0408,21.0
1606922049.0428,21.0
1606922049.0448,19.0
1606922049.0468,21.0
1606922049.0489,28.0
1606922049.0508,31.0
1606922049.0528,26.0
1606922049.0548,26.0
1606922049.0568,33.0
1606922049.0588,40.0
1606922049.0608,38.0
1606922049.0628,35.0
1606922049.0648,43.0
1606922049.0668,45.0
1606922049.0688,38.0
1606922049.0708,40.0
1606922049.0727,50.0
1606922049.0747,45.0
1606922049.0768,31.0
1606922049.0789,33.0
1606922049.0808,57.0
1606922049.0828,78.0
1606922049.0848,100.0
1606922049.0868,126.0
1606922049.0888,133.0
1606922049.0907,110.0
1606922049.0928,69.0
1606922049.0947,43.0
1606922049.0967,40.0
1606922049.0987,47.0
1606922049.1007,47.0
1606922049.1028,43.0
1606922049.1048,50.0
1606922049.1068,57.0
1606922049.1088,69.0
1606922049.1107,107.0
1606922049.1128,284.0
1606922049.1148,815.0
1606922049.1168,1521.0
1606922049.1187,1614.0
1606922049.1207,456.0
1606922049.1227,-1047.0
1606922049.1248,-1146.0
1606922049.1267,-246.0
1606922049.1288,52.0
1606922049.1307,-76.0
1606922049.1328,47.0
1606922049.1347,150.0
1606922049.1367,88.0
1606922049.1387,90.0
1606922049.1407,138.0
1606922049.5664,126.0
1606922049.5672,122.0
1606922049.5697,148.0
1606922049.5723,162.0
1606922049.5743,169.0
1606922049.5763,189.0
1606922049.5784,208.0
1606922049.5803,227.0
1606922049.5824,248.0
1606922049.5843,270.0
1606922049.5863,291.0
1606922049.5883,322.0
1606922049.5903,354.0
1606922049.5923,380.0
1606922049.5943,409.0
1606922049.5963,433.0
1606922049.5983,445.0
1606922049.6003,440.0
1606922049.6023,421.0
1606922049.6045,389.0
1606922049.6063,334.0
1606922049.6083,265.0
1606922049.6103,186.0
1606922049.6123,95.0
1606922049.6142,4.0
1606922049.6162,-69.0
1606922049.6182,-124.0
1606922049.6202,-162.0
1606922049.6222,-181.0
1606922049.6243,-184.0
1606922049.6262,-174.0
1606922049.6282,-162.0
1606922049.6302,-150.0
1606922049.6323,-138.0
1606922049.6342,-122.0
1606922049.6362,-107.0
1606922049.6382,-98.0
1606922049.6402,-88.0
1606922049.6423,-81.0
1606922049.6442,-76.0
1606922049.6462,-66.0
1606922049.6482,-62.0
1606922049.6502,-57.0
1606922049.6523,-52.0
1606922049.6542,-52.0
1606922049.6562,-52.0
1606922049.6582,-45.0
1606922049.6602,-45.0
1606922049.6623,-47.0
1606922049.6642,-50.0
1606922049.6662,-47.0
1606922049.6682,-45.0
1606922049.6702,-43.0
1606922049.6722,-40.0
1606922049.6743,-38.0
1606922049.6762,-38.0
1606922049.6782,-38.0
1606922049.6802,-33.0
1606922049.6823,-26.0
1606922049.6842,-23.0
1606922049.6862,-23.0
1606922049.6882,-21.0
1606922049.6902,-16.0
1606922049.6923,-11.0
1606922049.6942,-9.0
1606922049.6964,-9.0
1606922049.6982,-4.0
1606922049.7003,-2.0
1606922049.7022,-2.0
1606922049.7043,2.0
1606922049.7064,7.0
1606922049.7083,9.0
1606922049.7103,11.0
1606922050.1058,14.0
1606922050.1065,11.0
1606922050.1089,14.0
1606922050.1115,19.0
1606922050.1135,14.0
1606922050.1155,11.0
1606922050.1176,16.0
1606922050.1195,19.0
1606922050.1215,19.0
1606922050.1235,23.0
1606922050.1255,21.0
1606922050.1275,14.0
1606922050.1295,16.0
1606922050.1315,21.0
1606922050.1335,21.0
1606922050.1354,23.0
1606922050.1375,28.0
1606922050.1395,33.0
1606922050.1416,33.0
1606922050.1435,31.0
1606922050.1454,35.0
1606922050.1475,43.0
1606922050.1495,40.0
1606922050.1515,38.0
1606922050.1535,38.0
1606922050.1555,38.0
1606922050.1575,31.0
1606922050.1595,21.0
1606922050.1614,28.0
1606922050.1635,47.0
1606922050.1655,74.0
1606922050.1675,105.0
1606922050.1694,124.0
1606922050.1715,124.0
1606922050.1735,100.0
1606922050.1755,64.0
1606922050.1776,43.0
1606922050.1794,35.0
1606922050.1815,40.0
1606922050.1834,45.0
1606922050.1855,47.0
1606922050.1874,47.0
1606922050.1895,50.0
1606922050.1915,66.0
1606922050.1935,119.0
1606922050.1954,382.0
1606922050.1974,1004.0
1606922050.1994,1569.0
1606922050.2017,1342.0
1606922050.2035,57.0
1606922050.2055,-1146.0
1606922050.2075,-858.0
1606922050.2094,7.0
1606922050.2115,64.0
1606922050.2135,-95.0
1606922050.2155,71.0
1606922050.2175,122.0
1606922050.2195,38.0
1606922050.2215,81.0
1606922050.2235,126.0
1606922050.2255,105.0
1606922050.2274,114.0
1606922050.2295,143.0
1606922050.2315,153.0
1606922050.2335,165.0
1606922050.2355,186.0
1606922050.2375,205.0
1606922050.2395,227.0
1606922050.2415,253.0
1606922050.2435,279.0
1606922050.2455,306.0
1606922050.2475,337.0
1606922050.2495,373.0
1606922050.6759,406.0
1606922050.6769,437.0
1606922050.6793,461.0
1606922050.682,473.0
1606922050.6839,468.0
1606922050.6859,449.0
1606922050.6879,416.0
1606922050.6899,356.0
1606922050.692,267.0
1606922050.6939,172.0
1606922050.6959,76.0
1606922050.6979,-19.0
1606922050.6999,-93.0
1606922050.7019,-145.0
1606922050.7038,-181.0
1606922050.7058,-200.0
1606922050.7078,-198.0
1606922050.7098,-196.0
1606922050.7119,-189.0
1606922050.7138,-172.0
1606922050.7159,-157.0
1606922050.7178,-143.0
1606922050.7198,-126.0
1606922050.7219,-117.0
1606922050.7238,-105.0
1606922050.7258,-93.0
1606922050.728,-81.0
1606922050.7299,-76.0
1606922050.7319,-69.0
1606922050.7338,-59.0
1606922050.7358,-57.0
1606922050.7378,-59.0
1606922050.7399,-52.0
1606922050.7419,-50.0
1606922050.7438,-52.0
1606922050.7458,-52.0
1606922050.7478,-50.0
1606922050.7499,-50.0
1606922050.7519,-50.0
1606922050.7538,-50.0
1606922050.7558,-47.0
1606922050.7579,-45.0
1606922050.7598,-43.0
1606922050.7619,-40.0
1606922050.7638,-35.0
1606922050.7658,-33.0
1606922050.7679,-33.0
1606922050.7699,-31.0
1606922050.7719,-26.0
1606922050.7738,-23.0
1606922050.7758,-21.0
1606922050.7778,-19.0
1606922050.7798,-14.0
1606922050.7819,-11.0
1606922050.7838,-11.0
1606922050.7858,-4.0
1606922050.7878,0.0
1606922050.7899,2.0
1606922050.7919,2.0
1606922050.7938,4.0
1606922050.7958,7.0
1606922050.7979,7.0
1606922050.7998,9.0
1606922050.8019,9.0
1606922050.8038,9.0
1606922050.8058,11.0
1606922050.8078,11.0
1606922050.8098,14.0
1606922050.8119,21.0
1606922050.8138,21.0
1606922050.8158,19.0
1606922050.8178,21.0
1606922050.8198,21.0
1606922051.216,21.0
1606922051.2169,23.0
1606922051.2189,26.0
1606922051.2207,26.0
1606922051.2229,31.0
1606922051.2247,31.0
1606922051.2267,23.0
1606922051.2287,26.0
1606922051.2307,31.0
1606922051.2327,21.0
1606922051.2346,16.0
1606922051.2366,23.0
1606922051.2386,26.0
1606922051.2406,23.0
1606922051.2427,23.0
1606922051.2447,23.0
1606922051.2466,21.0
1606922051.2486,19.0
1606922051.2506,23.0
1606922051.2527,26.0
1606922051.2546,26.0
1606922051.2567,26.0
1606922051.2586,26.0
1606922051.2606,31.0
1606922051.2626,26.0
1606922051.2646,16.0
1606922051.2666,19.0
1606922051.2686,38.0
1606922051.2706,62.0
1606922051.2726,90.0
1606922051.2746,112.0
1606922051.2766,117.0
1606922051.2787,98.0
1606922051.2806,62.0
1606922051.2826,33.0
1606922051.2846,26.0
1606922051.2866,31.0
1606922051.2886,33.0
1606922051.2906,31.0
1606922051.2926,28.0
1606922051.2946,28.0
1606922051.2966,40.0
1606922051.2986,76.0
1606922051.3006,229.0
1606922051.3026,715.0
1606922051.3046,1361.0
1606922051.3067,1490.0
1606922051.3086,564.0
1606922051.3106,-839.0
1606922051.3126,-1110.0
1606922051.3146,-246.0
1606922051.3166,129.0
1606922051.3186,-69.0
1606922051.3206,2.0
1606922051.3226,143.0
1606922051.3247,71.0
1606922051.3266,57.0
1606922051.3286,122.0
1606922051.3306,117.0
1606922051.3326,105.0
1606922051.3347,133.0
1606922051.3366,153.0
1606922051.3386,160.0
1606922051.3406,177.0
1606922051.3426,196.0
1606922051.3446,217.0
1606922051.3466,244.0
1606922051.3486,270.0
1606922051.3506,299.0
1606922051.3526,327.0
1606922051.3547,356.0
1606922051.3567,389.0
1606922051.3586,428.0
1606922051.7563,454.0
1606922051.7573,468.0
1606922051.7598,471.0
1606922051.7624,464.0
1606922051.7643,442.0
1606922051.7663,392.0
1606922051.7684,318.0
1606922051.7703,232.0
1606922051.7723,136.0
1606922051.7743,35.0
1606922051.7762,-55.0
1606922051.7783,-117.0
1606922051.7803,-157.0
1606922051.7823,-181.0
1606922051.7842,-191.0
1606922051.7862,-193.0
1606922051.7882,-191.0
1606922051.7902,-179.0
1606922051.7923,-160.0
1606922051.7942,-145.0
1606922051.7962,-131.0
1606922051.7982,-124.0
1606922051.8002,-114.0
1606922051.8023,-100.0
1606922051.8043,-88.0
1606922051.8062,-83.0
1606922051.8083,-76.0
1606922051.8104,-66.0
1606922051.8124,-66.0
1606922051.8142,-71.0
1606922051.8162,-69.0
1606922051.8182,-62.0
1606922051.8202,-59.0
1606922051.8225,-66.0
1606922051.8244,-66.0
1606922051.8262,-62.0
1606922051.8282,-59.0
1606922051.8302,-64.0
1606922051.8323,-62.0
1606922051.8342,-55.0
1606922051.8362,-55.0
1606922051.8382,-52.0
1606922051.8403,-45.0
1606922051.8423,-40.0
1606922051.8443,-43.0
1606922051.8462,-45.0
1606922051.8482,-43.0
1606922051.8502,-40.0
1606922051.8523,-38.0
1606922051.8543,-33.0
1606922051.8563,-28.0
1606922051.8582,-28.0
1606922051.8602,-26.0
1606922051.8622,-21.0
1606922051.8643,-19.0
1606922051.8663,-16.0
1606922051.8682,-14.0
1606922051.8703,-9.0
1606922051.8722,-11.0
1606922051.8743,-11.0
1606922051.8762,-9.0
1606922051.8782,-11.0
1606922051.8802,-9.0
1606922051.8823,-4.0
1606922051.8842,-7.0
1606922051.8862,-4.0
1606922051.8882,7.0
1606922051.8902,7.0
1606922051.8923,4.0
1606922051.8942,9.0
1606922051.8962,14.0
1606922051.8982,11.0
1606922051.9002,7.0
1606922052.3563,4.0
1606922052.3573,4.0
1606922052.3598,7.0
1606922052.3624,7.0
1606922052.3643,2.0
1606922052.3663,2.0
1606922052.3684,7.0
1606922052.3704,4.0
1606922052.3723,0.0
1606922052.3742,4.0
1606922052.3762,14.0
1606922052.3784,19.0
1606922052.3804,16.0
1606922052.3823,26.0
1606922052.3842,38.0
1606922052.3862,45.0
1606922052.3882,62.0
1606922052.3902,95.0
1606922052.3923,110.0
1606922052.3942,74.0
1606922052.3962,23.0
1606922052.3982,4.0
1606922052.4002,14.0
1606922052.4022,16.0
1606922052.4042,16.0
1606922052.4062,21.0
1606922052.4082,26.0
1606922052.4102,28.0
1606922052.4123,47.0
1606922052.4142,110.0
1606922052.4163,351.0
1606922052.4182,957.0
1606922052.4202,1595.0
1606922052.4223,1423.0
1606922052.4242,62.0
1606922052.4262,-1232.0
1606922052.4282,-990.0
1606922052.4302,-136.0
1606922052.4323,7.0
1606922052.4342,-78.0
1606922052.4362,69.0
1606922052.4382,122.0
1606922052.4402,64.0
1606922052.4423,93.0
1606922052.4442,131.0
1606922052.4462,119.0
1606922052.4482,129.0
1606922052.4502,155.0
1606922052.4523,167.0
1606922052.4543,179.0
1606922052.4562,198.0
1606922052.4582,212.0
1606922052.4602,227.0
1606922052.4623,256.0
1606922052.4642,289.0
1606922052.4662,313.0
1606922052.4682,342.0
1606922052.4702,380.0
1606922052.4723,423.0
1606922052.4742,456.0
1606922052.4763,480.0
1606922052.4782,495.0
1606922052.4804,490.0
1606922052.4823,468.0
1606922052.4842,430.0
1606922052.4862,380.0
1606922052.4882,306.0
1606922052.4902,208.0
1606922052.4923,102.0
1606922052.4942,2.0
1606922052.4962,-81.0
1606922052.4982,-138.0
1606922052.5002,-172.0
1606922052.9859,-196.0
1606922052.9867,-208.0
1606922052.9892,-203.0
1606922052.9918,-189.0
1606922052.9939,-174.0
1606922052.9958,-160.0
1606922052.998,-143.0
1606922052.9999,-136.0
1606922053.0019,-138.0
1606922053.0038,-133.0
1606922053.0058,-119.0
1606922053.0078,-110.0
1606922053.0098,-107.0
1606922053.0118,-102.0
1606922053.0137,-95.0
1606922053.0157,-88.0
1606922053.0177,-83.0
1606922053.0198,-83.0
1606922053.0218,-83.0
1606922053.0237,-83.0
1606922053.0258,-86.0
1606922053.0277,-86.0
1606922053.0297,-83.0
1606922053.0318,-76.0
1606922053.0337,-71.0
1606922053.0357,-71.0
1606922053.0377,-74.0
1606922053.0397,-74.0
1606922053.0417,-69.0
1606922053.0437,-62.0
1606922053.0457,-59.0
1606922053.0478,-55.0
1606922053.0497,-52.0
1606922053.0517,-52.0
1606922053.0537,-50.0
1606922053.0557,-45.0
1606922053.0577,-43.0
1606922053.0597,-43.0
1606922053.0617,-40.0
1606922053.0637,-38.0
1606922053.0659,-33.0
1606922053.0677,-28.0
1606922053.0697,-26.0
1606922053.0717,-28.0
1606922053.0737,-28.0
1606922053.0758,-23.0
1606922053.0777,-21.0
1606922053.0798,-21.0
1606922053.0817,-14.0
1606922053.0837,-11.0
1606922053.0857,-14.0
1606922053.0877,-11.0
1606922053.0897,-4.0
1606922053.0904,-4.0
1606922053.0917,-7.0
1606922053.0938,-7.0
1606922053.0957,-7.0
1606922053.0977,-4.0
1606922053.0997,-2.0
1606922053.1017,0.0
1606922053.1038,0.0
1606922053.1057,-7.0
1606922053.1077,-16.0
1606922053.1097,-9.0
1606922053.1117,14.0
1606922053.1138,40.0
1606922053.1157,66.0
1606922053.1177,90.0
1606922053.1184,93.0
1606922053.1207,69.0
1606922053.1227,35.0
1606922053.1247,9.0
1606922053.1267,4.0
1606922053.4661,11.0
1606922053.4668,9.0
1606922053.4692,7.0
1606922053.4718,11.0
1606922053.4738,16.0
1606922053.4759,31.0
1606922053.4779,78.0
1606922053.4799,303.0
1606922053.4819,911.0
1606922053.4838,1552.0
1606922053.4845,1425.0
1606922053.4869,155.0
1606922053.4888,-1172.0
1606922053.4908,-1024.0
1606922053.4928,-119.0
1606922053.4948,40.0
1606922053.4968,-129.0
1606922053.4988,14.0
1606922053.501,93.0
1606922053.5029,14.0
1606922053.5048,40.0
1606922053.5068,95.0
1606922053.5088,78.0
1606922053.5108,86.0
1606922053.5128,117.0
1606922053.5148,124.0
1606922053.5155,131.0
1606922053.5178,155.0
1606922053.5198,179.0
1606922053.5218,196.0
1606922053.5238,222.0
1606922053.5258,256.0
1606922053.5278,289.0
1606922053.5298,322.0
1606922053.5318,361.0
1606922053.5338,399.0
1606922053.5358,433.0
1606922053.5378,456.0
1606922053.5398,471.0
1606922053.5418,471.0
1606922053.5438,452.0
1606922053.5458,416.0
1606922053.5465,358.0
1606922053.5488,279.0
1606922053.5508,181.0
1606922053.5528,71.0
1606922053.5548,-26.0
1606922053.5568,-100.0
1606922053.5588,-157.0
1606922053.5608,-193.0
1606922053.5629,-205.0
1606922053.5648,-210.0
1606922053.5668,-210.0
1606922053.5688,-198.0
1606922053.5708,-181.0
1606922053.5728,-169.0
1606922053.575,-157.0
1606922053.5768,-143.0
1606922053.5775,-129.0
1606922053.5799,-114.0
1606922053.5819,-105.0
1606922053.5839,-100.0
1606922053.5858,-88.0
1606922053.5879,-78.0
1606922053.5898,-76.0
1606922053.5918,-74.0
1606922053.5938,-71.0
1606922053.5958,-74.0
1606922053.5978,-71.0
1606922053.6001,-66.0
1606922053.6019,-69.0
1606922053.6038,-69.0
1606922053.6058,-69.0
1606922054.0363,-69.0
1606922054.0372,-64.0
1606922054.0396,-62.0
1606922054.0424,-62.0
1606922054.0443,-59.0
1606922054.0463,-55.0
1606922054.0484,-59.0
1606922054.0503,-66.0
1606922054.0523,-64.0
1606922054.0542,-52.0
1606922054.0562,-50.0
1606922054.0582,-50.0
1606922054.0602,-45.0
1606922054.0622,-40.0
1606922054.0642,-38.0
1606922054.0649,-35.0
1606922054.0672,-31.0
1606922054.0692,-26.0
1606922054.0712,-26.0
1606922054.0732,-28.0
1606922054.0752,-28.0
1606922054.0772,-23.0
1606922054.0792,-19.0
1606922054.0812,-21.0
1606922054.0833,-21.0
1606922054.0852,-21.0
1606922054.0872,-21.0
1606922054.0892,-19.0
1606922054.0912,-16.0
1606922054.0932,-14.0
1606922054.0952,-11.0
1606922054.0959,-7.0
1606922054.0982,-4.0
1606922054.1002,-2.0
1606922054.1022,0.0
1606922054.1042,2.0
1606922054.1065,2.0
1606922054.1082,4.0
1606922054.1102,7.0
1606922054.1123,7.0
1606922054.1142,11.0
1606922054.1162,11.0
1606922054.1182,9.0
1606922054.1202,2.0
1606922054.1222,-4.0
1606922054.1242,2.0
1606922054.1249,21.0
1606922054.1273,43.0
1606922054.1293,71.0
1606922054.1313,93.0
1606922054.1332,93.0
1606922054.1352,74.0
1606922054.1372,40.0
1606922054.1392,7.0
1606922054.1416,4.0
1606922054.1433,19.0
1606922054.1452,19.0
1606922054.1472,11.0
1606922054.1492,14.0
1606922054.1512,21.0
1606922054.1532,33.0
1606922054.1552,76.0
1606922054.1559,291.0
1606922054.1572,866.0
1606922054.1592,1473.0
1606922054.1612,1382.0
1606922054.1632,227.0
1606922054.1652,-1069.0
1606922054.1672,-1007.0
1606922054.1692,-124.0
1606922054.1712,76.0
1606922054.1732,-98.0
1606922054.1752,33.0
1606922054.5758,129.0
1606922054.5768,52.0
1606922054.5792,64.0
1606922054.5819,119.0
1606922054.5838,105.0
1606922054.5845,107.0
1606922054.5868,136.0
1606922054.5888,143.0
1606922054.5908,143.0
1606922054.5928,165.0
1606922054.5947,189.0
1606922054.5967,205.0
1606922054.5987,224.0
1606922054.6008,253.0
1606922054.6028,284.0
1606922054.6047,318.0
1606922054.6069,351.0
1606922054.6088,387.0
1606922054.6107,423.0
1606922054.6127,449.0
1606922054.6147,461.0
1606922054.6154,464.0
1606922054.6167,452.0
1606922054.6187,418.0
1606922054.6207,368.0
1606922054.6229,299.0
1606922054.6248,203.0
1606922054.6267,95.0
1606922054.6287,-2.0
1606922054.6307,-81.0
1606922054.6328,-141.0
1606922054.6347,-179.0
1606922054.6367,-196.0
1606922054.6387,-203.0
1606922054.6408,-200.0
1606922054.6428,-191.0
1606922054.6448,-179.0
1606922054.6461,-162.0
1606922054.6478,-145.0
1606922054.6497,-133.0
1606922054.6518,-124.0
1606922054.6537,-114.0
1606922054.6557,-107.0
1606922054.6578,-98.0
1606922054.6597,-88.0
1606922054.6618,-83.0
1606922054.6637,-83.0
1606922054.6657,-83.0
1606922054.6677,-81.0
1606922054.6697,-76.0
1606922054.6717,-74.0
1606922054.6737,-74.0
1606922054.6758,-74.0
1606922054.6778,-76.0
1606922054.6797,-74.0
1606922054.6817,-69.0
1606922054.6837,-69.0
1606922054.6857,-69.0
1606922054.6877,-66.0
1606922054.6897,-64.0
1606922054.6918,-59.0
1606922054.6938,-55.0
1606922054.6957,-55.0
1606922054.6977,-50.0
1606922054.6997,-50.0
1606922054.7017,-47.0
1606922054.7037,-43.0
1606922054.7057,-40.0
1606922054.7077,-35.0
1606922054.7098,-28.0
1606922054.7118,-28.0
1606922054.7137,-31.0
1606922054.7157,-26.0
1606922055.1457,-21.0
1606922055.1465,-19.0
1606922055.1489,-19.0
1606922055.1518,-16.0
1606922055.1536,-21.0
1606922055.1556,-31.0
1606922055.1576,-33.0
1606922055.1596,-28.0
1606922055.1616,-23.0
1606922055.1635,-23.0
1606922055.1655,-23.0
1606922055.1675,-14.0
1606922055.1695,-11.0
1606922055.1715,-19.0
1606922055.1736,-16.0
1606922055.1755,-7.0
1606922055.1775,-2.0
1606922055.1795,0.0
1606922055.1816,2.0
1606922055.1835,2.0
1606922055.1855,2.0
1606922055.1875,2.0
1606922055.1896,-4.0
1606922055.1916,-2.0
1606922055.1935,16.0
1606922055.1955,33.0
1606922055.1975,52.0
1606922055.1995,76.0
1606922055.2015,90.0
1606922055.2035,83.0
1606922055.2055,59.0
1606922055.2075,26.0
1606922055.2095,7.0
1606922055.2115,7.0
1606922055.2135,9.0
1606922055.2155,9.0
1606922055.2175,16.0
1606922055.2195,21.0
1606922055.2216,26.0
1606922055.2236,47.0
1606922055.2256,155.0
1606922055.2275,562.0
1606922055.2295,1256.0
1606922055.2316,1617.0
1606922055.2335,878.0
1606922055.2355,-681.0
1606922055.2375,-1335.0
1606922055.2395,-562.0
1606922055.2416,28.0
1606922055.2435,-81.0
1606922055.2455,-52.0
1606922055.2475,114.0
1606922055.2494,81.0
1606922055.2516,45.0
1606922055.2537,105.0
1606922055.2556,119.0
1606922055.2575,100.0
1606922055.2595,122.0
1606922055.2615,145.0
1606922055.2635,150.0
1606922055.2655,169.0
1606922055.2675,198.0
1606922055.2695,212.0
1606922055.2716,232.0
1606922055.2735,260.0
1606922055.2755,284.0
1606922055.2775,313.0
1606922055.2795,356.0
1606922055.2816,401.0
1606922055.2835,435.0
1606922055.2855,461.0
1606922055.2875,478.0
1606922055.2895,485.0
1606922055.7458,478.0
1606922055.7467,456.0
1606922055.7492,416.0
1606922055.7518,349.0
1606922055.7538,258.0
1606922055.7558,150.0
1606922055.7579,28.0
1606922055.7598,-71.0
1606922055.7618,-141.0
1606922055.7639,-186.0
1606922055.7658,-220.0
1606922055.7678,-236.0
1606922055.7698,-241.0
1606922055.7718,-229.0
1606922055.7738,-212.0
1606922055.7758,-196.0
1606922055.7777,-179.0
1606922055.7797,-165.0
1606922055.7818,-155.0
1606922055.7837,-143.0
1606922055.7857,-136.0
1606922055.7877,-129.0
1606922055.7897,-117.0
1606922055.7919,-107.0
1606922055.7938,-105.0
1606922055.7957,-100.0
1606922055.7977,-98.0
1606922055.7997,-98.0
1606922055.8018,-93.0
1606922055.8037,-90.0
1606922055.8057,-95.0
1606922055.8077,-95.0
1606922055.8099,-90.0
1606922055.8118,-86.0
1606922055.8137,-86.0
1606922055.8157,-86.0
1606922055.8177,-83.0
1606922055.8197,-78.0
1606922055.8217,-76.0
1606922055.8236,-74.0
1606922055.8258,-69.0
1606922055.8277,-66.0
1606922055.8297,-64.0
1606922055.8317,-57.0
1606922055.8337,-52.0
1606922055.8357,-52.0
1606922055.8377,-47.0
1606922055.8398,-38.0
1606922055.8418,-35.0
1606922055.8437,-43.0
1606922055.8457,-40.0
1606922055.8477,-31.0
1606922055.8497,-26.0
1606922055.8517,-26.0
1606922055.8538,-23.0
1606922055.8557,-19.0
1606922055.8577,-19.0
1606922055.8597,-19.0
1606922055.8618,-16.0
1606922055.8637,-9.0
1606922055.8657,-4.0
1606922055.8677,-7.0
1606922055.8697,-19.0
1606922055.8717,-19.0
1606922055.8737,0.0
1606922055.8757,16.0
1606922055.8777,28.0
1606922055.8797,55.0
1606922055.8817,78.0
1606922055.8837,74.0
1606922055.8857,40.0
1606922055.8877,7.0
1606922055.8897,-9.0
1606922056.2861,-9.0
1606922056.2871,-2.0
1606922056.2895,0.0
1606922056.2923,0.0
1606922056.2942,2.0
1606922056.2962,11.0
1606922056.2983,38.0
1606922056.3002,112.0
1606922056.3022,421.0
1606922056.3041,1086.0
1606922056.3063,1636.0
1606922056.3082,1201.0
1606922056.3101,-325.0
1606922056.3121,-1385.0
1606922056.3141,-851.0
1606922056.3161,-55.0
1606922056.3181,-38.0
1606922056.3201,-95.0
1606922056.3222,71.0
1606922056.3241,90.0
1606922056.3261,31.0
1606922056.3281,71.0
1606922056.3301,102.0
1606922056.3323,88.0
1606922056.3341,102.0
1606922056.3361,124.0
1606922056.3381,131.0
1606922056.3403,143.0
1606922056.3422,160.0
1606922056.3441,181.0
1606922056.3461,203.0
1606922056.3481,227.0
1606922056.3501,256.0
1606922056.3522,291.0
1606922056.3541,327.0
1606922056.3561,356.0
1606922056.3581,392.0
1606922056.3601,425.0
1606922056.3621,445.0
1606922056.3641,447.0
1606922056.3661,440.0
1606922056.3681,418.0
1606922056.3701,375.0
1606922056.3721,308.0
1606922056.3741,222.0
1606922056.3761,122.0
1606922056.3781,16.0
1606922056.3801,-71.0
1606922056.3821,-136.0
1606922056.3841,-177.0
1606922056.3861,-205.0
1606922056.388,-220.0
1606922056.3902,-217.0
1606922056.3922,-212.0
1606922056.3941,-205.0
1606922056.3961,-193.0
1606922056.3981,-179.0
1606922056.4001,-162.0
1606922056.4021,-148.0
1606922056.4041,-138.0
1606922056.4061,-129.0
1606922056.4083,-119.0
1606922056.4101,-110.0
1606922056.4121,-100.0
1606922056.4141,-95.0
1606922056.4161,-93.0
1606922056.4181,-90.0
1606922056.4201,-86.0
1606922056.4221,-83.0
1606922056.4241,-83.0
1606922056.4261,-81.0
1606922056.4281,-81.0
1606922056.4301,-78.0
1606922056.8261,-78.0
1606922056.8271,-76.0
1606922056.8296,-69.0
1606922056.8322,-66.0
1606922056.8341,-66.0
1606922056.8361,-64.0
1606922056.8382,-59.0
1606922056.8404,-59.0
1606922056.8422,-59.0
1606922056.8441,-62.0
1606922056.8461,-59.0
1606922056.8481,-55.0
1606922056.8501,-52.0
1606922056.8521,-50.0
1606922056.8541,-47.0
1606922056.8561,-43.0
1606922056.8581,-38.0
1606922056.8601,-31.0
1606922056.8621,-31.0
1606922056.8641,-31.0
1606922056.8661,-26.0
1606922056.8681,-23.0
1606922056.8701,-21.0
1606922056.8721,-19.0
1606922056.8742,-19.0
1606922056.8761,-14.0
1606922056.8781,-7.0
1606922056.8801,-4.0
1606922056.8821,-7.0
1606922056.8841,-4.0
1606922056.8861,2.0
1606922056.8881,0.0
1606922056.8901,0.0
1606922056.8921,4.0
1606922056.8941,4.0
1606922056.8961,-4.0
1606922056.8981,-4.0
1606922056.9001,14.0
1606922056.9021,40.0
1606922056.9043,69.0
1606922056.9061,93.0
1606922056.9081,98.0
1606922056.9101,86.0
1606922056.9121,50.0
1606922056.9141,14.0
1606922056.9161,2.0
1606922056.9181,9.0
1606922056.9201,7.0
1606922056.9221,2.0
1606922056.9241,4.0
1606922056.9261,11.0
1606922056.928,26.0
1606922056.9301,62.0
1606922056.9321,215.0
1606922056.9341,705.0
1606922056.9361,1370.0
1606922056.9381,1514.0
1606922056.9403,567.0
1606922056.9422,-875.0
1606922056.9441,-1184.0
1606922056.9461,-313.0
1606922056.9481,102.0
1606922056.9501,-83.0
1606922056.9521,-19.0
1606922056.9541,124.0
1606922056.9561,59.0
1606922056.9581,43.0
1606922056.9601,105.0
1606922056.9621,105.0
1606922056.9641,98.0
1606922056.9661,124.0
1606922056.9681,138.0
1606922056.9701,145.0
1606922057.4263,167.0
1606922057.4272,186.0
1606922057.4297,203.0
1606922057.4324,224.0
1606922057.4343,248.0
1606922057.4363,270.0
1606922057.4383,291.0
1606922057.4405,322.0
1606922057.4423,366.0
1606922057.4443,397.0
1606922057.4463,418.0
1606922057.4483,435.0
1606922057.4503,440.0
1606922057.4522,425.0
1606922057.4542,394.0
1606922057.4562,354.0
1606922057.4583,289.0
1606922057.4605,196.0
1606922057.4623,88.0
1606922057.4642,-11.0
1606922057.4662,-90.0
1606922057.4682,-150.0
1606922057.4702,-191.0
1606922057.4723,-210.0
1606922057.4743,-217.0
1606922057.4762,-215.0
1606922057.4782,-205.0
1606922057.4802,-186.0
1606922057.4823,-169.0
1606922057.4842,-160.0
1606922057.4862,-150.0
1606922057.4882,-136.0
1606922057.4903,-122.0
1606922057.4923,-114.0
1606922057.4942,-107.0
1606922057.4962,-102.0
1606922057.4982,-100.0
1606922057.5002,-98.0
1606922057.5023,-93.0
1606922057.5042,-88.0
1606922057.5062,-90.0
1606922057.5083,-90.0
1606922057.5102,-88.0
1606922057.5122,-86.0
1606922057.5142,-83.0
1606922057.5162,-83.0
1606922057.5182,-83.0
1606922057.5202,-78.0
1606922057.5223,-76.0
1606922057.5298,-74.0
1606922057.5312,-69.0
1606922057.5332,-66.0
1606922057.5352,-64.0
1606922057.5372,-62.0
1606922057.5392,-57.0
1606922057.5413,-50.0
1606922057.5432,-45.0
1606922057.5452,-45.0
1606922057.5472,-45.0
1606922057.5492,-40.0
1606922057.5512,-35.0
1606922057.5532,-31.0
1606922057.5552,-28.0
1606922057.5573,-23.0
1606922057.5593,-19.0
1606922057.5611,-16.0
1606922057.5632,-19.0
1606922057.5652,-21.0
1606922057.5674,-21.0
1606922057.5693,-16.0
1606922057.5712,-14.0
1606922057.5732,-9.0
1606922057.5753,-9.0
1606922057.9359,-7.0
1606922057.9367,-4.0
1606922057.9392,-2.0
1606922057.9418,2.0
1606922057.9437,4.0
1606922057.9458,4.0
1606922057.9479,4.0
1606922057.9497,2.0
1606922057.9517,-2.0
1606922057.9537,0.0
1606922057.9558,-4.0
1606922057.9577,-21.0
1606922057.9598,-14.0
1606922057.9618,14.0
1606922057.9637,33.0
1606922057.9657,52.0
1606922057.9677,78.0
1606922057.9697,83.0
1606922057.9717,57.0
1606922057.9737,21.0
1606922057.9758,0.0
1606922057.9777,2.0
1606922057.9797,2.0
1606922057.9818,0.0
1606922057.9837,2.0
1606922057.9857,11.0
1606922057.9877,14.0
1606922057.9897,21.0
1606922057.9918,66.0
1606922057.9937,303.0
1606922057.9957,911.0
1606922057.9977,1521.0
1606922057.9997,1351.0
1606922058.0017,66.0
1606922058.0037,-1201.0
1606922058.0057,-976.0
1606922058.0078,-93.0
1606922058.0097,28.0
1606922058.0118,-112.0
1606922058.0138,45.0
1606922058.0157,110.0
1606922058.0177,28.0
1606922058.0197,52.0
1606922058.0218,105.0
1606922058.0237,93.0
1606922058.0258,98.0
1606922058.0279,124.0
1606922058.0298,131.0
1606922058.0318,145.0
1606922058.0337,172.0
1606922058.0357,191.0
1606922058.0377,212.0
1606922058.0397,241.0
1606922058.0418,267.0
1606922058.0438,296.0
1606922058.0457,330.0
1606922058.0477,370.0
1606922058.0497,411.0
1606922058.0517,440.0
1606922058.0537,456.0
1606922058.0557,466.0
1606922058.0578,464.0
1606922058.0597,445.0
1606922058.0617,411.0
1606922058.0637,361.0
1606922058.0657,282.0
1606922058.0677,181.0
1606922058.0697,76.0
1606922058.0717,-21.0
1606922058.0737,-102.0
1606922058.0758,-167.0
1606922058.0777,-203.0
1606922058.0797,-217.0
1606922058.5058,-224.0
1606922058.507,-224.0
1606922058.5093,-205.0
1606922058.512,-189.0
1606922058.5139,-189.0
1606922058.5159,-181.0
1606922058.518,-162.0
1606922058.5199,-143.0
1606922058.5219,-138.0
1606922058.5238,-133.0
1606922058.5259,-119.0
1606922058.5278,-112.0
1606922058.5298,-112.0
1606922058.5319,-107.0
1606922058.5338,-100.0
1606922058.5358,-95.0
1606922058.5378,-95.0
1606922058.5398,-98.0
1606922058.5419,-100.0
1606922058.5438,-98.0
1606922058.5458,-90.0
1606922058.5478,-88.0
1606922058.5498,-88.0
1606922058.5519,-88.0
1606922058.554,-83.0
1606922058.5559,-81.0
1606922058.5579,-81.0
1606922058.5598,-81.0
1606922058.5619,-76.0
1606922058.5638,-74.0
1606922058.5658,-66.0
1606922058.5678,-62.0
1606922058.5698,-59.0
1606922058.5718,-52.0
1606922058.5738,-52.0
1606922058.5759,-52.0
1606922058.5779,-40.0
1606922058.5799,-31.0
1606922058.582,-33.0
1606922058.5838,-35.0
1606922058.5859,-33.0
1606922058.5879,-28.0
1606922058.5899,-23.0
1606922058.5919,-21.0
1606922058.5939,-14.0
1606922058.5958,-7.0
1606922058.5978,-9.0
1606922058.5998,-11.0
1606922058.6019,-7.0
1606922058.6038,0.0
1606922058.6058,-7.0
1606922058.6079,-9.0
1606922058.6098,11.0
1606922058.6118,31.0
1606922058.6138,26.0
1606922058.6158,38.0
1606922058.6178,76.0
1606922058.6198,90.0
1606922058.6218,57.0
1606922058.6238,9.0
1606922058.6259,-9.0
1606922058.6278,0.0
1606922058.6298,4.0
1606922058.6318,0.0
1606922058.6338,-2.0
1606922058.6358,4.0
1606922058.6378,11.0
1606922058.6398,33.0
1606922058.6419,102.0
1606922058.6438,346.0
1606922058.6458,954.0
1606922058.6478,1603.0
1606922058.6498,1409.0
1606922059.1361,-2.0
1606922059.1372,-1306.0
1606922059.14,-1047.0
1606922059.1423,-181.0
1606922059.1442,-26.0
1606922059.1462,-100.0
1606922059.1483,47.0
1606922059.1502,107.0
1606922059.1522,47.0
1606922059.1542,66.0
1606922059.1562,105.0
1606922059.1582,100.0
1606922059.1602,110.0
1606922059.1622,131.0
1606922059.1641,136.0
1606922059.1661,150.0
1606922059.1681,174.0
1606922059.1701,193.0
1606922059.1721,208.0
1606922059.1742,232.0
1606922059.1762,256.0
1606922059.1781,282.0
1606922059.1801,311.0
1606922059.1822,346.0
1606922059.1841,387.0
1606922059.1861,423.0
1606922059.1881,442.0
1606922059.1901,447.0
1606922059.1922,440.0
1606922059.1941,418.0
1606922059.1961,382.0
1606922059.1981,330.0
1606922059.2001,248.0
1606922059.2022,143.0
1606922059.2041,45.0
1606922059.2061,-40.0
1606922059.2082,-119.0
1606922059.2101,-177.0
1606922059.2122,-208.0
1606922059.2141,-222.0
1606922059.2161,-224.0
1606922059.2181,-217.0
1606922059.2201,-200.0
1606922059.2222,-184.0
1606922059.2242,-174.0
1606922059.2261,-162.0
1606922059.2281,-148.0
1606922059.2301,-138.0
1606922059.2322,-131.0
1606922059.2341,-122.0
1606922059.2361,-114.0
1606922059.2381,-110.0
1606922059.2401,-105.0
1606922059.2424,-102.0
1606922059.2442,-98.0
1606922059.2461,-90.0
1606922059.2481,-90.0
1606922059.2501,-93.0
1606922059.2521,-90.0
1606922059.2541,-86.0
1606922059.2561,-88.0
1606922059.2582,-86.0
1606922059.2601,-81.0
1606922059.2622,-78.0
1606922059.2641,-78.0
1606922059.2661,-71.0
1606922059.2681,-66.0
1606922059.2701,-66.0
1606922059.2722,-62.0
1606922059.2742,-59.0
1606922059.2761,-55.0
1606922059.2781,-50.0
1606922059.2801,-45.0
1606922059.6456,-45.0
1606922059.6463,-43.0
1606922059.6487,-38.0
1606922059.6515,-35.0
1606922059.6534,-31.0
1606922059.6541,-28.0
1606922059.6564,-26.0
1606922059.6585,-23.0
1606922059.6604,-21.0
1606922059.6624,-19.0
1606922059.6643,-19.0
1606922059.6663,-21.0
1606922059.6683,-19.0
1606922059.6703,-14.0
1606922059.6723,-19.0
1606922059.6744,-26.0
1606922059.6764,-21.0
1606922059.6783,-11.0
1606922059.6804,-16.0
1606922059.6823,-26.0
1606922059.683,-16.0
1606922059.6853,7.0
1606922059.6874,23.0
1606922059.6893,47.0
1606922059.6915,76.0
1606922059.6934,88.0
1606922059.6953,64.0
1606922059.6973,21.0
1606922059.6993,-4.0
1606922059.7015,-7.0
1606922059.7033,0.0
1606922059.7055,2.0
1606922059.7076,-2.0
1606922059.7094,-2.0
1606922059.7114,4.0
1606922059.7133,23.0
1606922059.714,66.0
1606922059.7163,267.0
1606922059.7183,839.0
1606922059.7203,1490.0
1606922059.7224,1449.0
1606922059.7243,275.0
1606922059.7265,-1100.0
1606922059.7283,-1076.0
1606922059.7303,-160.0
1606922059.7324,69.0
1606922059.7343,-114.0
1606922059.7363,16.0
1606922059.7383,119.0
1606922059.7404,40.0
1606922059.7424,50.0
1606922059.7443,107.0
1606922059.745,95.0
1606922059.7464,95.0
1606922059.7483,122.0
1606922059.7503,131.0
1606922059.7524,141.0
1606922059.7543,165.0
1606922059.7563,186.0
1606922059.7584,205.0
1606922059.7603,232.0
1606922059.7624,258.0
1606922059.7643,287.0
1606922059.7663,320.0
1606922059.7683,351.0
1606922059.7703,382.0
1606922059.7724,413.0
1606922059.7744,435.0
1606922059.775,447.0
1606922059.7765,442.0
1606922059.7784,425.0
1606922059.7803,389.0
1606922059.7824,337.0
1606922060.2157,260.0
1606922060.2167,167.0
1606922060.2192,62.0
1606922060.2218,-43.0
1606922060.2238,-119.0
1606922060.2258,-172.0
1606922060.2278,-210.0
1606922060.2297,-234.0
1606922060.2317,-241.0
1606922060.2325,-234.0
1606922060.2347,-217.0
1606922060.2366,-205.0
1606922060.2386,-193.0
1606922060.2408,-179.0
1606922060.2428,-160.0
1606922060.2446,-148.0
1606922060.2466,-141.0
1606922060.2486,-133.0
1606922060.2506,-119.0
1606922060.2527,-112.0
1606922060.2546,-110.0
1606922060.2566,-105.0
1606922060.2587,-100.0
1606922060.2607,-98.0
1606922060.2627,-95.0
1606922060.2633,-93.0
1606922060.2647,-93.0
1606922060.2666,-93.0
1606922060.2686,-88.0
1606922060.2706,-86.0
1606922060.2727,-86.0
1606922060.2747,-83.0
1606922060.2767,-83.0
1606922060.2786,-78.0
1606922060.2806,-74.0
1606922060.2827,-71.0
1606922060.2846,-69.0
1606922060.2866,-66.0
1606922060.2887,-64.0
1606922060.2907,-62.0
1606922060.2927,-57.0
1606922060.2933,-55.0
1606922060.2948,-52.0
1606922060.2967,-52.0
1606922060.2987,-43.0
1606922060.3007,-33.0
1606922060.3027,-40.0
1606922060.3046,-40.0
1606922060.3066,-23.0
1606922060.3087,-26.0
1606922060.3107,-33.0
1606922060.3127,-19.0
1606922060.3146,-2.0
1606922060.3166,-11.0
1606922060.3187,-28.0
1606922060.3206,-21.0
1606922060.3227,-2.0
1606922060.3233,-11.0
1606922060.3247,-33.0
1606922060.3267,-19.0
1606922060.3288,4.0
1606922060.3307,4.0
1606922060.3327,7.0
1606922060.3346,21.0
1606922060.3366,7.0
1606922060.3386,-4.0
1606922060.3407,16.0
1606922060.3427,26.0
1606922060.3446,7.0
1606922060.3466,35.0
1606922060.3503,100.0
1606922060.3508,107.0
1606922060.3528,57.0
1606922060.7561,7.0
1606922060.7571,-2.0
1606922060.7594,11.0
1606922060.7615,9.0
1606922060.763,-4.0
1606922060.765,-4.0
1606922060.767,4.0
1606922060.7691,19.0
1606922060.7711,43.0
1606922060.773,131.0
1606922060.7751,507.0
1606922060.777,1179.0
1606922060.7777,1550.0
1606922060.779,906.0
1606922060.781,-550.0
1606922060.7831,-1260.0
1606922060.7851,-555.0
1606922060.7871,76.0
1606922060.789,-47.0
1606922060.7911,-81.0
1606922060.7931,83.0
1606922060.795,69.0
1606922060.797,33.0
1606922060.799,98.0
1606922060.801,112.0
1606922060.803,86.0
1606922060.805,100.0
1606922060.8071,119.0
1606922060.8078,133.0
1606922060.8091,160.0
1606922060.811,172.0
1606922060.813,174.0
1606922060.815,203.0
1606922060.817,251.0
1606922060.819,282.0
1606922060.821,306.0
1606922060.823,342.0
1606922060.8251,361.0
1606922060.8274,370.0
1606922060.8291,404.0
1606922060.831,433.0
1606922060.833,433.0
1606922060.835,437.0
1606922060.837,433.0
1606922060.8377,397.0
1606922060.84,325.0
1606922060.8421,220.0
1606922060.8441,110.0
1606922060.846,0.0
1606922060.848,-98.0
1606922060.85,-150.0
1606922060.852,-179.0
1606922060.8541,-208.0
1606922060.856,-212.0
1606922060.8582,-220.0
1606922060.8601,-232.0
1606922060.8622,-208.0
1606922060.8641,-193.0
1606922060.866,-200.0
1606922060.868,-184.0
1606922060.87,-153.0
1606922060.872,-138.0
1606922060.874,-148.0
1606922060.8761,-141.0
1606922060.878,-112.0
1606922060.88,-112.0
1606922060.882,-143.0
1606922060.884,-155.0
1606922060.886,-119.0
1606922060.888,-81.0
1606922060.89,-93.0
1606922060.8921,-112.0
1606922060.894,-102.0
1606922061.3263,-100.0
1606922061.3274,-119.0
1606922061.3297,-126.0
1606922061.3324,-119.0
1606922061.3343,-112.0
1606922061.3363,-95.0
1606922061.3384,-88.0
1606922061.3404,-88.0
1606922061.3423,-88.0
1606922061.3444,-107.0
1606922061.3463,-131.0
1606922061.3483,-107.0
1606922061.3503,-62.0
1606922061.3523,-69.0
1606922061.3543,-86.0
1606922061.3563,-55.0
1606922061.3586,-47.0
1606922061.3604,-78.0
1606922061.3623,-69.0
1606922061.3643,-59.0
1606922061.3663,-74.0
1606922061.3683,-40.0
1606922061.3703,-9.0
1606922061.3723,-45.0
1606922061.3744,-50.0
1606922061.3763,-16.0
1606922061.3782,-21.0
1606922061.3802,-45.0
1606922061.3823,-43.0
1606922061.3842,-26.0
1606922061.3862,-16.0
1606922061.3882,-11.0
1606922061.3903,-2.0
1606922061.3923,7.0
1606922061.3942,11.0
1606922061.3962,14.0
1606922061.3983,38.0
1606922061.4002,62.0
1606922061.4023,47.0
1606922061.4042,38.0
1606922061.4062,28.0
1606922061.4083,-9.0
1606922061.4103,-23.0
1606922061.4123,7.0
1606922061.4142,-2.0
1606922061.4162,-38.0
1606922061.4182,-26.0
1606922061.4202,-7.0
1606922061.4223,11.0
1606922061.4243,81.0
1606922061.4263,270.0
1606922061.4283,784.0
1606922061.4303,1512.0
1606922061.4324,1619.0
1606922061.4342,397.0
1606922061.4362,-1158.0
1606922061.4382,-1234.0
1606922061.4404,-313.0
1606922061.4424,7.0
1606922061.4442,-105.0
1606922061.4462,-4.0
1606922061.4482,93.0
1606922061.4502,50.0
1606922061.4523,47.0
1606922061.4542,86.0
1606922061.4562,102.0
1606922061.4583,122.0
1606922061.4605,133.0
1606922061.4623,126.0
1606922061.4642,155.0
1606922061.4662,191.0
1606922061.4682,174.0
1606922061.4702,174.0
1606922061.8654,241.0
1606922061.8662,282.0
1606922061.8686,270.0
1606922061.8712,311.0
1606922061.8732,382.0
1606922061.8753,409.0
1606922061.8774,433.0
1606922061.8792,468.0
1606922061.8812,456.0
1606922061.8832,435.0
1606922061.8852,437.0
1606922061.8872,411.0
1606922061.8892,351.0
1606922061.8912,279.0
1606922061.8933,177.0
1606922061.8952,57.0
1606922061.8972,-31.0
1606922061.8992,-100.0
1606922061.9012,-179.0
1606922061.9032,-222.0
1606922061.9052,-236.0
1606922061.9072,-239.0
1606922061.9093,-227.0
1606922061.9112,-229.0
1606922061.9133,-222.0
1606922061.9152,-174.0
1606922061.9172,-155.0
1606922061.9192,-186.0
1606922061.9212,-181.0
1606922061.9233,-150.0
1606922061.9253,-150.0
1606922061.9272,-138.0
1606922061.9292,-124.0
1606922061.9312,-150.0
1606922061.9332,-143.0
1606922061.9352,-105.0
1606922061.9372,-100.0
1606922061.9392,-100.0
1606922061.9412,-100.0
1606922061.9432,-131.0
1606922061.9452,-129.0
1606922061.9471,-86.0
1606922061.9492,-107.0
1606922061.9512,-131.0
1606922061.9532,-88.0
1606922061.9553,-76.0
1606922061.9572,-112.0
1606922061.9593,-129.0
1606922061.9612,-102.0
1606922061.9632,-69.0
1606922061.9652,-83.0
1606922061.9672,-98.0
1606922061.9692,-59.0
1606922061.9712,-38.0
1606922061.9732,-74.0
1606922061.9753,-100.0
1606922061.9772,-71.0
1606922061.9792,-38.0
1606922061.9812,-47.0
1606922061.9832,-71.0
1606922061.9852,-52.0
1606922061.9872,-21.0
1606922061.9892,-38.0
1606922061.9913,-62.0
1606922061.9932,-40.0
1606922061.9952,-28.0
1606922061.9972,-43.0
1606922061.9992,-28.0
1606922062.0012,-4.0
1606922062.0032,0.0
1606922062.0052,21.0
1606922062.0072,57.0
1606922062.0093,62.0
1606922062.4962,35.0
1606922062.4972,0.0
1606922062.4997,-23.0
1606922062.5023,-23.0
1606922062.5042,-21.0
1606922062.5062,-55.0
1606922062.5084,-74.0
1606922062.5103,-21.0
1606922062.5123,21.0
1606922062.5142,4.0
1606922062.5162,71.0
1606922062.5182,492.0
1606922062.5203,1260.0
1606922062.5223,1717.0
1606922062.5242,1026.0
1606922062.5263,-610.0
1606922062.5282,-1428.0
1606922062.5302,-686.0
1606922062.5322,7.0
1606922062.5342,-74.0
1606922062.5362,-90.0
1606922062.5382,83.0
1606922062.5402,71.0
1606922062.5425,16.0
1606922062.5444,62.0
1606922062.5462,71.0
1606922062.5482,66.0
1606922062.5502,124.0
1606922062.5522,155.0
1606922062.5542,141.0
1606922062.5562,141.0
1606922062.5583,162.0
1606922062.5602,191.0
1606922062.5622,222.0
1606922062.5641,232.0
1606922062.5661,248.0
1606922062.5682,308.0
1606922062.5701,361.0
1606922062.5722,385.0
1606922062.5742,406.0
1606922062.5762,433.0
1606922062.5782,442.0
1606922062.5802,437.0
1606922062.5822,418.0
1606922062.5842,389.0
1606922062.5862,363.0
1606922062.5882,294.0
1606922062.5901,169.0
1606922062.5922,78.0
1606922062.5941,4.0
1606922062.5961,-93.0
1606922062.5981,-153.0
1606922062.6001,-191.0
1606922062.6022,-234.0
1606922062.6042,-229.0
1606922062.6061,-200.0
1606922062.6083,-203.0
1606922062.6102,-205.0
1606922062.6122,-177.0
1606922062.6141,-145.0
1606922062.6162,-143.0
1606922062.6181,-141.0
1606922062.6201,-129.0
1606922062.6222,-131.0
1606922062.6242,-107.0
1606922062.6262,-78.0
1606922062.6282,-112.0
1606922062.6301,-133.0
1606922062.6322,-83.0
1606922062.6341,-62.0
1606922062.6361,-100.0
1606922062.6381,-110.0
1606922062.6402,-107.0
1606922063.036,-110.0
1606922063.037,-88.0
1606922063.0392,-86.0
1606922063.0419,-100.0
1606922063.0439,-78.0
1606922063.0458,-71.0
1606922063.0479,-88.0
1606922063.0498,-93.0
1606922063.0518,-98.0
1606922063.0538,-90.0
1606922063.0558,-59.0
1606922063.0578,-69.0
1606922063.0599,-86.0
1606922063.0618,-52.0
1606922063.0637,-47.0
1606922063.0657,-78.0
1606922063.0677,-78.0
1606922063.0698,-69.0
1606922063.0718,-69.0
1606922063.0738,-45.0
1606922063.0758,-43.0
1606922063.0777,-66.0
1606922063.0797,-40.0
1606922063.0818,-4.0
1606922063.0837,-33.0
1606922063.0857,-52.0
1606922063.0877,-23.0
1606922063.0897,-9.0
1606922063.0918,-35.0
1606922063.0938,-50.0
1606922063.0958,-19.0
1606922063.0977,4.0
1606922063.0997,9.0
1606922063.1018,50.0
1606922063.1037,78.0
1606922063.1057,55.0
1606922063.1079,28.0
1606922063.1098,-7.0
1606922063.1118,-33.0
1606922063.1137,-4.0
1606922063.1157,-7.0
1606922063.1177,-43.0
1606922063.1197,-4.0
1606922063.1217,21.0
1606922063.1239,-23.0
1606922063.1258,-9.0
1606922063.1277,98.0
1606922063.1297,375.0
1606922063.1318,1004.0
1606922063.1337,1595.0
1606922063.1357,1246.0
1606922063.1377,-217.0
1606922063.1399,-1306.0
1606922063.1418,-825.0
1606922063.1438,-11.0
1606922063.1457,-4.0
1606922063.1477,-114.0
1606922063.1497,47.0
1606922063.1518,83.0
1606922063.1537,26.0
1606922063.1557,62.0
1606922063.1579,90.0
1606922063.1598,90.0
1606922063.1618,129.0
1606922063.1637,145.0
1606922063.1657,129.0
1606922063.1677,133.0
1606922063.1697,167.0
1606922063.1718,193.0
1606922063.1739,208.0
1606922063.1759,217.0
1606922063.1777,258.0
1606922063.1797,327.0
1606922063.5757,358.0
1606922063.5766,356.0
1606922063.579,387.0
1606922063.5817,433.0
1606922063.5836,447.0
1606922063.5857,447.0
1606922063.5877,440.0
1606922063.5896,397.0
1606922063.5916,339.0
1606922063.5936,308.0
1606922063.5956,234.0
1606922063.5976,105.0
1606922063.5996,4.0
1606922063.6016,-69.0
1606922063.6035,-141.0
1606922063.6055,-196.0
1606922063.6076,-224.0
1606922063.6096,-239.0
1606922063.6116,-244.0
1606922063.6135,-220.0
1606922063.6155,-179.0
1606922063.6175,-174.0
1606922063.6195,-191.0
1606922063.6216,-172.0
1606922063.6235,-138.0
1606922063.6256,-126.0
1606922063.6275,-138.0
1606922063.6295,-150.0
1606922063.6316,-119.0
1606922063.6335,-83.0
1606922063.6357,-105.0
1606922063.6376,-122.0
1606922063.6396,-102.0
1606922063.6416,-93.0
1606922063.6436,-105.0
1606922063.6455,-119.0
1606922063.6476,-119.0
1606922063.6495,-93.0
1606922063.6516,-83.0
1606922063.6535,-107.0
1606922063.6555,-110.0
1606922063.6576,-95.0
1606922063.6596,-100.0
1606922063.6616,-114.0
1606922063.6635,-107.0
1606922063.6655,-88.0
1606922063.6675,-86.0
1606922063.6695,-83.0
1606922063.6716,-62.0
1606922063.6735,-57.0
1606922063.6756,-76.0
1606922063.6775,-78.0
1606922063.6795,-55.0
1606922063.6816,-47.0
1606922063.6835,-52.0
1606922063.6855,-57.0
1606922063.6875,-38.0
1606922063.6895,-26.0
1606922063.6916,-45.0
1606922063.6936,-40.0
1606922063.6956,-16.0
1606922063.6975,-33.0
1606922063.6995,-50.0
1606922063.7016,-21.0
1606922063.7035,-4.0
1606922063.7055,-23.0
1606922063.7077,-33.0
1606922063.7096,-16.0
1606922063.7116,-9.0
1606922063.7135,-14.0
1606922063.7155,-19.0
1606922063.7175,-23.0
1606922063.7195,-2.0
1606922064.1155,11.0
1606922064.1164,-7.0
1606922064.1182,-19.0
1606922064.12,-9.0
1606922064.122,14.0
1606922064.124,33.0
1606922064.126,23.0
1606922064.128,28.0
1606922064.1302,69.0
1606922064.1321,88.0
1606922064.134,57.0
1606922064.1359,0.0
1606922064.138,-14.0
1606922064.14,4.0
1606922064.1421,-11.0
1606922064.144,-26.0
1606922064.1461,-9.0
1606922064.148,-4.0
1606922064.1499,0.0
1606922064.152,11.0
1606922064.154,33.0
1606922064.1559,220.0
1606922064.158,803.0
1606922064.16,1509.0
1606922064.162,1536.0
1606922064.1639,363.0
1606922064.1659,-1100.0
1606922064.168,-1148.0
1606922064.1699,-224.0
1606922064.1719,38.0
1606922064.1739,-136.0
1606922064.176,-11.0
1606922064.1779,112.0
1606922064.1799,52.0
1606922064.182,50.0
1606922064.1839,93.0
1606922064.1859,88.0
1606922064.1879,102.0
1606922064.1899,131.0
1606922064.192,133.0
1606922064.1939,138.0
1606922064.1959,157.0
1606922064.1979,181.0
1606922064.1999,203.0
1606922064.202,215.0
1606922064.2039,251.0
1606922064.2059,318.0
1606922064.208,339.0
1606922064.21,337.0
1606922064.2121,385.0
1606922064.2139,433.0
1606922064.2159,442.0
1606922064.2181,445.0
1606922064.22,445.0
1606922064.2219,435.0
1606922064.224,416.0
1606922064.226,361.0
1606922064.2279,272.0
1606922064.2299,181.0
1606922064.2321,81.0
1606922064.2339,-26.0
1606922064.2359,-107.0
1606922064.2379,-155.0
1606922064.2399,-186.0
1606922064.242,-212.0
1606922064.2439,-224.0
1606922064.2459,-217.0
1606922064.2479,-208.0
1606922064.2499,-191.0
1606922064.252,-172.0
1606922064.2539,-160.0
1606922064.2559,-148.0
1606922064.258,-138.0
1606922064.7157,-145.0
1606922064.7166,-131.0
1606922064.7191,-102.0
1606922064.7218,-107.0
1606922064.7237,-129.0
1606922064.7258,-138.0
1606922064.7279,-122.0
1606922064.7297,-102.0
1606922064.7317,-122.0
1606922064.7337,-157.0
1606922064.7356,-148.0
1606922064.7376,-122.0
1606922064.7396,-124.0
1606922064.7417,-141.0
1606922064.7437,-138.0
1606922064.7457,-131.0
1606922064.7476,-141.0
1606922064.7496,-145.0
1606922064.7516,-122.0
1606922064.7537,-107.0
1606922064.7556,-119.0
1606922064.7576,-124.0
1606922064.7597,-117.0
1606922064.7617,-107.0
1606922064.7636,-102.0
1606922064.7656,-98.0
1606922064.7676,-78.0
1606922064.7696,-74.0
1606922064.7716,-93.0
1606922064.7736,-83.0
1606922064.7757,-69.0
1606922064.7776,-74.0
1606922064.7796,-71.0
1606922064.7817,-59.0
1606922064.7836,-57.0
1606922064.7856,-59.0
1606922064.7876,-57.0
1606922064.7897,-55.0
1606922064.7917,-52.0
1606922064.7936,-45.0
1606922064.7956,-45.0
1606922064.7976,-47.0
1606922064.7996,-43.0
1606922064.8016,-23.0
1606922064.8036,-7.0
1606922064.8056,-2.0
1606922064.8076,16.0
1606922064.8097,45.0
1606922064.8116,47.0
1606922064.8136,14.0
1606922064.8156,-23.0
1606922064.8176,-43.0
1606922064.8196,-38.0
1606922064.8216,-31.0
1606922064.8236,-33.0
1606922064.8257,-31.0
1606922064.8275,-26.0
1606922064.8296,-19.0
1606922064.8316,9.0
1606922064.8336,83.0
1606922064.8356,361.0
1606922064.8376,1012.0
1606922064.8396,1629.0
1606922064.8417,1294.0
1606922064.8437,-229.0
1606922064.8456,-1406.0
1606922064.8476,-971.0
1606922064.8496,-143.0
1606922064.8516,-62.0
1606922064.8536,-114.0
1606922064.8556,38.0
1606922064.8577,71.0
1606922064.8596,19.0
1606922065.226,52.0
1606922065.2268,78.0
1606922065.2292,59.0
1606922065.2319,71.0
1606922065.2338,112.0
1606922065.2358,126.0
1606922065.2379,133.0
1606922065.2398,167.0
1606922065.2418,186.0
1606922065.2438,191.0
1606922065.2457,210.0
1606922065.2477,229.0
1606922065.2498,253.0
1606922065.2518,291.0
1606922065.2538,330.0
1606922065.2559,358.0
1606922065.2579,382.0
1606922065.2598,397.0
1606922065.2618,394.0
1606922065.2638,385.0
1606922065.2658,363.0
1606922065.2677,320.0
1606922065.2697,251.0
1606922065.2718,172.0
1606922065.2738,81.0
1606922065.2758,-19.0
1606922065.2777,-105.0
1606922065.2797,-165.0
1606922065.2818,-210.0
1606922065.2837,-244.0
1606922065.2858,-260.0
1606922065.2877,-258.0
1606922065.2898,-246.0
1606922065.2919,-236.0
1606922065.2938,-229.0
1606922065.2958,-215.0
1606922065.2978,-198.0
1606922065.2997,-186.0
1606922065.3018,-179.0
1606922065.3037,-174.0
1606922065.3057,-167.0
1606922065.3078,-160.0
1606922065.3098,-153.0
1606922065.3118,-143.0
1606922065.3137,-143.0
1606922065.3157,-141.0
1606922065.3177,-133.0
1606922065.3197,-133.0
1606922065.3218,-129.0
1606922065.3239,-122.0
1606922065.3258,-114.0
1606922065.3277,-107.0
1606922065.3297,-100.0
1606922065.3318,-98.0
1606922065.3338,-90.0
1606922065.3357,-83.0
1606922065.3377,-78.0
1606922065.3397,-78.0
1606922065.3419,-74.0
1606922065.3438,-64.0
1606922065.3458,-55.0
1606922065.3477,-55.0
1606922065.3497,-55.0
1606922065.3519,-47.0
1606922065.3537,-40.0
1606922065.3557,-40.0
1606922065.3581,-38.0
1606922065.3598,-35.0
1606922065.3618,-38.0
1606922065.3637,-35.0
1606922065.3657,-33.0
1606922065.3677,-31.0
1606922065.3697,-28.0
1606922065.8557,-26.0
1606922065.8567,-23.0
1606922065.8592,-19.0
1606922065.8618,-23.0
1606922065.8637,-38.0
1606922065.8657,-40.0
1606922065.8677,-21.0
1606922065.8697,-2.0
1606922065.8717,11.0
1606922065.8736,47.0
1606922065.8758,81.0
1606922065.8776,76.0
1606922065.8796,43.0
1606922065.8817,11.0
1606922065.8836,-4.0
1606922065.8856,-7.0
1606922065.8876,0.0
1606922065.8896,7.0
1606922065.8917,7.0
1606922065.8937,9.0
1606922065.8956,14.0
1606922065.8976,35.0
1606922065.8997,100.0
1606922065.9017,401.0
1606922065.9036,1069.0
1606922065.9056,1624.0
1606922065.9063,1244.0
1606922065.9087,-198.0
1606922065.9107,-1289.0
1606922065.9127,-815.0
1606922065.9146,11.0
1606922065.9167,7.0
1606922065.9186,-100.0
1606922065.9207,83.0
1606922065.9227,110.0
1606922065.9247,33.0
1606922065.9267,78.0
1606922065.9286,117.0
1606922065.9306,100.0
1606922065.9327,107.0
1606922065.9346,136.0
1606922065.9366,148.0
1606922065.9373,162.0
1606922065.9396,181.0
1606922065.9419,200.0
1606922065.9437,227.0
1606922065.9456,256.0
1606922065.9477,282.0
1606922065.9497,311.0
1606922065.9517,346.0
1606922065.9536,380.0
1606922065.9556,411.0
1606922065.9576,437.0
1606922065.9597,456.0
1606922065.9617,454.0
1606922065.9636,440.0
1606922065.9656,418.0
1606922065.9676,375.0
1606922065.9683,311.0
1606922065.9706,227.0
1606922065.9726,122.0
1606922065.9747,16.0
1606922065.9767,-74.0
1606922065.9786,-138.0
1606922065.9806,-181.0
1606922065.9826,-203.0
1606922065.9846,-215.0
1606922065.9866,-212.0
1606922065.9886,-203.0
1606922065.9906,-189.0
1606922065.9927,-174.0
1606922065.9946,-162.0
1606922065.9966,-150.0
1606922066.3961,-138.0
1606922066.3971,-129.0
1606922066.3995,-122.0
1606922066.4022,-112.0
1606922066.4041,-107.0
1606922066.4061,-102.0
1606922066.4082,-98.0
1606922066.4102,-95.0
1606922066.4122,-100.0
1606922066.4141,-112.0
1606922066.416,-112.0
1606922066.418,-105.0
1606922066.4201,-112.0
1606922066.4221,-124.0
1606922066.424,-124.0
1606922066.4248,-117.0
1606922066.4271,-114.0
1606922066.4291,-112.0
1606922066.4311,-105.0
1606922066.4331,-102.0
1606922066.4351,-100.0
1606922066.4371,-98.0
1606922066.4392,-95.0
1606922066.4411,-90.0
1606922066.4431,-83.0
1606922066.445,-81.0
1606922066.4471,-81.0
1606922066.449,-78.0
1606922066.4511,-71.0
1606922066.453,-66.0
1606922066.4551,-62.0
1606922066.4557,-57.0
1606922066.4581,-59.0
1606922066.4601,-55.0
1606922066.4621,-50.0
1606922066.4641,-47.0
1606922066.4661,-45.0
1606922066.4681,-43.0
1606922066.47,-38.0
1606922066.4721,-33.0
1606922066.473,-31.0
1606922066.4751,-28.0
1606922066.4771,-31.0
1606922066.4792,-28.0
1606922066.4811,-14.0
1606922066.4818,2.0
1606922066.4841,19.0
1606922066.4861,47.0
1606922066.488,74.0
1606922066.4901,71.0
1606922066.4921,33.0
1606922066.4941,-7.0
1606922066.4961,-21.0
1606922066.498,-16.0
1606922066.5,-11.0
1606922066.502,-9.0
1606922066.504,-7.0
1606922066.506,-7.0
1606922066.5081,0.0
1606922066.5101,31.0
1606922066.5121,124.0
1606922066.5128,485.0
1606922066.5151,1153.0
1606922066.5171,1543.0
1606922066.5191,933.0
1606922066.5211,-514.0
1606922066.5231,-1277.0
1606922066.5251,-607.0
1606922066.5271,62.0
1606922066.5291,-38.0
1606922066.531,-71.0
1606922066.533,105.0
1606922066.535,81.0
1606922066.9356,26.0
1606922066.9364,90.0
1606922066.9381,107.0
1606922066.9405,88.0
1606922066.9425,114.0
1606922066.9444,136.0
1606922066.9464,136.0
1606922066.9484,157.0
1606922066.9504,186.0
1606922066.9525,198.0
1606922066.9544,210.0
1606922066.9564,236.0
1606922066.9585,267.0
1606922066.9604,294.0
1606922066.9624,322.0
1606922066.9644,361.0
1606922066.9664,389.0
1606922066.9684,411.0
1606922066.9691,428.0
1606922066.9714,425.0
1606922066.9734,413.0
1606922066.9755,387.0
1606922066.9775,346.0
1606922066.9795,284.0
1606922066.9815,196.0
1606922066.9834,95.0
1606922066.9854,-2.0
1606922066.9874,-83.0
1606922066.9894,-141.0
1606922066.9915,-181.0
1606922066.9934,-210.0
1606922066.9954,-212.0
1606922066.9974,-198.0
1606922066.9994,-189.0
1606922067.0001,-179.0
1606922067.0024,-165.0
1606922067.0044,-150.0
1606922067.0065,-145.0
1606922067.0085,-133.0
1606922067.0104,-117.0
1606922067.0124,-112.0
1606922067.0144,-112.0
1606922067.0164,-107.0
1606922067.0184,-105.0
1606922067.0204,-105.0
1606922067.0224,-112.0
1606922067.0244,-112.0
1606922067.0265,-107.0
1606922067.0284,-107.0
1606922067.0304,-112.0
1606922067.0311,-110.0
1606922067.0335,-102.0
1606922067.0354,-102.0
1606922067.0374,-100.0
1606922067.0394,-95.0
1606922067.0415,-93.0
1606922067.0435,-90.0
1606922067.0454,-88.0
1606922067.0474,-83.0
1606922067.0494,-81.0
1606922067.0514,-78.0
1606922067.0534,-74.0
1606922067.0554,-71.0
1606922067.0573,-69.0
1606922067.0595,-64.0
1606922067.0614,-59.0
1606922067.0621,-57.0
1606922067.0645,-52.0
1606922067.0664,-45.0
1606922067.0683,-47.0
1606922067.0703,-47.0
1606922067.0724,-43.0
1606922067.0744,-38.0
1606922067.5061,-38.0
1606922067.5071,-33.0
1606922067.5095,-28.0
1606922067.5124,-31.0
1606922067.5142,-28.0
1606922067.5162,-26.0
1606922067.5182,-28.0
1606922067.5202,-28.0
1606922067.5222,-23.0
1606922067.5241,-16.0
1606922067.5262,-21.0
1606922067.5281,-26.0
1606922067.5301,-7.0
1606922067.5322,7.0
1606922067.5341,4.0
1606922067.5361,28.0
1606922067.5381,64.0
1606922067.5401,62.0
1606922067.5422,23.0
1606922067.5442,-9.0
1606922067.5461,-16.0
1606922067.5481,-7.0
1606922067.5501,0.0
1606922067.5521,-2.0
1606922067.5541,0.0
1606922067.5561,4.0
1606922067.5582,9.0
1606922067.5601,33.0
1606922067.5621,160.0
1606922067.5643,602.0
1606922067.5661,1284.0
1606922067.5681,1545.0
1606922067.5701,708.0
1606922067.572,-777.0
1606922067.5741,-1239.0
1606922067.5761,-421.0
1606922067.5781,69.0
1606922067.58,-83.0
1606922067.5821,-43.0
1606922067.584,105.0
1606922067.586,57.0
1606922067.5881,35.0
1606922067.5901,100.0
1606922067.5921,102.0
1606922067.5941,93.0
1606922067.596,117.0
1606922067.598,131.0
1606922067.6,141.0
1606922067.6021,167.0
1606922067.604,191.0
1606922067.6061,205.0
1606922067.6081,232.0
1606922067.6101,263.0
1606922067.6121,289.0
1606922067.6141,315.0
1606922067.616,354.0
1606922067.618,389.0
1606922067.62,416.0
1606922067.622,435.0
1606922067.6241,447.0
1606922067.6262,449.0
1606922067.628,433.0
1606922067.63,399.0
1606922067.6321,356.0
1606922067.634,289.0
1606922067.636,200.0
1606922067.6381,100.0
1606922067.64,7.0
1606922067.6421,-76.0
1606922067.6441,-136.0
1606922067.646,-181.0
1606922067.648,-208.0
1606922067.6501,-212.0
1606922068.0457,-203.0
1606922068.0467,-191.0
1606922068.0492,-174.0
1606922068.0519,-160.0
1606922068.0538,-155.0
1606922068.0558,-150.0
1606922068.0579,-136.0
1606922068.0602,-122.0
1606922068.0618,-124.0
1606922068.0638,-129.0
1606922068.0658,-124.0
1606922068.0678,-117.0
1606922068.0698,-117.0
1606922068.0718,-110.0
1606922068.0738,-102.0
1606922068.0758,-107.0
1606922068.0778,-110.0
1606922068.0798,-105.0
1606922068.0818,-105.0
1606922068.0837,-107.0
1606922068.0857,-110.0
1606922068.0877,-107.0
1606922068.0897,-102.0
1606922068.0918,-98.0
1606922068.0938,-100.0
1606922068.0958,-98.0
1606922068.0978,-93.0
1606922068.0998,-90.0
1606922068.1018,-86.0
1606922068.1038,-83.0
1606922068.1058,-88.0
1606922068.1078,-88.0
1606922068.1098,-81.0
1606922068.1117,-74.0
1606922068.1137,-76.0
1606922068.1157,-71.0
1606922068.1177,-59.0
1606922068.1197,-55.0
1606922068.1218,-50.0
1606922068.1237,-47.0
1606922068.1258,-50.0
1606922068.1277,-43.0
1606922068.1297,-33.0
1606922068.1317,-31.0
1606922068.1337,-28.0
1606922068.1357,-9.0
1606922068.1377,-2.0
1606922068.1397,-16.0
1606922068.1418,-2.0
1606922068.1438,45.0
1606922068.1457,59.0
1606922068.1477,28.0
1606922068.1497,-9.0
1606922068.1517,-28.0
1606922068.1537,-23.0
1606922068.1557,-16.0
1606922068.1578,-16.0
1606922068.1598,-16.0
1606922068.1619,-14.0
1606922068.1638,-4.0
1606922068.1657,33.0
1606922068.1677,143.0
1606922068.1697,507.0
1606922068.1717,1191.0
1606922068.1739,1650.0
1606922068.1758,1012.0
1606922068.1777,-586.0
1606922068.1797,-1421.0
1606922068.1817,-765.0
1606922068.1837,-86.0
1606922068.1857,-74.0
1606922068.1877,-55.0
1606922068.1897,86.0
1606922068.5858,86.0
1606922068.5867,55.0
1606922068.5892,98.0
1606922068.5919,122.0
1606922068.5938,112.0
1606922068.5958,122.0
1606922068.5979,133.0
1606922068.5998,148.0
1606922068.6018,165.0
1606922068.6038,179.0
1606922068.6058,198.0
1606922068.6078,224.0
1606922068.6099,248.0
1606922068.6118,275.0
1606922068.6137,308.0
1606922068.6157,339.0
1606922068.6177,370.0
1606922068.6197,401.0
1606922068.6218,423.0
1606922068.6239,430.0
1606922068.6258,425.0
1606922068.6278,409.0
1606922068.6297,375.0
1606922068.6318,325.0
1606922068.6337,263.0
1606922068.6357,177.0
1606922068.6377,81.0
1606922068.6397,-11.0
1606922068.6418,-93.0
1606922068.6437,-153.0
1606922068.6457,-186.0
1606922068.6477,-205.0
1606922068.6497,-217.0
1606922068.6519,-212.0
1606922068.6537,-198.0
1606922068.6558,-184.0
1606922068.6581,-169.0
1606922068.6598,-155.0
1606922068.6618,-148.0
1606922068.6638,-141.0
1606922068.6657,-133.0
1606922068.6678,-126.0
1606922068.6697,-119.0
1606922068.6717,-112.0
1606922068.6737,-105.0
1606922068.6758,-102.0
1606922068.6777,-102.0
1606922068.6799,-102.0
1606922068.6817,-98.0
1606922068.6839,-98.0
1606922068.6858,-100.0
1606922068.6877,-105.0
1606922068.6898,-100.0
1606922068.6918,-95.0
1606922068.6937,-95.0
1606922068.6956,-95.0
1606922068.6977,-93.0
1606922068.6997,-90.0
1606922068.7018,-90.0
1606922068.7037,-86.0
1606922068.7057,-78.0
1606922068.7077,-76.0
1606922068.7098,-74.0
1606922068.7117,-71.0
1606922068.7137,-69.0
1606922068.7157,-66.0
1606922068.7177,-62.0
1606922068.7184,-57.0
1606922068.7197,-55.0
1606922068.7217,-52.0
1606922068.7237,-47.0
1606922068.7257,-45.0
1606922068.7277,-43.0
1606922069.1857,-47.0
1606922069.1867,-43.0
1606922069.189,-23.0
1606922069.1909,-19.0
1606922069.1928,-7.0
1606922069.1948,31.0
1606922069.1968,57.0
1606922069.1975,40.0
1606922069.1988,-2.0
1606922069.2007,-38.0
1606922069.2027,-45.0
1606922069.2047,-35.0
1606922069.2067,-28.0
1606922069.2088,-26.0
1606922069.2109,-28.0
1606922069.2127,-31.0
1606922069.2146,-16.0
1606922069.2166,19.0
1606922069.2186,148.0
1606922069.2207,617.0
1606922069.2227,1337.0
1606922069.2247,1581.0
1606922069.2267,645.0
1606922069.2273,-902.0
1606922069.2287,-1294.0
1606922069.2306,-411.0
1606922069.2327,55.0
1606922069.2346,-112.0
1606922069.2366,-47.0
1606922069.2386,107.0
1606922069.2406,52.0
1606922069.2427,31.0
1606922069.2446,90.0
1606922069.2467,93.0
1606922069.2486,83.0
1606922069.2506,110.0
1606922069.2527,129.0
1606922069.2546,136.0
1606922069.2566,155.0
1606922069.2573,177.0
1606922069.2587,193.0
1606922069.2607,215.0
1606922069.2627,241.0
1606922069.2646,267.0
1606922069.2666,303.0
1606922069.2686,339.0
1606922069.2706,368.0
1606922069.2726,389.0
1606922069.2747,411.0
1606922069.2767,418.0
1606922069.2786,404.0
1606922069.2806,378.0
1606922069.2827,346.0
1606922069.2846,299.0
1606922069.2866,227.0
1606922069.2873,136.0
1606922069.2886,38.0
1606922069.2906,-50.0
1606922069.2927,-112.0
1606922069.2946,-155.0
1606922069.2966,-186.0
1606922069.2986,-200.0
1606922069.3006,-203.0
1606922069.3027,-193.0
1606922069.3046,-179.0
1606922069.3068,-162.0
1606922069.3087,-153.0
1606922069.3107,-141.0
1606922069.3126,-126.0
1606922069.3146,-122.0
1606922069.3166,-114.0
1606922069.3173,-102.0
1606922069.3186,-98.0
1606922069.7562,-100.0
1606922069.7574,-98.0
1606922069.7598,-95.0
1606922069.7625,-95.0
1606922069.7644,-93.0
1606922069.7665,-93.0
1606922069.7685,-95.0
1606922069.7705,-105.0
1606922069.7725,-114.0
1606922069.7745,-112.0
1606922069.7765,-105.0
1606922069.7784,-105.0
1606922069.7805,-102.0
1606922069.7811,-98.0
1606922069.7825,-93.0
1606922069.7844,-93.0
1606922069.7865,-88.0
1606922069.7885,-83.0
1606922069.7905,-81.0
1606922069.7924,-81.0
1606922069.7945,-78.0
1606922069.7963,-74.0
1606922069.7983,-69.0
1606922069.8003,-66.0
1606922069.8024,-66.0
1606922069.8043,-62.0
1606922069.8063,-57.0
1606922069.8084,-55.0
1606922069.8104,-50.0
1606922069.8111,-47.0
1606922069.8123,-40.0
1606922069.8143,-45.0
1606922069.8163,-55.0
1606922069.8183,-38.0
1606922069.8203,-14.0
1606922069.8224,-9.0
1606922069.8244,14.0
1606922069.8264,57.0
1606922069.8284,64.0
1606922069.8303,26.0
1606922069.8324,-11.0
1606922069.8344,-31.0
1606922069.8363,-28.0
1606922069.8385,-21.0
1606922069.8404,-19.0
1606922069.841,-19.0
1606922069.8424,-16.0
1606922069.8444,-9.0
1606922069.8463,14.0
1606922069.8483,66.0
1606922069.8504,303.0
1606922069.8524,911.0
1606922069.8543,1519.0
1606922069.8563,1327.0
1606922069.8584,19.0
1606922069.8604,-1232.0
1606922069.8623,-973.0
1606922069.8643,-76.0
1606922069.8663,35.0
1606922069.8683,-119.0
1606922069.8703,38.0
1606922069.8711,107.0
1606922069.8733,28.0
1606922069.8754,55.0
1606922069.8773,100.0
1606922069.8793,83.0
1606922069.8814,93.0
1606922069.8833,124.0
1606922069.8853,131.0
1606922069.8873,143.0
1606922069.8893,169.0
1606922069.8914,189.0
1606922069.8934,200.0
1606922070.3858,224.0
1606922070.3871,253.0
1606922070.3888,282.0
1606922070.3914,318.0
1606922070.3932,349.0
1606922070.3953,378.0
1606922070.3972,397.0
1606922070.3992,409.0
1606922070.4014,409.0
1606922070.4032,392.0
1606922070.4052,363.0
1606922070.4074,322.0
1606922070.4092,265.0
1606922070.4113,184.0
1606922070.4131,93.0
1606922070.4151,2.0
1606922070.4171,-78.0
1606922070.4191,-141.0
1606922070.4198,-184.0
1606922070.4212,-208.0
1606922070.4231,-215.0
1606922070.4254,-210.0
1606922070.4272,-196.0
1606922070.4291,-189.0
1606922070.4312,-179.0
1606922070.4331,-162.0
1606922070.4351,-150.0
1606922070.4371,-141.0
1606922070.4391,-133.0
1606922070.4411,-124.0
1606922070.4432,-119.0
1606922070.4451,-114.0
1606922070.4471,-112.0
1606922070.4491,-105.0
1606922070.4498,-100.0
1606922070.4511,-100.0
1606922070.4531,-100.0
1606922070.4551,-98.0
1606922070.4571,-95.0
1606922070.4593,-95.0
1606922070.4612,-98.0
1606922070.463,-95.0
1606922070.4651,-93.0
1606922070.4672,-93.0
1606922070.4692,-93.0
1606922070.4712,-88.0
1606922070.4732,-83.0
1606922070.4752,-78.0
1606922070.4771,-78.0
1606922070.4791,-76.0
1606922070.4798,-69.0
1606922070.4811,-64.0
1606922070.4831,-62.0
1606922070.4851,-62.0
1606922070.4871,-62.0
1606922070.4891,-62.0
1606922070.4912,-59.0
1606922070.4932,-57.0
1606922070.4951,-55.0
1606922070.4971,-52.0
1606922070.4991,-52.0
1606922070.5012,-47.0
1606922070.5031,-43.0
1606922070.5051,-40.0
1606922070.5072,-45.0
1606922070.5091,-47.0
1606922070.5098,-45.0
1606922070.5111,-38.0
1606922070.5131,-35.0
1606922070.5151,-40.0
1606922070.5171,-35.0
1606922070.5191,-9.0
1606922070.5213,0.0
1606922070.8652,0.0
1606922070.866,28.0
1606922070.8684,66.0
1606922070.8712,57.0
1606922070.8731,11.0
1606922070.8751,-21.0
1606922070.8771,-31.0
1606922070.8791,-33.0
1606922070.8798,-26.0
1606922070.8821,-26.0
1606922070.884,-35.0
1606922070.886,-38.0
1606922070.8881,-19.0
1606922070.89,16.0
1606922070.8921,138.0
1606922070.894,595.0
1606922070.8961,1294.0
1606922070.898,1526.0
1606922070.9,619.0
1606922070.902,-899.0
1606922070.904,-1294.0
1606922070.906,-416.0
1606922070.9081,47.0
1606922070.91,-122.0
1606922070.9107,-57.0
1606922070.912,95.0
1606922070.914,35.0
1606922070.916,16.0
1606922070.918,86.0
1606922070.92,90.0
1606922070.922,78.0
1606922070.924,105.0
1606922070.9261,124.0
1606922070.928,131.0
1606922070.93,153.0
1606922070.9321,174.0
1606922070.934,196.0
1606922070.936,220.0
1606922070.938,246.0
1606922070.94,275.0
1606922070.9406,311.0
1606922070.9421,346.0
1606922070.944,378.0
1606922070.946,401.0
1606922070.948,421.0
1606922070.9501,428.0
1606922070.9522,421.0
1606922070.9541,399.0
1606922070.9561,370.0
1606922070.9581,322.0
1606922070.9602,253.0
1606922070.9621,165.0
1606922070.9642,69.0
1606922070.9661,-19.0
1606922070.9682,-95.0
1606922070.97,-153.0
1606922070.9707,-189.0
1606922070.9721,-205.0
1606922070.9741,-212.0
1606922070.9761,-205.0
1606922070.978,-191.0
1606922070.98,-177.0
1606922070.9821,-165.0
1606922070.984,-153.0
1606922070.986,-145.0
1606922070.988,-138.0
1606922070.99,-129.0
1606922070.9921,-119.0
1606922070.994,-119.0
1606922070.996,-114.0
1606922070.9981,-102.0
1606922071.0001,-102.0
1606922071.0007,-107.0
1606922071.4058,-107.0
1606922071.4067,-102.0
1606922071.4092,-95.0
1606922071.4118,-93.0
1606922071.4138,-102.0
1606922071.4158,-110.0
1606922071.4179,-105.0
1606922071.4197,-105.0
1606922071.4218,-117.0
1606922071.4238,-112.0
1606922071.4258,-102.0
1606922071.4278,-105.0
1606922071.4298,-100.0
1606922071.4305,-88.0
1606922071.4328,-86.0
1606922071.4347,-86.0
1606922071.4367,-86.0
1606922071.4387,-76.0
1606922071.4408,-69.0
1606922071.4428,-66.0
1606922071.4447,-66.0
1606922071.4467,-62.0
1606922071.4487,-62.0
1606922071.4507,-59.0
1606922071.4527,-50.0
1606922071.4547,-43.0
1606922071.4567,-47.0
1606922071.4588,-40.0
1606922071.4609,-19.0
1606922071.4614,-19.0
1606922071.4627,-28.0
1606922071.4647,2.0
1606922071.4667,35.0
1606922071.4687,21.0
1606922071.4707,-11.0
1606922071.4727,-43.0
1606922071.4748,-50.0
1606922071.4768,-40.0
1606922071.4787,-43.0
1606922071.4808,-45.0
1606922071.4827,-35.0
1606922071.4847,-26.0
1606922071.4867,-9.0
1606922071.4887,43.0
1606922071.4894,234.0
1606922071.4907,772.0
1606922071.4928,1466.0
1606922071.4947,1485.0
1606922071.4967,248.0
1606922071.4987,-1227.0
1606922071.5007,-1253.0
1606922071.5027,-358.0
1606922071.5047,-45.0
1606922071.5067,-114.0
1606922071.5088,11.0
1606922071.5107,98.0
1606922071.5127,50.0
1606922071.5147,66.0
1606922071.5167,110.0
1606922071.5187,98.0
1606922071.5194,102.0
1606922071.5207,136.0
1606922071.5227,150.0
1606922071.5248,155.0
1606922071.5268,172.0
1606922071.5287,193.0
1606922071.5307,215.0
1606922071.5327,236.0
1606922071.5347,265.0
1606922071.5367,291.0
1606922071.5387,320.0
1606922071.5407,351.0
1606922071.5428,382.0
1606922071.9757,409.0
1606922071.9768,423.0
1606922071.9792,418.0
1606922071.9819,404.0
1606922071.9839,378.0
1606922071.9859,332.0
1606922071.9882,270.0
1606922071.9899,193.0
1606922071.9918,107.0
1606922071.9939,14.0
1606922071.9958,-76.0
1606922071.9978,-141.0
1606922071.9998,-181.0
1606922072.0018,-215.0
1606922072.0038,-227.0
1606922072.0058,-217.0
1606922072.0078,-208.0
1606922072.0085,-198.0
1606922072.0098,-181.0
1606922072.0118,-167.0
1606922072.0138,-160.0
1606922072.0158,-150.0
1606922072.0178,-136.0
1606922072.0197,-129.0
1606922072.0218,-129.0
1606922072.0238,-124.0
1606922072.0259,-114.0
1606922072.0278,-107.0
1606922072.0298,-107.0
1606922072.0318,-112.0
1606922072.0338,-110.0
1606922072.0357,-102.0
1606922072.0378,-100.0
1606922072.0384,-100.0
1606922072.0397,-98.0
1606922072.0418,-98.0
1606922072.0438,-95.0
1606922072.0458,-98.0
1606922072.0477,-90.0
1606922072.0498,-86.0
1606922072.0518,-90.0
1606922072.0538,-88.0
1606922072.0557,-78.0
1606922072.0578,-78.0
1606922072.0598,-83.0
1606922072.0618,-81.0
1606922072.0637,-76.0
1606922072.0657,-74.0
1606922072.0677,-69.0
1606922072.0684,-64.0
1606922072.0698,-59.0
1606922072.0718,-57.0
1606922072.0739,-59.0
1606922072.0758,-62.0
1606922072.0778,-52.0
1606922072.0797,-35.0
1606922072.0818,-19.0
1606922072.0839,7.0
1606922072.0858,33.0
1606922072.0877,43.0
1606922072.0897,21.0
1606922072.0918,-21.0
1606922072.0938,-55.0
1606922072.0957,-57.0
1606922072.0978,-50.0
1606922072.0984,-47.0
1606922072.0997,-43.0
1606922072.1018,-40.0
1606922072.1037,-35.0
1606922072.1057,-21.0
1606922072.1078,16.0
1606922072.1098,179.0
1606922072.1118,720.0
1606922072.5757,1457.0
1606922072.5768,1555.0
1606922072.5793,404.0
1606922072.5819,-1114.0
1606922072.5839,-1236.0
1606922072.5859,-301.0
1606922072.588,14.0
1606922072.5964,-153.0
1606922072.5978,-35.0
1606922072.5998,86.0
1606922072.6019,14.0
1606922072.6038,16.0
1606922072.6058,81.0
1606922072.6079,74.0
1606922072.6099,69.0
1606922072.6119,100.0
1606922072.6138,112.0
1606922072.6158,122.0
1606922072.6178,148.0
1606922072.6198,169.0
1606922072.6218,184.0
1606922072.6239,208.0
1606922072.6245,239.0
1606922072.6259,267.0
1606922072.6278,299.0
1606922072.6298,332.0
1606922072.6318,358.0
1606922072.6338,378.0
1606922072.6358,392.0
1606922072.6378,389.0
1606922072.6398,375.0
1606922072.6419,351.0
1606922072.6438,313.0
1606922072.6458,256.0
1606922072.6478,181.0
1606922072.65,90.0
1606922072.6518,-9.0
1606922072.6538,-88.0
1606922072.6545,-143.0
1606922072.6558,-184.0
1606922072.6579,-208.0
1606922072.6599,-215.0
1606922072.6618,-210.0
1606922072.6638,-196.0
1606922072.6658,-179.0
1606922072.6678,-169.0
1606922072.6698,-157.0
1606922072.6718,-141.0
1606922072.6738,-129.0
1606922072.6759,-124.0
1606922072.6778,-117.0
1606922072.6798,-112.0
1606922072.6818,-112.0
1606922072.6838,-105.0
1606922072.6845,-95.0
1606922072.6868,-93.0
1606922072.6888,-95.0
1606922072.6909,-95.0
1606922072.6929,-93.0
1606922072.6949,-90.0
1606922072.6968,-90.0
1606922072.6988,-90.0
1606922072.7008,-90.0
1606922072.7028,-86.0
1606922072.7048,-83.0
1606922072.7068,-83.0
1606922072.7089,-78.0
1606922072.7108,-74.0
1606922072.7128,-74.0
1606922072.7148,-74.0
1606922072.7155,-71.0
1606922072.7179,-64.0
1606922072.7198,-62.0
1606922073.1155,-62.0
1606922073.1162,-57.0
1606922073.1186,-52.0
1606922073.1214,-50.0
1606922073.1233,-47.0
1606922073.1254,-45.0
1606922073.1275,-40.0
1606922073.1293,-40.0
1606922073.1313,-40.0
1606922073.1332,-40.0
1606922073.1353,-50.0
1606922073.136,-59.0
1606922073.1382,-45.0
1606922073.1404,-21.0
1606922073.1423,-2.0
1606922073.1443,26.0
1606922073.1462,50.0
1606922073.1482,40.0
1606922073.1502,4.0
1606922073.1523,-31.0
1606922073.1542,-50.0
1606922073.1562,-45.0
1606922073.1583,-33.0
1606922073.1603,-35.0
1606922073.1622,-35.0
1606922073.1642,-31.0
1606922073.1662,-19.0
1606922073.167,2.0
1606922073.1694,78.0
1606922073.1713,409.0
1606922073.1733,1079.0
1606922073.1754,1552.0
1606922073.1772,1040.0
1606922073.1793,-423.0
1606922073.1813,-1339.0
1606922073.1832,-729.0
1606922073.1852,28.0
1606922073.1872,-43.0
1606922073.1892,-117.0
1606922073.1914,66.0
1606922073.1933,71.0
1606922073.1952,7.0
1606922073.1973,59.0
1606922073.198,88.0
1606922073.2002,71.0
1606922073.2023,90.0
1606922073.2042,114.0
1606922073.2062,124.0
1606922073.2083,143.0
1606922073.2103,167.0
1606922073.2122,186.0
1606922073.2143,205.0
1606922073.2162,236.0
1606922073.2182,265.0
1606922073.2202,291.0
1606922073.2223,313.0
1606922073.2243,346.0
1606922073.2263,385.0
1606922073.2282,399.0
1606922073.2289,399.0
1606922073.2312,401.0
1606922073.2332,394.0
1606922073.2353,358.0
1606922073.2372,308.0
1606922073.2394,251.0
1606922073.2413,172.0
1606922073.2433,62.0
1606922073.2452,-28.0
1606922073.2472,-86.0
1606922073.2492,-138.0
1606922073.2513,-186.0
1606922073.2532,-203.0
1606922073.2552,-196.0
1606922073.6857,-191.0
1606922073.6866,-189.0
1606922073.6884,-181.0
1606922073.6907,-169.0
1606922073.6929,-155.0
1606922073.6947,-141.0
1606922073.6968,-131.0
1606922073.6974,-124.0
1606922073.6997,-124.0
1606922073.7017,-126.0
1606922073.7036,-117.0
1606922073.7056,-105.0
1606922073.7078,-102.0
1606922073.7097,-102.0
1606922073.7117,-100.0
1606922073.7136,-102.0
1606922073.7156,-107.0
1606922073.7162,-110.0
1606922073.7176,-100.0
1606922073.7196,-93.0
1606922073.7217,-95.0
1606922073.7237,-100.0
1606922073.7257,-100.0
1606922073.7276,-95.0
1606922073.7296,-90.0
1606922073.7317,-86.0
1606922073.7336,-81.0
1606922073.7356,-76.0
1606922073.7376,-78.0
1606922073.7396,-76.0
1606922073.7417,-69.0
1606922073.7436,-66.0
1606922073.7456,-66.0
1606922073.7462,-64.0
1606922073.7476,-64.0
1606922073.7496,-59.0
1606922073.7516,-55.0
1606922073.7536,-50.0
1606922073.7556,-40.0
1606922073.7576,-40.0
1606922073.7597,-45.0
1606922073.7616,-43.0
1606922073.7638,-26.0
1606922073.7656,-14.0
1606922073.7676,-9.0
1606922073.7696,14.0
1606922073.7716,45.0
1606922073.7737,47.0
1606922073.7757,14.0
1606922073.7762,-23.0
1606922073.7776,-40.0
1606922073.7796,-40.0
1606922073.7816,-35.0
1606922073.7836,-31.0
1606922073.7856,-28.0
1606922073.7877,-28.0
1606922073.7896,-28.0
1606922073.7917,-4.0
1606922073.7936,55.0
1606922073.7956,272.0
1606922073.7976,854.0
1606922073.7996,1502.0
1606922073.8016,1363.0
1606922073.8036,23.0
1606922073.8056,-1291.0
1606922073.8062,-1064.0
1606922073.8077,-172.0
1606922073.8097,-14.0
1606922073.8116,-122.0
1606922073.8136,31.0
1606922073.8156,98.0
1606922073.8176,31.0
1606922073.8196,55.0
1606922074.2556,105.0
1606922074.2564,98.0
1606922074.2588,100.0
1606922074.2605,122.0
1606922074.2624,131.0
1606922074.263,150.0
1606922074.2644,172.0
1606922074.2664,186.0
1606922074.2684,205.0
1606922074.2705,229.0
1606922074.2725,253.0
1606922074.2744,277.0
1606922074.2765,311.0
1606922074.2784,344.0
1606922074.2805,366.0
1606922074.2824,378.0
1606922074.2844,385.0
1606922074.2864,380.0
1606922074.2884,361.0
1606922074.2904,337.0
1606922074.2927,301.0
1606922074.2931,241.0
1606922074.2944,165.0
1606922074.2964,76.0
1606922074.2983,-16.0
1606922074.3003,-95.0
1606922074.3024,-148.0
1606922074.3043,-184.0
1606922074.3063,-205.0
1606922074.3084,-212.0
1606922074.3104,-205.0
1606922074.3123,-193.0
1606922074.3143,-177.0
1606922074.3163,-165.0
1606922074.3183,-153.0
1606922074.3203,-141.0
1606922074.3224,-131.0
1606922074.3229,-126.0
1606922074.3244,-117.0
1606922074.3264,-107.0
1606922074.3283,-105.0
1606922074.3303,-105.0
1606922074.3324,-102.0
1606922074.3343,-95.0
1606922074.3363,-95.0
1606922074.3383,-95.0
1606922074.3404,-95.0
1606922074.3424,-98.0
1606922074.3443,-98.0
1606922074.3463,-93.0
1606922074.3483,-88.0
1606922074.3504,-88.0
1606922074.3523,-90.0
1606922074.3529,-86.0
1606922074.3543,-78.0
1606922074.3563,-76.0
1606922074.3584,-76.0
1606922074.3604,-78.0
1606922074.3623,-71.0
1606922074.3643,-69.0
1606922074.3663,-69.0
1606922074.3683,-59.0
1606922074.3703,-52.0
1606922074.3724,-55.0
1606922074.3744,-52.0
1606922074.3764,-47.0
1606922074.3783,-52.0
1606922074.3804,-59.0
1606922074.3824,-50.0
1606922074.3829,-31.0
1606922074.3843,-11.0
1606922074.3865,16.0
1606922074.3884,45.0
1606922074.766,50.0
1606922074.7669,23.0
1606922074.7694,-16.0
1606922074.772,-40.0
1606922074.7739,-40.0
1606922074.776,-31.0
1606922074.7781,-33.0
1606922074.7799,-43.0
1606922074.782,-45.0
1606922074.7839,-38.0
1606922074.7859,-21.0
1606922074.7879,21.0
1606922074.7885,263.0
1606922074.7899,902.0
1606922074.792,1545.0
1606922074.7939,1301.0
1606922074.7959,-131.0
1606922074.7979,-1375.0
1606922074.7999,-1012.0
1606922074.802,-114.0
1606922074.804,-33.0
1606922074.8059,-150.0
1606922074.808,19.0
1606922074.81,71.0
1606922074.8119,0.0
1606922074.8139,38.0
1606922074.8159,83.0
1606922074.8179,69.0
1606922074.8185,76.0
1606922074.82,105.0
1606922074.8219,117.0
1606922074.824,131.0
1606922074.826,150.0
1606922074.8279,169.0
1606922074.8299,196.0
1606922074.8319,227.0
1606922074.8339,253.0
1606922074.8359,284.0
1606922074.8379,320.0
1606922074.8399,351.0
1606922074.8419,373.0
1606922074.8439,387.0
1606922074.8459,394.0
1606922074.8479,392.0
1606922074.8485,380.0
1606922074.8499,351.0
1606922074.8519,294.0
1606922074.8539,222.0
1606922074.8559,141.0
1606922074.8582,45.0
1606922074.86,-45.0
1606922074.8619,-114.0
1606922074.8639,-169.0
1606922074.8659,-203.0
1606922074.8679,-217.0
1606922074.8699,-217.0
1606922074.8719,-205.0
1606922074.874,-191.0
1606922074.8759,-184.0
1606922074.8779,-169.0
1606922074.8785,-150.0
1606922074.8799,-136.0
1606922074.8819,-129.0
1606922074.8839,-119.0
1606922074.8859,-112.0
1606922074.8878,-107.0
1606922074.8899,-102.0
1606922074.892,-95.0
1606922074.8939,-90.0
1606922074.8959,-93.0
1606922074.8979,-93.0
1606922074.8999,-90.0
1606922074.9019,-90.0
1606922075.336,-93.0
1606922075.3369,-95.0
1606922075.3394,-98.0
1606922075.3421,-102.0
1606922075.3441,-107.0
1606922075.346,-110.0
1606922075.3482,-105.0
1606922075.35,-102.0
1606922075.3521,-100.0
1606922075.354,-95.0
1606922075.356,-90.0
1606922075.358,-86.0
1606922075.3601,-86.0
1606922075.362,-93.0
1606922075.364,-88.0
1606922075.366,-71.0
1606922075.3666,-50.0
1606922075.368,-16.0
1606922075.37,21.0
1606922075.3719,33.0
1606922075.374,16.0
1606922075.376,-19.0
1606922075.378,-52.0
1606922075.38,-64.0
1606922075.382,-57.0
1606922075.3839,-50.0
1606922075.3859,-50.0
1606922075.3881,-47.0
1606922075.39,-45.0
1606922075.392,-31.0
1606922075.3939,-4.0
1606922075.3959,95.0
1606922075.3965,521.0
1606922075.3979,1260.0
1606922075.3999,1600.0
1606922075.402,748.0
1606922075.4039,-846.0
1606922075.4059,-1385.0
1606922075.408,-516.0
1606922075.41,43.0
1606922075.4119,-114.0
1606922075.4139,-83.0
1606922075.4159,86.0
1606922075.4179,35.0
1606922075.4199,4.0
1606922075.422,69.0
1606922075.424,76.0
1606922075.426,62.0
1606922075.4265,93.0
1606922075.4279,112.0
1606922075.4299,117.0
1606922075.4319,138.0
1606922075.4339,165.0
1606922075.4359,189.0
1606922075.4379,210.0
1606922075.4399,241.0
1606922075.442,272.0
1606922075.4439,303.0
1606922075.4459,337.0
1606922075.4479,368.0
1606922075.4499,394.0
1606922075.452,409.0
1606922075.4539,411.0
1606922075.4559,397.0
1606922075.4565,370.0
1606922075.458,330.0
1606922075.46,270.0
1606922075.4619,186.0
1606922075.4639,86.0
1606922075.4659,-16.0
1606922075.4679,-98.0
1606922075.4699,-160.0
1606922075.4719,-203.0
1606922075.9355,-224.0
1606922075.9364,-224.0
1606922075.9375,-220.0
1606922075.9395,-205.0
1606922075.9401,-193.0
1606922075.9418,-186.0
1606922075.9435,-177.0
1606922075.9455,-162.0
1606922075.9475,-150.0
1606922075.9495,-143.0
1606922075.9515,-131.0
1606922075.9534,-124.0
1606922075.9554,-122.0
1606922075.9574,-117.0
1606922075.9595,-107.0
1606922075.9614,-107.0
1606922075.9635,-107.0
1606922075.9655,-107.0
1606922075.9676,-100.0
1606922075.9695,-98.0
1606922075.9701,-100.0
1606922075.9715,-98.0
1606922075.9735,-93.0
1606922075.9755,-93.0
1606922075.9775,-90.0
1606922075.9794,-88.0
1606922075.9814,-83.0
1606922075.9834,-81.0
1606922075.9854,-78.0
1606922075.9874,-74.0
1606922075.9894,-71.0
1606922075.9915,-71.0
1606922075.9934,-69.0
1606922075.9954,-66.0
1606922075.9974,-74.0
1606922075.9994,-81.0
1606922076.0,-74.0
1606922076.0014,-50.0
1606922076.0034,-11.0
1606922076.0054,28.0
1606922076.0074,47.0
1606922076.0095,45.0
1606922076.0113,21.0
1606922076.0134,-14.0
1606922076.0154,-40.0
1606922076.0174,-43.0
1606922076.0194,-35.0
1606922076.0214,-31.0
1606922076.0234,-31.0
1606922076.0255,-31.0
1606922076.0274,-23.0
1606922076.0294,-9.0
1606922076.03,23.0
1606922076.0314,227.0
1606922076.0334,815.0
1606922076.0354,1481.0
1606922076.0375,1378.0
1606922076.0394,114.0
1606922076.0415,-1215.0
1606922076.0434,-1076.0
1606922076.0454,-155.0
1606922076.0474,28.0
1606922076.0494,-141.0
1606922076.0514,0.0
1606922076.0534,83.0
1606922076.0554,7.0
1606922076.0575,28.0
1606922076.0594,78.0
1606922076.0599,62.0
1606922076.0616,64.0
1606922076.0634,98.0
1606922076.0654,110.0
1606922076.0674,119.0
1606922076.4756,143.0
1606922076.4766,169.0
1606922076.479,189.0
1606922076.4807,210.0
1606922076.4827,241.0
1606922076.4847,272.0
1606922076.4867,303.0
1606922076.4887,332.0
1606922076.4907,358.0
1606922076.4927,380.0
1606922076.4947,385.0
1606922076.4952,370.0
1606922076.4966,356.0
1606922076.4986,332.0
1606922076.5006,284.0
1606922076.5026,222.0
1606922076.5046,145.0
1606922076.5066,47.0
1606922076.5087,-47.0
1606922076.5107,-117.0
1606922076.5126,-167.0
1606922076.5146,-203.0
1606922076.5166,-220.0
1606922076.5186,-220.0
1606922076.5206,-208.0
1606922076.5226,-191.0
1606922076.5247,-181.0
1606922076.5252,-172.0
1606922076.5266,-157.0
1606922076.5286,-145.0
1606922076.5306,-136.0
1606922076.5326,-126.0
1606922076.5346,-119.0
1606922076.5367,-117.0
1606922076.5387,-114.0
1606922076.5407,-110.0
1606922076.5427,-102.0
1606922076.5446,-102.0
1606922076.5466,-105.0
1606922076.5486,-102.0
1606922076.5506,-98.0
1606922076.5526,-98.0
1606922076.5546,-98.0
1606922076.5552,-93.0
1606922076.5566,-90.0
1606922076.5587,-90.0
1606922076.5606,-88.0
1606922076.5626,-81.0
1606922076.5646,-76.0
1606922076.5666,-76.0
1606922076.5686,-76.0
1606922076.5706,-76.0
1606922076.5726,-78.0
1606922076.5747,-71.0
1606922076.5766,-66.0
1606922076.5786,-64.0
1606922076.5806,-62.0
1606922076.5826,-57.0
1606922076.5846,-55.0
1606922076.5852,-50.0
1606922076.5866,-43.0
1606922076.5886,-43.0
1606922076.5906,-40.0
1606922076.5927,-35.0
1606922076.5946,-33.0
1606922076.5966,-33.0
1606922076.5986,-31.0
1606922076.6006,-26.0
1606922076.6026,-23.0
1606922076.6046,-21.0
1606922076.6066,-21.0
1606922076.6087,-19.0
1606922076.6106,-16.0
1606922077.0456,-11.0
1606922077.0466,-4.0
1606922077.049,-4.0
1606922077.0517,-4.0
1606922077.0536,14.0
1606922077.0556,21.0
1606922077.0577,11.0
1606922077.0597,33.0
1606922077.0617,66.0
1606922077.0636,52.0
1606922077.0656,7.0
1606922077.0676,-23.0
1606922077.0698,-26.0
1606922077.0717,-21.0
1606922077.0736,-16.0
1606922077.0756,-16.0
1606922077.0762,-14.0
1606922077.0776,-7.0
1606922077.0796,4.0
1606922077.0816,33.0
1606922077.0835,208.0
1606922077.0855,748.0
1606922077.0876,1411.0
1606922077.0895,1411.0
1606922077.0917,279.0
1606922077.0937,-1079.0
1606922077.0956,-1083.0
1606922077.0975,-189.0
1606922077.0995,47.0
1606922077.1016,-129.0
1606922077.1035,-2.0
1606922077.1055,100.0
1606922077.1061,19.0
1606922077.1076,28.0
1606922077.1096,88.0
1606922077.1115,76.0
1606922077.1135,74.0
1606922077.1155,102.0
1606922077.1175,114.0
1606922077.1195,124.0
1606922077.1216,150.0
1606922077.1235,177.0
1606922077.1256,193.0
1606922077.1275,212.0
1606922077.1295,236.0
1606922077.1316,260.0
1606922077.1335,287.0
1606922077.1355,313.0
1606922077.1361,337.0
1606922077.1375,358.0
1606922077.1396,368.0
1606922077.1417,366.0
1606922077.1436,361.0
1606922077.1455,342.0
1606922077.1475,303.0
1606922077.1495,260.0
1606922077.1516,200.0
1606922077.1536,119.0
1606922077.1555,35.0
1606922077.1576,-43.0
1606922077.1596,-107.0
1606922077.1616,-155.0
1606922077.1635,-181.0
1606922077.1657,-189.0
1606922077.1662,-186.0
1606922077.1675,-179.0
1606922077.1695,-162.0
1606922077.1716,-150.0
1606922077.1735,-143.0
1606922077.1756,-133.0
1606922077.1775,-119.0
1606922077.1795,-114.0
1606922077.1816,-110.0
1606922077.6456,-107.0
1606922077.6465,-107.0
1606922077.6475,-105.0
1606922077.6495,-102.0
1606922077.6505,-98.0
1606922077.6525,-95.0
1606922077.6544,-100.0
1606922077.6565,-105.0
1606922077.6585,-102.0
1606922077.6605,-105.0
1606922077.6625,-107.0
1606922077.6648,-107.0
1606922077.6665,-105.0
1606922077.6685,-100.0
1606922077.6705,-93.0
1606922077.6725,-93.0
1606922077.6731,-90.0
1606922077.6751,-83.0
1606922077.6766,-78.0
1606922077.6784,-74.0
1606922077.6805,-69.0
1606922077.6832,-69.0
1606922077.6845,-66.0
1606922077.6864,-64.0
1606922077.6884,-59.0
1606922077.6905,-50.0
1606922077.6924,-43.0
1606922077.6945,-45.0
1606922077.6965,-45.0
1606922077.6985,-40.0
1606922077.7005,-40.0
1606922077.7011,-35.0
1606922077.7024,-28.0
1606922077.7045,-21.0
1606922077.7065,-23.0
1606922077.7085,-31.0
1606922077.7104,-31.0
1606922077.7127,-28.0
1606922077.7145,-31.0
1606922077.7164,-31.0
1606922077.7184,-23.0
1606922077.7205,-21.0
1606922077.7224,-19.0
1606922077.7251,-2.0
1606922077.7276,16.0
1606922077.7294,11.0
1606922077.7315,2.0
1606922077.7334,28.0
1606922077.7413,62.0
1606922077.7425,52.0
1606922077.7444,16.0
1606922077.7464,-9.0
1606922077.7485,-16.0
1606922077.7505,-9.0
1606922077.7526,-4.0
1606922077.7544,-9.0
1606922077.7565,-14.0
1606922077.757,-9.0
1606922077.7584,4.0
1606922077.7604,35.0
1606922077.7625,174.0
1606922077.7644,643.0
1606922077.7666,1356.0
1606922077.7684,1588.0
1606922077.7704,598.0
1606922077.7726,-971.0
1606922077.7739,-1303.0
1606922077.7756,-433.0
1606922077.778,-7.0
1606922077.7796,-110.0
1606922077.7816,-14.0
1606922077.7834,110.0
1606922077.7843,62.0
1606922078.2456,55.0
1606922078.2466,105.0
1606922078.2477,105.0
1606922078.2498,105.0
1606922078.2517,131.0
1606922078.2538,141.0
1606922078.2557,141.0
1606922078.2577,155.0
1606922078.2597,181.0
1606922078.2617,208.0
1606922078.2637,227.0
1606922078.2657,244.0
1606922078.2677,270.0
1606922078.2697,303.0
1606922078.2717,332.0
1606922078.2737,358.0
1606922078.2743,380.0
1606922078.2757,387.0
1606922078.2777,382.0
1606922078.2799,370.0
1606922078.2818,344.0
1606922078.2837,308.0
1606922078.2858,265.0
1606922078.2877,200.0
1606922078.2897,119.0
1606922078.2917,33.0
1606922078.2937,-43.0
1606922078.2957,-107.0
1606922078.2977,-155.0
1606922078.2997,-184.0
1606922078.3017,-200.0
1606922078.3037,-200.0
1606922078.3043,-191.0
1606922078.3057,-181.0
1606922078.3077,-169.0
1606922078.3097,-153.0
1606922078.3117,-141.0
1606922078.3137,-133.0
1606922078.3158,-126.0
1606922078.3177,-117.0
1606922078.3197,-110.0
1606922078.3217,-110.0
1606922078.3236,-110.0
1606922078.3257,-105.0
1606922078.3277,-98.0
1606922078.3296,-98.0
1606922078.3317,-100.0
1606922078.3337,-98.0
1606922078.3342,-98.0
1606922078.3357,-100.0
1606922078.3377,-98.0
1606922078.3397,-93.0
1606922078.3417,-95.0
1606922078.3436,-95.0
1606922078.3457,-90.0
1606922078.3476,-86.0
1606922078.3496,-83.0
1606922078.3517,-78.0
1606922078.3537,-76.0
1606922078.3557,-76.0
1606922078.3577,-74.0
1606922078.3596,-69.0
1606922078.3617,-66.0
1606922078.3637,-64.0
1606922078.3644,-64.0
1606922078.3657,-59.0
1606922078.3676,-55.0
1606922078.3685,-52.0
1606922078.3707,-52.0
1606922078.3727,-50.0
1606922078.3748,-45.0
1606922078.3768,-43.0
1606922078.3787,-40.0
1606922078.7554,-38.0
1606922078.7561,-31.0
1606922078.7574,-26.0
1606922078.7594,-28.0
1606922078.7614,-28.0
1606922078.7635,-23.0
1606922078.7653,-19.0
1606922078.7674,-21.0
1606922078.7694,-31.0
1606922078.7715,-23.0
1606922078.7734,-9.0
1606922078.7754,-2.0
1606922078.776,23.0
1606922078.7774,55.0
1606922078.7794,55.0
1606922078.7814,28.0
1606922078.7834,-9.0
1606922078.7854,-35.0
1606922078.7874,-38.0
1606922078.7894,-28.0
1606922078.7914,-23.0
1606922078.7934,-26.0
1606922078.7954,-23.0
1606922078.7974,-21.0
1606922078.7994,-11.0
1606922078.8015,31.0
1606922078.8034,227.0
1606922078.8054,794.0
1606922078.806,1461.0
1606922078.8073,1423.0
1606922078.8094,193.0
1606922078.8116,-1181.0
1606922078.8135,-1076.0
1606922078.8155,-157.0
1606922078.8174,28.0
1606922078.8195,-133.0
1606922078.8214,14.0
1606922078.8233,100.0
1606922078.8253,23.0
1606922078.8273,47.0
1606922078.8293,100.0
1606922078.8314,83.0
1606922078.8333,88.0
1606922078.8354,119.0
1606922078.8359,129.0
1606922078.8373,141.0
1606922078.8394,162.0
1606922078.8414,184.0
1606922078.8435,208.0
1606922078.8454,229.0
1606922078.8474,253.0
1606922078.8493,279.0
1606922078.8514,311.0
1606922078.8534,339.0
1606922078.8554,363.0
1606922078.8573,382.0
1606922078.8593,392.0
1606922078.8614,385.0
1606922078.8634,366.0
1606922078.8653,339.0
1606922078.866,301.0
1606922078.8674,246.0
1606922078.8694,177.0
1606922078.8714,93.0
1606922078.8733,4.0
1606922078.8753,-64.0
1606922078.8773,-117.0
1606922078.8793,-160.0
1606922078.8814,-184.0
1606922078.8833,-189.0
1606922078.8854,-186.0
1606922078.8873,-174.0
1606922078.8895,-160.0
1606922079.386,-150.0
1606922079.388,-141.0
1606922079.3897,-126.0
1606922079.3918,-114.0
1606922079.3937,-114.0
1606922079.3957,-114.0
1606922079.3977,-102.0
1606922079.3997,-95.0
1606922079.4018,-98.0
1606922079.4037,-100.0
1606922079.4057,-95.0
1606922079.4077,-95.0
1606922079.4083,-98.0
1606922079.4097,-100.0
1606922079.4118,-98.0
1606922079.4137,-98.0
1606922079.4157,-100.0
1606922079.4178,-98.0
1606922079.4197,-93.0
1606922079.4217,-88.0
1606922079.4237,-88.0
1606922079.4257,-88.0
1606922079.4277,-83.0
1606922079.4297,-78.0
1606922079.4317,-76.0
1606922079.4337,-74.0
1606922079.436,-71.0
1606922079.4377,-74.0
1606922079.4385,-69.0
1606922079.4407,-66.0
1606922079.4427,-66.0
1606922079.4447,-62.0
1606922079.4467,-59.0
1606922079.4487,-59.0
1606922079.4507,-59.0
1606922079.4527,-50.0
1606922079.4547,-45.0
1606922079.4567,-45.0
1606922079.4587,-45.0
1606922079.4607,-43.0
1606922079.4627,-43.0
1606922079.4647,-43.0
1606922079.4667,-33.0
1606922079.4687,-28.0
1606922079.4693,-31.0
1606922079.4707,-31.0
1606922079.4727,-23.0
1606922079.4746,-21.0
1606922079.4766,-23.0
1606922079.4786,-16.0
1606922079.4807,-14.0
1606922079.4826,-16.0
1606922079.4847,-14.0
1606922079.4867,-4.0
1606922079.4886,-2.0
1606922079.4906,-7.0
1606922079.4926,-9.0
1606922079.4947,4.0
1606922079.4967,19.0
1606922079.4986,26.0
1606922079.4993,45.0
1606922079.5006,81.0
1606922079.5028,88.0
1606922079.5046,55.0
1606922079.5066,11.0
1606922079.5086,-4.0
1606922079.5106,2.0
1606922079.5126,7.0
1606922079.5146,4.0
1606922079.5166,4.0
1606922079.5187,7.0
1606922079.5207,11.0
1606922079.5227,26.0
1606922079.925,86.0
1606922079.9259,378.0
1606922079.9274,1016.0
1606922079.9294,1526.0
1606922079.9315,1138.0
1606922079.9334,-229.0
1606922079.9354,-1232.0
1606922079.9374,-746.0
1606922079.9394,28.0
1606922079.9414,-2.0
1606922079.9434,-105.0
1606922079.9454,71.0
1606922079.9474,90.0
1606922079.9494,14.0
1606922079.95,52.0
1606922079.9514,88.0
1606922079.9534,76.0
1606922079.9554,88.0
1606922079.9573,112.0
1606922079.9594,122.0
1606922079.9606,136.0
1606922079.9623,160.0
1606922079.9643,181.0
1606922079.9663,203.0
1606922079.9684,232.0
1606922079.9704,256.0
1606922079.9724,279.0
1606922079.9743,311.0
1606922079.9763,342.0
1606922079.977,366.0
1606922079.9783,385.0
1606922079.9803,392.0
1606922079.9824,380.0
1606922079.9844,358.0
1606922079.9864,334.0
1606922079.9883,296.0
1606922079.9903,241.0
1606922079.9924,167.0
1606922079.9943,78.0
1606922079.9964,-7.0
1606922079.9983,-78.0
1606922080.0004,-131.0
1606922080.0024,-169.0
1606922080.0043,-193.0
1606922080.0063,-203.0
1606922080.007,-196.0
1606922080.0084,-181.0
1606922080.0103,-167.0
1606922080.0124,-160.0
1606922080.0143,-153.0
1606922080.0163,-141.0
1606922080.0184,-131.0
1606922080.0204,-129.0
1606922080.0223,-124.0
1606922080.0243,-114.0
1606922080.0265,-110.0
1606922080.0284,-112.0
1606922080.0303,-110.0
1606922080.0324,-105.0
1606922080.0344,-102.0
1606922080.0364,-102.0
1606922080.0369,-102.0
1606922080.0383,-102.0
1606922080.0403,-107.0
1606922080.0424,-110.0
1606922080.0444,-107.0
1606922080.0464,-102.0
1606922080.0483,-102.0
1606922080.0504,-100.0
1606922080.0525,-95.0
1606922080.0544,-90.0
1606922080.0564,-88.0
1606922080.0583,-88.0
1606922080.4662,-81.0
1606922080.4672,-76.0
1606922080.4681,-78.0
1606922080.4702,-86.0
1606922080.4722,-81.0
1606922080.4741,-69.0
1606922080.4761,-64.0
1606922080.4782,-64.0
1606922080.4801,-62.0
1606922080.4822,-59.0
1606922080.4843,-59.0
1606922080.4862,-64.0
1606922080.4882,-66.0
1606922080.4901,-59.0
1606922080.4921,-55.0
1606922080.4941,-52.0
1606922080.4961,-47.0
1606922080.4967,-45.0
1606922080.4981,-43.0
1606922080.5001,-40.0
1606922080.5022,-40.0
1606922080.5041,-35.0
1606922080.5061,-33.0
1606922080.5081,-33.0
1606922080.5101,-28.0
1606922080.5121,-23.0
1606922080.514,-23.0
1606922080.5161,-21.0
1606922080.5181,-14.0
1606922080.5201,-11.0
1606922080.5221,-19.0
1606922080.524,-14.0
1606922080.526,7.0
1606922080.5269,14.0
1606922080.5281,19.0
1606922080.53,52.0
1606922080.532,81.0
1606922080.5341,69.0
1606922080.5361,26.0
1606922080.538,-9.0
1606922080.54,-16.0
1606922080.5421,-9.0
1606922080.5441,-4.0
1606922080.546,0.0
1606922080.548,2.0
1606922080.55,0.0
1606922080.5521,11.0
1606922080.554,47.0
1606922080.556,198.0
1606922080.5566,686.0
1606922080.558,1358.0
1606922080.56,1485.0
1606922080.5621,459.0
1606922080.564,-1000.0
1606922080.566,-1179.0
1606922080.5681,-277.0
1606922080.5701,69.0
1606922080.572,-100.0
1606922080.574,-4.0
1606922080.576,124.0
1606922080.578,59.0
1606922080.58,50.0
1606922080.5821,107.0
1606922080.5841,110.0
1606922080.5861,100.0
1606922080.5866,126.0
1606922080.588,148.0
1606922080.59,155.0
1606922080.592,162.0
1606922080.5941,174.0
1606922080.596,198.0
1606922080.598,229.0
1606922080.6,256.0
1606922081.0059,282.0
1606922081.0068,313.0
1606922081.0079,344.0
1606922081.0099,373.0
1606922081.012,394.0
1606922081.0139,409.0
1606922081.0159,416.0
1606922081.018,404.0
1606922081.0199,370.0
1606922081.0219,330.0
1606922081.0239,282.0
1606922081.0262,210.0
1606922081.0279,122.0
1606922081.03,31.0
1606922081.032,-62.0
1606922081.0339,-136.0
1606922081.0359,-186.0
1606922081.0367,-217.0
1606922081.0379,-239.0
1606922081.0399,-239.0
1606922081.0419,-222.0
1606922081.0438,-212.0
1606922081.0458,-210.0
1606922081.0478,-193.0
1606922081.0499,-174.0
1606922081.0519,-167.0
1606922081.0539,-157.0
1606922081.0559,-145.0
1606922081.0578,-138.0
1606922081.0598,-131.0
1606922081.0619,-126.0
1606922081.0639,-122.0
1606922081.066,-119.0
1606922081.0664,-114.0
1606922081.0679,-114.0
1606922081.0699,-119.0
1606922081.0719,-119.0
1606922081.0738,-112.0
1606922081.0758,-107.0
1606922081.0778,-110.0
1606922081.0798,-105.0
1606922081.0818,-98.0
1606922081.0839,-102.0
1606922081.0859,-102.0
1606922081.0878,-93.0
1606922081.0898,-90.0
1606922081.0918,-90.0
1606922081.0938,-93.0
1606922081.0958,-90.0
1606922081.0964,-86.0
1606922081.0978,-78.0
1606922081.0998,-71.0
1606922081.1019,-62.0
1606922081.1038,-59.0
1606922081.1058,-66.0
1606922081.1078,-64.0
1606922081.1098,-59.0
1606922081.1118,-55.0
1606922081.1138,-47.0
1606922081.1158,-45.0
1606922081.1179,-50.0
1606922081.1199,-52.0
1606922081.1221,-47.0
1606922081.124,-43.0
1606922081.1259,-35.0
1606922081.1264,-33.0
1606922081.1278,-35.0
1606922081.1298,-38.0
1606922081.1318,-31.0
1606922081.1338,-7.0
1606922081.1359,4.0
1606922081.1378,0.0
1606922081.1398,19.0
1606922081.5757,52.0
1606922081.5766,59.0
1606922081.579,28.0
1606922081.5807,-7.0
1606922081.5827,-31.0
1606922081.5847,-38.0
1606922081.5868,-38.0
1606922081.5875,-33.0
1606922081.5887,-31.0
1606922081.5907,-28.0
1606922081.5926,-19.0
1606922081.5946,14.0
1606922081.5967,110.0
1606922081.5987,425.0
1606922081.6007,1076.0
1606922081.6027,1612.0
1606922081.6047,1136.0
1606922081.6067,-418.0
1606922081.6086,-1421.0
1606922081.6106,-861.0
1606922081.6127,-105.0
1606922081.6146,-66.0
1606922081.6166,-81.0
1606922081.6172,69.0
1606922081.6187,86.0
1606922081.6207,47.0
1606922081.6226,86.0
1606922081.6246,112.0
1606922081.6266,102.0
1606922081.6286,112.0
1606922081.6306,133.0
1606922081.6326,145.0
1606922081.6347,162.0
1606922081.6367,184.0
1606922081.6386,200.0
1606922081.6406,220.0
1606922081.6426,244.0
1606922081.6446,275.0
1606922081.6466,306.0
1606922081.6472,330.0
1606922081.6488,354.0
1606922081.6507,380.0
1606922081.6527,401.0
1606922081.6546,406.0
1606922081.6566,399.0
1606922081.6586,375.0
1606922081.6606,339.0
1606922081.6626,289.0
1606922081.6646,224.0
1606922081.6666,145.0
1606922081.6687,52.0
1606922081.6706,-38.0
1606922081.6726,-112.0
1606922081.6746,-169.0
1606922081.6766,-208.0
1606922081.6773,-227.0
1606922081.6796,-232.0
1606922081.6816,-229.0
1606922081.6837,-220.0
1606922081.6857,-210.0
1606922081.6876,-196.0
1606922081.6896,-181.0
1606922081.6916,-167.0
1606922081.6936,-157.0
1606922081.6956,-150.0
1606922081.6976,-141.0
1606922081.6996,-131.0
1606922081.7017,-126.0
1606922081.7036,-119.0
1606922081.7056,-119.0
1606922081.7062,-119.0
1606922081.7076,-119.0
1606922081.7096,-117.0
1606922082.1161,-117.0
1606922082.117,-114.0
1606922082.1183,-112.0
1606922082.1204,-114.0
1606922082.1223,-112.0
1606922082.1244,-107.0
1606922082.1264,-110.0
1606922082.1283,-112.0
1606922082.1289,-105.0
1606922082.1304,-98.0
1606922082.1323,-100.0
1606922082.1344,-95.0
1606922082.1363,-90.0
1606922082.1384,-86.0
1606922082.1404,-81.0
1606922082.1423,-74.0
1606922082.1443,-74.0
1606922082.1462,-71.0
1606922082.1484,-64.0
1606922082.1503,-57.0
1606922082.1523,-57.0
1606922082.1542,-57.0
1606922082.1562,-50.0
1606922082.1582,-45.0
1606922082.1588,-45.0
1606922082.1602,-40.0
1606922082.1623,-35.0
1606922082.1642,-35.0
1606922082.1662,-38.0
1606922082.1683,-43.0
1606922082.1702,-47.0
1606922082.1722,-40.0
1606922082.1742,-19.0
1606922082.1762,2.0
1606922082.1782,31.0
1606922082.1803,62.0
1606922082.1822,71.0
1606922082.1843,50.0
1606922082.1863,7.0
1606922082.1882,-21.0
1606922082.1888,-21.0
1606922082.1902,-11.0
1606922082.1922,-11.0
1606922082.1942,-14.0
1606922082.1962,-9.0
1606922082.1982,-4.0
1606922082.2003,7.0
1606922082.2022,45.0
1606922082.2042,241.0
1606922082.2062,811.0
1606922082.2082,1464.0
1606922082.2102,1416.0
1606922082.2122,210.0
1606922082.2142,-1160.0
1606922082.2162,-1086.0
1606922082.2183,-157.0
1606922082.2188,55.0
1606922082.2202,-119.0
1606922082.2222,14.0
1606922082.2242,112.0
1606922082.2262,31.0
1606922082.2282,43.0
1606922082.2302,100.0
1606922082.2322,90.0
1606922082.2343,88.0
1606922082.2363,119.0
1606922082.2382,131.0
1606922082.2402,141.0
1606922082.2423,165.0
1606922082.2444,186.0
1606922082.2462,203.0
1606922082.2482,229.0
1606922082.2488,260.0
1606922082.7157,287.0
1606922082.7166,320.0
1606922082.7191,356.0
1606922082.7218,380.0
1606922082.7237,392.0
1606922082.7257,401.0
1606922082.7277,404.0
1606922082.7298,387.0
1606922082.7317,356.0
1606922082.7337,318.0
1606922082.7358,258.0
1606922082.7377,174.0
1606922082.7397,76.0
1606922082.7418,-16.0
1606922082.7437,-95.0
1606922082.7444,-155.0
1606922082.7457,-193.0
1606922082.7477,-215.0
1606922082.7497,-224.0
1606922082.7517,-224.0
1606922082.7537,-215.0
1606922082.7556,-200.0
1606922082.7576,-189.0
1606922082.7596,-174.0
1606922082.7617,-165.0
1606922082.7636,-157.0
1606922082.7656,-145.0
1606922082.7676,-136.0
1606922082.7698,-129.0
1606922082.7717,-122.0
1606922082.7736,-114.0
1606922082.7742,-112.0
1606922082.7756,-107.0
1606922082.7776,-105.0
1606922082.7796,-105.0
1606922082.7816,-105.0
1606922082.7837,-102.0
1606922082.7857,-102.0
1606922082.7876,-102.0
1606922082.7896,-107.0
1606922082.7916,-107.0
1606922082.7936,-98.0
1606922082.7956,-95.0
1606922082.7976,-98.0
1606922082.7996,-90.0
1606922082.8016,-86.0
1606922082.8036,-83.0
1606922082.8043,-81.0
1606922082.8056,-76.0
1606922082.8076,-71.0
1606922082.8096,-69.0
1606922082.8116,-66.0
1606922082.8136,-64.0
1606922082.8156,-59.0
1606922082.8176,-52.0
1606922082.8197,-50.0
1606922082.8217,-47.0
1606922082.8236,-47.0
1606922082.8256,-45.0
1606922082.8276,-40.0
1606922082.8296,-35.0
1606922082.8316,-33.0
1606922082.8336,-33.0
1606922082.8342,-31.0
1606922082.8357,-31.0
1606922082.8376,-28.0
1606922082.8396,-21.0
1606922082.8416,-16.0
1606922082.8436,-16.0
1606922082.8456,-16.0
1606922082.8476,-21.0
1606922082.8496,-16.0
1606922082.8516,2.0
1606922083.2859,16.0
1606922083.2869,35.0
1606922083.2891,66.0
1606922083.2909,83.0
1606922083.2915,62.0
1606922083.2928,19.0
1606922083.2948,-7.0
1606922083.2968,-7.0
1606922083.2988,-7.0
1606922083.3009,-16.0
1606922083.3028,-21.0
1606922083.3048,-16.0
1606922083.3068,-9.0
1606922083.3088,2.0
1606922083.3108,35.0
1606922083.3128,196.0
1606922083.3148,701.0
1606922083.3169,1368.0
1606922083.3188,1466.0
1606922083.3208,442.0
1606922083.3213,-978.0
1606922083.3228,-1153.0
1606922083.3247,-253.0
1606922083.3267,86.0
1606922083.3287,-105.0
1606922083.3309,-16.0
1606922083.3328,117.0
1606922083.3349,45.0
1606922083.3368,38.0
1606922083.3387,98.0
1606922083.341,95.0
1606922083.3427,86.0
1606922083.3447,107.0
1606922083.3467,122.0
1606922083.3487,133.0
1606922083.3508,155.0
1606922083.3514,177.0
1606922083.3528,196.0
1606922083.3547,222.0
1606922083.3567,251.0
1606922083.3587,279.0
1606922083.3607,311.0
1606922083.3627,339.0
1606922083.3647,368.0
1606922083.3668,389.0
1606922083.3688,404.0
1606922083.3707,409.0
1606922083.3727,401.0
1606922083.3747,378.0
1606922083.3767,339.0
1606922083.3787,287.0
1606922083.3807,208.0
1606922083.3813,112.0
1606922083.3827,14.0
1606922083.3848,-66.0
1606922083.3868,-131.0
1606922083.3887,-179.0
1606922083.3907,-208.0
1606922083.3927,-217.0
1606922083.3947,-217.0
1606922083.3967,-205.0
1606922083.3987,-191.0
1606922083.4008,-179.0
1606922083.4028,-167.0
1606922083.4048,-155.0
1606922083.4069,-141.0
1606922083.4088,-129.0
1606922083.4107,-122.0
1606922083.4113,-119.0
1606922083.4127,-117.0
1606922083.4147,-114.0
1606922083.4167,-112.0
1606922083.4188,-110.0
1606922083.8261,-107.0
1606922083.827,-112.0
1606922083.8295,-114.0
1606922083.8324,-112.0
1606922083.8341,-110.0
1606922083.8361,-110.0
1606922083.8382,-107.0
1606922083.84,-105.0
1606922083.8421,-102.0
1606922083.844,-105.0
1606922083.8447,-112.0
1606922083.846,-112.0
1606922083.848,-105.0
1606922083.85,-102.0
1606922083.8521,-100.0
1606922083.854,-93.0
1606922083.856,-83.0
1606922083.858,-83.0
1606922083.8601,-83.0
1606922083.862,-78.0
1606922083.864,-71.0
1606922083.866,-66.0
1606922083.8681,-64.0
1606922083.87,-62.0
1606922083.872,-62.0
1606922083.874,-66.0
1606922083.8746,-64.0
1606922083.876,-57.0
1606922083.878,-55.0
1606922083.88,-50.0
1606922083.882,-45.0
1606922083.884,-43.0
1606922083.8861,-43.0
1606922083.888,-40.0
1606922083.89,-35.0
1606922083.892,-31.0
1606922083.894,-28.0
1606922083.896,-31.0
1606922083.898,-23.0
1606922083.9,-16.0
1606922083.9021,-16.0
1606922083.904,-23.0
1606922083.9046,-14.0
1606922083.906,-7.0
1606922083.908,-11.0
1606922083.91,-4.0
1606922083.9121,11.0
1606922083.914,14.0
1606922083.916,31.0
1606922083.9181,66.0
1606922083.92,81.0
1606922083.9221,55.0
1606922083.924,16.0
1606922083.926,-7.0
1606922083.9281,-9.0
1606922083.9301,0.0
1606922083.932,4.0
1606922083.9341,0.0
1606922083.9347,0.0
1606922083.936,7.0
1606922083.938,21.0
1606922083.94,66.0
1606922083.942,301.0
1606922083.944,899.0
1606922083.946,1516.0
1606922083.948,1342.0
