Time,ECG
1604495816.7929,8318
1604495816.7956,9428
1604495816.7982,10233
1604495816.8005,10696
1604495816.8026,11228
1604495816.8045,11698
1604495816.8067,12014
1604495816.8085,12321
1604495816.8108,12596
1604495816.8129,12790
1604495816.8151,12973
1604495816.8171,13155
1604495816.8191,13289
1604495816.8206,13402
1604495816.8225,13526
1604495816.8245,13622
1604495816.8267,13684
1604495816.8288,13747
1604495816.8305,13807
1604495816.8325,13859
1604495816.8345,13902
1604495816.8365,13926
1604495816.8386,13934
1604495816.8405,13950
1604495816.8425,13965
1604495816.8445,13962
1604495816.8466,13967
1604495816.8488,13967
1604495816.8505,13948
1604495816.8524,13936
1604495816.8545,13922
1604495816.8565,13898
1604495816.8585,13874
1604495816.8605,13847
1604495816.8625,13814
1604495816.8644,13795
1604495816.8665,13756
1604495816.8685,13699
1604495816.8705,13682
1604495816.8725,13656
1604495816.8745,13577
1604495816.8765,13524
1604495816.8785,13507
1604495816.8805,13466
1604495816.8825,13392
1604495816.8845,13315
1604495816.8865,13270
1604495816.8885,13229
1604495816.8904,13167
1604495816.8924,13104
1604495816.8952,13071
1604495816.8964,13023
1604495816.8984,12937
1604495816.9004,12855
1604495816.9024,12790
1604495816.9044,12721
1604495816.9064,12654
1604495816.9084,12577
1604495816.9104,12503
1604495816.9124,12443
1604495816.9144,12369
1604495816.9164,12292
1604495816.9184,12237
1604495816.9204,12172
1604495816.9224,12079
1604495816.9244,11997
1604495816.9264,11983
1604495816.9285,12100
1604495816.9304,12361
1604495816.9325,12534
1604495816.9344,12227
1604495816.9364,11491
1604495816.9384,11029
1604495817.3305,11096
1604495817.3316,11180
1604495817.3341,11118
1604495817.3367,11106
1604495817.3388,11089
1604495817.3407,11017
1604495817.3428,10947
1604495817.3447,10878
1604495817.3467,10799
1604495817.3488,10739
1604495817.3507,10660
1604495817.3527,10547
1604495817.3547,10475
1604495817.3567,10430
1604495817.3588,10351
1604495817.3607,10264
1604495817.3627,10207
1604495817.3647,10156
1604495817.3667,10097
1604495817.3688,10051
1604495817.3707,10013
1604495817.3727,9967
1604495817.3746,9931
1604495817.3766,9895
1604495817.3787,9850
1604495817.3806,9795
1604495817.3826,9704
1604495817.3846,9591
1604495817.3869,9485
1604495817.3888,9354
1604495817.3906,9188
1604495817.3926,9047
1604495817.3946,8939
1604495817.3966,8834
1604495817.3987,8733
1604495817.4006,8661
1604495817.4026,8594
1604495817.4046,8505
1604495817.4067,8426
1604495817.4087,8359
1604495817.4106,8292
1604495817.4126,8232
1604495817.4146,8172
1604495817.4167,8105
1604495817.4187,8033
1604495817.4206,7971
1604495817.4226,7916
1604495817.4246,7846
1604495817.4266,7784
1604495817.4286,7726
1604495817.4306,7654
1604495817.4326,7587
1604495817.4346,7539
1604495817.4367,7470
1604495817.4387,7391
1604495817.4406,7333
1604495817.4426,7278
1604495817.4446,7211
1604495817.4467,7146
1604495817.4490,7084
1604495817.4506,7017
1604495817.4526,6962
1604495817.4546,6904
1604495817.4566,6830
1604495817.4586,6763
1604495817.4606,6713
1604495817.4626,6655
1604495817.4646,6593
1604495817.4666,6526
1604495817.4686,6463
1604495817.4706,6418
1604495817.4726,6370
1604495817.4746,6303
1604495817.9002,6255
1604495817.9010,6204
1604495817.9035,6135
1604495817.9062,6077
1604495817.9081,6032
1604495817.9101,5986
1604495817.9124,5934
1604495817.9141,5874
1604495817.9162,5804
1604495817.9181,5754
1604495817.9200,5718
1604495817.9220,5663
1604495817.9241,5608
1604495817.9261,5584
1604495817.9280,5553
1604495817.9301,5490
1604495817.9322,5428
1604495817.9340,5375
1604495817.9360,5332
1604495817.9381,5282
1604495817.9401,5215
1604495817.9420,5157
1604495817.9441,5116
1604495817.9460,5078
1604495817.9480,5040
1604495817.9500,4997
1604495817.9520,4944
1604495817.9540,4898
1604495817.9561,4860
1604495817.9581,4812
1604495817.9600,4800
1604495817.9620,4953
1604495817.9640,5277
1604495817.9660,5478
1604495817.9680,5155
1604495817.9700,4433
1604495817.9720,4047
1604495817.9740,4174
1604495817.9760,4275
1604495817.9781,4244
1604495817.9800,4287
1604495817.9820,4318
1604495817.9841,4261
1604495817.9861,4218
1604495817.9880,4198
1604495817.9901,4177
1604495817.9920,4150
1604495817.9940,4100
1604495817.9961,4062
1604495817.9980,4047
1604495818.0000,4021
1604495818.0021,3988
1604495818.0041,3968
1604495818.0060,3944
1604495818.0080,3916
1604495818.0101,3906
1604495818.0120,3911
1604495818.0142,3918
1604495818.0161,3925
1604495818.0180,3930
1604495818.0200,3942
1604495818.0220,3935
1604495818.0240,3904
1604495818.0260,3870
1604495818.0280,3820
1604495818.0300,3731
1604495818.0320,3626
1604495818.0340,3527
1604495818.0360,3451
1604495818.0381,3388
1604495818.0400,3321
1604495818.0420,3257
1604495818.0440,3206
1604495818.4703,3170
1604495818.4714,3153
1604495818.4738,3137
1604495818.4764,3103
1604495818.4784,3072
1604495818.4804,3046
1604495818.4826,3029
1604495818.4844,3014
1604495818.4864,2991
1604495818.4885,2957
1604495818.4904,2933
1604495818.4924,2914
1604495818.4944,2887
1604495818.4964,2863
1604495818.4984,2844
1604495818.5003,2837
1604495818.5023,2820
1604495818.5043,2782
1604495818.5063,2763
1604495818.5084,2760
1604495818.5103,2722
1604495818.5123,2693
1604495818.5143,2681
1604495818.5164,2648
1604495818.5184,2612
1604495818.5203,2595
1604495818.5223,2576
1604495818.5243,2545
1604495818.5263,2518
1604495818.5283,2509
1604495818.5303,2494
1604495818.5323,2466
1604495818.5343,2437
1604495818.5363,2415
1604495818.5383,2396
1604495818.5406,2382
1604495818.5425,2365
1604495818.5443,2351
1604495818.5463,2336
1604495818.5483,2310
1604495818.5503,2279
1604495818.5523,2267
1604495818.5543,2260
1604495818.5563,2231
1604495818.5583,2204
1604495818.5603,2200
1604495818.5623,2195
1604495818.5643,2180
1604495818.5663,2180
1604495818.5683,2171
1604495818.5703,2135
1604495818.5723,2099
1604495818.5744,2082
1604495818.5763,2070
1604495818.5783,2049
1604495818.5803,2032
1604495818.5823,2020
1604495818.5843,2008
1604495818.5863,1998
1604495818.5883,1979
1604495818.5903,1960
1604495818.5924,1950
1604495818.5945,1931
1604495818.5963,1926
1604495818.5983,2037
1604495818.6003,2329
1604495818.6023,2650
1604495818.6043,2588
1604495818.6063,1986
1604495818.6083,1430
1604495818.6103,1437
1604495818.6123,1617
1604495818.6143,1632
1604495819.0108,1663
1604495819.0116,1742
1604495819.0141,1742
1604495819.0167,1701
1604495819.0187,1711
1604495819.0207,1718
1604495819.0227,1687
1604495819.0247,1670
1604495819.0267,1682
1604495819.0287,1677
1604495819.0306,1651
1604495819.0326,1641
1604495819.0346,1646
1604495819.0368,1646
1604495819.0387,1651
1604495819.0407,1660
1604495819.0426,1670
1604495819.0446,1684
1604495819.0467,1718
1604495819.0487,1761
1604495819.0506,1790
1604495819.0528,1804
1604495819.0546,1804
1604495819.0566,1795
1604495819.0586,1768
1604495819.0606,1720
1604495819.0626,1653
1604495819.0646,1572
1604495819.0666,1505
1604495819.0687,1457
1604495819.0706,1402
1604495819.0727,1358
1604495819.0746,1344
1604495819.0766,1330
1604495819.0787,1318
1604495819.0806,1313
1604495819.0826,1298
1604495819.0846,1291
1604495819.0866,1301
1604495819.0887,1303
1604495819.0906,1284
1604495819.0927,1270
1604495819.0946,1279
1604495819.0966,1286
1604495819.0986,1275
1604495819.1006,1258
1604495819.1026,1253
1604495819.1046,1255
1604495819.1066,1258
1604495819.1087,1263
1604495819.1107,1255
1604495819.1126,1234
1604495819.1146,1224
1604495819.1167,1227
1604495819.1187,1219
1604495819.1206,1207
1604495819.1227,1200
1604495819.1247,1186
1604495819.1266,1183
1604495819.1287,1181
1604495819.1306,1167
1604495819.1326,1159
1604495819.1346,1152
1604495819.1366,1143
1604495819.1388,1138
1604495819.1407,1133
1604495819.1426,1128
1604495819.1447,1126
1604495819.1466,1109
1604495819.1487,1095
1604495819.1506,1102
1604495819.1526,1100
1604495819.1546,1088
1604495819.5505,1078
1604495819.5514,1080
1604495819.5538,1076
1604495819.5564,1068
1604495819.5584,1066
1604495819.5604,1059
1604495819.5625,1052
1604495819.5644,1052
1604495819.5664,1052
1604495819.5684,1037
1604495819.5704,1008
1604495819.5724,985
1604495819.5744,994
1604495819.5764,1004
1604495819.5784,994
1604495819.5803,980
1604495819.5823,977
1604495819.5844,973
1604495819.5864,965
1604495819.5883,961
1604495819.5903,968
1604495819.5924,968
1604495819.5943,946
1604495819.5963,985
1604495819.5983,1198
1604495819.6003,1550
1604495819.6023,1730
1604495819.6044,1394
1604495819.6064,742
1604495819.6083,450
1604495819.6103,635
1604495819.6123,776
1604495819.6143,776
1604495819.6163,831
1604495819.6183,891
1604495819.6203,879
1604495819.6223,879
1604495819.6243,898
1604495819.6264,886
1604495819.6283,872
1604495819.6303,884
1604495819.6323,893
1604495819.6345,891
1604495819.6364,893
1604495819.6383,891
1604495819.6403,893
1604495819.6423,908
1604495819.6443,925
1604495819.6463,939
1604495819.6483,963
1604495819.6503,997
1604495819.6523,1032
1604495819.6543,1066
1604495819.6563,1090
1604495819.6583,1104
1604495819.6603,1114
1604495819.6623,1104
1604495819.6643,1076
1604495819.6663,1028
1604495819.6683,956
1604495819.6703,884
1604495819.6723,831
1604495819.6743,788
1604495819.6764,754
1604495819.6783,733
1604495819.6804,707
1604495819.6823,692
1604495819.6844,702
1604495819.6863,704
1604495819.6884,699
1604495819.6904,704
1604495819.6923,709
1604495819.6943,709
1604495820.1808,704
1604495820.1817,702
1604495820.1841,704
1604495820.1868,702
1604495820.1888,695
1604495820.1907,699
1604495820.1928,709
1604495820.1947,711
1604495820.1967,704
1604495820.1987,697
1604495820.2007,704
1604495820.2027,704
1604495820.2047,690
1604495820.2067,697
1604495820.2088,707
1604495820.2107,690
1604495820.2127,678
1604495820.2147,680
1604495820.2168,680
1604495820.2187,683
1604495820.2209,680
1604495820.2228,661
1604495820.2247,654
1604495820.2267,666
1604495820.2287,673
1604495820.2307,661
1604495820.2327,649
1604495820.2347,649
1604495820.2368,651
1604495820.2387,659
1604495820.2407,659
1604495820.2427,647
1604495820.2447,647
1604495820.2467,637
1604495820.2489,620
1604495820.2507,630
1604495820.2527,651
1604495820.2547,644
1604495820.2567,627
1604495820.2587,632
1604495820.2607,642
1604495820.2627,651
1604495820.2647,663
1604495820.2667,659
1604495820.2688,642
1604495820.2707,635
1604495820.2727,625
1604495820.2747,606
1604495820.2767,594
1604495820.2788,601
1604495820.2807,603
1604495820.2827,599
1604495820.2848,596
1604495820.2867,599
1604495820.2887,599
1604495820.2907,594
1604495820.2927,589
1604495820.2947,587
1604495820.2968,649
1604495820.2987,891
1604495820.3007,1248
1604495820.3027,1373
1604495820.3047,953
1604495820.3068,289
1604495820.3087,103
1604495820.3107,335
1604495820.3127,426
1604495820.3147,426
1604495820.3167,510
1604495820.3187,546
1604495820.3207,524
1604495820.3228,536
1604495820.3247,553
1604495820.7205,551
1604495820.7214,556
1604495820.7239,556
1604495820.7265,546
1604495820.7285,556
1604495820.7304,577
1604495820.7324,587
1604495820.7344,596
1604495820.7364,601
1604495820.7384,606
1604495820.7404,630
1604495820.7424,661
1604495820.7444,697
1604495820.7464,733
1604495820.7484,759
1604495820.7503,793
1604495820.7523,824
1604495820.7543,829
1604495820.7564,810
1604495820.7583,781
1604495820.7604,728
1604495820.7624,651
1604495820.7643,575
1604495820.7663,512
1604495820.7683,479
1604495820.7703,457
1604495820.7723,428
1604495820.7743,417
1604495820.7763,421
1604495820.7783,428
1604495820.7804,424
1604495820.7824,414
1604495820.7843,409
1604495820.7864,421
1604495820.7884,438
1604495820.7903,438
1604495820.7924,438
1604495820.7945,448
1604495820.7963,450
1604495820.7983,448
1604495820.8004,462
1604495820.8023,472
1604495820.8044,464
1604495820.8064,462
1604495820.8083,452
1604495820.8103,450
1604495820.8123,462
1604495820.8143,464
1604495820.8163,462
1604495820.8188,464
1604495820.8204,460
1604495820.8223,455
1604495820.8243,448
1604495820.8263,438
1604495820.8283,450
1604495820.8304,455
1604495820.8324,440
1604495820.8343,438
1604495820.8363,445
1604495820.8384,438
1604495820.8404,436
1604495820.8423,428
1604495820.8443,428
1604495820.8464,440
1604495820.8483,440
1604495820.8503,428
1604495820.8524,414
1604495820.8543,414
1604495820.8563,433
1604495820.8584,445
1604495820.8603,443
1604495820.8623,448
1604495820.8643,464
1604495821.2610,472
1604495821.2620,460
1604495821.2644,450
1604495821.2670,438
1604495821.2691,431
1604495821.2710,426
1604495821.2731,417
1604495821.2749,426
1604495821.2769,433
1604495821.2789,419
1604495821.2809,417
1604495821.2829,428
1604495821.2849,431
1604495821.2869,419
1604495821.2890,426
1604495821.2909,570
1604495821.2916,925
1604495821.2939,1267
1604495821.2960,1162
1604495821.2980,505
1604495821.2999,-33
1604495821.3019,33
1604495821.3039,232
1604495821.3059,254
1604495821.3079,321
1604495821.3099,409
1604495821.3119,417
1604495821.3141,414
1604495821.3160,431
1604495821.3180,433
1604495821.3200,433
1604495821.3219,440
1604495821.3226,436
1604495821.3239,438
1604495821.3259,448
1604495821.3279,460
1604495821.3299,469
1604495821.3319,479
1604495821.3340,488
1604495821.3359,500
1604495821.3379,532
1604495821.3399,579
1604495821.3419,613
1604495821.3439,647
1604495821.3459,690
1604495821.3479,723
1604495821.3499,740
1604495821.3506,730
1604495821.3519,697
1604495821.3539,651
1604495821.3559,584
1604495821.3579,498
1604495821.3600,431
1604495821.3619,383
1604495821.3639,345
1604495821.3659,325
1604495821.3679,313
1604495821.3699,294
1604495821.3719,294
1604495821.3739,306
1604495821.3759,306
1604495821.3779,301
1604495821.3799,304
1604495821.3806,313
1604495821.3819,318
1604495821.3839,318
1604495821.3859,325
1604495821.3879,340
1604495821.3899,347
1604495821.3919,345
1604495821.3939,337
1604495821.3959,349
1604495821.3979,369
1604495821.8300,366
1604495821.8310,357
1604495821.8333,357
1604495821.8360,361
1604495821.8380,364
1604495821.8390,359
1604495821.8411,352
1604495821.8430,342
1604495821.8450,335
1604495821.8470,337
1604495821.8491,337
1604495821.8509,335
1604495821.8529,337
1604495821.8549,340
1604495821.8569,335
1604495821.8590,333
1604495821.8609,333
1604495821.8629,337
1604495821.8649,340
1604495821.8669,335
1604495821.8689,328
1604495821.8696,325
1604495821.8709,330
1604495821.8729,333
1604495821.8749,342
1604495821.8769,357
1604495821.8789,364
1604495821.8809,366
1604495821.8829,369
1604495821.8849,357
1604495821.8869,330
1604495821.8890,321
1604495821.8909,333
1604495821.8929,333
1604495821.8949,330
1604495821.8969,340
1604495821.8990,337
1604495821.8996,330
1604495821.9009,333
1604495821.9029,342
1604495821.9049,335
1604495821.9069,335
1604495821.9090,476
1604495821.9109,826
1604495821.9129,1155
1604495821.9149,1064
1604495821.9170,445
1604495821.9190,-110
1604495821.9209,-76
1604495821.9229,148
1604495821.9249,189
1604495821.9269,232
1604495821.9289,321
1604495821.9296,330
1604495821.9309,309
1604495821.9329,325
1604495821.9351,342
1604495821.9370,337
1604495821.9389,337
1604495821.9409,352
1604495821.9429,357
1604495821.9449,357
1604495821.9469,366
1604495821.9490,378
1604495821.9510,395
1604495821.9530,405
1604495821.9549,414
1604495821.9569,440
1604495821.9589,479
1604495821.9596,522
1604495821.9609,558
1604495821.9629,594
1604495821.9649,627
1604495822.3708,639
1604495822.3718,627
1604495822.3730,606
1604495822.3749,563
1604495822.3769,488
1604495822.3788,405
1604495822.3808,347
1604495822.3829,301
1604495822.3851,258
1604495822.3855,222
1604495822.3868,213
1604495822.3888,225
1604495822.3908,213
1604495822.3928,201
1604495822.3948,215
1604495822.3968,220
1604495822.3988,222
1604495822.4008,234
1604495822.4029,244
1604495822.4048,249
1604495822.4068,251
1604495822.4088,251
1604495822.4108,261
1604495822.4128,263
1604495822.4135,258
1604495822.4148,266
1604495822.4168,275
1604495822.4188,280
1604495822.4208,285
1604495822.4228,287
1604495822.4248,278
1604495822.4268,273
1604495822.4288,270
1604495822.4308,266
1604495822.4329,278
1604495822.4349,278
1604495822.4369,261
1604495822.4388,268
1604495822.4408,282
1604495822.4428,273
1604495822.4435,263
1604495822.4448,266
1604495822.4468,254
1604495822.4488,249
1604495822.4508,270
1604495822.4528,278
1604495822.4548,266
1604495822.4569,263
1604495822.4588,261
1604495822.4608,256
1604495822.4628,261
1604495822.4648,275
1604495822.4668,289
1604495822.4689,299
1604495822.4708,309
1604495822.4728,304
1604495822.4735,282
1604495822.4758,263
1604495822.4779,261
1604495822.4798,266
1604495822.4818,266
1604495822.4838,268
1604495822.4858,275
1604495822.4878,280
1604495822.4898,268
1604495822.4919,256
1604495822.4938,278
1604495822.4958,289
1604495822.4978,285
1604495822.4998,409
1604495822.5018,759
1604495822.5038,1095
1604495822.5113,985
1604495822.9106,357
1604495822.9115,-160
1604495822.9128,-103
1604495822.9148,103
1604495822.9168,139
1604495822.9188,182
1604495822.9207,244
1604495822.9228,242
1604495822.9248,242
1604495822.9267,266
1604495822.9288,278
1604495822.9307,278
1604495822.9330,278
1604495822.9348,287
1604495822.9367,299
1604495822.9388,304
1604495822.9407,306
1604495822.9427,313
1604495822.9448,325
1604495822.9467,342
1604495822.9488,357
1604495822.9507,381
1604495822.9527,419
1604495822.9547,462
1604495822.9567,500
1604495822.9588,534
1604495822.9607,558
1604495822.9627,572
1604495822.9647,558
1604495822.9667,517
1604495822.9687,474
1604495822.9707,412
1604495822.9727,330
1604495822.9747,287
1604495822.9767,258
1604495822.9787,210
1604495822.9807,174
1604495822.9827,177
1604495822.9847,184
1604495822.9867,167
1604495822.9887,167
1604495822.9907,186
1604495822.9927,189
1604495822.9947,184
1604495822.9967,196
1604495822.9987,213
1604495823.0007,218
1604495823.0027,208
1604495823.0048,208
1604495823.0067,222
1604495823.0088,232
1604495823.0107,232
1604495823.0127,234
1604495823.0147,239
1604495823.0167,244
1604495823.0187,239
1604495823.0207,234
1604495823.0227,237
1604495823.0248,242
1604495823.0268,246
1604495823.0287,246
1604495823.0307,239
1604495823.0327,242
1604495823.0350,244
1604495823.0367,232
1604495823.0387,232
1604495823.0407,244
1604495823.0428,244
1604495823.0447,237
1604495823.0467,232
1604495823.0487,227
1604495823.0507,234
1604495823.0527,242
1604495823.5106,239
1604495823.5116,234
1604495823.5141,237
1604495823.5167,230
1604495823.5187,215
1604495823.5207,218
1604495823.5228,232
1604495823.5247,246
1604495823.5267,258
1604495823.5287,263
1604495823.5307,268
1604495823.5327,263
1604495823.5347,246
1604495823.5368,232
1604495823.5387,232
1604495823.5406,230
1604495823.5426,230
1604495823.5447,239
1604495823.5466,234
1604495823.5487,230
1604495823.5507,237
1604495823.5526,234
1604495823.5546,230
1604495823.5566,230
1604495823.5587,256
1604495823.5606,412
1604495823.5626,747
1604495823.5647,1025
1604495823.5666,834
1604495823.5686,186
1604495823.5706,-227
1604495823.5726,-93
1604495823.5746,76
1604495823.5766,86
1604495823.5787,160
1604495823.5806,239
1604495823.5826,232
1604495823.5846,225
1604495823.5866,244
1604495823.5887,249
1604495823.5906,256
1604495823.5928,263
1604495823.5946,261
1604495823.5966,263
1604495823.5987,275
1604495823.6006,282
1604495823.6026,287
1604495823.6046,299
1604495823.6066,318
1604495823.6086,342
1604495823.6106,361
1604495823.6126,393
1604495823.6147,443
1604495823.6166,481
1604495823.6186,503
1604495823.6206,529
1604495823.6226,541
1604495823.6246,527
1604495823.6266,498
1604495823.6286,452
1604495823.6306,381
1604495823.6325,309
1604495823.6346,254
1604495823.6366,213
1604495823.6387,177
1604495823.6406,155
1604495823.6426,148
1604495823.6446,148
1604495823.6466,143
1604495823.6487,141
1604495823.6506,150
1604495823.6526,153
1604495823.6547,155
1604495824.1107,170
1604495824.1119,177
1604495824.1131,172
1604495824.1150,177
1604495824.1170,184
1604495824.1191,196
1604495824.1210,201
1604495824.1231,189
1604495824.1250,182
1604495824.1270,184
1604495824.1290,198
1604495824.1310,208
1604495824.1330,189
1604495824.1350,177
1604495824.1370,191
1604495824.1390,196
1604495824.1411,191
1604495824.1430,196
1604495824.1450,194
1604495824.1472,186
1604495824.1491,186
1604495824.1509,189
1604495824.1529,189
1604495824.1549,189
1604495824.1569,189
1604495824.1590,191
1604495824.1609,191
1604495824.1629,194
1604495824.1649,191
1604495824.1669,194
1604495824.1690,203
1604495824.1709,196
1604495824.1729,194
1604495824.1749,201
1604495824.1769,201
1604495824.1790,203
1604495824.1809,213
1604495824.1829,227
1604495824.1849,242
1604495824.1869,244
1604495824.1890,230
1604495824.1909,218
1604495824.1929,206
1604495824.1950,198
1604495824.1970,201
1604495824.1989,208
1604495824.2009,210
1604495824.2029,203
1604495824.2049,198
1604495824.2069,203
1604495824.2089,215
1604495824.2110,208
1604495824.2129,191
1604495824.2149,218
1604495824.2169,393
1604495824.2191,740
1604495824.2210,1013
1604495824.2230,817
1604495824.2249,162
1604495824.2270,-261
1604495824.2290,-115
1604495824.2310,67
1604495824.2330,57
1604495824.2350,112
1604495824.2369,203
1604495824.2390,206
1604495824.2409,198
1604495824.2430,220
1604495824.2450,225
1604495824.2469,222
1604495824.2491,227
1604495824.2510,230
1604495824.2530,237
1604495824.6206,251
1604495824.6216,251
1604495824.6241,256
1604495824.6267,280
1604495824.6287,299
1604495824.6306,309
1604495824.6327,335
1604495824.6347,371
1604495824.6366,409
1604495824.6387,445
1604495824.6406,474
1604495824.6426,498
1604495824.6446,508
1604495824.6466,491
1604495824.6487,452
1604495824.6506,397
1604495824.6526,333
1604495824.6547,266
1604495824.6566,203
1604495824.6587,158
1604495824.6606,129
1604495824.6626,117
1604495824.6646,107
1604495824.6666,88
1604495824.6686,83
1604495824.6706,100
1604495824.6726,100
1604495824.6746,91
1604495824.6766,105
1604495824.6787,122
1604495824.6806,119
1604495824.6825,119
1604495824.6846,134
1604495824.6866,141
1604495824.6886,136
1604495824.6906,141
1604495824.6926,155
1604495824.6946,153
1604495824.6966,143
1604495824.6986,165
1604495824.7006,182
1604495824.7026,167
1604495824.7046,155
1604495824.7066,153
1604495824.7086,143
1604495824.7106,139
1604495824.7126,150
1604495824.7146,153
1604495824.7168,141
1604495824.7187,136
1604495824.7205,153
1604495824.7226,150
1604495824.7246,131
1604495824.7266,131
1604495824.7286,141
1604495824.7306,141
1604495824.7326,136
1604495824.7346,141
1604495824.7367,153
1604495824.7386,141
1604495824.7406,122
1604495824.7426,136
1604495824.7446,153
1604495824.7466,150
1604495824.7486,160
1604495824.7506,182
1604495824.7526,191
1604495824.7546,179
1604495824.7566,153
1604495824.7587,141
1604495824.7606,153
1604495824.7625,150
1604495824.7646,134
1604495825.1905,131
1604495825.1914,141
1604495825.1938,141
1604495825.1964,136
1604495825.1985,146
1604495825.2005,153
1604495825.2025,141
1604495825.2044,134
1604495825.2064,251
1604495825.2084,570
1604495825.2103,905
1604495825.2123,853
1604495825.2144,266
1604495825.2164,-268
1604495825.2184,-234
1604495825.2203,-28
1604495825.2223,7
1604495825.2243,52
1604495825.2264,136
1604495825.2284,160
1604495825.2303,160
1604495825.2323,167
1604495825.2343,172
1604495825.2363,177
1604495825.2383,177
1604495825.2403,184
1604495825.2425,203
1604495825.2444,210
1604495825.2463,210
1604495825.2483,218
1604495825.2503,230
1604495825.2523,246
1604495825.2543,266
1604495825.2563,282
1604495825.2583,309
1604495825.2604,352
1604495825.2623,393
1604495825.2643,424
1604495825.2664,448
1604495825.2683,467
1604495825.2703,469
1604495825.2723,436
1604495825.2743,378
1604495825.2763,316
1604495825.2784,246
1604495825.2804,194
1604495825.2823,160
1604495825.2843,124
1604495825.2863,93
1604495825.2883,79
1604495825.2903,74
1604495825.2923,71
1604495825.2944,76
1604495825.2963,86
1604495825.2984,88
1604495825.3003,83
1604495825.3023,91
1604495825.3043,110
1604495825.3064,119
1604495825.3084,115
1604495825.3104,119
1604495825.3124,131
1604495825.3143,136
1604495825.3163,136
1604495825.3185,134
1604495825.3203,134
1604495825.3223,139
1604495825.3243,146
1604495825.3263,148
1604495825.3283,143
1604495825.3304,141
1604495825.3323,136
1604495825.3343,136
1604495825.7306,148
1604495825.7315,148
1604495825.7339,139
1604495825.7366,136
1604495825.7389,146
1604495825.7406,150
1604495825.7426,143
1604495825.7447,129
1604495825.7466,124
1604495825.7487,134
1604495825.7505,143
1604495825.7525,136
1604495825.7545,134
1604495825.7565,143
1604495825.7586,139
1604495825.7605,131
1604495825.7625,143
1604495825.7645,150
1604495825.7665,150
1604495825.7685,162
1604495825.7704,177
1604495825.7724,186
1604495825.7744,189
1604495825.7764,179
1604495825.7785,160
1604495825.7804,150
1604495825.7824,150
1604495825.7844,153
1604495825.7864,153
1604495825.7885,153
1604495825.7905,150
1604495825.7924,150
1604495825.7944,162
1604495825.7964,174
1604495825.7985,162
1604495825.8005,148
1604495825.8025,210
1604495825.8045,445
1604495825.8064,798
1604495825.8085,965
1604495825.8104,608
1604495825.8124,-57
1604495825.8145,-309
1604495825.8164,-103
1604495825.8186,19
1604495825.8205,38
1604495825.8225,124
1604495825.8244,165
1604495825.8264,148
1604495825.8285,167
1604495825.8304,191
1604495825.8324,189
1604495825.8344,184
1604495825.8364,196
1604495825.8385,203
1604495825.8406,201
1604495825.8426,198
1604495825.8445,208
1604495825.8465,218
1604495825.8486,232
1604495825.8505,256
1604495825.8524,280
1604495825.8545,297
1604495825.8565,337
1604495825.8586,395
1604495825.8605,428
1604495825.8625,443
1604495825.8644,464
1604495825.8665,472
1604495825.8685,457
1604495825.8704,428
1604495825.8724,373
1604495825.8744,285
1604495826.3310,215
1604495826.3322,172
1604495826.3347,127
1604495826.3373,95
1604495826.3393,74
1604495826.3413,45
1604495826.3433,40
1604495826.3453,57
1604495826.3472,55
1604495826.3493,57
1604495826.3512,74
1604495826.3532,71
1604495826.3552,67
1604495826.3572,83
1604495826.3592,98
1604495826.3611,98
1604495826.3631,98
1604495826.3651,103
1604495826.3671,110
1604495826.3692,112
1604495826.3712,117
1604495826.3732,127
1604495826.3752,134
1604495826.3771,134
1604495826.3792,131
1604495826.3811,129
1604495826.3831,134
1604495826.3852,136
1604495826.3871,129
1604495826.3892,127
1604495826.3911,127
1604495826.3931,119
1604495826.3951,117
1604495826.3973,122
1604495826.3993,117
1604495826.4011,124
1604495826.4031,124
1604495826.4051,122
1604495826.4071,122
1604495826.4092,115
1604495826.4111,117
1604495826.4131,124
1604495826.4151,127
1604495826.4172,131
1604495826.4192,150
1604495826.4211,162
1604495826.4231,160
1604495826.4251,141
1604495826.4271,127
1604495826.4291,131
1604495826.4312,139
1604495826.4331,119
1604495826.4351,105
1604495826.4371,110
1604495826.4392,117
1604495826.4411,117
1604495826.4431,127
1604495826.4451,136
1604495826.4471,134
1604495826.4491,127
1604495826.4511,155
1604495826.4532,371
1604495826.4551,754
1604495826.4571,946
1604495826.4592,591
1604495826.4611,-71
1604495826.4631,-335
1604495826.4651,-139
1604495826.4671,-9
1604495826.4692,4
1604495826.4711,86
1604495826.4731,141
1604495826.4751,129
1604495826.9002,139
1604495826.9014,160
1604495826.9039,155
1604495826.9064,150
1604495826.9084,165
1604495826.9104,179
1604495826.9124,184
1604495826.9144,182
1604495826.9164,182
1604495826.9184,189
1604495826.9203,198
1604495826.9226,220
1604495826.9244,249
1604495826.9263,280
1604495826.9284,311
1604495826.9304,347
1604495826.9323,390
1604495826.9343,424
1604495826.9363,443
1604495826.9383,443
1604495826.9403,421
1604495826.9423,381
1604495826.9443,333
1604495826.9463,263
1604495826.9483,194
1604495826.9503,153
1604495826.9523,115
1604495826.9543,69
1604495826.9563,50
1604495826.9584,47
1604495826.9603,43
1604495826.9623,43
1604495826.9643,52
1604495826.9663,57
1604495826.9684,47
1604495826.9704,50
1604495826.9723,74
1604495826.9743,81
1604495826.9763,67
1604495826.9783,64
1604495826.9805,79
1604495826.9824,88
1604495826.9844,98
1604495826.9865,107
1604495826.9883,105
1604495826.9903,95
1604495826.9923,103
1604495826.9943,100
1604495826.9963,95
1604495826.9984,100
1604495827.0003,110
1604495827.0023,112
1604495827.0043,110
1604495827.0063,110
1604495827.0083,107
1604495827.0103,100
1604495827.0124,100
1604495827.0143,107
1604495827.0163,103
1604495827.0184,105
1604495827.0203,112
1604495827.0223,112
1604495827.0246,107
1604495827.0264,112
1604495827.0283,112
1604495827.0304,107
1604495827.0323,112
1604495827.0343,119
1604495827.0363,115
1604495827.0383,112
1604495827.0403,122
1604495827.0424,122
1604495827.0443,124
1604495827.4405,146
1604495827.4415,155
1604495827.4440,139
1604495827.4466,124
1604495827.4486,124
1604495827.4505,127
1604495827.4526,122
1604495827.4545,117
1604495827.4565,117
1604495827.4586,119
1604495827.4605,115
1604495827.4625,107
1604495827.4646,110
1604495827.4665,117
1604495827.4686,110
1604495827.4704,122
1604495827.4725,230
1604495827.4745,520
1604495827.4765,860
1604495827.4785,855
1604495827.4805,306
1604495827.4826,-261
1604495827.4845,-278
1604495827.4864,-62
1604495827.4886,-7
1604495827.4905,33
1604495827.4924,112
1604495827.4944,127
1604495827.4964,127
1604495827.4985,143
1604495827.5005,139
1604495827.5025,134
1604495827.5044,150
1604495827.5065,153
1604495827.5085,150
1604495827.5104,167
1604495827.5124,184
1604495827.5145,189
1604495827.5152,191
1604495827.5174,206
1604495827.5198,227
1604495827.5216,244
1604495827.5234,278
1604495827.5256,323
1604495827.5275,366
1604495827.5295,402
1604495827.5314,426
1604495827.5335,448
1604495827.5354,452
1604495827.5375,424
1604495827.5394,369
1604495827.5415,306
1604495827.5434,242
1604495827.5454,182
1604495827.5461,134
1604495827.5475,91
1604495827.5495,57
1604495827.5514,43
1604495827.5534,43
1604495827.5554,50
1604495827.5574,47
1604495827.5594,45
1604495827.5614,47
1604495827.5634,43
1604495827.5655,50
1604495827.5674,62
1604495827.5694,62
1604495827.5714,69
1604495827.5734,79
1604495827.5756,86
1604495827.5774,88
1604495827.5794,86
1604495827.5814,98
1604495828.0106,110
1604495828.0116,107
1604495828.0141,107
1604495828.0167,115
1604495828.0187,115
1604495828.0206,110
1604495828.0227,110
1604495828.0246,107
1604495828.0266,98
1604495828.0274,98
1604495828.0296,100
1604495828.0316,93
1604495828.0336,88
1604495828.0357,95
1604495828.0376,105
1604495828.0396,105
1604495828.0417,93
1604495828.0436,88
1604495828.0458,100
1604495828.0479,103
1604495828.0496,93
1604495828.0516,100
1604495828.0536,112
1604495828.0557,117
1604495828.0576,129
1604495828.0583,134
1604495828.0596,122
1604495828.0616,112
1604495828.0636,100
1604495828.0656,91
1604495828.0676,91
1604495828.0696,95
1604495828.0716,93
1604495828.0736,91
1604495828.0756,93
1604495828.0776,98
1604495828.0796,107
1604495828.0816,103
1604495828.0836,86
1604495828.0856,93
1604495828.0876,220
1604495828.0883,529
1604495828.0896,862
1604495828.0916,834
1604495828.0936,261
1604495828.0957,-292
1604495828.0976,-280
1604495828.0996,-83
1604495828.1016,-55
1604495828.1036,2
1604495828.1056,93
1604495828.1076,103
1604495828.1096,103
1604495828.1116,129
1604495828.1136,129
1604495828.1156,119
1604495828.1176,134
1604495828.1184,143
1604495828.1196,139
1604495828.1216,148
1604495828.1236,162
1604495828.1256,172
1604495828.1276,184
1604495828.1296,196
1604495828.1316,213
1604495828.1336,246
1604495828.1356,282
1604495828.1376,316
1604495828.1396,359
1604495828.1418,402
1604495828.1436,428
1604495828.1456,433
1604495828.1476,424
1604495828.5502,409
1604495828.5511,366
1604495828.5535,282
1604495828.5562,210
1604495828.5582,165
1604495828.5601,115
1604495828.5622,69
1604495828.5641,50
1604495828.5662,40
1604495828.5681,19
1604495828.5700,14
1604495828.5720,19
1604495828.5741,9
1604495828.5760,7
1604495828.5780,23
1604495828.5788,28
1604495828.5811,28
1604495828.5831,35
1604495828.5851,45
1604495828.5871,59
1604495828.5891,71
1604495828.5910,69
1604495828.5931,67
1604495828.5951,79
1604495828.5970,74
1604495828.5991,57
1604495828.6010,69
1604495828.6030,83
1604495828.6050,76
1604495828.6070,81
1604495828.6090,93
1604495828.6097,91
1604495828.6111,81
1604495828.6131,91
1604495828.6151,100
1604495828.6171,88
1604495828.6191,71
1604495828.6210,79
1604495828.6231,88
1604495828.6251,67
1604495828.6271,64
1604495828.6291,88
1604495828.6310,86
1604495828.6331,69
1604495828.6351,86
1604495828.6370,107
1604495828.6391,88
1604495828.6400,62
1604495828.6411,71
1604495828.6431,95
1604495828.6450,103
1604495828.6470,107
1604495828.6491,100
1604495828.6511,93
1604495828.6532,105
1604495828.6551,98
1604495828.6571,79
1604495828.6591,86
1604495828.6610,95
1604495828.6631,71
1604495828.6650,55
1604495828.6670,76
1604495828.6677,91
1604495828.6691,81
1604495828.6710,83
1604495828.6730,86
1604495828.6751,103
1604495828.6770,268
1604495828.6790,603
1604495828.6810,862
1604495828.6831,675
1604495828.6850,47
1604495828.6871,-371
1604495829.1503,-242
1604495829.1512,-62
1604495829.1537,-55
1604495829.1548,4
1604495829.1563,83
1604495829.1584,76
1604495829.1602,67
1604495829.1622,88
1604495829.1643,88
1604495829.1662,91
1604495829.1682,100
1604495829.1702,98
1604495829.1722,103
1604495829.1742,124
1604495829.1762,134
1604495829.1783,139
1604495829.1802,150
1604495829.1822,167
1604495829.1842,177
1604495829.1862,196
1604495829.1882,234
1604495829.1901,282
1604495829.1922,321
1604495829.1942,352
1604495829.1962,383
1604495829.1984,400
1604495829.2002,381
1604495829.2022,352
1604495829.2042,311
1604495829.2062,232
1604495829.2082,160
1604495829.2102,119
1604495829.2122,71
1604495829.2142,38
1604495829.2162,43
1604495829.2182,26
1604495829.2202,-4
1604495829.2222,2
1604495829.2242,19
1604495829.2262,11
1604495829.2282,2
1604495829.2302,4
1604495829.2322,16
1604495829.2342,23
1604495829.2362,26
1604495829.2382,28
1604495829.2402,33
1604495829.2422,35
1604495829.2442,35
1604495829.2462,40
1604495829.2482,52
1604495829.2502,55
1604495829.2522,57
1604495829.2542,57
1604495829.2562,55
1604495829.2582,64
1604495829.2602,71
1604495829.2622,64
1604495829.2642,67
1604495829.2662,67
1604495829.2682,57
1604495829.2702,59
1604495829.2722,64
1604495829.2743,64
1604495829.2762,67
1604495829.2782,64
1604495829.2802,59
1604495829.2822,59
1604495829.2842,59
1604495829.2862,55
1604495829.2881,55
1604495829.2902,62
1604495829.2922,64
1604495829.6605,62
1604495829.6615,67
1604495829.6639,83
1604495829.6669,107
1604495829.6686,110
1604495829.6705,91
1604495829.6725,83
1604495829.6745,76
1604495829.6765,64
1604495829.6786,62
1604495829.6805,67
1604495829.6825,59
1604495829.6846,45
1604495829.6865,52
1604495829.6885,69
1604495829.6904,69
1604495829.6924,67
1604495829.6945,69
1604495829.6965,74
1604495829.6985,194
1604495829.7005,515
1604495829.7025,846
1604495829.7045,776
1604495829.7064,186
1604495829.7086,-342
1604495829.7105,-306
1604495829.7125,-91
1604495829.7144,-57
1604495829.7165,-19
1604495829.7185,64
1604495829.7204,79
1604495829.7224,74
1604495829.7245,95
1604495829.7264,105
1604495829.7285,98
1604495829.7304,105
1604495829.7324,115
1604495829.7344,117
1604495829.7365,122
1604495829.7384,129
1604495829.7404,141
1604495829.7424,155
1604495829.7444,170
1604495829.7464,189
1604495829.7485,210
1604495829.7504,246
1604495829.7524,297
1604495829.7545,337
1604495829.7564,364
1604495829.7584,393
1604495829.7604,419
1604495829.7624,419
1604495829.7645,388
1604495829.7664,330
1604495829.7687,254
1604495829.7705,182
1604495829.7724,131
1604495829.7744,86
1604495829.7765,35
1604495829.7785,14
1604495829.7804,14
1604495829.7824,9
1604495829.7844,2
1604495829.7864,11
1604495829.7885,14
1604495829.7905,7
1604495829.7925,7
1604495829.7944,16
1604495829.7964,19
1604495829.7985,21
1604495829.8004,23
1604495829.8024,28
1604495829.8044,35
1604495830.2604,43
1604495830.2613,45
1604495830.2639,45
1604495830.2665,50
1604495830.2685,52
1604495830.2704,43
1604495830.2725,47
1604495830.2744,64
1604495830.2764,64
1604495830.2785,57
1604495830.2804,55
1604495830.2824,50
1604495830.2844,52
1604495830.2864,50
1604495830.2885,47
1604495830.2904,52
1604495830.2924,50
1604495830.2944,47
1604495830.2964,55
1604495830.2984,57
1604495830.3003,50
1604495830.3023,52
1604495830.3043,50
1604495830.3063,45
1604495830.3084,50
1604495830.3103,62
1604495830.3124,71
1604495830.3143,86
1604495830.3164,98
1604495830.3184,91
1604495830.3204,79
1604495830.3223,69
1604495830.3247,59
1604495830.3264,55
1604495830.3284,62
1604495830.3304,67
1604495830.3324,67
1604495830.3343,67
1604495830.3364,74
1604495830.3384,76
1604495830.3403,74
1604495830.3423,71
1604495830.3443,81
1604495830.3463,186
1604495830.3484,498
1604495830.3503,872
1604495830.3524,872
1604495830.3543,282
1604495830.3563,-335
1604495830.3584,-349
1604495830.3603,-129
1604495830.3623,-95
1604495830.3643,-45
1604495830.3663,55
1604495830.3684,64
1604495830.3703,57
1604495830.3723,83
1604495830.3743,91
1604495830.3763,86
1604495830.3784,91
1604495830.3804,100
1604495830.3823,112
1604495830.3843,119
1604495830.3863,122
1604495830.3884,131
1604495830.3903,150
1604495830.3923,162
1604495830.3943,172
1604495830.3963,201
1604495830.3984,244
1604495830.4003,282
1604495830.4023,323
1604495830.4043,369
1604495830.8002,407
1604495830.8014,421
1604495830.8039,414
1604495830.8065,388
1604495830.8085,335
1604495830.8105,261
1604495830.8126,184
1604495830.8145,127
1604495830.8167,76
1604495830.8186,31
1604495830.8208,-2
1604495830.8225,-23
1604495830.8245,-19
1604495830.8265,-9
1604495830.8286,-19
1604495830.8304,-26
1604495830.8324,-16
1604495830.8344,-9
1604495830.8364,-14
1604495830.8385,-9
1604495830.8404,0
1604495830.8424,4
1604495830.8444,7
1604495830.8464,14
1604495830.8485,21
1604495830.8504,26
1604495830.8524,38
1604495830.8544,55
1604495830.8564,59
1604495830.8585,55
1604495830.8604,57
1604495830.8624,62
1604495830.8644,59
1604495830.8665,59
1604495830.8685,57
1604495830.8704,52
1604495830.8725,55
1604495830.8744,52
1604495830.8764,45
1604495830.8785,50
1604495830.8804,52
1604495830.8824,45
1604495830.8844,47
1604495830.8864,50
1604495830.8885,47
1604495830.8904,43
1604495830.8924,43
1604495830.8944,55
1604495830.8964,62
1604495830.8984,59
1604495830.9004,76
1604495830.9023,91
1604495830.9044,83
1604495830.9064,69
1604495830.9085,71
1604495830.9104,76
1604495830.9124,64
1604495830.9144,45
1604495830.9164,47
1604495830.9185,59
1604495830.9204,59
1604495830.9226,57
1604495830.9245,59
1604495830.9265,67
1604495830.9285,67
1604495830.9304,76
1604495830.9324,213
1604495830.9344,565
1604495830.9364,901
1604495830.9384,795
1604495830.9404,162
1604495830.9424,-366
1604495830.9444,-321
1604495831.3700,-127
1604495831.3709,-88
1604495831.3733,-19
1604495831.3759,62
1604495831.3779,62
1604495831.3799,57
1604495831.3821,81
1604495831.3840,79
1604495831.3859,69
1604495831.3879,88
1604495831.3899,98
1604495831.3919,91
1604495831.3939,98
1604495831.3959,112
1604495831.3979,117
1604495831.3998,127
1604495831.4018,150
1604495831.4038,177
1604495831.4059,208
1604495831.4079,242
1604495831.4099,280
1604495831.4118,325
1604495831.4138,369
1604495831.4158,393
1604495831.4179,407
1604495831.4199,405
1604495831.4218,373
1604495831.4238,311
1604495831.4258,239
1604495831.4278,177
1604495831.4298,122
1604495831.4318,79
1604495831.4338,40
1604495831.4358,14
1604495831.4378,0
1604495831.4399,-4
1604495831.4418,-2
1604495831.4438,7
1604495831.4459,7
1604495831.4480,2
1604495831.4499,7
1604495831.4518,16
1604495831.4538,19
1604495831.4558,14
1604495831.4578,21
1604495831.4598,28
1604495831.4618,28
1604495831.4638,28
1604495831.4659,38
1604495831.4679,45
1604495831.4698,43
1604495831.4718,43
1604495831.4738,50
1604495831.4758,45
1604495831.4778,40
1604495831.4798,47
1604495831.4818,57
1604495831.4838,52
1604495831.4858,50
1604495831.4879,55
1604495831.4899,55
1604495831.4918,45
1604495831.4938,45
1604495831.4958,50
1604495831.4978,43
1604495831.4998,35
1604495831.5018,43
1604495831.5038,57
1604495831.5058,59
1604495831.5078,55
1604495831.5099,47
1604495831.5118,50
1604495831.5138,55
1604495831.9107,50
1604495831.9117,52
1604495831.9141,62
1604495831.9168,69
1604495831.9188,74
1604495831.9207,86
1604495831.9227,95
1604495831.9247,91
1604495831.9267,67
1604495831.9286,45
1604495831.9307,47
1604495831.9327,57
1604495831.9347,47
1604495831.9367,45
1604495831.9387,62
1604495831.9406,62
1604495831.9426,50
1604495831.9448,62
1604495831.9467,69
1604495831.9487,59
1604495831.9506,69
1604495831.9526,189
1604495831.9546,498
1604495831.9566,838
1604495831.9587,802
1604495831.9607,222
1604495831.9627,-345
1604495831.9646,-342
1604495831.9666,-117
1604495831.9687,-69
1604495831.9706,-31
1604495831.9727,50
1604495831.9746,59
1604495831.9766,52
1604495831.9786,79
1604495831.9806,81
1604495831.9827,79
1604495831.9846,91
1604495831.9866,93
1604495831.9886,93
1604495831.9906,103
1604495831.9926,112
1604495831.9947,127
1604495831.9966,134
1604495831.9988,139
1604495832.0007,155
1604495832.0027,191
1604495832.0047,220
1604495832.0067,244
1604495832.0088,287
1604495832.0109,345
1604495832.0130,371
1604495832.0147,371
1604495832.0166,373
1604495832.0187,359
1604495832.0207,309
1604495832.0226,244
1604495832.0246,182
1604495832.0266,131
1604495832.0286,79
1604495832.0307,33
1604495832.0326,19
1604495832.0347,7
1604495832.0366,-9
1604495832.0387,-7
1604495832.0406,0
1604495832.0427,-7
1604495832.0446,-2
1604495832.0468,9
1604495832.0487,9
1604495832.0506,19
1604495832.0526,21
1604495832.0546,9
1604495832.4800,14
1604495832.4814,28
1604495832.4837,35
1604495832.4863,31
1604495832.4884,26
1604495832.4903,23
1604495832.4923,23
1604495832.4943,40
1604495832.4965,50
1604495832.4983,40
1604495832.5003,33
1604495832.5023,40
1604495832.5043,50
1604495832.5063,52
1604495832.5084,45
1604495832.5102,43
1604495832.5123,47
1604495832.5142,55
1604495832.5163,47
1604495832.5183,43
1604495832.5202,45
1604495832.5222,52
1604495832.5242,57
1604495832.5262,50
1604495832.5282,40
1604495832.5302,50
1604495832.5322,62
1604495832.5342,55
1604495832.5362,47
1604495832.5382,52
1604495832.5402,59
1604495832.5423,62
1604495832.5443,64
1604495832.5463,76
1604495832.5483,93
1604495832.5503,98
1604495832.5523,91
1604495832.5543,71
1604495832.5563,55
1604495832.5583,55
1604495832.5602,59
1604495832.5623,62
1604495832.5644,62
1604495832.5663,62
1604495832.5683,67
1604495832.5703,69
1604495832.5725,64
1604495832.5743,62
1604495832.5763,67
1604495832.5782,64
1604495832.5803,117
1604495832.5822,364
1604495832.5842,728
1604495832.5862,867
1604495832.5882,472
1604495832.5902,-179
1604495832.5922,-385
1604495832.5943,-170
1604495832.5963,-69
1604495832.5982,-57
1604495832.6003,35
1604495832.6022,83
1604495832.6042,67
1604495832.6062,79
1604495832.6082,93
1604495832.6102,83
1604495832.6122,88
1604495832.6142,105
1604495832.6162,107
1604495832.6182,107
1604495832.6202,119
1604495832.6222,124
1604495832.6242,129
1604495833.0199,148
1604495833.0205,167
1604495833.0220,186
1604495833.0235,213
1604495833.0254,242
1604495833.0274,278
1604495833.0295,321
1604495833.0316,352
1604495833.0335,364
1604495833.0355,371
1604495833.0375,366
1604495833.0395,335
1604495833.0415,273
1604495833.0435,198
1604495833.0455,134
1604495833.0475,86
1604495833.0495,52
1604495833.0515,28
1604495833.0535,7
1604495833.0555,-7
1604495833.0575,-7
1604495833.0595,-7
1604495833.0615,-11
1604495833.0635,-9
1604495833.0656,0
1604495833.0675,4
1604495833.0695,2
1604495833.0715,4
1604495833.0735,16
1604495833.0755,11
1604495833.0775,7
1604495833.0795,19
1604495833.0816,26
1604495833.0836,23
1604495833.0856,28
1604495833.0875,33
1604495833.0895,31
1604495833.0915,31
1604495833.0935,40
1604495833.0955,47
1604495833.0975,45
1604495833.0995,43
1604495833.1015,47
1604495833.1035,45
1604495833.1056,43
1604495833.1075,45
1604495833.1095,45
1604495833.1115,43
1604495833.1135,45
1604495833.1155,45
1604495833.1175,45
1604495833.1195,47
1604495833.1215,50
1604495833.1235,47
1604495833.1255,40
1604495833.1275,43
1604495833.1295,52
1604495833.1315,55
1604495833.1335,52
1604495833.1354,50
1604495833.1375,52
1604495833.1395,50
1604495833.1415,57
1604495833.1434,67
1604495833.1455,69
1604495833.1476,86
1604495833.1496,98
1604495833.1516,88
1604495833.1536,76
1604495833.1556,62
1604495833.1576,50
1604495833.1596,45
1604495833.1615,50
1604495833.6205,52
1604495833.6217,50
1604495833.6245,52
1604495833.6268,55
1604495833.6289,47
1604495833.6307,47
1604495833.6328,52
1604495833.6347,59
1604495833.6367,158
1604495833.6388,457
1604495833.6408,822
1604495833.6427,850
1604495833.6447,309
1604495833.6467,-316
1604495833.6487,-381
1604495833.6507,-153
1604495833.6527,-100
1604495833.6547,-74
1604495833.6567,19
1604495833.6587,43
1604495833.6606,33
1604495833.6626,50
1604495833.6647,55
1604495833.6666,50
1604495833.6687,57
1604495833.6706,69
1604495833.6726,71
1604495833.6746,71
1604495833.6766,79
1604495833.6786,88
1604495833.6806,103
1604495833.6826,115
1604495833.6846,134
1604495833.6866,160
1604495833.6887,196
1604495833.6906,232
1604495833.6926,278
1604495833.6946,321
1604495833.6966,349
1604495833.6986,361
1604495833.7006,364
1604495833.7026,357
1604495833.7046,318
1604495833.7066,244
1604495833.7086,165
1604495833.7107,107
1604495833.7126,50
1604495833.7146,0
1604495833.7166,-26
1604495833.7187,-38
1604495833.7206,-45
1604495833.7226,-52
1604495833.7246,-55
1604495833.7268,-35
1604495833.7287,-19
1604495833.7306,-28
1604495833.7326,-28
1604495833.7346,-19
1604495833.7366,-23
1604495833.7386,-21
1604495833.7406,-9
1604495833.7426,-4
1604495833.7446,-4
1604495833.7466,0
1604495833.7486,9
1604495833.7506,19
1604495833.7526,21
1604495833.7548,23
1604495833.7566,33
1604495833.7573,38
1604495833.7586,35
1604495833.7606,33
1604495833.7627,35
1604495834.1905,33
1604495834.1914,31
1604495834.1939,26
1604495834.1965,21
1604495834.1986,28
1604495834.2004,31
1604495834.2025,21
1604495834.2045,21
1604495834.2051,26
1604495834.2064,19
1604495834.2085,11
1604495834.2104,14
1604495834.2124,14
1604495834.2144,16
1604495834.2164,9
1604495834.2185,4
1604495834.2204,11
1604495834.2224,19
1604495834.2244,19
1604495834.2264,19
1604495834.2284,33
1604495834.2304,52
1604495834.2324,52
1604495834.2344,38
1604495834.2350,33
1604495834.2364,38
1604495834.2386,33
1604495834.2404,26
1604495834.2424,23
1604495834.2444,26
1604495834.2464,28
1604495834.2486,31
1604495834.2505,35
1604495834.2524,38
1604495834.2544,38
1604495834.2564,33
1604495834.2585,67
1604495834.2604,251
1604495834.2625,618
1604495834.2645,896
1604495834.2651,663
1604495834.2664,-26
1604495834.2684,-440
1604495834.2704,-292
1604495834.2724,-129
1604495834.2744,-115
1604495834.2765,-33
1604495834.2785,45
1604495834.2804,38
1604495834.2824,38
1604495834.2844,57
1604495834.2864,59
1604495834.2885,59
1604495834.2904,57
1604495834.2924,59
1604495834.2944,74
1604495834.2951,86
1604495834.2964,91
1604495834.2984,107
1604495834.3004,122
1604495834.3024,124
1604495834.3044,139
1604495834.3064,172
1604495834.3084,213
1604495834.3104,251
1604495834.3124,292
1604495834.3144,333
1604495834.3164,359
1604495834.3185,369
1604495834.3204,361
1604495834.3224,328
1604495834.3244,270
1604495834.3251,203
1604495834.7300,134
1604495834.7309,69
1604495834.7333,26
1604495834.7359,-4
1604495834.7379,-26
1604495834.7399,-33
1604495834.7419,-40
1604495834.7439,-43
1604495834.7459,-38
1604495834.7481,-47
1604495834.7499,-59
1604495834.7518,-52
1604495834.7538,-40
1604495834.7560,-38
1604495834.7567,-31
1604495834.7589,-16
1604495834.7608,-7
1604495834.7628,-7
1604495834.7648,-11
1604495834.7668,-2
1604495834.7689,11
1604495834.7708,14
1604495834.7728,16
1604495834.7748,31
1604495834.7768,31
1604495834.7788,21
1604495834.7808,23
1604495834.7828,33
1604495834.7848,31
1604495834.7868,21
1604495834.7875,26
1604495834.7888,35
1604495834.7908,33
1604495834.7928,19
1604495834.7948,21
1604495834.7968,31
1604495834.7989,33
1604495834.8008,33
1604495834.8028,26
1604495834.8048,28
1604495834.8068,35
1604495834.8089,38
1604495834.8108,35
1604495834.8128,31
1604495834.8148,26
1604495834.8168,33
1604495834.8175,43
1604495834.8188,40
1604495834.8209,33
1604495834.8231,38
1604495834.8248,43
1604495834.8268,50
1604495834.8289,69
1604495834.8308,79
1604495834.8328,74
1604495834.8348,69
1604495834.8368,57
1604495834.8389,40
1604495834.8408,40
1604495834.8428,50
1604495834.8450,45
1604495834.8469,35
1604495834.8475,38
1604495834.8488,45
1604495834.8508,52
1604495834.8528,55
1604495834.8548,50
1604495834.8568,50
1604495834.8589,91
1604495834.8608,280
1604495834.8628,632
1604495834.8648,877
1604495834.8668,611
1604495835.3002,-67
1604495835.3015,-438
1604495835.3039,-268
1604495835.3050,-105
1604495835.3065,-98
1604495835.3086,-23
1604495835.3105,50
1604495835.3125,33
1604495835.3145,19
1604495835.3165,40
1604495835.3185,57
1604495835.3204,59
1604495835.3224,55
1604495835.3244,52
1604495835.3264,62
1604495835.3284,79
1604495835.3304,81
1604495835.3324,83
1604495835.3344,100
1604495835.3351,117
1604495835.3374,129
1604495835.3394,153
1604495835.3414,189
1604495835.3434,225
1604495835.3454,270
1604495835.3474,313
1604495835.3494,333
1604495835.3514,330
1604495835.3534,333
1604495835.3554,313
1604495835.3574,256
1604495835.3594,189
1604495835.3614,131
1604495835.3634,76
1604495835.3641,33
1604495835.3654,0
1604495835.3674,-19
1604495835.3694,-26
1604495835.3716,-31
1604495835.3735,-38
1604495835.3754,-33
1604495835.3774,-21
1604495835.3794,-14
1604495835.3814,-21
1604495835.3834,-14
1604495835.3854,4
1604495835.3874,2
1604495835.3894,2
1604495835.3914,11
1604495835.3934,11
1604495835.3941,11
1604495835.3954,23
1604495835.3974,33
1604495835.3994,35
1604495835.4014,35
1604495835.4034,31
1604495835.4054,33
1604495835.4074,43
1604495835.4094,45
1604495835.4114,43
1604495835.4135,47
1604495835.4155,47
1604495835.4174,47
1604495835.4194,45
1604495835.4214,38
1604495835.4234,26
1604495835.4254,19
1604495835.4274,26
1604495835.4294,28
1604495835.4314,31
1604495835.4335,33
1604495835.4355,33
1604495835.4375,31
1604495835.8401,35
1604495835.8410,38
1604495835.8435,38
1604495835.8462,40
1604495835.8481,40
1604495835.8501,38
1604495835.8522,40
1604495835.8541,43
1604495835.8561,38
1604495835.8581,31
1604495835.8600,31
1604495835.8621,43
1604495835.8641,59
1604495835.8661,71
1604495835.8681,74
1604495835.8701,74
1604495835.8723,59
1604495835.8741,43
1604495835.8761,40
1604495835.8781,43
1604495835.8800,38
1604495835.8820,38
1604495835.8840,47
1604495835.8860,47
1604495835.8880,38
1604495835.8900,40
1604495835.8920,50
1604495835.8940,43
1604495835.8961,50
1604495835.8980,186
1604495835.9000,505
1604495835.9020,819
1604495835.9040,762
1604495835.9060,186
1604495835.9080,-369
1604495835.9100,-359
1604495835.9120,-136
1604495835.9140,-88
1604495835.9161,-45
1604495835.9180,38
1604495835.9200,45
1604495835.9220,31
1604495835.9240,52
1604495835.9260,64
1604495835.9280,62
1604495835.9300,67
1604495835.9320,69
1604495835.9340,71
1604495835.9360,74
1604495835.9380,81
1604495835.9400,95
1604495835.9420,107
1604495835.9440,115
1604495835.9461,131
1604495835.9480,158
1604495835.9500,186
1604495835.9575,220
1604495835.9590,263
1604495835.9610,297
1604495835.9630,321
1604495835.9650,335
1604495835.9670,345
1604495835.9690,333
1604495835.9711,285
1604495835.9731,215
1604495835.9750,150
1604495835.9770,93
1604495835.9792,43
1604495835.9810,9
1604495835.9831,-14
1604495835.9850,-33
1604495835.9870,-40
1604495835.9890,-40
1604495836.3805,-38
1604495836.3814,-31
1604495836.3839,-26
1604495836.3865,-26
1604495836.3885,-21
1604495836.3905,-16
1604495836.3925,-23
1604495836.3945,-26
1604495836.3965,-19
1604495836.3985,-14
1604495836.4004,-11
1604495836.4024,-2
1604495836.4044,9
1604495836.4064,14
1604495836.4085,14
1604495836.4104,14
1604495836.4124,16
1604495836.4144,19
1604495836.4165,19
1604495836.4185,26
1604495836.4204,31
1604495836.4224,26
1604495836.4244,23
1604495836.4264,23
1604495836.4284,23
1604495836.4304,21
1604495836.4324,23
1604495836.4344,26
1604495836.4364,26
1604495836.4384,23
1604495836.4404,19
1604495836.4424,23
1604495836.4445,26
1604495836.4464,19
1604495836.4484,21
1604495836.4504,31
1604495836.4524,31
1604495836.4543,28
1604495836.4564,35
1604495836.4584,33
1604495836.4604,28
1604495836.4624,26
1604495836.4645,23
1604495836.4664,31
1604495836.4684,45
1604495836.4705,55
1604495836.4724,57
1604495836.4743,62
1604495836.4764,67
1604495836.4784,50
1604495836.4804,26
1604495836.4824,16
1604495836.4844,11
1604495836.4864,19
1604495836.4884,28
1604495836.4904,28
1604495836.4924,21
1604495836.4944,26
1604495836.4963,33
1604495836.4984,33
1604495836.5004,26
1604495836.5023,40
1604495836.5043,167
1604495836.5064,488
1604495836.5084,831
1604495836.5104,786
1604495836.5124,189
1604495836.5144,-376
1604495836.5164,-361
1604495836.5184,-160
1604495836.5204,-129
1604495836.5224,-74
1604495836.5244,16
1604495837.0104,26
1604495837.0116,23
1604495837.0140,47
1604495837.0166,50
1604495837.0187,40
1604495837.0206,40
1604495837.0227,33
1604495837.0246,43
1604495837.0267,52
1604495837.0287,47
1604495837.0306,55
1604495837.0328,79
1604495837.0347,98
1604495837.0366,105
1604495837.0386,127
1604495837.0408,160
1604495837.0426,198
1604495837.0448,249
1604495837.0467,299
1604495837.0487,330
1604495837.0507,347
1604495837.0526,345
1604495837.0546,323
1604495837.0568,282
1604495837.0587,220
1604495837.0606,155
1604495837.0628,95
1604495837.0646,43
1604495837.0666,7
1604495837.0686,-14
1604495837.0706,-33
1604495837.0726,-43
1604495837.0746,-43
1604495837.0766,-47
1604495837.0787,-50
1604495837.0805,-40
1604495837.0826,-28
1604495837.0846,-28
1604495837.0866,-26
1604495837.0886,-16
1604495837.0906,-14
1604495837.0926,-16
1604495837.0946,-7
1604495837.0966,0
1604495837.0986,-7
1604495837.1005,-2
1604495837.1025,19
1604495837.1045,26
1604495837.1066,21
1604495837.1086,21
1604495837.1105,21
1604495837.1126,21
1604495837.1146,38
1604495837.1165,40
1604495837.1186,23
1604495837.1206,23
1604495837.1226,28
1604495837.1245,14
1604495837.1265,7
1604495837.1286,23
1604495837.1305,47
1604495837.1325,38
1604495837.1345,7
1604495837.1365,4
1604495837.1386,16
1604495837.1406,19
1604495837.1426,26
1604495837.1445,33
1604495837.1465,31
1604495837.1486,33
1604495837.1505,33
1604495837.1525,23
1604495837.1546,23
1604495837.5499,21
1604495837.5511,28
1604495837.5533,40
1604495837.5559,45
1604495837.5579,45
1604495837.5599,50
1604495837.5619,64
1604495837.5638,71
1604495837.5658,55
1604495837.5678,45
1604495837.5700,52
1604495837.5718,43
1604495837.5738,9
1604495837.5758,-4
1604495837.5778,19
1604495837.5799,21
1604495837.5818,9
1604495837.5838,23
1604495837.5860,38
1604495837.5878,35
1604495837.5898,40
1604495837.5918,38
1604495837.5938,40
1604495837.5958,177
1604495837.5978,500
1604495837.5998,805
1604495837.6018,723
1604495837.6038,143
1604495837.6058,-373
1604495837.6078,-347
1604495837.6098,-141
1604495837.6118,-88
1604495837.6138,-43
1604495837.6158,14
1604495837.6178,21
1604495837.6198,31
1604495837.6218,38
1604495837.6238,38
1604495837.6258,47
1604495837.6278,57
1604495837.6298,52
1604495837.6318,45
1604495837.6338,57
1604495837.6358,71
1604495837.6378,62
1604495837.6398,74
1604495837.6418,110
1604495837.6438,122
1604495837.6458,134
1604495837.6478,170
1604495837.6498,206
1604495837.6518,242
1604495837.6540,285
1604495837.6559,311
1604495837.6578,323
1604495837.6598,340
1604495837.6618,330
1604495837.6638,280
1604495837.6658,213
1604495837.6678,155
1604495837.6698,98
1604495837.6718,38
1604495837.6738,7
1604495837.6758,-16
1604495837.6778,-38
1604495837.6798,-43
1604495837.6818,-35
1604495837.6838,-31
1604495837.6858,-35
1604495837.6878,-40
1604495837.6898,-31
1604495837.6918,-21
1604495837.6938,-23
1604495838.0905,-23
1604495838.0914,-21
1604495838.0939,-23
1604495838.0965,-14
1604495838.0987,-2
1604495838.1004,-4
1604495838.1025,0
1604495838.1045,7
1604495838.1064,7
1604495838.1085,-4
1604495838.1104,-11
1604495838.1125,-2
1604495838.1144,2
1604495838.1164,0
1604495838.1185,0
1604495838.1204,-11
1604495838.1224,-16
1604495838.1244,-2
1604495838.1265,0
1604495838.1285,-11
1604495838.1304,-9
1604495838.1324,-7
1604495838.1343,-21
1604495838.1364,-19
1604495838.1384,-11
1604495838.1404,-23
1604495838.1424,-33
1604495838.1444,-23
1604495838.1464,-26
1604495838.1484,-38
1604495838.1506,-31
1604495838.1524,-23
1604495838.1544,-28
1604495838.1564,-23
1604495838.1584,-21
1604495838.1604,-31
1604495838.1624,-28
1604495838.1644,-7
1604495838.1664,16
1604495838.1684,16
1604495838.1703,7
1604495838.1724,7
1604495838.1744,4
1604495838.1764,-14
1604495838.1785,-26
1604495838.1804,-16
1604495838.1824,-11
1604495838.1844,-7
1604495838.1864,0
1604495838.1885,-7
1604495838.1904,-9
1604495838.1924,0
1604495838.1944,7
1604495838.1964,7
1604495838.1984,14
1604495838.2004,134
1604495838.2024,450
1604495838.2044,769
1604495838.2064,702
1604495838.2084,112
1604495838.2104,-419
1604495838.2124,-376
1604495838.2144,-165
1604495838.2164,-127
1604495838.2184,-67
1604495838.2204,19
1604495838.2224,19
1604495838.2243,7
1604495838.2264,33
1604495838.2284,45
1604495838.2304,38
1604495838.2325,38
1604495838.2344,47
1604495838.6605,55
1604495838.6617,69
1604495838.6642,71
1604495838.6668,69
1604495838.6689,83
1604495838.6708,105
1604495838.6729,122
1604495838.6748,141
1604495838.6770,170
1604495838.6788,196
1604495838.6807,239
1604495838.6827,304
1604495838.6848,335
1604495838.6867,325
1604495838.6887,337
1604495838.6908,333
1604495838.6927,266
1604495838.6947,203
1604495838.6967,148
1604495838.6987,71
1604495838.7007,19
1604495838.7027,-4
1604495838.7047,-28
1604495838.7067,-47
1604495838.7087,-74
1604495838.7107,-86
1604495838.7127,-62
1604495838.7147,-52
1604495838.7166,-76
1604495838.7187,-93
1604495838.7207,-81
1604495838.7227,-64
1604495838.7247,-59
1604495838.7266,-55
1604495838.7287,-55
1604495838.7307,-55
1604495838.7327,-33
1604495838.7346,-4
1604495838.7368,-7
1604495838.7387,-45
1604495838.7406,-52
1604495838.7427,-21
1604495838.7447,-26
1604495838.7466,-43
1604495838.7488,-33
1604495838.7507,-31
1604495838.7527,-47
1604495838.7547,-45
1604495838.7567,-38
1604495838.7587,-62
1604495838.7607,-76
1604495838.7627,-71
1604495838.7647,-88
1604495838.7667,-100
1604495838.7687,-100
1604495838.7707,-115
1604495838.7727,-119
1604495838.7746,-105
1604495838.7766,-105
1604495838.7789,-122
1604495838.7808,-136
1604495838.7826,-143
1604495838.7846,-131
1604495838.7867,-127
1604495838.7887,-129
1604495838.7906,-119
1604495838.7927,-110
1604495838.7948,-127
1604495838.7967,-160
1604495838.7987,-174
1604495838.8008,-167
1604495838.8027,-174
1604495838.8047,-194
1604495839.2304,-198
1604495839.2313,-196
1604495839.2337,-198
1604495839.2363,-215
1604495839.2384,-230
1604495839.2403,-225
1604495839.2423,-222
1604495839.2443,-213
1604495839.2463,-79
1604495839.2483,246
1604495839.2502,565
1604495839.2522,457
1604495839.2542,-179
1604495839.2563,-683
1604495839.2583,-623
1604495839.2602,-448
1604495839.2622,-421
1604495839.2642,-347
1604495839.2662,-263
1604495839.2683,-278
1604495839.2702,-301
1604495839.2722,-282
1604495839.2743,-282
1604495839.2762,-282
1604495839.2783,-273
1604495839.2802,-292
1604495839.2822,-301
1604495839.2843,-289
1604495839.2862,-287
1604495839.2883,-282
1604495839.2902,-268
1604495839.2922,-270
1604495839.2942,-266
1604495839.2964,-232
1604495839.2983,-201
1604495839.3002,-172
1604495839.3022,-134
1604495839.3044,-95
1604495839.3063,-67
1604495839.3083,-55
1604495839.3102,-52
1604495839.3122,-64
1604495839.3142,-129
1604495839.3162,-222
1604495839.3183,-297
1604495839.3202,-357
1604495839.3223,-412
1604495839.3242,-462
1604495839.3262,-505
1604495839.3283,-520
1604495839.3302,-522
1604495839.3322,-534
1604495839.3342,-534
1604495839.3362,-524
1604495839.3383,-517
1604495839.3402,-517
1604495839.3424,-512
1604495839.3443,-512
1604495839.3462,-532
1604495839.3483,-529
1604495839.3502,-500
1604495839.3522,-491
1604495839.3542,-505
1604495839.3562,-503
1604495839.3583,-493
1604495839.3602,-486
1604495839.3622,-472
1604495839.3642,-462
1604495839.3663,-469
1604495839.3683,-479
1604495839.3702,-481
1604495839.3722,-481
1604495839.3742,-476
1604495839.7700,-476
1604495839.7709,-491
1604495839.7734,-486
1604495839.7760,-476
1604495839.7780,-484
1604495839.7800,-488
1604495839.7821,-491
1604495839.7840,-486
1604495839.7861,-479
1604495839.7880,-496
1604495839.7899,-510
1604495839.7919,-488
1604495839.7939,-474
1604495839.7959,-476
1604495839.7979,-469
1604495839.8001,-469
1604495839.8019,-481
1604495839.8039,-496
1604495839.8059,-515
1604495839.8079,-515
1604495839.8099,-517
1604495839.8119,-541
1604495839.8139,-532
1604495839.8160,-515
1604495839.8179,-517
1604495839.8199,-512
1604495839.8219,-512
1604495839.8239,-529
1604495839.8259,-541
1604495839.8280,-469
1604495839.8299,-194
1604495839.8319,208
1604495839.8339,364
1604495839.8359,-81
1604495839.8379,-814
1604495839.8399,-1044
1604495839.8419,-822
1604495839.8439,-735
1604495839.8459,-742
1604495839.8479,-666
1604495839.8499,-642
1604495839.8519,-659
1604495839.8539,-639
1604495839.8559,-632
1604495839.8579,-642
1604495839.8599,-623
1604495839.8619,-594
1604495839.8639,-601
1604495839.8659,-608
1604495839.8679,-589
1604495839.8699,-572
1604495839.8719,-577
1604495839.8739,-560
1604495839.8759,-524
1604495839.8779,-503
1604495839.8799,-481
1604495839.8819,-440
1604495839.8839,-405
1604495839.8859,-383
1604495839.8879,-349
1604495839.8899,-294
1604495839.8919,-263
1604495839.8939,-287
1604495839.8959,-333
1604495839.8979,-395
1604495839.8999,-472
1604495839.9022,-536
1604495839.9040,-584
1604495839.9059,-630
1604495839.9079,-654
1604495839.9099,-668
1604495839.9119,-680
1604495839.9139,-680
1604495840.3700,-683
1604495840.3709,-685
1604495840.3734,-673
1604495840.3760,-656
1604495840.3780,-651
1604495840.3800,-654
1604495840.3821,-654
1604495840.3840,-642
1604495840.3860,-630
1604495840.3880,-635
1604495840.3900,-632
1604495840.3919,-611
1604495840.3939,-594
1604495840.3959,-591
1604495840.3979,-587
1604495840.3999,-572
1604495840.4019,-570
1604495840.4039,-579
1604495840.4059,-572
1604495840.4079,-575
1604495840.4099,-589
1604495840.4120,-575
1604495840.4139,-560
1604495840.4159,-563
1604495840.4179,-548
1604495840.4199,-548
1604495840.4219,-560
1604495840.4239,-539
1604495840.4259,-517
1604495840.4279,-532
1604495840.4299,-541
1604495840.4320,-529
1604495840.4340,-508
1604495840.4346,-486
1604495840.4360,-488
1604495840.4382,-491
1604495840.4400,-469
1604495840.4420,-476
1604495840.4440,-491
1604495840.4459,-472
1604495840.4479,-467
1604495840.4499,-464
1604495840.4519,-433
1604495840.4539,-426
1604495840.4561,-433
1604495840.4579,-424
1604495840.4599,-417
1604495840.4619,-433
1604495840.4639,-428
1604495840.4646,-218
1604495840.4659,234
1604495840.4679,544
1604495840.4699,309
1604495840.4719,-366
1604495840.4739,-853
1604495840.4759,-783
1604495840.4779,-565
1604495840.4799,-508
1604495840.4819,-455
1604495840.4840,-354
1604495840.4859,-311
1604495840.4879,-359
1604495840.4899,-409
1604495840.4919,-393
1604495840.4940,-345
1604495840.4946,-335
1604495840.4959,-337
1604495840.4979,-316
1604495840.4999,-306
1604495840.5019,-313
1604495840.5039,-287
1604495840.5059,-198
1604495840.5080,-186
1604495840.9103,-304
1604495840.9110,-285
1604495840.9133,-153
1604495840.9161,-124
1604495840.9180,-100
1604495840.9187,-11
1604495840.9200,23
1604495840.9221,-11
1604495840.9240,-19
1604495840.9260,-2
1604495840.9280,-23
1604495840.9300,-98
1604495840.9320,-210
1604495840.9340,-278
1604495840.9360,-294
1604495840.9380,-340
1604495840.9400,-395
1604495840.9420,-395
1604495840.9440,-335
1604495840.9460,-261
1604495840.9480,-273
1604495840.9486,-357
1604495840.9502,-369
1604495840.9520,-330
1604495840.9539,-333
1604495840.9560,-328
1604495840.9580,-297
1604495840.9601,-285
1604495840.9619,-280
1604495840.9640,-270
1604495840.9660,-289
1604495840.9680,-287
1604495840.9700,-261
1604495840.9720,-285
1604495840.9741,-325
1604495840.9760,-364
1604495840.9781,-345
1604495840.9787,-182
1604495840.9800,-100
1604495840.9820,-213
1604495840.9840,-266
1604495840.9860,-244
1604495840.9880,-254
1604495840.9900,-249
1604495840.9920,-232
1604495840.9941,-246
1604495840.9960,-244
1604495840.9979,-220
1604495841.0000,-220
1604495841.0020,-232
1604495841.0040,-232
1604495841.0061,-227
1604495841.0067,-225
1604495841.0090,-218
1604495841.0111,-213
1604495841.0131,-227
1604495841.0150,-222
1604495841.0170,-201
1604495841.0190,-201
1604495841.0210,-198
1604495841.0230,-162
1604495841.0250,-162
1604495841.0270,-155
1604495841.0290,50
1604495841.0310,407
1604495841.0330,572
1604495841.0350,273
1604495841.0370,-289
1604495841.0377,-527
1604495841.0390,-361
1604495841.0409,-278
1604495841.0431,-304
1604495841.0451,-227
1604495841.5109,-162
1604495841.5122,-174
1604495841.5146,-170
1604495841.5173,-143
1604495841.5193,-153
1604495841.5212,-162
1604495841.5232,-127
1604495841.5252,-103
1604495841.5272,-124
1604495841.5292,-134
1604495841.5298,-110
1604495841.5311,-105
1604495841.5331,-112
1604495841.5352,-71
1604495841.5372,-21
1604495841.5391,-16
1604495841.5411,-7
1604495841.5431,62
1604495841.5451,158
1604495841.5471,191
1604495841.5491,162
1604495841.5511,150
1604495841.5531,131
1604495841.5551,74
1604495841.5572,9
1604495841.5591,-28
1604495841.5598,-35
1604495841.5611,-74
1604495841.5631,-124
1604495841.5651,-131
1604495841.5671,-141
1604495841.5692,-165
1604495841.5712,-172
1604495841.5731,-165
1604495841.5751,-150
1604495841.5771,-129
1604495841.5791,-141
1604495841.5811,-167
1604495841.5831,-150
1604495841.5851,-122
1604495841.5871,-129
1604495841.5891,-143
1604495841.5898,-117
1604495841.5911,-74
1604495841.5931,-81
1604495841.5951,-76
1604495841.5971,-62
1604495841.5991,-88
1604495841.6011,-93
1604495841.6031,-127
1604495841.6051,-186
1604495841.6073,-143
1604495841.6092,-91
1604495841.6111,-112
1604495841.6131,-100
1604495841.6152,-59
1604495841.6171,-71
1604495841.6191,-98
1604495841.6198,-95
1604495841.6211,-88
1604495841.6231,-95
1604495841.6252,-112
1604495841.6272,-124
1604495841.6292,-124
1604495841.6311,-91
1604495841.6331,-45
1604495841.6351,-55
1604495841.6371,-110
1604495841.6391,-148
1604495841.6411,-134
1604495841.6431,4
1604495841.6451,268
1604495841.6471,512
1604495842.0203,544
1604495842.0210,177
1604495842.0234,-352
1604495842.0260,-488
1604495842.0280,-313
1604495842.0300,-261
1604495842.0321,-244
1604495842.0340,-134
1604495842.0360,-76
1604495842.0380,-91
1604495842.0400,-86
1604495842.0420,-67
1604495842.0440,-57
1604495842.0460,-52
1604495842.0480,-52
1604495842.0500,-50
1604495842.0520,-26
1604495842.0540,-14
1604495842.0560,-14
1604495842.0581,-28
1604495842.0601,-47
1604495842.0620,-16
1604495842.0640,50
1604495842.0660,79
1604495842.0682,95
1604495842.0700,148
1604495842.0720,174
1604495842.0740,131
1604495842.0760,122
1604495842.0782,167
1604495842.0803,162
1604495842.0820,110
1604495842.0840,76
1604495842.0860,55
1604495842.0880,21
1604495842.0900,-21
1604495842.0920,-52
1604495842.0940,-69
1604495842.0960,-91
1604495842.0980,-103
1604495842.1000,-79
1604495842.1020,-64
1604495842.1040,-91
1604495842.1060,-119
1604495842.1080,-112
1604495842.1100,-83
1604495842.1120,-62
1604495842.1140,-67
1604495842.1160,-71
1604495842.1180,-57
1604495842.1200,-50
1604495842.1220,-57
1604495842.1240,-50
1604495842.1260,-33
1604495842.1280,-33
1604495842.1300,-76
1604495842.1320,-115
1604495842.1340,-81
1604495842.1360,-31
1604495842.1382,-43
1604495842.1401,-74
1604495842.1421,-50
1604495842.1443,-11
1604495842.1460,-40
1604495842.1480,-95
1604495842.1503,-98
1604495842.1521,-79
1604495842.1540,-81
1604495842.1560,-86
1604495842.1580,-76
1604495842.1600,-62
1604495842.1621,-45
1604495842.1641,-35
1604495842.5905,-31
1604495842.5914,-31
1604495842.5938,-19
1604495842.5965,122
1604495842.5985,440
1604495842.6005,615
1604495842.6025,273
1604495842.6047,-316
1604495842.6065,-484
1604495842.6085,-282
1604495842.6104,-208
1604495842.6125,-206
1604495842.6145,-115
1604495842.6164,-91
1604495842.6184,-122
1604495842.6204,-107
1604495842.6224,-98
1604495842.6244,-93
1604495842.6264,-74
1604495842.6284,-79
1604495842.6304,-79
1604495842.6324,-50
1604495842.6344,-47
1604495842.6364,-67
1604495842.6384,-47
1604495842.6405,-19
1604495842.6423,-21
1604495842.6443,-4
1604495842.6463,55
1604495842.6484,86
1604495842.6504,107
1604495842.6524,139
1604495842.6543,139
1604495842.6563,146
1604495842.6584,162
1604495842.6605,150
1604495842.6624,124
1604495842.6643,83
1604495842.6663,16
1604495842.6684,-21
1604495842.6703,-45
1604495842.6723,-79
1604495842.6743,-81
1604495842.6763,-81
1604495842.6784,-88
1604495842.6803,-86
1604495842.6823,-100
1604495842.6843,-107
1604495842.6863,-88
1604495842.6884,-93
1604495842.6903,-103
1604495842.6923,-103
1604495842.6944,-93
1604495842.6964,-67
1604495842.6984,-57
1604495842.7003,-67
1604495842.7025,-55
1604495842.7044,-23
1604495842.7065,-7
1604495842.7084,-35
1604495842.7103,-64
1604495842.7123,-47
1604495842.7143,-21
1604495842.7163,2
1604495842.7184,-2
1604495842.7203,-45
1604495842.7223,-52
1604495842.7243,-28
1604495842.7263,-50
1604495842.7284,-79
1604495842.7303,-62
1604495842.7323,-31
1604495842.7343,-14
1604495843.1304,-47
1604495843.1313,-71
1604495843.1338,-69
1604495843.1364,-100
1604495843.1385,-71
1604495843.1404,-16
1604495843.1425,-31
1604495843.1444,67
1604495843.1465,354
1604495843.1485,577
1604495843.1503,419
1604495843.1523,-86
1604495843.1543,-443
1604495843.1563,-359
1604495843.1584,-208
1604495843.1603,-186
1604495843.1623,-129
1604495843.1643,-64
1604495843.1663,-57
1604495843.1684,-64
1604495843.1703,-55
1604495843.1723,-21
1604495843.1743,-26
1604495843.1763,-67
1604495843.1783,-79
1604495843.1803,-40
1604495843.1823,-7
1604495843.1843,-43
1604495843.1863,-67
1604495843.1884,-21
1604495843.1903,-7
1604495843.1923,-19
1604495843.1943,23
1604495843.1964,71
1604495843.1984,81
1604495843.2003,74
1604495843.2025,86
1604495843.2044,119
1604495843.2063,115
1604495843.2084,88
1604495843.2103,67
1604495843.2123,43
1604495843.2143,9
1604495843.2163,-21
1604495843.2183,-43
1604495843.2203,-69
1604495843.2223,-91
1604495843.2243,-107
1604495843.2264,-117
1604495843.2284,-119
1604495843.2303,-117
1604495843.2322,-100
1604495843.2343,-112
1604495843.2365,-119
1604495843.2384,-86
1604495843.2404,-69
1604495843.2423,-81
1604495843.2443,-79
1604495843.2464,-79
1604495843.2484,-86
1604495843.2503,-62
1604495843.2523,-59
1604495843.2543,-88
1604495843.2564,-69
1604495843.2583,-38
1604495843.2602,-52
1604495843.2623,-59
1604495843.2643,-33
1604495843.2663,-40
1604495843.2683,-62
1604495843.2702,-52
1604495843.2723,-57
1604495843.2729,-79
1604495843.7606,-76
1604495843.7618,-67
1604495843.7642,-69
1604495843.7669,-67
1604495843.7689,-71
1604495843.7708,-88
1604495843.7729,-88
1604495843.7749,-83
1604495843.7768,-100
1604495843.7789,-91
1604495843.7808,11
1604495843.7828,215
1604495843.7848,457
1604495843.7868,474
1604495843.7877,55
1604495843.7888,-383
1604495843.7908,-385
1604495843.7928,-242
1604495843.7948,-227
1604495843.7968,-172
1604495843.7988,-93
1604495843.8008,-105
1604495843.8029,-98
1604495843.8048,-40
1604495843.8067,-52
1604495843.8088,-76
1604495843.8107,-23
1604495843.8127,-19
1604495843.8147,-83
1604495843.8168,-74
1604495843.8174,-14
1604495843.8188,-9
1604495843.8207,-26
1604495843.8227,-19
1604495843.8247,4
1604495843.8267,26
1604495843.8288,43
1604495843.8307,76
1604495843.8327,110
1604495843.8347,110
1604495843.8367,115
1604495843.8388,131
1604495843.8407,119
1604495843.8427,98
1604495843.8447,71
1604495843.8467,31
1604495843.8475,7
1604495843.8488,-16
1604495843.8507,-40
1604495843.8527,-55
1604495843.8547,-76
1604495843.8567,-91
1604495843.8588,-95
1604495843.8608,-98
1604495843.8628,-74
1604495843.8647,-57
1604495843.8668,-83
1604495843.8688,-88
1604495843.8707,-69
1604495843.8727,-88
1604495843.8747,-83
1604495843.8767,-23
1604495843.8774,-23
1604495843.8798,-59
1604495843.8817,-50
1604495843.8839,-40
1604495843.8859,-50
1604495843.8878,-43
1604495843.8897,-28
1604495843.8917,-21
1604495843.8937,-23
1604495843.8958,-33
1604495843.8977,-45
1604495844.2698,-40
1604495844.2705,-40
1604495844.2729,-45
1604495844.2740,-31
1604495844.2755,-23
1604495844.2775,-35
1604495844.2796,-59
1604495844.2816,-57
1604495844.2836,-26
1604495844.2856,-16
1604495844.2876,-45
1604495844.2896,-67
1604495844.2915,-45
1604495844.2935,-7
1604495844.2955,86
1604495844.2975,306
1604495844.2995,524
1604495844.3014,373
1604495844.3035,-129
1604495844.3041,-400
1604495844.3055,-268
1604495844.3075,-150
1604495844.3095,-146
1604495844.3114,-95
1604495844.3134,-47
1604495844.3154,-55
1604495844.3174,-59
1604495844.3195,-40
1604495844.3215,-33
1604495844.3236,-38
1604495844.3255,-38
1604495844.3275,-7
1604495844.3295,16
1604495844.3315,-7
1604495844.3335,-19
1604495844.3341,14
1604495844.3355,31
1604495844.3375,31
1604495844.3395,55
1604495844.3414,74
1604495844.3435,86
1604495844.3455,112
1604495844.3475,129
1604495844.3497,148
1604495844.3515,165
1604495844.3535,150
1604495844.3555,129
1604495844.3575,129
1604495844.3595,103
1604495844.3615,50
1604495844.3634,23
1604495844.3642,11
1604495844.3654,-4
1604495844.3675,-26
1604495844.3695,-40
1604495844.3715,-40
1604495844.3735,-35
1604495844.3755,-45
1604495844.3775,-45
1604495844.3795,-33
1604495844.3815,-33
1604495844.3835,-31
1604495844.3855,-21
1604495844.3875,-23
1604495844.3895,-19
1604495844.3915,-9
1604495844.3936,-14
1604495844.3955,-14
1604495844.3975,-9
1604495844.3995,-4
1604495844.4015,-2
1604495844.4035,2
1604495844.4055,4
1604495844.8402,4
1604495844.8411,11
1604495844.8435,19
1604495844.8462,14
1604495844.8482,7
1604495844.8502,2
1604495844.8522,-14
1604495844.8542,-31
1604495844.8548,-31
1604495844.8562,-19
1604495844.8582,-16
1604495844.8601,-21
1604495844.8621,-19
1604495844.8642,-16
1604495844.8661,-11
1604495844.8681,-4
1604495844.8701,-4
1604495844.8721,35
1604495844.8741,203
1604495844.8761,469
1604495844.8781,572
1604495844.8802,258
1604495844.8821,-237
1604495844.8840,-385
1604495844.8847,-222
1604495844.8860,-136
1604495844.8882,-119
1604495844.8901,-55
1604495844.8921,-19
1604495844.8941,-35
1604495844.8961,-40
1604495844.8981,-31
1604495844.9001,-28
1604495844.9021,-19
1604495844.9042,-7
1604495844.9060,-16
1604495844.9081,-9
1604495844.9100,19
1604495844.9121,21
1604495844.9140,2
1604495844.9147,19
1604495844.9161,38
1604495844.9181,38
1604495844.9201,55
1604495844.9221,95
1604495844.9241,124
1604495844.9261,131
1604495844.9281,136
1604495844.9300,141
1604495844.9320,146
1604495844.9340,143
1604495844.9361,100
1604495844.9381,43
1604495844.9400,4
1604495844.9420,-26
1604495844.9440,-52
1604495844.9447,-71
1604495844.9460,-67
1604495844.9482,-45
1604495844.9501,-45
1604495844.9521,-74
1604495844.9540,-86
1604495844.9561,-67
1604495844.9581,-69
1604495844.9601,-91
1604495844.9621,-71
1604495844.9641,-40
1604495844.9661,-47
1604495844.9682,-67
1604495844.9700,-52
1604495844.9721,-38
1604495844.9741,-45
1604495844.9749,-50
1604495845.3805,-62
1604495845.3814,-69
1604495845.3838,-57
1604495845.3865,-57
1604495845.3885,-59
1604495845.3904,-38
1604495845.3924,-35
1604495845.3944,-71
1604495845.3965,-88
1604495845.3984,-88
1604495845.4004,-95
1604495845.4024,-88
1604495845.4031,-76
1604495845.4044,-86
1604495845.4064,-86
1604495845.4085,-59
1604495845.4105,-55
1604495845.4124,-71
1604495845.4144,-69
1604495845.4164,-62
1604495845.4184,9
1604495845.4204,246
1604495845.4224,527
1604495845.4244,527
1604495845.4264,95
1604495845.4284,-352
1604495845.4304,-366
1604495845.4324,-210
1604495845.4331,-191
1604495845.4344,-143
1604495845.4364,-45
1604495845.4384,-35
1604495845.4405,-64
1604495845.4424,-31
1604495845.4444,-11
1604495845.4464,-40
1604495845.4484,-55
1604495845.4504,-31
1604495845.4524,-9
1604495845.4544,-26
1604495845.4565,-35
1604495845.4584,-4
1604495845.4604,11
1604495845.4624,21
1604495845.4631,43
1604495845.4644,69
1604495845.4665,91
1604495845.4684,107
1604495845.4704,119
1604495845.4724,131
1604495845.4746,143
1604495845.4764,155
1604495845.4784,150
1604495845.4804,115
1604495845.4824,81
1604495845.4844,64
1604495845.4864,28
1604495845.4885,-11
1604495845.4903,-31
1604495845.4924,-47
1604495845.4930,-47
1604495845.4945,-47
1604495845.4964,-76
1604495845.4984,-88
1604495845.5004,-74
1604495845.5024,-69
1604495845.5044,-67
1604495845.5065,-52
1604495845.5084,-45
1604495845.5104,-33
1604495845.5124,-31
1604495845.5144,-43
1604495845.5164,-43
1604495845.9503,-38
1604495845.9513,-43
1604495845.9537,-40
1604495845.9564,-40
1604495845.9584,-35
1604495845.9604,-35
1604495845.9624,-35
1604495845.9644,-28
1604495845.9664,-35
1604495845.9684,-62
1604495845.9703,-59
1604495845.9723,-43
1604495845.9743,-55
1604495845.9763,-69
1604495845.9784,-57
1604495845.9803,-47
1604495845.9823,-59
1604495845.9830,-59
1604495845.9843,-35
1604495845.9863,-35
1604495845.9884,-43
1604495845.9903,16
1604495845.9923,186
1604495845.9943,438
1604495845.9963,551
1604495845.9984,242
1604495846.0003,-251
1604495846.0023,-383
1604495846.0045,-222
1604495846.0063,-150
1604495846.0083,-127
1604495846.0103,-55
1604495846.0122,-23
1604495846.0129,-43
1604495846.0142,-43
1604495846.0163,-21
1604495846.0183,-16
1604495846.0203,-21
1604495846.0223,-14
1604495846.0243,-4
1604495846.0263,-2
1604495846.0283,4
1604495846.0303,2
1604495846.0323,4
1604495846.0343,31
1604495846.0363,45
1604495846.0382,43
1604495846.0403,79
1604495846.0423,129
1604495846.0429,127
1604495846.0443,124
1604495846.0463,153
1604495846.0483,160
1604495846.0502,146
1604495846.0523,124
1604495846.0543,98
1604495846.0563,69
1604495846.0583,33
1604495846.0603,-9
1604495846.0623,-26
1604495846.0642,-31
1604495846.0662,-45
1604495846.0683,-55
1604495846.0703,-59
1604495846.0723,-64
1604495846.0730,-57
1604495846.0743,-45
1604495846.0763,-43
1604495846.0783,-50
1604495846.0803,-43
1604495846.0823,-38
1604495846.0843,-33
1604495846.0863,-28
1604495846.5205,-28
1604495846.5214,-21
1604495846.5238,-19
1604495846.5264,-31
1604495846.5285,-38
1604495846.5305,-35
1604495846.5331,-31
1604495846.5338,-33
1604495846.5354,-43
1604495846.5374,-43
1604495846.5394,-45
1604495846.5414,-64
1604495846.5434,-74
1604495846.5454,-67
1604495846.5474,-69
1604495846.5494,-76
1604495846.5513,-67
1604495846.5533,-55
1604495846.5554,-59
1604495846.5574,-57
1604495846.5593,-45
1604495846.5613,-52
1604495846.5634,-28
1604495846.5653,124
1604495846.5673,407
1604495846.5693,611
1604495846.5713,407
1604495846.5733,-134
1604495846.5753,-419
1604495846.5773,-278
1604495846.5793,-158
1604495846.5813,-148
1604495846.5833,-93
1604495846.5853,-47
1604495846.5874,-55
1604495846.5894,-55
1604495846.5913,-40
1604495846.5933,-40
1604495846.5940,-38
1604495846.5953,-35
1604495846.5973,-28
1604495846.5994,-9
1604495846.6013,0
1604495846.6033,-4
1604495846.6053,4
1604495846.6073,23
1604495846.6094,31
1604495846.6114,40
1604495846.6133,67
1604495846.6153,88
1604495846.6173,98
1604495846.6194,117
1604495846.6214,136
1604495846.6233,146
1604495846.6240,143
1604495846.6254,127
1604495846.6275,100
1604495846.6295,57
1604495846.6314,7
1604495846.6333,-26
1604495846.6353,-45
1604495846.6373,-62
1604495846.6394,-86
1604495846.6413,-95
1604495846.6433,-88
1604495846.6453,-93
1604495846.6473,-98
1604495846.6494,-83
1604495846.6513,-76
1604495846.6533,-76
1604495846.6540,-74
1604495846.6553,-69
1604495846.6573,-62
1604495847.0905,-59
1604495847.0914,-52
1604495847.0938,-45
1604495847.0965,-55
1604495847.0984,-55
1604495847.1004,-45
1604495847.1025,-50
1604495847.1044,-59
1604495847.1064,-52
1604495847.1084,-43
1604495847.1091,-64
1604495847.1103,-76
1604495847.1124,-69
1604495847.1144,-86
1604495847.1164,-93
1604495847.1183,-86
1604495847.1203,-86
1604495847.1224,-88
1604495847.1243,-88
1604495847.1263,-81
1604495847.1284,-79
1604495847.1303,-88
1604495847.1323,-98
1604495847.1343,-23
1604495847.1363,234
1604495847.1383,534
1604495847.1390,496
1604495847.1403,9
1604495847.1423,-424
1604495847.1443,-395
1604495847.1463,-232
1604495847.1484,-198
1604495847.1503,-158
1604495847.1523,-91
1604495847.1543,-67
1604495847.1565,-59
1604495847.1584,-47
1604495847.1603,-50
1604495847.1623,-52
1604495847.1643,-43
1604495847.1663,-35
1604495847.1684,-40
1604495847.1690,-40
1604495847.1703,-26
1604495847.1723,-11
1604495847.1743,-7
1604495847.1763,7
1604495847.1784,31
1604495847.1803,55
1604495847.1823,83
1604495847.1844,112
1604495847.1863,127
1604495847.1884,150
1604495847.1903,174
1604495847.1923,167
1604495847.1943,146
1604495847.1963,119
1604495847.1984,81
1604495847.1990,38
1604495847.2003,4
1604495847.2023,-21
1604495847.2043,-43
1604495847.2063,-59
1604495847.2084,-69
1604495847.2103,-81
1604495847.2123,-88
1604495847.2143,-81
1604495847.2163,-59
1604495847.2184,-52
1604495847.2203,-67
1604495847.2223,-69
1604495847.2244,-50
1604495847.2264,-45
1604495847.6604,-59
1604495847.6613,-52
1604495847.6638,-38
1604495847.6664,-45
1604495847.6685,-38
1604495847.6704,-23
1604495847.6725,-31
1604495847.6744,-33
1604495847.6764,-31
1604495847.6783,-47
1604495847.6803,-67
1604495847.6823,-74
1604495847.6844,-69
1604495847.6866,-69
1604495847.6885,-79
1604495847.6903,-88
1604495847.6923,-76
1604495847.6930,-74
1604495847.6943,-91
1604495847.6963,-81
1604495847.6983,-62
1604495847.7004,-88
1604495847.7023,-74
1604495847.7044,131
1604495847.7063,476
1604495847.7084,668
1604495847.7103,409
1604495847.7123,-191
1604495847.7143,-510
1604495847.7163,-354
1604495847.7183,-206
1604495847.7203,-191
1604495847.7223,-141
1604495847.7230,-91
1604495847.7243,-88
1604495847.7263,-86
1604495847.7283,-62
1604495847.7303,-59
1604495847.7323,-79
1604495847.7343,-62
1604495847.7363,-43
1604495847.7384,-47
1604495847.7403,-33
1604495847.7423,-7
1604495847.7443,9
1604495847.7463,9
1604495847.7483,14
1604495847.7503,57
1604495847.7523,88
1604495847.7530,110
1604495847.7543,153
1604495847.7563,179
1604495847.7583,179
1604495847.7603,186
1604495847.7623,182
1604495847.7643,148
1604495847.7663,112
1604495847.7683,71
1604495847.7703,21
1604495847.7723,-11
1604495847.7743,-52
1604495847.7763,-88
1604495847.7783,-95
1604495847.7803,-107
1604495847.7825,-124
1604495847.7830,-110
1604495847.7843,-98
1604495847.7863,-103
1604495847.7883,-95
1604495847.7903,-83
1604495847.7923,-91
1604495847.7943,-83
1604495847.7963,-55
1604495848.2002,-52
1604495848.2011,-79
1604495848.2034,-69
1604495848.2045,-35
1604495848.2061,-33
1604495848.2081,-45
1604495848.2100,-33
1604495848.2120,-19
1604495848.2141,-43
1604495848.2160,-57
1604495848.2181,-50
1604495848.2200,-69
1604495848.2220,-86
1604495848.2240,-79
1604495848.2260,-83
1604495848.2281,-91
1604495848.2300,-71
1604495848.2321,-62
1604495848.2340,-69
1604495848.2347,-83
1604495848.2360,-88
1604495848.2373,-19
1604495848.2391,244
1604495848.2410,608
1604495848.2431,692
1604495848.2451,208
1604495848.2471,-402
1604495848.2490,-493
1604495848.2510,-280
1604495848.2530,-206
1604495848.2550,-182
1604495848.2570,-112
1604495848.2590,-86
1604495848.2610,-93
1604495848.2616,-79
1604495848.2630,-62
1604495848.2650,-67
1604495848.2670,-59
1604495848.2690,-45
1604495848.2710,-38
1604495848.2730,-33
1604495848.2750,-28
1604495848.2772,-19
1604495848.2791,-2
1604495848.2810,11
1604495848.2830,31
1604495848.2850,67
1604495848.2870,103
1604495848.2890,136
1604495848.2910,170
1604495848.2916,184
1604495848.2930,170
1604495848.2950,172
1604495848.2970,174
1604495848.2991,136
1604495848.3010,86
1604495848.3030,55
1604495848.3050,16
1604495848.3070,-43
1604495848.3090,-76
1604495848.3110,-81
1604495848.3130,-91
1604495848.3150,-105
1604495848.3170,-93
1604495848.3190,-83
1604495848.3210,-91
1604495848.3216,-95
1604495848.3230,-83
1604495848.3250,-71
1604495848.3270,-74
1604495848.3290,-81
1604495848.3310,-86
1604495848.3330,-71
1604495848.7404,-47
1604495848.7413,-55
1604495848.7438,-69
1604495848.7464,-55
1604495848.7484,-35
1604495848.7504,-40
1604495848.7525,-50
1604495848.7544,-62
1604495848.7551,-79
1604495848.7564,-83
1604495848.7584,-74
1604495848.7604,-83
1604495848.7624,-95
1604495848.7644,-88
1604495848.7664,-74
1604495848.7684,-74
1604495848.7703,-76
1604495848.7723,-79
1604495848.7744,-88
1604495848.7764,14
1604495848.7786,352
1604495848.7803,702
1604495848.7823,635
1604495848.7843,43
1604495848.7849,-474
1604495848.7863,-426
1604495848.7883,-213
1604495848.7903,-182
1604495848.7923,-162
1604495848.7943,-112
1604495848.7963,-107
1604495848.7983,-107
1604495848.8003,-91
1604495848.8023,-79
1604495848.8043,-71
1604495848.8063,-71
1604495848.8083,-76
1604495848.8103,-69
1604495848.8123,-57
1604495848.8143,-52
1604495848.8149,-45
1604495848.8163,-28
1604495848.8183,-14
1604495848.8203,2
1604495848.8223,28
1604495848.8243,62
1604495848.8263,98
1604495848.8283,122
1604495848.8303,131
1604495848.8323,139
1604495848.8343,146
1604495848.8363,129
1604495848.8383,83
1604495848.8403,31
1604495848.8423,-11
1604495848.8443,-45
1604495848.8449,-69
1604495848.8463,-88
1604495848.8483,-107
1604495848.8503,-122
1604495848.8523,-117
1604495848.8543,-103
1604495848.8563,-105
1604495848.8583,-107
1604495848.8603,-91
1604495848.8623,-83
1604495848.8643,-91
1604495848.8663,-93
1604495848.8683,-88
1604495848.8703,-93
1604495848.8723,-91
1604495848.8745,-76
1604495848.8749,-69
1604495849.3105,-74
1604495849.3114,-74
1604495849.3139,-64
1604495849.3165,-50
1604495849.3185,-59
1604495849.3205,-74
1604495849.3226,-69
1604495849.3245,-74
1604495849.3265,-91
1604495849.3285,-93
1604495849.3304,-88
1604495849.3324,-93
1604495849.3345,-95
1604495849.3351,-91
1604495849.3365,-95
1604495849.3385,-100
1604495849.3404,-98
1604495849.3425,-103
1604495849.3444,0
1604495849.3464,325
1604495849.3485,673
1604495849.3504,623
1604495849.3524,40
1604495849.3544,-484
1604495849.3564,-440
1604495849.3584,-222
1604495849.3604,-196
1604495849.3624,-184
1604495849.3644,-127
1604495849.3650,-110
1604495849.3665,-105
1604495849.3684,-88
1604495849.3704,-83
1604495849.3724,-79
1604495849.3744,-71
1604495849.3764,-79
1604495849.3784,-81
1604495849.3804,-67
1604495849.3824,-50
1604495849.3844,-38
1604495849.3864,-23
1604495849.3884,-11
1604495849.3904,9
1604495849.3924,47
1604495849.3945,83
1604495849.3950,100
1604495849.3964,122
1604495849.3984,146
1604495849.4004,141
1604495849.4026,124
1604495849.4044,115
1604495849.4065,91
1604495849.4084,38
1604495849.4104,-4
1604495849.4124,-26
1604495849.4144,-57
1604495849.4164,-91
1604495849.4185,-103
1604495849.4204,-103
1604495849.4224,-98
1604495849.4244,-98
1604495849.4250,-105
1604495849.4264,-100
1604495849.4284,-93
1604495849.4304,-91
1604495849.4324,-86
1604495849.4344,-91
1604495849.4364,-86
1604495849.4384,-74
1604495849.4404,-64
1604495849.4424,-55
1604495849.4444,-59
1604495849.4464,-69
1604495849.8801,-55
1604495849.8806,-52
1604495849.8821,-67
1604495849.8841,-57
1604495849.8861,-43
1604495849.8882,-47
1604495849.8901,-67
1604495849.8921,-79
1604495849.8941,-79
1604495849.8961,-81
1604495849.8981,-74
1604495849.9001,-67
1604495849.9021,-83
1604495849.9027,-86
1604495849.9041,-62
1604495849.9062,-52
1604495849.9081,-57
1604495849.9101,-81
1604495849.9122,-81
1604495849.9141,83
1604495849.9161,452
1604495849.9181,735
1604495849.9201,508
1604495849.9221,-143
1604495849.9241,-498
1604495849.9261,-323
1604495849.9281,-174
1604495849.9303,-191
1604495849.9321,-134
1604495849.9327,-71
1604495849.9341,-71
1604495849.9361,-67
1604495849.9381,-57
1604495849.9402,-64
1604495849.9421,-67
1604495849.9441,-47
1604495849.9461,-35
1604495849.9481,-38
1604495849.9501,-31
1604495849.9521,-21
1604495849.9541,-11
1604495849.9561,-2
1604495849.9581,11
1604495849.9602,43
1604495849.9621,81
1604495849.9627,105
1604495849.9641,110
1604495849.9661,122
1604495849.9681,146
1604495849.9701,150
1604495849.9721,136
1604495849.9741,127
1604495849.9761,107
1604495849.9782,62
1604495849.9801,11
1604495849.9821,-19
1604495849.9841,-52
1604495849.9861,-86
1604495849.9881,-115
1604495849.9901,-107
1604495849.9921,-76
1604495849.9927,-74
1604495849.9941,-83
1604495849.9961,-71
1604495849.9982,-69
1604495850.0002,-74
1604495850.0022,-71
1604495850.0041,-64
1604495850.0061,-64
1604495850.0082,-62
1604495850.0101,-55
1604495850.0121,-50
1604495850.0141,-55
1604495850.4507,-59
1604495850.4516,-50
1604495850.4541,-47
1604495850.4567,-64
1604495850.4573,-79
1604495850.4591,-74
1604495850.4607,-52
1604495850.4628,-31
1604495850.4647,-38
1604495850.4667,-67
1604495850.4686,-81
1604495850.4706,-76
1604495850.4726,-67
1604495850.4746,-74
1604495850.4766,-83
1604495850.4787,-74
1604495850.4807,-71
1604495850.4826,-71
1604495850.4846,-55
1604495850.4866,-55
1604495850.4872,-71
1604495850.4887,-81
1604495850.4906,26
1604495850.4926,347
1604495850.4947,671
1604495850.4966,563
1604495850.4987,-40
1604495850.5007,-503
1604495850.5026,-407
1604495850.5046,-208
1604495850.5066,-177
1604495850.5086,-124
1604495850.5106,-62
1604495850.5127,-69
1604495850.5146,-69
1604495850.5166,-40
1604495850.5172,-40
1604495850.5186,-57
1604495850.5206,-47
1604495850.5226,-19
1604495850.5246,-14
1604495850.5266,-21
1604495850.5286,-9
1604495850.5306,7
1604495850.5326,11
1604495850.5346,26
1604495850.5366,50
1604495850.5386,76
1604495850.5406,98
1604495850.5426,119
1604495850.5447,141
1604495850.5466,153
1604495850.5472,155
1604495850.5486,158
1604495850.5507,148
1604495850.5526,115
1604495850.5548,76
1604495850.5566,38
1604495850.5586,-4
1604495850.5606,-38
1604495850.5626,-52
1604495850.5646,-57
1604495850.5666,-76
1604495850.5686,-91
1604495850.5706,-86
1604495850.5726,-86
1604495850.5746,-86
1604495850.5766,-76
1604495850.5772,-64
1604495850.5786,-57
1604495850.5806,-62
1604495850.5826,-59
1604495850.5846,-45
1604495851.0204,-47
1604495851.0214,-57
1604495851.0238,-47
1604495851.0264,-43
1604495851.0284,-52
1604495851.0304,-55
1604495851.0324,-55
1604495851.0344,-69
1604495851.0351,-76
1604495851.0364,-69
1604495851.0384,-59
1604495851.0403,-55
1604495851.0423,-57
1604495851.0443,-62
1604495851.0463,-69
1604495851.0484,-76
1604495851.0503,-74
1604495851.0523,-67
1604495851.0543,-67
1604495851.0564,-71
1604495851.0584,-67
1604495851.0603,-64
1604495851.0623,-67
1604495851.0643,-67
1604495851.0649,-79
1604495851.0663,-91
1604495851.0683,4
1604495851.0703,292
1604495851.0723,611
1604495851.0743,575
1604495851.0763,31
1604495851.0783,-457
1604495851.0803,-409
1604495851.0823,-210
1604495851.0845,-179
1604495851.0863,-134
1604495851.0883,-62
1604495851.0903,-57
1604495851.0923,-59
1604495851.0943,-59
1604495851.0949,-64
1604495851.0963,-52
1604495851.0983,-35
1604495851.1003,-38
1604495851.1023,-40
1604495851.1043,-19
1604495851.1063,-7
1604495851.1083,-11
1604495851.1103,-2
1604495851.1123,11
1604495851.1143,28
1604495851.1163,52
1604495851.1183,83
1604495851.1204,117
1604495851.1223,141
1604495851.1243,134
1604495851.1326,122
1604495851.1343,129
1604495851.1363,119
1604495851.1383,100
1604495851.1403,76
1604495851.1423,14
1604495851.1443,-21
1604495851.1463,-23
1604495851.1483,-67
1604495851.1503,-115
1604495851.1523,-98
1604495851.1543,-81
1604495851.1563,-105
1604495851.1583,-103
1604495851.1603,-83
1604495851.1609,-81
1604495851.1622,-74
1604495851.5601,-67
1604495851.5610,-69
1604495851.5635,-69
1604495851.5651,-62
1604495851.5670,-52
1604495851.5690,-57
1604495851.5709,-69
1604495851.5730,-67
1604495851.5750,-59
1604495851.5770,-74
1604495851.5790,-95
1604495851.5809,-83
1604495851.5832,-74
1604495851.5836,-86
1604495851.5850,-79
1604495851.5870,-74
1604495851.5890,-74
1604495851.5909,-59
1604495851.5930,-55
1604495851.5949,-74
1604495851.5969,-88
1604495851.5989,-91
1604495851.6009,-86
1604495851.6031,-86
1604495851.6049,-91
1604495851.6069,-93
1604495851.6089,-91
1604495851.6110,-93
1604495851.6130,-93
1604495851.6136,-95
1604495851.6150,-110
1604495851.6171,-74
1604495851.6189,117
1604495851.6209,445
1604495851.6229,611
1604495851.6250,249
1604495851.6270,-364
1604495851.6290,-539
1604495851.6309,-316
1604495851.6329,-213
1604495851.6350,-208
1604495851.6370,-136
1604495851.6389,-93
1604495851.6409,-117
1604495851.6429,-119
1604495851.6436,-100
1604495851.6449,-98
1604495851.6469,-98
1604495851.6489,-98
1604495851.6509,-98
1604495851.6529,-93
1604495851.6549,-83
1604495851.6569,-69
1604495851.6589,-62
1604495851.6609,-67
1604495851.6629,-50
1604495851.6649,-16
1604495851.6669,7
1604495851.6689,26
1604495851.6709,35
1604495851.6729,52
1604495851.6736,64
1604495851.6750,62
1604495851.6771,59
1604495851.6790,45
1604495851.6809,9
1604495851.6829,-35
1604495851.6849,-67
1604495851.6869,-98
1604495851.6889,-134
1604495851.6909,-150
1604495851.6929,-153
1604495851.6949,-160
1604495852.1349,-172
1604495852.1358,-165
1604495852.1374,-143
1604495852.1399,-143
1604495852.1413,-155
1604495852.1439,-143
1604495852.1458,-124
1604495852.1478,-136
1604495852.1498,-139
1604495852.1518,-124
1604495852.1538,-134
1604495852.1558,-146
1604495852.1578,-129
1604495852.1598,-119
1604495852.1617,-136
1604495852.1637,-150
1604495852.1657,-131
1604495852.1677,-112
1604495852.1684,-134
1604495852.1697,-146
1604495852.1717,-127
1604495852.1737,-134
1604495852.1757,-131
1604495852.1777,-105
1604495852.1797,-115
1604495852.1817,-150
1604495852.1837,-160
1604495852.1857,-148
1604495852.1877,-148
1604495852.1897,-148
1604495852.1917,-124
1604495852.1937,-110
1604495852.1957,-136
1604495852.1977,-139
1604495852.1984,-119
1604495852.1997,-136
1604495852.2017,-124
1604495852.2037,9
1604495852.2057,258
1604495852.2077,481
1604495852.2097,388
1604495852.2119,-134
1604495852.2138,-536
1604495852.2157,-414
1604495852.2177,-239
1604495852.2197,-246
1604495852.2217,-170
1604495852.2237,-88
1604495852.2257,-105
1604495852.2277,-83
1604495852.2284,-40
1604495852.2297,-59
1604495852.2317,-76
1604495852.2337,-57
1604495852.2357,-35
1604495852.2377,-23
1604495852.2397,-31
1604495852.2417,-31
1604495852.2437,-11
1604495852.2457,-4
1604495852.2477,7
1604495852.2497,43
1604495852.2517,59
1604495852.2537,67
1604495852.2557,93
1604495852.2577,117
1604495852.2583,124
1604495852.2597,119
1604495852.2617,124
1604495852.2637,124
1604495852.2657,98
1604495852.2677,67
1604495852.2697,35
1604495852.6704,-2
1604495852.6714,-28
1604495852.6738,-55
1604495852.6764,-83
1604495852.6785,-81
1604495852.6804,-69
1604495852.6825,-86
1604495852.6844,-95
1604495852.6850,-79
1604495852.6864,-74
1604495852.6885,-76
1604495852.6904,-64
1604495852.6924,-55
1604495852.6944,-62
1604495852.6964,-59
1604495852.6984,-43
1604495852.7005,-35
1604495852.7029,-50
1604495852.7045,-52
1604495852.7066,-52
1604495852.7085,-47
1604495852.7104,-45
1604495852.7124,-59
1604495852.7144,-50
1604495852.7150,-38
1604495852.7164,-47
1604495852.7184,-28
1604495852.7204,-4
1604495852.7224,-31
1604495852.7243,-62
1604495852.7263,-67
1604495852.7284,-62
1604495852.7304,-64
1604495852.7323,-64
1604495852.7344,-64
1604495852.7364,-74
1604495852.7384,-64
1604495852.7403,-45
1604495852.7424,-45
1604495852.7443,-64
1604495852.7449,-64
1604495852.7463,2
1604495852.7484,194
1604495852.7503,486
1604495852.7524,577
1604495852.7545,167
1604495852.7563,-373
1604495852.7584,-440
1604495852.7603,-227
1604495852.7623,-170
1604495852.7644,-155
1604495852.7663,-62
1604495852.7684,-4
1604495852.7704,-11
1604495852.7723,-16
1604495852.7743,0
1604495852.7750,9
1604495852.7763,7
1604495852.7784,19
1604495852.7803,16
1604495852.7823,11
1604495852.7843,40
1604495852.7864,43
1604495852.7885,31
1604495852.7903,45
1604495852.7923,74
1604495852.7943,91
1604495852.7963,103
1604495852.7983,129
1604495852.8003,148
1604495852.8025,162
1604495852.8044,182
1604495852.8050,191
1604495853.2401,177
1604495853.2411,146
1604495853.2424,105
1604495853.2442,64
1604495853.2462,38
1604495853.2482,11
1604495853.2502,-28
1604495853.2523,-47
1604495853.2542,-50
1604495853.2562,-59
1604495853.2582,-64
1604495853.2602,-62
1604495853.2608,-52
1604495853.2622,-43
1604495853.2642,-45
1604495853.2661,-40
1604495853.2682,-35
1604495853.2701,-40
1604495853.2723,-35
1604495853.2742,-23
1604495853.2762,-26
1604495853.2783,-35
1604495853.2802,-40
1604495853.2821,-43
1604495853.2844,-40
1604495853.2861,-45
1604495853.2882,-55
1604495853.2902,-52
1604495853.2907,-35
1604495853.2922,-28
1604495853.2942,-45
1604495853.2961,-47
1604495853.2982,-26
1604495853.3001,-26
1604495853.3022,-52
1604495853.3041,-69
1604495853.3061,-67
1604495853.3082,-67
1604495853.3101,-71
1604495853.3121,-76
1604495853.3141,-74
1604495853.3161,-57
1604495853.3182,-45
1604495853.3201,-57
1604495853.3207,-59
1604495853.3221,-50
1604495853.3241,-9
1604495853.3261,165
1604495853.3283,448
1604495853.3302,541
1604495853.3321,184
1604495853.3341,-342
1604495853.3361,-457
1604495853.3381,-263
1604495853.3401,-189
1604495853.3421,-153
1604495853.3441,-43
1604495853.3461,-7
1604495853.3481,-52
1604495853.3502,-45
1604495853.3507,4
1604495853.3521,9
1604495853.3541,-14
1604495853.3561,4
1604495853.3581,23
1604495853.3601,16
1604495853.3621,31
1604495853.3641,21
1604495853.3661,11
1604495853.3682,62
1604495853.3701,93
1604495853.3722,93
1604495853.3741,103
1604495853.9002,117
1604495853.9014,153
1604495853.9038,189
1604495853.9048,194
1604495853.9064,182
1604495853.9085,174
1604495853.9105,167
1604495853.9125,131
1604495853.9144,67
1604495853.9164,45
1604495853.9185,62
1604495853.9204,33
1604495853.9224,-23
1604495853.9244,-28
1604495853.9264,-16
1604495853.9285,-16
1604495853.9304,-7
1604495853.9324,-16
1604495853.9344,-33
1604495853.9350,-23
1604495853.9364,-9
1604495853.9385,-7
1604495853.9404,11
1604495853.9424,19
1604495853.9444,-7
1604495853.9464,-4
1604495853.9487,7
1604495853.9504,-9
1604495853.9524,-9
1604495853.9544,2
1604495853.9565,-16
1604495853.9584,-21
1604495853.9603,-2
1604495853.9623,4
1604495853.9643,2
1604495853.9649,2
1604495853.9663,2
1604495853.9684,-4
1604495853.9703,-2
1604495853.9723,4
1604495853.9744,-4
1604495853.9764,-26
1604495853.9784,-40
1604495853.9803,-28
1604495853.9823,-7
1604495853.9843,-19
1604495853.9863,-43
1604495853.9884,-28
1604495853.9903,-4
1604495853.9923,-9
1604495853.9943,-23
1604495853.9949,4
1604495853.9963,174
1604495853.9983,457
1604495854.0003,572
1604495854.0024,273
1604495854.0043,-220
1604495854.0063,-373
1604495854.0083,-220
1604495854.0103,-143
1604495854.0123,-112
1604495854.0143,-38
1604495854.0163,-21
1604495854.0183,-33
1604495854.0203,-14
1604495854.0223,-9
1604495854.0243,-11
1604495854.0250,9
1604495854.0263,21
1604495854.0283,2
1604495854.0303,-4
1604495854.0324,9
1604495854.0343,26
1604495854.4104,38
1604495854.4112,52
1604495854.4137,71
1604495854.4163,86
1604495854.4186,103
1604495854.4203,127
1604495854.4224,141
1604495854.4230,155
1604495854.4243,162
1604495854.4263,158
1604495854.4283,153
1604495854.4303,141
1604495854.4322,105
1604495854.4343,67
1604495854.4362,38
1604495854.4383,9
1604495854.4402,-19
1604495854.4422,-47
1604495854.4442,-64
1604495854.4462,-79
1604495854.4483,-95
1604495854.4502,-86
1604495854.4522,-64
1604495854.4528,-52
1604495854.4542,-52
1604495854.4562,-57
1604495854.4583,-52
1604495854.4602,-45
1604495854.4622,-47
1604495854.4642,-43
1604495854.4662,-28
1604495854.4683,-33
1604495854.4702,-38
1604495854.4722,-35
1604495854.4742,-28
1604495854.4762,-33
1604495854.4782,-45
1604495854.4803,-47
1604495854.4822,-50
1604495854.4835,-43
1604495854.4852,-28
1604495854.4872,-23
1604495854.4892,-23
1604495854.4912,-19
1604495854.4932,-14
1604495854.4952,-16
1604495854.4972,-19
1604495854.4992,-28
1604495854.5012,-38
1604495854.5032,-35
1604495854.5052,-33
1604495854.5072,-35
1604495854.5092,-31
1604495854.5112,-26
1604495854.5118,-31
1604495854.5133,-28
1604495854.5153,-23
1604495854.5172,-21
1604495854.5192,43
1604495854.5212,237
1604495854.5232,488
1604495854.5252,524
1604495854.5272,134
1604495854.5292,-306
1604495854.5312,-330
1604495854.5332,-170
1604495854.5352,-127
1604495854.5372,-88
1604495854.5392,-23
1604495854.5412,-11
1604495854.5418,-21
1604495854.5432,-9
1604495854.5452,0
1604495854.9202,2
1604495854.9210,11
1604495854.9235,21
1604495854.9261,21
1604495854.9281,19
1604495854.9301,16
1604495854.9321,23
1604495854.9341,45
1604495854.9361,55
1604495854.9381,64
1604495854.9401,88
1604495854.9407,100
1604495854.9421,112
1604495854.9440,134
1604495854.9460,146
1604495854.9481,150
1604495854.9500,155
1604495854.9520,148
1604495854.9540,127
1604495854.9560,98
1604495854.9581,69
1604495854.9600,43
1604495854.9620,14
1604495854.9640,-7
1604495854.9660,-16
1604495854.9681,-28
1604495854.9700,-40
1604495854.9707,-47
1604495854.9720,-47
1604495854.9740,-40
1604495854.9760,-33
1604495854.9781,-19
1604495854.9801,-16
1604495854.9821,-21
1604495854.9841,-11
1604495854.9860,-11
1604495854.9881,-23
1604495854.9900,-14
1604495854.9920,-4
1604495854.9940,-7
1604495854.9961,-14
1604495854.9980,-26
1604495854.9986,-31
1604495855.0000,-26
1604495855.0020,-28
1604495855.0040,-33
1604495855.0060,-28
1604495855.0081,-19
1604495855.0100,-7
1604495855.0120,-7
1604495855.0140,-14
1604495855.0160,-7
1604495855.0180,-2
1604495855.0200,-11
1604495855.0220,-14
1604495855.0240,-16
1604495855.0260,-19
1604495855.0280,-16
1604495855.0286,-16
1604495855.0300,-19
1604495855.0320,-11
1604495855.0340,-2
1604495855.0361,-2
1604495855.0380,-4
1604495855.0400,-7
1604495855.0420,16
1604495855.0440,141
1604495855.0460,383
1604495855.0480,563
1604495855.0500,364
1604495855.0520,-136
1604495855.0540,-373
1604495855.0560,-239
1604495855.4906,-136
1604495855.4918,-117
1604495855.4942,-45
1604495855.4969,-4
1604495855.4989,-16
1604495855.5009,-7
1604495855.5029,2
1604495855.5050,-14
1604495855.5069,-14
1604495855.5089,4
1604495855.5109,23
1604495855.5131,28
1604495855.5149,21
1604495855.5169,16
1604495855.5189,23
1604495855.5209,43
1604495855.5215,69
1604495855.5229,83
1604495855.5249,100
1604495855.5269,127
1604495855.5289,141
1604495855.5308,143
1604495855.5328,158
1604495855.5349,167
1604495855.5368,167
1604495855.5388,155
1604495855.5410,129
1604495855.5429,93
1604495855.5449,69
1604495855.5468,55
1604495855.5489,35
1604495855.5508,-11
1604495855.5514,-52
1604495855.5528,-40
1604495855.5548,-26
1604495855.5568,-31
1604495855.5588,-35
1604495855.5608,-28
1604495855.5628,-21
1604495855.5648,-19
1604495855.5668,-11
1604495855.5688,-7
1604495855.5708,4
1604495855.5728,2
1604495855.5748,-11
1604495855.5768,0
1604495855.5788,14
1604495855.5808,-4
1604495855.5814,-16
1604495855.5828,-14
1604495855.5848,-9
1604495855.5868,-9
1604495855.5888,-23
1604495855.5908,-9
1604495855.5928,0
1604495855.5948,-28
1604495855.5968,-19
1604495855.5988,4
1604495855.6008,-7
1604495855.6028,-2
1604495855.6048,21
1604495855.6068,14
1604495855.6090,-4
1604495855.6108,-7
1604495855.6114,-14
1604495855.6128,-19
1604495855.6148,-9
1604495855.6168,-16
1604495855.6188,-21
1604495855.6208,-7
1604495855.6228,2
1604495855.6248,11
1604495855.6268,7
1604495856.0304,-11
1604495856.0310,26
1604495856.0334,196
1604495856.0361,455
1604495856.0367,556
1604495856.0382,254
1604495856.0401,-222
1604495856.0421,-354
1604495856.0441,-198
1604495856.0461,-131
1604495856.0482,-105
1604495856.0501,-19
1604495856.0521,14
1604495856.0541,-11
1604495856.0561,-11
1604495856.0581,19
1604495856.0600,31
1604495856.0620,40
1604495856.0640,38
1604495856.0660,9
1604495856.0666,23
1604495856.0681,45
1604495856.0700,31
1604495856.0720,28
1604495856.0740,55
1604495856.0760,74
1604495856.0781,88
1604495856.0800,124
1604495856.0820,158
1604495856.0840,155
1604495856.0861,131
1604495856.0881,141
1604495856.0900,170
1604495856.0920,162
1604495856.0940,139
1604495856.0960,134
1604495856.0966,122
1604495856.0980,74
1604495856.1000,28
1604495856.1020,14
1604495856.1042,-4
1604495856.1061,-38
1604495856.1082,-62
1604495856.1100,-67
1604495856.1120,-35
1604495856.1140,-7
1604495856.1160,-9
1604495856.1180,-21
1604495856.1200,-11
1604495856.1221,-4
1604495856.1240,-14
1604495856.1260,-9
1604495856.1266,2
1604495856.1281,-11
1604495856.1300,-23
1604495856.1320,-4
1604495856.1340,-7
1604495856.1360,-19
1604495856.1380,-21
1604495856.1400,-40
1604495856.1420,-47
1604495856.1440,-43
1604495856.1460,-67
1604495856.1481,-50
1604495856.1500,9
1604495856.1520,-4
1604495856.1540,-55
1604495856.1560,-45
1604495856.1566,-7
1604495856.1580,-9
1604495856.1600,-21
1604495856.1620,-9
1604495856.1640,-7
1604495856.6003,-26
1604495856.6012,-38
1604495856.6037,-40
1604495856.6062,-23
1604495856.6083,-11
1604495856.6102,-23
1604495856.6124,-28
1604495856.6142,-35
1604495856.6163,-40
1604495856.6183,-26
1604495856.6202,-7
1604495856.6209,71
1604495856.6222,278
1604495856.6243,512
1604495856.6263,481
1604495856.6283,38
1604495856.6303,-352
1604495856.6322,-306
1604495856.6343,-162
1604495856.6362,-141
1604495856.6382,-74
1604495856.6402,4
1604495856.6422,0
1604495856.6442,-7
1604495856.6462,14
1604495856.6482,33
1604495856.6501,35
1604495856.6507,14
1604495856.6521,-7
1604495856.6541,-2
1604495856.6561,26
1604495856.6582,47
1604495856.6601,62
1604495856.6621,76
1604495856.6641,91
1604495856.6661,95
1604495856.6682,91
1604495856.6702,107
1604495856.6721,134
1604495856.6741,148
1604495856.6761,155
1604495856.6781,153
1604495856.6801,148
1604495856.6807,162
1604495856.6821,155
1604495856.6841,122
1604495856.6861,86
1604495856.6881,50
1604495856.6902,28
1604495856.6921,14
1604495856.6941,-21
1604495856.6961,-47
1604495856.6982,-55
1604495856.7001,-55
1604495856.7021,-33
1604495856.7041,-21
1604495856.7061,-38
1604495856.7082,-31
1604495856.7101,0
1604495856.7107,4
1604495856.7121,0
1604495856.7141,9
1604495856.7161,9
1604495856.7181,-4
1604495856.7201,0
1604495856.7221,2
1604495856.7241,-19
1604495856.7261,-31
1604495856.7282,-14
1604495856.7304,2
1604495856.7322,-2
1604495856.7341,-16
1604495856.7361,-11
1604495857.1999,0
1604495857.2008,0
1604495857.2033,-9
1604495857.2058,-7
1604495857.2078,14
1604495857.2098,23
1604495857.2119,2
1604495857.2139,-16
1604495857.2158,-21
1604495857.2178,-23
1604495857.2198,-26
1604495857.2218,-26
1604495857.2238,-19
1604495857.2258,-11
1604495857.2278,-11
1604495857.2284,-9
1604495857.2298,-7
1604495857.2318,-2
1604495857.2338,35
1604495857.2358,179
1604495857.2378,417
1604495857.2398,563
1604495857.2417,354
1604495857.2438,-119
1604495857.2457,-349
1604495857.2478,-237
1604495857.2498,-131
1604495857.2518,-91
1604495857.2537,-14
1604495857.2557,14
1604495857.2578,2
1604495857.2584,14
1604495857.2598,21
1604495857.2618,14
1604495857.2638,26
1604495857.2658,43
1604495857.2679,40
1604495857.2697,40
1604495857.2717,55
1604495857.2737,64
1604495857.2757,64
1604495857.2778,67
1604495857.2798,76
1604495857.2817,86
1604495857.2837,105
1604495857.2857,129
1604495857.2877,148
1604495857.2885,155
1604495857.2898,155
1604495857.2917,167
1604495857.2937,174
1604495857.2957,160
1604495857.2977,131
1604495857.2997,100
1604495857.3017,69
1604495857.3037,38
1604495857.3057,9
1604495857.3077,-16
1604495857.3097,-31
1604495857.3117,-31
1604495857.3137,-23
1604495857.3157,-19
1604495857.3178,-21
1604495857.3183,-21
1604495857.3197,-14
1604495857.3217,-14
1604495857.3238,-16
1604495857.3257,-9
1604495857.3277,-4
1604495857.3297,-2
1604495857.3317,0
1604495857.3337,-4
1604495857.3358,-14
1604495857.7403,-16
1604495857.7411,-19
1604495857.7436,-26
1604495857.7462,-23
1604495857.7482,-21
1604495857.7488,-23
1604495857.7501,-21
1604495857.7522,-26
1604495857.7541,-31
1604495857.7561,-14
1604495857.7582,-16
1604495857.7601,-33
1604495857.7622,-35
1604495857.7641,-33
1604495857.7661,-35
1604495857.7682,-40
1604495857.7701,-43
1604495857.7721,-33
1604495857.7741,-35
1604495857.7761,-47
1604495857.7781,-33
1604495857.7787,-9
1604495857.7801,-9
1604495857.7821,-2
1604495857.7841,124
1604495857.7863,409
1604495857.7882,663
1604495857.7901,520
1604495857.7921,-69
1604495857.7941,-486
1604495857.7961,-364
1604495857.7981,-179
1604495857.8001,-165
1604495857.8021,-88
1604495857.8041,-11
1604495857.8061,-23
1604495857.8081,-9
1604495857.8087,16
1604495857.8101,-4
1604495857.8121,-7
1604495857.8141,26
1604495857.8161,28
1604495857.8181,16
1604495857.8201,38
1604495857.8221,59
1604495857.8241,52
1604495857.8261,59
1604495857.8281,98
1604495857.8301,122
1604495857.8321,127
1604495857.8341,155
1604495857.8361,198
1604495857.8381,210
1604495857.8387,220
1604495857.8401,234
1604495857.8421,215
1604495857.8441,194
1604495857.8461,177
1604495857.8481,136
1604495857.8501,86
1604495857.8521,40
1604495857.8541,-7
1604495857.8561,-47
1604495857.8581,-59
1604495857.8601,-59
1604495857.8621,-64
1604495857.8641,-64
1604495857.8661,-57
1604495857.8681,-57
1604495857.8687,-52
1604495857.8701,-35
1604495857.8721,-26
1604495857.8741,-31
1604495858.3406,-21
1604495858.3417,-7
1604495858.3441,-14
1604495858.3460,-14
1604495858.3477,-11
1604495858.3497,-26
1604495858.3517,-26
1604495858.3538,-11
1604495858.3557,-23
1604495858.3577,-40
1604495858.3584,-26
1604495858.3597,-7
1604495858.3617,-21
1604495858.3638,-35
1604495858.3657,-40
1604495858.3677,-35
1604495858.3696,-23
1604495858.3716,-35
1604495858.3736,-31
1604495858.3757,-16
1604495858.3776,-28
1604495858.3797,-47
1604495858.3816,-43
1604495858.3836,-26
1604495858.3856,-31
1604495858.3876,4
1604495858.3883,225
1604495858.3896,575
1604495858.3916,704
1604495858.3938,321
1604495858.3956,-275
1604495858.3976,-450
1604495858.3996,-266
1604495858.4016,-174
1604495858.4036,-139
1604495858.4056,-45
1604495858.4076,0
1604495858.4096,-9
1604495858.4116,-7
1604495858.4136,7
1604495858.4156,16
1604495858.4177,21
1604495858.4182,21
1604495858.4197,26
1604495858.4216,26
1604495858.4236,35
1604495858.4256,55
1604495858.4276,64
1604495858.4296,69
1604495858.4316,86
1604495858.4336,127
1604495858.4356,160
1604495858.4376,177
1604495858.4397,191
1604495858.4417,203
1604495858.4437,215
1604495858.4457,225
1604495858.4476,220
1604495858.4482,182
1604495858.4496,122
1604495858.4516,83
1604495858.4536,59
1604495858.4556,28
1604495858.4576,0
1604495858.4596,-23
1604495858.4616,-55
1604495858.4636,-74
1604495858.4656,-71
1604495858.4676,-59
1604495858.4697,-40
1604495858.4716,-45
1604495858.4736,-57
1604495858.4756,-31
1604495858.8512,-26
1604495858.8519,-43
1604495858.8534,-26
1604495858.8553,-2
1604495858.8573,-7
1604495858.8595,-16
1604495858.8613,-14
1604495858.8633,-19
1604495858.8653,-21
1604495858.8673,-16
1604495858.8693,-11
1604495858.8713,-14
1604495858.8733,-33
1604495858.8739,-52
1604495858.8753,-47
1604495858.8773,-38
1604495858.8793,-43
1604495858.8812,-57
1604495858.8833,-59
1604495858.8852,-52
1604495858.8872,-55
1604495858.8893,-38
1604495858.8912,-19
1604495858.8933,-47
1604495858.8954,-67
1604495858.8972,55
1604495858.8993,364
1604495858.9012,695
1604495858.9032,656
1604495858.9038,81
1604495858.9052,-450
1604495858.9072,-402
1604495858.9094,-184
1604495858.9113,-143
1604495858.9132,-91
1604495858.9152,-21
1604495858.9172,-33
1604495858.9192,-31
1604495858.9212,11
1604495858.9232,2
1604495858.9252,-19
1604495858.9272,9
1604495858.9292,23
1604495858.9312,9
1604495858.9332,9
1604495858.9339,23
1604495858.9352,45
1604495858.9372,57
1604495858.9393,62
1604495858.9412,93
1604495858.9432,131
1604495858.9453,148
1604495858.9474,179
1604495858.9492,203
1604495858.9512,208
1604495858.9532,213
1604495858.9552,194
1604495858.9572,170
1604495858.9593,153
1604495858.9612,103
1604495858.9632,43
1604495858.9638,11
1604495858.9652,-7
1604495858.9672,-45
1604495858.9692,-59
1604495858.9712,-35
1604495858.9732,-64
1604495858.9752,-74
1604495858.9772,-9
1604495858.9792,-26
1604495858.9813,-81
1604495858.9832,-38
1604495858.9852,-11
1604495859.4203,-40
1604495859.4211,-19
1604495859.4225,-9
1604495859.4231,-35
1604495859.4245,-23
1604495859.4265,-4
1604495859.4285,-28
1604495859.4305,-38
1604495859.4324,-7
1604495859.4345,-14
1604495859.4366,-28
1604495859.4384,-21
1604495859.4404,-43
1604495859.4424,-64
1604495859.4444,-45
1604495859.4464,-35
1604495859.4484,-52
1604495859.4504,-57
1604495859.4524,-45
1604495859.4530,-28
1604495859.4544,-35
1604495859.4564,-62
1604495859.4584,-69
1604495859.4604,2
1604495859.4625,258
1604495859.4644,625
1604495859.4664,695
1604495859.4684,206
1604495859.4704,-366
1604495859.4724,-419
1604495859.4744,-194
1604495859.4764,-127
1604495859.4784,-122
1604495859.4804,-50
1604495859.4824,-19
1604495859.4830,-33
1604495859.4844,-19
1604495859.4864,-11
1604495859.4884,-31
1604495859.4904,-33
1604495859.4924,-4
1604495859.4943,16
1604495859.4963,11
1604495859.4984,14
1604495859.5003,38
1604495859.5024,50
1604495859.5044,52
1604495859.5064,71
1604495859.5084,103
1604495859.5103,139
1604495859.5124,170
1604495859.5130,191
1604495859.5143,196
1604495859.5164,201
1604495859.5184,198
1604495859.5203,174
1604495859.5224,136
1604495859.5244,93
1604495859.5264,55
1604495859.5284,21
1604495859.5304,0
1604495859.5325,-21
1604495859.5344,-52
1604495859.5364,-55
1604495859.5384,-38
1604495859.5404,-59
1604495859.5424,-71
1604495859.5430,-43
1604495859.5444,-38
1604495859.5464,-47
1604495859.5484,-38
1604495859.5504,-26
1604495859.5524,-19
1604495859.9603,-19
1604495859.9611,-16
1604495859.9636,-4
1604495859.9663,-4
1604495859.9682,-26
1604495859.9702,-23
1604495859.9722,-4
1604495859.9741,-7
1604495859.9747,-23
1604495859.9762,-40
1604495859.9782,-43
1604495859.9802,-45
1604495859.9821,-40
1604495859.9841,-35
1604495859.9862,-45
1604495859.9882,-45
1604495859.9901,-35
1604495859.9921,-40
1604495859.9941,-45
1604495859.9961,-59
1604495859.9981,-81
1604495860.0002,33
1604495860.0021,354
1604495860.0041,680
1604495860.0047,603
1604495860.0061,21
1604495860.0082,-433
1604495860.0101,-354
1604495860.0121,-172
1604495860.0141,-141
1604495860.0162,-79
1604495860.0181,-26
1604495860.0201,-50
1604495860.0221,-50
1604495860.0241,-31
1604495860.0261,-45
1604495860.0281,-35
1604495860.0301,-4
1604495860.0321,-2
1604495860.0342,-7
1604495860.0347,16
1604495860.0361,40
1604495860.0381,40
1604495860.0401,35
1604495860.0421,55
1604495860.0441,91
1604495860.0461,112
1604495860.0481,131
1604495860.0501,162
1604495860.0521,179
1604495860.0541,191
1604495860.0561,201
1604495860.0581,179
1604495860.0601,141
1604495860.0621,117
1604495860.0641,83
1604495860.0647,33
1604495860.0661,-11
1604495860.0681,-33
1604495860.0701,-33
1604495860.0721,-31
1604495860.0741,-45
1604495860.0761,-59
1604495860.0781,-55
1604495860.0801,-57
1604495860.0821,-55
1604495860.0841,-28
1604495860.0861,-14
1604495860.0881,-19
1604495860.0901,-19
1604495860.0921,-19
1604495860.0941,-14
1604495860.0947,-9
1604495860.5601,2
1604495860.5610,2
1604495860.5635,-9
1604495860.5662,-9
1604495860.5682,7
1604495860.5701,14
1604495860.5721,0
1604495860.5741,-4
1604495860.5761,-9
1604495860.5781,-28
1604495860.5801,-23
1604495860.5821,-11
1604495860.5841,-19
1604495860.5861,-19
1604495860.5867,-14
1604495860.5881,-16
1604495860.5900,-11
1604495860.5922,-16
1604495860.5940,-28
1604495860.5960,-31
1604495860.5981,64
1604495860.6000,354
1604495860.6020,659
1604495860.6040,560
1604495860.6060,14
1604495860.6080,-371
1604495860.6100,-282
1604495860.6120,-150
1604495860.6140,-146
1604495860.6160,-76
1604495860.6167,-9
1604495860.6180,-16
1604495860.6200,-9
1604495860.6220,11
1604495860.6241,0
1604495860.6260,0
1604495860.6280,23
1604495860.6300,26
1604495860.6320,16
1604495860.6340,26
1604495860.6360,45
1604495860.6380,55
1604495860.6400,59
1604495860.6420,76
1604495860.6440,103
1604495860.6460,129
1604495860.6466,143
1604495860.6480,160
1604495860.6500,177
1604495860.6520,191
1604495860.6539,196
1604495860.6560,179
1604495860.6580,150
1604495860.6600,129
1604495860.6620,105
1604495860.6640,69
1604495860.6660,33
1604495860.6680,7
1604495860.6700,-4
1604495860.6720,-16
1604495860.6740,-28
1604495860.6760,-26
1604495860.6766,-21
1604495860.6780,-28
1604495860.6800,-21
1604495860.6820,-2
1604495860.6840,0
1604495860.6860,-4
1604495860.6881,2
1604495860.6900,23
1604495860.6912,33
1604495860.6930,21
1604495860.6950,11
1604495861.1000,11
1604495861.1009,7
1604495861.1026,4
1604495861.1049,16
1604495861.1069,23
1604495861.1090,4
1604495861.1109,-4
1604495861.1129,28
1604495861.1149,38
1604495861.1169,7
1604495861.1189,-7
1604495861.1209,2
1604495861.1229,2
1604495861.1249,-16
1604495861.1269,-28
1604495861.1289,-19
1604495861.1308,4
1604495861.1328,7
1604495861.1335,-16
1604495861.1348,-19
1604495861.1368,-7
1604495861.1389,-14
1604495861.1408,45
1604495861.1428,287
1604495861.1448,589
1604495861.1468,615
1604495861.1489,170
1604495861.1508,-313
1604495861.1528,-349
1604495861.1548,-182
1604495861.1568,-141
1604495861.1588,-100
1604495861.1608,-4
1604495861.1628,14
1604495861.1634,-21
1604495861.1648,-7
1604495861.1668,21
1604495861.1689,4
1604495861.1709,-4
1604495861.1728,14
1604495861.1748,31
1604495861.1768,26
1604495861.1788,26
1604495861.1808,45
1604495861.1828,57
1604495861.1848,52
1604495861.1870,76
1604495861.1889,112
1604495861.1908,131
1604495861.1928,153
1604495861.1934,179
1604495861.1948,189
1604495861.1968,194
1604495861.1988,191
1604495861.2008,167
1604495861.2028,131
1604495861.2048,88
1604495861.2068,50
1604495861.2088,23
1604495861.2108,4
1604495861.2128,-9
1604495861.2148,-19
1604495861.2168,-45
1604495861.2188,-69
1604495861.2209,-57
1604495861.2229,-35
1604495861.2234,-33
1604495861.2248,-28
1604495861.2268,-9
1604495861.2289,-2
1604495861.2308,-9
1604495861.2328,0
1604495861.2348,4
1604495861.6700,-2
1604495861.6708,2
1604495861.6732,-2
1604495861.6758,-11
1604495861.6779,-2
1604495861.6798,-2
1604495861.6819,-14
1604495861.6838,-23
1604495861.6844,-21
1604495861.6859,-16
1604495861.6880,-21
1604495861.6898,-23
1604495861.6918,-21
1604495861.6938,-26
1604495861.6958,-26
1604495861.6980,-26
1604495861.6998,-14
1604495861.7018,-2
1604495861.7038,-4
1604495861.7058,2
1604495861.7078,23
1604495861.7098,19
1604495861.7118,-14
1604495861.7137,-23
1604495861.7146,-9
1604495861.7158,-2
1604495861.7178,0
1604495861.7198,-7
1604495861.7217,-14
1604495861.7237,-11
1604495861.7257,-16
1604495861.7278,-21
1604495861.7298,-16
1604495861.7318,-4
1604495861.7337,52
1604495861.7357,256
1604495861.7378,546
1604495861.7397,579
1604495861.7417,155
1604495861.7437,-316
1604495861.7444,-349
1604495861.7457,-172
1604495861.7478,-115
1604495861.7497,-76
1604495861.7518,-16
1604495861.7537,-11
1604495861.7557,-14
1604495861.7578,19
1604495861.7597,23
1604495861.7617,-9
1604495861.7637,-9
1604495861.7657,19
1604495861.7678,35
1604495861.7697,38
1604495861.7718,33
1604495861.7737,35
1604495861.7743,52
1604495861.7757,64
1604495861.7778,71
1604495861.7797,98
1604495861.7817,139
1604495861.7837,155
1604495861.7857,158
1604495861.7878,172
1604495861.7897,189
1604495861.7917,182
1604495861.7937,165
1604495861.7958,148
1604495861.7978,112
1604495861.7997,71
1604495861.8017,52
1604495861.8037,28
1604495861.8043,2
1604495862.2101,-14
1604495862.2109,-19
1604495862.2136,-19
1604495862.2160,-28
1604495862.2180,-31
1604495862.2200,-19
1604495862.2220,-16
1604495862.2240,-14
1604495862.2260,-2
1604495862.2279,4
1604495862.2299,9
1604495862.2320,7
1604495862.2326,-4
1604495862.2339,-9
1604495862.2359,-4
1604495862.2380,7
1604495862.2400,14
1604495862.2419,16
1604495862.2439,9
1604495862.2459,-7
1604495862.2480,-16
1604495862.2499,-2
1604495862.2519,-4
1604495862.2539,-14
1604495862.2559,0
1604495862.2579,0
1604495862.2599,-23
1604495862.2619,-26
1604495862.2625,-7
1604495862.2639,-4
1604495862.2659,-19
1604495862.2679,-16
1604495862.2699,2
1604495862.2719,-14
1604495862.2739,-35
1604495862.2759,-28
1604495862.2779,-16
1604495862.2799,-7
1604495862.2819,0
1604495862.2839,-4
1604495862.2859,-21
1604495862.2879,-26
1604495862.2899,-14
1604495862.2919,4
1604495862.2925,7
1604495862.2939,-2
1604495862.2959,-2
1604495862.2979,4
1604495862.2999,2
1604495862.3019,-7
1604495862.3039,-14
1604495862.3059,-11
1604495862.3080,-11
1604495862.3100,4
1604495862.3119,11
1604495862.3139,-11
1604495862.3159,7
1604495862.3181,131
1604495862.3199,369
1604495862.3205,594
1604495862.3219,481
1604495862.3239,-19
1604495862.3259,-354
1604495862.3279,-261
1604495862.3299,-127
1604495862.3319,-107
1604495862.3339,-50
1604495862.3359,7
1604495862.3379,2
1604495862.3399,9
1604495862.3419,33
1604495862.3439,35
1604495862.3459,33
1604495862.7804,35
1604495862.7812,31
1604495862.7829,38
1604495862.7853,57
1604495862.7873,64
1604495862.7892,55
1604495862.7913,52
1604495862.7933,67
1604495862.7953,98
1604495862.7974,127
1604495862.7993,139
1604495862.8013,150
1604495862.8033,165
1604495862.8053,177
1604495862.8073,174
1604495862.8092,177
1604495862.8112,170
1604495862.8132,141
1604495862.8138,107
1604495862.8152,79
1604495862.8172,45
1604495862.8193,19
1604495862.8212,11
1604495862.8232,7
1604495862.8252,-9
1604495862.8273,-31
1604495862.8292,-33
1604495862.8312,-16
1604495862.8332,-9
1604495862.8352,-23
1604495862.8372,-21
1604495862.8394,-7
1604495862.8412,-2
1604495862.8431,-7
1604495862.8438,0
1604495862.8452,9
1604495862.8472,2
1604495862.8493,-7
1604495862.8512,4
1604495862.8532,19
1604495862.8552,11
1604495862.8572,-4
1604495862.8592,-4
1604495862.8611,4
1604495862.8632,0
1604495862.8651,-16
1604495862.8671,-19
1604495862.8691,-11
1604495862.8713,-9
1604495862.8731,-16
