,ecg
1606836935.2705,3047.0
1606836935.2723,5203.0
1606836935.2748,6257.0
1606836935.2775,7045.0
1606836935.2794,7984.0
1606836935.2814,8630.0
1606836935.2835,9102.0
1606836935.2854,9613.0
1606836935.2874,10026.0
1606836935.2894,10332.0
1606836935.2914,10620.0
1606836935.2934,10855.0
1606836935.2956,11024.0
1606836935.2978,11185.0
1606836935.3002,11351.0
1606836935.3028,11483.0
1606836935.3049,11589.0
1606836935.3064,11696.0
1606836935.3084,11804.0
1606836935.3104,11894.0
1606836935.3124,11965.0
1606836935.3144,12029.0
1606836935.3164,12090.0
1606836935.3184,12146.0
1606836935.3204,12185.0
1606836935.3224,12215.0
1606836935.3244,12251.0
1606836935.3263,12273.0
1606836935.3283,12276.0
1606836935.3303,12290.0
1606836935.3323,12308.0
1606836935.3343,12303.0
1606836935.3363,12298.0
1606836935.3383,12298.0
1606836935.3403,12293.0
1606836935.3423,12273.0
1606836935.3444,12244.0
1606836935.3463,12227.0
1606836935.3483,12222.0
1606836935.3504,12193.0
1606836935.3523,12141.0
1606836935.3544,12112.0
1606836935.3563,12092.0
1606836935.3583,12041.0
1606836935.3603,11990.0
1606836935.3623,11963.0
1606836935.3644,11926.0
1606836935.3663,11858.0
1606836935.3683,11794.0
1606836935.3703,11760.0
1606836935.3726,11721.0
1606836935.3744,11652.0
1606836935.3762,11591.0
1606836935.3782,11535.0
1606836935.3802,11466.0
1606836935.3822,11405.0
1606836935.3843,11351.0
1606836935.3862,11285.0
1606836935.3882,11212.0
1606836935.3902,11148.0
1606836935.3923,11085.0
1606836935.3943,11031.0
1606836935.3962,10980.0
1606836935.3982,10914.0
1606836935.4002,10843.0
1606836935.4022,10784.0
1606836935.4043,10716.0
1606836935.4062,10613.0
1606836935.4082,10513.0
1606836935.4102,10434.0
1606836935.4122,10361.0
1606836935.4143,10297.0
1606836935.4162,10275.0
1606836935.8386,10302.0
1606836935.8398,10368.0
1606836935.8422,10427.0
1606836935.8449,10451.0
1606836935.8469,10527.0
1606836935.8489,10789.0
1606836935.8509,11053.0
1606836935.8529,10740.0
1606836935.8549,9835.0
1606836935.8569,9229.0
1606836935.8589,9182.0
1606836935.8609,9128.0
1606836935.8629,8974.0
1606836935.8649,8928.0
1606836935.8669,8886.0
1606836935.8689,8791.0
1606836935.8709,8720.0
1606836935.8729,8671.0
1606836935.8749,8605.0
1606836935.8769,8542.0
1606836935.8789,8476.0
1606836935.8809,8400.0
1606836935.8829,8334.0
1606836935.8849,8277.0
1606836935.8868,8211.0
1606836935.8888,8145.0
1606836935.8908,8079.0
1606836935.8928,8008.0
1606836935.8951,7938.0
1606836935.8969,7879.0
1606836935.8988,7827.0
1606836935.9009,7776.0
1606836935.9028,7713.0
1606836935.9049,7632.0
1606836935.9068,7561.0
1606836935.9088,7495.0
1606836935.9108,7414.0
1606836935.9128,7319.0
1606836935.9148,7226.0
1606836935.9168,7128.0
1606836935.9188,7028.0
1606836935.9208,6930.0
1606836935.9228,6864.0
1606836935.9249,6808.0
1606836935.9268,6729.0
1606836935.9288,6649.0
1606836935.9308,6590.0
1606836935.9328,6534.0
1606836935.9348,6473.0
1606836935.9368,6412.0
1606836935.9388,6348.0
1606836935.9408,6279.0
1606836935.9428,6216.0
1606836935.9448,6155.0
1606836935.9468,6099.0
1606836935.9488,6045.0
1606836935.9508,5979.0
1606836935.9528,5915.0
1606836935.9548,5859.0
1606836935.9568,5798.0
1606836935.9588,5734.0
1606836935.9608,5675.0
1606836935.9628,5617.0
1606836935.9648,5553.0
1606836935.9668,5494.0
1606836935.9689,5441.0
1606836935.9708,5384.0
1606836935.9728,5318.0
1606836935.9748,5252.0
1606836935.9768,5191.0
1606836935.9788,5137.0
1606836935.9808,5079.0
1606836935.9828,5015.0
1606836936.409,4964.0
1606836936.4099,4908.0
1606836936.4124,4839.0
1606836936.4151,4795.0
1606836936.417,4776.0
1606836936.419,4736.0
1606836936.4213,4680.0
1606836936.423,4626.0
1606836936.4251,4568.0
1606836936.427,4511.0
1606836936.429,4448.0
1606836936.431,4379.0
1606836936.433,4333.0
1606836936.435,4308.0
1606836936.4369,4306.0
1606836936.4389,4362.0
1606836936.441,4480.0
1606836936.4429,4577.0
1606836936.445,4626.0
1606836936.4469,4761.0
1606836936.449,5098.0
1606836936.4509,5331.0
1606836936.4529,4868.0
1606836936.455,3949.0
1606836936.4569,3533.0
1606836936.4589,3599.0
1606836936.4609,3523.0
1606836936.4629,3406.0
1606836936.465,3423.0
1606836936.4669,3408.0
1606836936.469,3350.0
1606836936.4709,3333.0
1606836936.4729,3316.0
1606836936.4751,3274.0
1606836936.4769,3237.0
1606836936.4789,3215.0
1606836936.481,3196.0
1606836936.4829,3171.0
1606836936.485,3137.0
1606836936.4869,3115.0
1606836936.489,3098.0
1606836936.4909,3071.0
1606836936.4929,3042.0
1606836936.495,3020.0
1606836936.4969,3003.0
1606836936.4989,2981.0
1606836936.501,2963.0
1606836936.5029,2949.0
1606836936.505,2922.0
1606836936.5069,2892.0
1606836936.509,2861.0
1606836936.5109,2817.0
1606836936.5129,2756.0
1606836936.5149,2690.0
1606836936.5169,2633.0
1606836936.5189,2589.0
1606836936.5209,2550.0
1606836936.5231,2518.0
1606836936.525,2489.0
1606836936.5269,2462.0
1606836936.5289,2438.0
1606836936.5309,2411.0
1606836936.5329,2384.0
1606836936.535,2362.0
1606836936.5369,2337.0
1606836936.5389,2308.0
1606836936.5409,2284.0
1606836936.5429,2262.0
1606836936.545,2237.0
1606836936.5469,2215.0
1606836936.5489,2198.0
1606836936.5509,2176.0
1606836936.5529,2152.0
1606836936.9486,2132.0
1606836936.9495,2115.0
1606836936.952,2093.0
1606836936.9546,2066.0
1606836936.9566,2039.0
1606836936.9586,2019.0
1606836936.9607,1997.0
1606836936.9626,1971.0
1606836936.9647,1949.0
1606836936.9665,1927.0
1606836936.9685,1897.0
1606836936.9705,1861.0
1606836936.9726,1824.0
1606836936.9746,1807.0
1606836936.9766,1799.0
1606836936.9786,1792.0
1606836936.9805,1790.0
1606836936.9825,1780.0
1606836936.9846,1750.0
1606836936.9865,1716.0
1606836936.9885,1689.0
1606836936.9904,1665.0
1606836936.9925,1648.0
1606836936.9946,1636.0
1606836936.9965,1636.0
1606836936.9985,1665.0
1606836937.0005,1755.0
1606836937.0025,1907.0
1606836937.0046,2054.0
1606836937.0065,2161.0
1606836937.0085,2345.0
1606836937.0105,2694.0
1606836937.0125,2883.0
1606836937.0146,2362.0
1606836937.0166,1472.0
1606836937.0187,1156.0
1606836937.0206,1261.0
1606836937.0225,1190.0
1606836937.0245,1112.0
1606836937.0265,1164.0
1606836937.0285,1161.0
1606836937.0305,1127.0
1606836937.0326,1139.0
1606836937.0345,1151.0
1606836937.0365,1142.0
1606836937.0385,1142.0
1606836937.0405,1144.0
1606836937.0425,1137.0
1606836937.0446,1134.0
1606836937.0466,1137.0
1606836937.0485,1134.0
1606836937.0504,1132.0
1606836937.0525,1132.0
1606836937.0546,1134.0
1606836937.0565,1132.0
1606836937.0585,1134.0
1606836937.0605,1139.0
1606836937.0625,1146.0
1606836937.0645,1149.0
1606836937.0665,1149.0
1606836937.0685,1144.0
1606836937.0705,1132.0
1606836937.0725,1105.0
1606836937.0746,1068.0
1606836937.0765,1029.0
1606836937.0786,995.0
1606836937.0805,968.0
1606836937.0825,951.0
1606836937.0845,939.0
1606836937.0866,929.0
1606836937.0885,921.0
1606836937.0905,914.0
1606836937.0925,902.0
1606836937.4893,892.0
1606836937.4903,890.0
1606836937.4928,887.0
1606836937.4955,880.0
1606836937.4975,875.0
1606836937.4994,865.0
1606836937.5015,858.0
1606836937.5034,853.0
1606836937.5054,841.0
1606836937.5074,826.0
1606836937.5094,824.0
1606836937.5114,824.0
1606836937.5134,814.0
1606836937.5157,811.0
1606836937.5174,809.0
1606836937.5193,802.0
1606836937.5213,792.0
1606836937.5233,784.0
1606836937.5253,772.0
1606836937.5273,758.0
1606836937.5293,753.0
1606836937.5313,760.0
1606836937.5333,770.0
1606836937.5353,770.0
1606836937.5374,762.0
1606836937.5393,753.0
1606836937.5413,738.0
1606836937.5433,723.0
1606836937.5454,704.0
1606836937.5473,692.0
1606836937.5493,699.0
1606836937.5513,723.0
1606836937.5534,784.0
1606836937.5553,914.0
1606836937.5573,1093.0
1606836937.5593,1242.0
1606836937.5614,1369.0
1606836937.5633,1599.0
1606836937.5654,1953.0
1606836937.5673,1995.0
1606836937.5693,1308.0
1606836937.5713,525.0
1606836937.5734,396.0
1606836937.5754,471.0
1606836937.5774,364.0
1606836937.5793,344.0
1606836937.5813,405.0
1606836937.5833,391.0
1606836937.5853,383.0
1606836937.5873,418.0
1606836937.5893,425.0
1606836937.5913,420.0
1606836937.5933,435.0
1606836937.5954,445.0
1606836937.5974,445.0
1606836937.5993,452.0
1606836937.6013,462.0
1606836937.6033,469.0
1606836937.6054,476.0
1606836937.6073,479.0
1606836937.6093,486.0
1606836937.6113,498.0
1606836937.6133,511.0
1606836937.6153,518.0
1606836937.6175,523.0
1606836937.6194,533.0
1606836937.6214,545.0
1606836937.6233,550.0
1606836937.6253,545.0
1606836937.6273,525.0
1606836937.6293,493.0
1606836937.6314,462.0
1606836937.6333,440.0
1606836938.059,427.0
1606836938.0601,420.0
1606836938.0625,413.0
1606836938.0652,413.0
1606836938.0671,410.0
1606836938.0692,401.0
1606836938.0713,396.0
1606836938.0731,401.0
1606836938.0751,405.0
1606836938.0771,401.0
1606836938.0791,393.0
1606836938.0811,388.0
1606836938.0831,388.0
1606836938.0851,388.0
1606836938.087,386.0
1606836938.089,391.0
1606836938.091,396.0
1606836938.093,391.0
1606836938.0951,391.0
1606836938.0971,396.0
1606836938.099,396.0
1606836938.1011,388.0
1606836938.103,381.0
1606836938.1051,376.0
1606836938.107,374.0
1606836938.1091,366.0
1606836938.111,359.0
1606836938.1131,354.0
1606836938.1152,357.0
1606836938.117,366.0
1606836938.1191,381.0
1606836938.1211,393.0
1606836938.123,388.0
1606836938.125,371.0
1606836938.127,359.0
1606836938.1291,354.0
1606836938.1311,342.0
1606836938.133,337.0
1606836938.1351,349.0
1606836938.1371,381.0
1606836938.139,449.0
1606836938.1411,586.0
1606836938.1432,765.0
1606836938.1451,917.0
1606836938.147,1034.0
1606836938.149,1232.0
1606836938.151,1557.0
1606836938.153,1665.0
1606836938.1551,1076.0
1606836938.1571,254.0
1606836938.159,51.0
1606836938.1611,151.0
1606836938.163,53.0
1606836938.1651,14.0
1606836938.1671,88.0
1606836938.169,85.0
1606836938.171,70.0
1606836938.173,100.0
1606836938.1751,117.0
1606836938.1771,117.0
1606836938.179,134.0
1606836938.181,144.0
1606836938.183,146.0
1606836938.1851,156.0
1606836938.187,166.0
1606836938.189,171.0
1606836938.191,180.0
1606836938.193,185.0
1606836938.1951,188.0
1606836938.197,200.0
1606836938.199,212.0
1606836938.2011,220.0
1606836938.203,232.0
1606836938.6593,246.0
1606836938.6603,256.0
1606836938.6628,264.0
1606836938.6655,266.0
1606836938.6675,256.0
1606836938.6694,239.0
1606836938.6715,212.0
1606836938.6734,185.0
1606836938.6753,176.0
1606836938.6773,176.0
1606836938.6793,168.0
1606836938.6813,163.0
1606836938.6833,168.0
1606836938.6853,173.0
1606836938.6873,171.0
1606836938.6893,176.0
1606836938.6913,185.0
1606836938.6933,185.0
1606836938.6953,185.0
1606836938.6973,193.0
1606836938.6994,195.0
1606836938.7013,190.0
1606836938.7033,185.0
1606836938.7053,190.0
1606836938.7073,195.0
1606836938.7093,193.0
1606836938.7113,195.0
1606836938.7133,202.0
1606836938.7154,210.0
1606836938.7174,210.0
1606836938.7193,202.0
1606836938.7213,198.0
1606836938.7233,202.0
1606836938.7253,210.0
1606836938.7273,210.0
1606836938.7293,202.0
1606836938.7313,200.0
1606836938.7333,200.0
1606836938.7353,195.0
1606836938.7373,195.0
1606836938.7393,207.0
1606836938.7413,220.0
1606836938.7433,229.0
1606836938.7453,237.0
1606836938.7473,232.0
1606836938.7493,212.0
1606836938.7513,193.0
1606836938.7533,190.0
1606836938.7553,188.0
1606836938.7573,183.0
1606836938.7593,193.0
1606836938.7613,242.0
1606836938.7633,337.0
1606836938.7653,479.0
1606836938.7673,628.0
1606836938.7693,740.0
1606836938.7713,858.0
1606836938.7733,1122.0
1606836938.7753,1494.0
1606836938.7773,1491.0
1606836938.7793,750.0
1606836938.7813,-26.0
1606836938.7833,-114.0
1606836938.7853,-2.0
1606836938.7873,-90.0
1606836938.7893,-105.0
1606836938.7913,-41.0
1606836938.7933,-46.0
1606836938.7953,-56.0
1606836938.7973,-31.0
1606836938.7993,-14.0
1606836938.8015,-9.0
1606836938.8033,0.0
1606836939.1995,14.0
1606836939.2005,34.0
1606836939.2023,41.0
1606836939.2043,39.0
1606836939.2063,46.0
1606836939.2083,63.0
1606836939.2103,75.0
1606836939.2123,85.0
1606836939.2143,95.0
1606836939.2162,110.0
1606836939.2182,122.0
1606836939.2202,124.0
1606836939.2222,124.0
1606836939.2242,139.0
1606836939.2263,151.0
1606836939.2282,146.0
1606836939.2302,139.0
1606836939.2322,129.0
1606836939.2342,105.0
1606836939.2362,85.0
1606836939.2381,78.0
1606836939.2401,78.0
1606836939.2421,78.0
1606836939.2442,80.0
1606836939.2462,88.0
1606836939.2482,90.0
1606836939.2501,90.0
1606836939.2521,92.0
1606836939.2542,97.0
1606836939.2562,102.0
1606836939.2582,107.0
1606836939.2601,107.0
1606836939.2621,114.0
1606836939.2641,124.0
1606836939.2661,127.0
1606836939.2682,124.0
1606836939.2702,127.0
1606836939.2722,129.0
1606836939.2742,129.0
1606836939.2762,134.0
1606836939.2781,139.0
1606836939.2801,141.0
1606836939.2822,139.0
1606836939.2842,136.0
1606836939.2862,139.0
1606836939.2882,139.0
1606836939.2901,136.0
1606836939.2922,139.0
1606836939.2942,146.0
1606836939.2963,163.0
1606836939.2982,178.0
1606836939.3001,183.0
1606836939.3021,183.0
1606836939.3042,171.0
1606836939.3062,151.0
1606836939.3083,139.0
1606836939.3102,132.0
1606836939.3121,136.0
1606836939.3142,161.0
1606836939.3161,202.0
1606836939.3181,293.0
1606836939.3202,437.0
1606836939.3221,586.0
1606836939.3242,694.0
1606836939.3262,826.0
1606836939.3281,1120.0
1606836939.3301,1484.0
1606836939.3322,1423.0
1606836939.3342,640.0
1606836939.3362,-97.0
1606836939.3381,-136.0
1606836939.3401,-31.0
1606836939.3421,-129.0
1606836939.7388,-136.0
1606836939.7398,-70.0
1606836939.7422,-78.0
1606836939.7449,-78.0
1606836939.7468,-41.0
1606836939.7488,-31.0
1606836939.751,-26.0
1606836939.7528,-9.0
1606836939.7548,-4.0
1606836939.7569,-9.0
1606836939.7588,-4.0
1606836939.7608,9.0
1606836939.7628,22.0
1606836939.7649,31.0
1606836939.7667,44.0
1606836939.7688,56.0
1606836939.7707,68.0
1606836939.7727,78.0
1606836939.7748,90.0
1606836939.7767,107.0
1606836939.7787,117.0
1606836939.7807,127.0
1606836939.7827,136.0
1606836939.7848,136.0
1606836939.7867,117.0
1606836939.7887,92.0
1606836939.7908,75.0
1606836939.793,66.0
1606836939.7948,51.0
1606836939.7954,48.0
1606836939.7967,53.0
1606836939.7987,56.0
1606836939.8007,56.0
1606836939.8027,63.0
1606836939.8048,70.0
1606836939.8067,75.0
1606836939.8087,78.0
1606836939.8108,78.0
1606836939.8127,85.0
1606836939.8148,90.0
1606836939.8167,95.0
1606836939.8187,100.0
1606836939.8207,107.0
1606836939.8227,112.0
1606836939.8248,112.0
1606836939.8254,117.0
1606836939.8267,122.0
1606836939.8287,124.0
1606836939.8307,129.0
1606836939.8327,132.0
1606836939.8348,129.0
1606836939.8367,132.0
1606836939.8387,134.0
1606836939.8407,127.0
1606836939.8427,119.0
1606836939.8448,114.0
1606836939.8467,117.0
1606836939.8488,119.0
1606836939.8507,124.0
1606836939.8528,141.0
1606836939.8548,156.0
1606836939.8554,161.0
1606836939.8567,158.0
1606836939.8587,149.0
1606836939.8607,139.0
1606836939.8627,129.0
1606836939.8648,122.0
1606836939.8667,127.0
1606836939.8687,149.0
1606836939.8707,193.0
1606836939.8728,283.0
1606836939.8748,440.0
1606836939.8767,616.0
1606836940.3087,758.0
1606836940.3099,897.0
1606836940.3116,1159.0
1606836940.314,1496.0
1606836940.316,1401.0
1606836940.3182,596.0
1606836940.32,-95.0
1606836940.322,-117.0
1606836940.324,-66.0
1606836940.3259,-180.0
1606836940.3279,-168.0
1606836940.3299,-105.0
1606836940.3319,-122.0
1606836940.334,-117.0
1606836940.3359,-83.0
1606836940.3378,-73.0
1606836940.3399,-63.0
1606836940.3419,-46.0
1606836940.3425,-41.0
1606836940.3438,-39.0
1606836940.3458,-22.0
1606836940.3478,-7.0
1606836940.3498,-2.0
1606836940.3518,2.0
1606836940.3538,12.0
1606836940.356,19.0
1606836940.3579,24.0
1606836940.3599,39.0
1606836940.3618,56.0
1606836940.3638,68.0
1606836940.3658,80.0
1606836940.3678,95.0
1606836940.3698,107.0
1606836940.3718,107.0
1606836940.3725,95.0
1606836940.3738,78.0
1606836940.3761,56.0
1606836940.3779,39.0
1606836940.3798,31.0
1606836940.3818,34.0
1606836940.3838,39.0
1606836940.3859,41.0
1606836940.3878,39.0
1606836940.3898,41.0
1606836940.3919,51.0
1606836940.394,48.0
1606836940.3958,46.0
1606836940.3979,56.0
1606836940.3998,63.0
1606836940.4018,58.0
1606836940.4026,58.0
1606836940.4049,61.0
1606836940.4068,63.0
1606836940.4088,66.0
1606836940.4109,70.0
1606836940.4128,73.0
1606836940.415,73.0
1606836940.4169,78.0
1606836940.4188,85.0
1606836940.4208,88.0
1606836940.4228,92.0
1606836940.4249,97.0
1606836940.4268,97.0
1606836940.4289,95.0
1606836940.4308,97.0
1606836940.4329,95.0
1606836940.4335,92.0
1606836940.4349,97.0
1606836940.4368,100.0
1606836940.4388,97.0
1606836940.4408,97.0
1606836940.4428,92.0
1606836940.4449,85.0
1606836940.8491,85.0
1606836940.85,100.0
1606836940.8512,122.0
1606836940.8532,134.0
1606836940.8552,134.0
1606836940.8571,129.0
1606836940.8591,122.0
1606836940.8612,105.0
1606836940.8617,88.0
1606836940.8641,80.0
1606836940.8661,90.0
1606836940.868,112.0
1606836940.8701,161.0
1606836940.8721,269.0
1606836940.8741,432.0
1606836940.876,601.0
1606836940.878,728.0
1606836940.8801,885.0
1606836940.882,1188.0
1606836940.8841,1455.0
1606836940.8861,1129.0
1606836940.8881,283.0
1606836940.89,-154.0
1606836940.892,-75.0
1606836940.8927,-110.0
1606836940.8941,-202.0
1606836940.896,-144.0
1606836940.8981,-112.0
1606836940.9002,-134.0
1606836940.9021,-112.0
1606836940.9043,-80.0
1606836940.9062,-78.0
1606836940.9081,-73.0
1606836940.9101,-56.0
1606836940.9122,-46.0
1606836940.9142,-44.0
1606836940.9161,-34.0
1606836940.918,-19.0
1606836940.9201,-14.0
1606836940.9207,-9.0
1606836940.9221,0.0
1606836940.9242,7.0
1606836940.926,19.0
1606836940.928,36.0
1606836940.9301,53.0
1606836940.932,66.0
1606836940.9341,78.0
1606836940.936,92.0
1606836940.938,105.0
1606836940.9402,105.0
1606836940.9421,88.0
1606836940.9441,63.0
1606836940.946,46.0
1606836940.948,34.0
1606836940.95,22.0
1606836940.9507,26.0
1606836940.953,31.0
1606836940.9551,26.0
1606836940.9571,29.0
1606836940.9591,36.0
1606836940.9611,41.0
1606836940.963,48.0
1606836940.965,53.0
1606836940.9671,58.0
1606836940.969,61.0
1606836940.971,61.0
1606836940.973,63.0
1606836940.9751,68.0
1606836940.977,70.0
1606836940.979,73.0
1606836940.9811,73.0
1606836940.9817,75.0
1606836940.9831,83.0
1606836941.4189,80.0
1606836941.4199,78.0
1606836941.4224,83.0
1606836941.4251,85.0
1606836941.4271,75.0
1606836941.4291,73.0
1606836941.431,83.0
1606836941.433,85.0
1606836941.435,78.0
1606836941.4369,80.0
1606836941.4389,83.0
1606836941.4409,80.0
1606836941.4432,78.0
1606836941.445,78.0
1606836941.4469,85.0
1606836941.4491,85.0
1606836941.451,75.0
1606836941.453,75.0
1606836941.4549,85.0
1606836941.4569,95.0
1606836941.4589,112.0
1606836941.4609,127.0
1606836941.4629,129.0
1606836941.4649,114.0
1606836941.467,102.0
1606836941.469,100.0
1606836941.471,95.0
1606836941.4729,88.0
1606836941.4749,92.0
1606836941.4769,122.0
1606836941.479,183.0
1606836941.4809,300.0
1606836941.4829,462.0
1606836941.485,613.0
1606836941.4869,731.0
1606836941.4889,926.0
1606836941.4909,1254.0
1606836941.4929,1354.0
1606836941.4949,787.0
1606836941.4969,24.0
1606836941.499,-158.0
1606836941.5009,-78.0
1606836941.5029,-171.0
1606836941.505,-202.0
1606836941.5069,-136.0
1606836941.5089,-136.0
1606836941.5109,-146.0
1606836941.5129,-117.0
1606836941.5149,-102.0
1606836941.5169,-95.0
1606836941.5189,-78.0
1606836941.5209,-66.0
1606836941.5229,-61.0
1606836941.525,-46.0
1606836941.5269,-31.0
1606836941.5289,-24.0
1606836941.5309,-12.0
1606836941.5329,0.0
1606836941.5349,7.0
1606836941.5369,17.0
1606836941.539,34.0
1606836941.5409,48.0
1606836941.5429,63.0
1606836941.5451,73.0
1606836941.5469,78.0
1606836941.549,88.0
1606836941.5509,92.0
1606836941.5529,78.0
1606836941.5549,56.0
1606836941.557,36.0
1606836941.5589,19.0
1606836941.5609,7.0
1606836941.5629,9.0
1606836942.0192,9.0
1606836942.0205,9.0
1606836942.0219,14.0
1606836942.0238,17.0
1606836942.0259,17.0
1606836942.0279,14.0
1606836942.0299,12.0
1606836942.0319,14.0
1606836942.0339,24.0
1606836942.0359,31.0
1606836942.0379,29.0
1606836942.0399,34.0
1606836942.0419,41.0
1606836942.0439,44.0
1606836942.0459,44.0
1606836942.0479,48.0
1606836942.05,51.0
1606836942.0519,56.0
1606836942.0539,63.0
1606836942.0558,66.0
1606836942.0578,63.0
1606836942.0598,66.0
1606836942.0618,73.0
1606836942.0638,75.0
1606836942.0658,63.0
1606836942.0679,56.0
1606836942.0699,56.0
1606836942.0718,58.0
1606836942.0738,63.0
1606836942.0758,73.0
1606836942.0778,90.0
1606836942.0798,105.0
1606836942.0818,105.0
1606836942.0839,92.0
1606836942.0859,78.0
1606836942.0878,73.0
1606836942.0898,70.0
1606836942.0918,63.0
1606836942.0938,70.0
1606836942.0958,105.0
1606836942.0978,173.0
1606836942.0999,300.0
1606836942.1019,467.0
1606836942.1038,611.0
1606836942.1058,726.0
1606836942.1078,934.0
1606836942.1098,1254.0
1606836942.1118,1269.0
1606836942.1138,635.0
1606836942.1158,-53.0
1606836942.1178,-156.0
1606836942.1198,-88.0
1606836942.1219,-178.0
1606836942.1238,-188.0
1606836942.1258,-132.0
1606836942.1278,-139.0
1606836942.1298,-139.0
1606836942.1318,-107.0
1606836942.1338,-95.0
1606836942.1358,-90.0
1606836942.1378,-78.0
1606836942.1398,-63.0
1606836942.1418,-51.0
1606836942.1438,-41.0
1606836942.1458,-34.0
1606836942.1478,-24.0
1606836942.1498,-2.0
1606836942.1518,14.0
1606836942.1539,17.0
1606836942.1558,24.0
1606836942.1578,41.0
1606836942.1598,56.0
1606836942.1618,63.0
1606836942.5591,70.0
1606836942.5604,80.0
1606836942.5629,85.0
1606836942.5655,83.0
1606836942.5675,68.0
1606836942.5695,44.0
1606836942.5716,19.0
1606836942.5735,2.0
1606836942.5755,-4.0
1606836942.5775,-9.0
1606836942.5795,-12.0
1606836942.5815,-17.0
1606836942.5835,-17.0
1606836942.5855,-9.0
1606836942.5875,-7.0
1606836942.5895,0.0
1606836942.5915,4.0
1606836942.5935,0.0
1606836942.5956,0.0
1606836942.5978,4.0
1606836942.5995,9.0
1606836942.6015,17.0
1606836942.6035,24.0
1606836942.6055,31.0
1606836942.6076,36.0
1606836942.6095,39.0
1606836942.6116,48.0
1606836942.6135,51.0
1606836942.6155,51.0
1606836942.6176,56.0
1606836942.6195,56.0
1606836942.6214,51.0
1606836942.6234,51.0
1606836942.6255,56.0
1606836942.6274,66.0
1606836942.6295,83.0
1606836942.6315,97.0
1606836942.6335,100.0
1606836942.6354,88.0
1606836942.6374,75.0
1606836942.6394,70.0
1606836942.6414,63.0
1606836942.6434,56.0
1606836942.6455,63.0
1606836942.6474,88.0
1606836942.6495,141.0
1606836942.6514,254.0
1606836942.6534,418.0
1606836942.6554,579.0
1606836942.6574,706.0
1606836942.6594,875.0
1606836942.6614,1173.0
1606836942.6634,1327.0
1606836942.6655,851.0
1606836942.6675,70.0
1606836942.6694,-183.0
1606836942.6714,-92.0
1606836942.6734,-166.0
1606836942.6755,-215.0
1606836942.6774,-149.0
1606836942.6794,-141.0
1606836942.6814,-161.0
1606836942.6835,-134.0
1606836942.6854,-117.0
1606836942.6874,-114.0
1606836942.6894,-102.0
1606836942.6914,-85.0
1606836942.6934,-73.0
1606836942.6955,-63.0
1606836942.6974,-51.0
1606836942.6996,-39.0
1606836942.7015,-26.0
1606836942.7035,-17.0
1606836943.129,-12.0
1606836943.1299,0.0
1606836943.1323,12.0
1606836943.135,24.0
1606836943.137,34.0
1606836943.1391,41.0
1606836943.1414,48.0
1606836943.143,53.0
1606836943.145,46.0
1606836943.147,31.0
1606836943.149,7.0
1606836943.151,-17.0
1606836943.153,-31.0
1606836943.155,-41.0
1606836943.157,-41.0
1606836943.159,-34.0
1606836943.161,-31.0
1606836943.163,-34.0
1606836943.1649,-29.0
1606836943.167,-22.0
1606836943.1689,-14.0
1606836943.1709,-7.0
1606836943.173,0.0
1606836943.175,0.0
1606836943.177,0.0
1606836943.179,14.0
1606836943.181,26.0
1606836943.1829,24.0
1606836943.185,22.0
1606836943.1869,29.0
1606836943.1889,34.0
1606836943.1909,31.0
1606836943.1929,34.0
1606836943.195,41.0
1606836943.197,44.0
1606836943.1989,41.0
1606836943.201,39.0
1606836943.2029,41.0
1606836943.205,41.0
1606836943.2069,51.0
1606836943.2089,73.0
1606836943.2109,85.0
1606836943.213,78.0
1606836943.215,63.0
1606836943.2169,53.0
1606836943.2189,46.0
1606836943.2209,41.0
1606836943.2229,41.0
1606836943.2251,51.0
1606836943.227,83.0
1606836943.2289,156.0
1606836943.231,293.0
1606836943.2329,459.0
1606836943.2349,586.0
1606836943.2369,692.0
1606836943.2389,909.0
1606836943.2409,1249.0
1606836943.2429,1303.0
1606836943.245,665.0
1606836943.2469,-85.0
1606836943.249,-207.0
1606836943.2509,-105.0
1606836943.2529,-185.0
1606836943.2549,-205.0
1606836943.2569,-141.0
1606836943.2589,-146.0
1606836943.2609,-149.0
1606836943.2629,-119.0
1606836943.265,-107.0
1606836943.267,-105.0
1606836943.2689,-95.0
1606836943.2709,-85.0
1606836943.2729,-70.0
1606836943.6691,-61.0
1606836943.6704,-53.0
1606836943.6729,-44.0
1606836943.6755,-36.0
1606836943.6775,-29.0
1606836943.6794,-22.0
1606836943.6815,-14.0
1606836943.6835,2.0
1606836943.6855,17.0
1606836943.6875,9.0
1606836943.6895,7.0
1606836943.6915,31.0
1606836943.6935,48.0
1606836943.6955,41.0
1606836943.6975,19.0
1606836943.6995,0.0
1606836943.7015,-14.0
1606836943.7035,-22.0
1606836943.7054,-26.0
1606836943.7074,-34.0
1606836943.7094,-34.0
1606836943.7114,-29.0
1606836943.7134,-22.0
1606836943.7154,-19.0
1606836943.7174,-17.0
1606836943.7195,-14.0
1606836943.7216,-9.0
1606836943.7235,0.0
1606836943.7254,7.0
1606836943.7274,7.0
1606836943.7294,9.0
1606836943.7314,14.0
1606836943.7334,19.0
1606836943.7354,26.0
1606836943.7374,31.0
1606836943.7394,31.0
1606836943.7415,31.0
1606836943.7434,36.0
1606836943.7454,39.0
1606836943.7474,39.0
1606836943.7494,34.0
1606836943.7514,36.0
1606836943.7534,41.0
1606836943.7554,51.0
1606836943.7574,66.0
1606836943.7594,75.0
1606836943.7614,78.0
1606836943.7634,68.0
1606836943.7654,53.0
1606836943.7674,44.0
1606836943.7694,39.0
1606836943.7713,36.0
1606836943.7733,46.0
1606836943.7754,75.0
1606836943.7774,132.0
1606836943.7794,254.0
1606836943.7813,410.0
1606836943.7833,533.0
1606836943.7854,628.0
1606836943.7874,836.0
1606836943.7894,1205.0
1606836943.7913,1391.0
1606836943.7934,880.0
1606836943.7954,29.0
1606836943.7973,-254.0
1606836943.7994,-122.0
1606836943.8014,-161.0
1606836943.8034,-220.0
1606836943.8054,-168.0
1606836943.8074,-154.0
1606836943.8093,-163.0
1606836943.8114,-134.0
1606836943.8134,-114.0
1606836944.239,-110.0
1606836944.2399,-95.0
1606836944.2424,-83.0
1606836944.2451,-73.0
1606836944.2473,-61.0
1606836944.2491,-56.0
1606836944.2512,-58.0
1606836944.2531,-53.0
1606836944.255,-36.0
1606836944.257,-26.0
1606836944.259,-17.0
1606836944.261,-2.0
1606836944.263,9.0
1606836944.265,17.0
1606836944.267,24.0
1606836944.269,31.0
1606836944.271,44.0
1606836944.273,46.0
1606836944.275,29.0
1606836944.2769,7.0
1606836944.2789,-12.0
1606836944.2809,-26.0
1606836944.283,-34.0
1606836944.285,-34.0
1606836944.287,-31.0
1606836944.289,-26.0
1606836944.2909,-24.0
1606836944.2929,-17.0
1606836944.295,-9.0
1606836944.2969,-7.0
1606836944.2989,-4.0
1606836944.3009,2.0
1606836944.3029,9.0
1606836944.305,12.0
1606836944.3069,17.0
1606836944.3089,22.0
1606836944.3109,29.0
1606836944.3129,39.0
1606836944.315,44.0
1606836944.3169,44.0
1606836944.3189,44.0
1606836944.3209,46.0
1606836944.323,48.0
1606836944.325,51.0
1606836944.3269,51.0
1606836944.3289,46.0
1606836944.3309,44.0
1606836944.3329,44.0
1606836944.3349,44.0
1606836944.3369,51.0
1606836944.3389,68.0
1606836944.341,83.0
1606836944.343,83.0
1606836944.345,73.0
1606836944.3469,63.0
1606836944.3492,56.0
1606836944.351,46.0
1606836944.3529,41.0
1606836944.355,46.0
1606836944.357,66.0
1606836944.359,114.0
1606836944.3609,220.0
1606836944.3629,381.0
1606836944.3649,550.0
1606836944.3669,674.0
1606836944.3689,814.0
1606836944.3711,1095.0
1606836944.3729,1415.0
1606836944.375,1225.0
1606836944.377,388.0
1606836944.3789,-205.0
1606836944.3809,-168.0
1606836944.383,-141.0
1606836944.8087,-246.0
1606836944.8099,-212.0
1606836944.8124,-156.0
1606836944.815,-176.0
1606836944.817,-163.0
1606836944.819,-129.0
1606836944.8211,-122.0
1606836944.823,-122.0
1606836944.8251,-110.0
1606836944.827,-100.0
1606836944.829,-92.0
1606836944.831,-88.0
1606836944.833,-75.0
1606836944.835,-63.0
1606836944.837,-53.0
1606836944.839,-46.0
1606836944.841,-36.0
1606836944.843,-24.0
1606836944.8449,-12.0
1606836944.8469,0.0
1606836944.8489,9.0
1606836944.851,19.0
1606836944.853,31.0
1606836944.855,41.0
1606836944.857,41.0
1606836944.8589,29.0
1606836944.8609,12.0
1606836944.8629,-2.0
1606836944.865,-12.0
1606836944.8669,-17.0
1606836944.8689,-19.0
1606836944.8709,-17.0
1606836944.8729,-12.0
1606836944.8751,-7.0
1606836944.8769,-7.0
1606836944.8789,-4.0
1606836944.8809,2.0
1606836944.8829,9.0
1606836944.8849,12.0
1606836944.8869,14.0
1606836944.8889,17.0
1606836944.8909,19.0
1606836944.8929,19.0
1606836944.8949,22.0
1606836944.8969,22.0
1606836944.8989,24.0
1606836944.9009,29.0
1606836944.9029,31.0
1606836944.905,34.0
1606836944.9069,36.0
1606836944.9089,41.0
1606836944.9109,41.0
1606836944.9129,44.0
1606836944.9148,44.0
1606836944.9169,44.0
1606836944.9189,41.0
1606836944.9209,44.0
1606836944.923,41.0
1606836944.9249,39.0
1606836944.9269,36.0
1606836944.9289,34.0
1606836944.9309,34.0
1606836944.9329,39.0
1606836944.9349,53.0
1606836944.9369,68.0
1606836944.9389,78.0
1606836944.941,80.0
1606836944.9429,73.0
1606836944.9449,61.0
1606836944.9469,56.0
1606836944.9489,46.0
1606836944.9509,41.0
1606836944.9529,58.0
1606836945.3785,90.0
1606836945.3795,151.0
1606836945.3819,273.0
1606836945.3846,447.0
1606836945.3866,599.0
1606836945.3885,706.0
1606836945.3907,887.0
1606836945.3925,1222.0
1606836945.3946,1386.0
1606836945.3965,851.0
1606836945.3986,7.0
1606836945.4009,-242.0
1606836945.4026,-134.0
1606836945.4046,-217.0
1606836945.4065,-269.0
1606836945.4085,-193.0
1606836945.4105,-180.0
1606836945.4125,-195.0
1606836945.4146,-161.0
1606836945.4165,-139.0
1606836945.4185,-136.0
1606836945.4205,-122.0
1606836945.4225,-102.0
1606836945.4245,-95.0
1606836945.4265,-88.0
1606836945.4285,-75.0
1606836945.4305,-66.0
1606836945.4326,-58.0
1606836945.4345,-51.0
1606836945.4365,-44.0
1606836945.4385,-29.0
1606836945.4405,-14.0
1606836945.4425,-4.0
1606836945.4445,9.0
1606836945.4465,22.0
1606836945.4485,31.0
1606836945.4506,41.0
1606836945.4525,48.0
1606836945.4545,41.0
1606836945.4564,24.0
1606836945.4584,2.0
1606836945.4604,-14.0
1606836945.4625,-24.0
1606836945.4645,-29.0
1606836945.4664,-31.0
1606836945.4685,-31.0
1606836945.4705,-24.0
1606836945.4724,-22.0
1606836945.4745,-24.0
1606836945.4764,-19.0
1606836945.4784,-9.0
1606836945.4804,-9.0
1606836945.4825,-7.0
1606836945.4844,0.0
1606836945.4866,4.0
1606836945.4885,4.0
1606836945.4905,7.0
1606836945.4924,12.0
1606836945.4945,12.0
1606836945.4964,17.0
1606836945.4984,19.0
1606836945.5004,22.0
1606836945.5026,24.0
1606836945.5045,29.0
1606836945.5065,34.0
1606836945.5084,41.0
1606836945.5105,39.0
1606836945.5124,34.0
1606836945.5145,34.0
1606836945.5164,39.0
1606836945.5184,36.0
1606836945.5204,34.0
1606836945.5225,36.0
1606836945.9189,39.0
1606836945.9199,39.0
1606836945.9223,34.0
1606836945.925,39.0
1606836945.927,44.0
1606836945.929,44.0
1606836945.9311,39.0
1606836945.933,41.0
1606836945.935,46.0
1606836945.9369,39.0
1606836945.939,24.0
1606836945.941,19.0
1606836945.9429,26.0
1606836945.9451,34.0
1606836945.947,46.0
1606836945.9489,63.0
1606836945.9509,75.0
1606836945.9529,73.0
1606836945.9549,61.0
1606836945.9569,51.0
1606836945.9589,41.0
1606836945.9609,36.0
1606836945.9631,41.0
1606836945.965,58.0
1606836945.9669,95.0
1606836945.9689,171.0
1606836945.9709,317.0
1606836945.9729,491.0
1606836945.9751,628.0
1606836945.9769,745.0
1606836945.9789,985.0
1606836945.9809,1308.0
1606836945.9829,1227.0
1606836945.9849,489.0
1606836945.9869,-144.0
1606836945.9889,-163.0
1606836945.9909,-119.0
1606836945.9929,-229.0
1606836945.9949,-217.0
1606836945.9969,-156.0
1606836945.9991,-176.0
1606836946.0009,-180.0
1606836946.0029,-151.0
1606836946.0049,-136.0
1606836946.0069,-132.0
1606836946.0089,-112.0
1606836946.0109,-97.0
1606836946.0129,-90.0
1606836946.015,-83.0
1606836946.017,-70.0
1606836946.0189,-66.0
1606836946.0209,-58.0
1606836946.0229,-46.0
1606836946.0249,-31.0
1606836946.0255,-24.0
1606836946.0269,-12.0
1606836946.0289,4.0
1606836946.0309,12.0
1606836946.0329,19.0
1606836946.035,39.0
1606836946.0369,53.0
1606836946.0389,48.0
1606836946.0409,36.0
1606836946.0429,19.0
1606836946.0449,-4.0
1606836946.0469,-17.0
1606836946.0489,-24.0
1606836946.051,-29.0
1606836946.0529,-31.0
1606836946.055,-31.0
1606836946.0556,-26.0
1606836946.0569,-14.0
1606836946.0589,-9.0
1606836946.4891,-9.0
1606836946.4905,-4.0
1606836946.4929,4.0
1606836946.4956,7.0
1606836946.4975,7.0
1606836946.4996,12.0
1606836946.5016,14.0
1606836946.5035,4.0
1606836946.5055,0.0
1606836946.5075,12.0
1606836946.5097,19.0
1606836946.5105,14.0
1606836946.5115,17.0
1606836946.5135,24.0
1606836946.5154,26.0
1606836946.5175,29.0
1606836946.5195,26.0
1606836946.5215,24.0
1606836946.5237,26.0
1606836946.5255,26.0
1606836946.5275,24.0
1606836946.5294,29.0
1606836946.5314,34.0
1606836946.5334,29.0
1606836946.5355,29.0
1606836946.5374,34.0
1606836946.5381,34.0
1606836946.5394,26.0
1606836946.5414,31.0
1606836946.5434,36.0
1606836946.5454,34.0
1606836946.5475,31.0
1606836946.5494,36.0
1606836946.5515,46.0
1606836946.5534,61.0
1606836946.5554,73.0
1606836946.5574,63.0
1606836946.5594,48.0
1606836946.5615,44.0
1606836946.5635,39.0
1606836946.5654,29.0
1606836946.5674,31.0
1606836946.568,48.0
1606836946.5694,78.0
1606836946.5714,146.0
1606836946.5734,288.0
1606836946.5754,445.0
1606836946.5774,533.0
1606836946.5795,623.0
1606836946.5814,892.0
1606836946.5834,1283.0
1606836946.5854,1298.0
1606836946.5874,591.0
1606836946.5894,-151.0
1606836946.5914,-229.0
1606836946.5934,-122.0
1606836946.5954,-207.0
1606836946.5975,-212.0
1606836946.598,-151.0
1606836946.5994,-166.0
1606836946.6014,-171.0
1606836946.6034,-136.0
1606836946.6054,-124.0
1606836946.6074,-122.0
1606836946.6094,-102.0
1606836946.6114,-85.0
1606836946.6134,-80.0
1606836946.6155,-68.0
1606836946.6174,-53.0
1606836946.6197,-41.0
1606836946.6214,-31.0
1606836946.6234,-19.0
1606836946.6254,-7.0
1606836947.0588,9.0
1606836947.0597,24.0
1606836947.0621,31.0
1606836947.0649,44.0
1606836947.0668,56.0
1606836947.0688,58.0
1606836947.071,58.0
1606836947.0728,53.0
1606836947.0748,19.0
1606836947.0768,-22.0
1606836947.0787,-39.0
1606836947.0807,-46.0
1606836947.0827,-61.0
1606836947.0848,-66.0
1606836947.0867,-58.0
1606836947.0874,-58.0
1606836947.0887,-58.0
1606836947.0907,-56.0
1606836947.0927,-51.0
1606836947.0947,-39.0
1606836947.0967,-36.0
1606836947.0987,-39.0
1606836947.1007,-31.0
1606836947.1027,-19.0
1606836947.1047,-14.0
1606836947.1067,-7.0
1606836947.1088,-2.0
1606836947.1107,-2.0
1606836947.1127,2.0
1606836947.1147,12.0
1606836947.1167,12.0
1606836947.1174,12.0
1606836947.1187,19.0
1606836947.1207,26.0
1606836947.1227,29.0
1606836947.1247,31.0
1606836947.1267,31.0
1606836947.1287,29.0
1606836947.1307,24.0
1606836947.1326,19.0
1606836947.1347,24.0
1606836947.1367,24.0
1606836947.1386,17.0
1606836947.1407,14.0
1606836947.1428,22.0
1606836947.1448,39.0
1606836947.1467,51.0
1606836947.1475,56.0
1606836947.1487,58.0
1606836947.1507,56.0
1606836947.1526,46.0
1606836947.1547,31.0
1606836947.1566,19.0
1606836947.1587,24.0
1606836947.1607,39.0
1606836947.1627,68.0
1606836947.1647,141.0
1606836947.1667,276.0
1606836947.1687,432.0
1606836947.1707,547.0
1606836947.1727,657.0
1606836947.1747,914.0
1606836947.1767,1300.0
1606836947.1774,1315.0
1606836947.1787,601.0
1606836947.1807,-149.0
1606836947.1827,-232.0
1606836947.1847,-122.0
1606836947.1866,-212.0
1606836947.1887,-227.0
1606836947.1907,-161.0
1606836947.1926,-161.0
1606836947.1946,-171.0
1606836947.5989,-141.0
1606836947.5999,-127.0
1606836947.6017,-124.0
1606836947.6035,-105.0
1606836947.6055,-85.0
1606836947.6062,-88.0
1606836947.6085,-88.0
1606836947.6105,-68.0
1606836947.6125,-51.0
1606836947.6145,-48.0
1606836947.6164,-44.0
1606836947.6184,-26.0
1606836947.6205,-9.0
1606836947.6224,4.0
1606836947.6244,19.0
1606836947.6264,39.0
1606836947.6284,51.0
1606836947.6304,56.0
1606836947.6324,58.0
1606836947.6344,48.0
1606836947.6364,26.0
1606836947.637,2.0
1606836947.6384,-19.0
1606836947.6404,-31.0
1606836947.6424,-36.0
1606836947.6445,-41.0
1606836947.6464,-36.0
1606836947.6484,-31.0
1606836947.6504,-29.0
1606836947.6524,-24.0
1606836947.6544,-17.0
1606836947.6564,-14.0
1606836947.6584,-12.0
1606836947.6604,-7.0
1606836947.6624,-7.0
1606836947.6644,-2.0
1606836947.6664,2.0
1606836947.667,9.0
1606836947.6683,19.0
1606836947.6704,29.0
1606836947.6725,36.0
1606836947.6744,39.0
1606836947.6764,44.0
1606836947.6783,53.0
1606836947.6803,56.0
1606836947.6824,56.0
1606836947.6844,61.0
1606836947.6864,61.0
1606836947.6884,61.0
1606836947.6904,61.0
1606836947.6923,58.0
1606836947.6944,53.0
1606836947.6964,44.0
1606836947.6983,41.0
1606836947.7003,44.0
1606836947.7024,41.0
1606836947.7044,36.0
1606836947.7064,36.0
1606836947.7084,36.0
1606836947.7104,44.0
1606836947.7123,61.0
1606836947.7144,75.0
1606836947.7164,78.0
1606836947.7183,68.0
1606836947.7204,53.0
1606836947.7224,41.0
1606836947.7244,34.0
1606836947.7264,29.0
1606836947.7283,31.0
1606836947.7303,48.0
1606836947.7324,90.0
1606836947.7344,180.0
1606836947.7364,335.0
1606836948.1688,508.0
1606836948.1697,643.0
1606836948.1722,797.0
1606836948.1751,1095.0
1606836948.1768,1406.0
1606836948.1788,1168.0
1606836948.1809,332.0
1606836948.1828,-202.0
1606836948.1848,-163.0
1606836948.1868,-166.0
1606836948.1888,-264.0
1606836948.1908,-222.0
1606836948.1928,-183.0
1606836948.1948,-200.0
1606836948.1968,-180.0
1606836948.1988,-149.0
1606836948.2008,-144.0
1606836948.2028,-134.0
1606836948.2047,-112.0
1606836948.2068,-97.0
1606836948.2088,-90.0
1606836948.2107,-78.0
1606836948.2127,-68.0
1606836948.2148,-56.0
1606836948.2168,-41.0
1606836948.2188,-29.0
1606836948.2208,-19.0
1606836948.2227,-2.0
1606836948.2248,17.0
1606836948.2267,34.0
1606836948.2288,48.0
1606836948.2307,61.0
1606836948.2327,70.0
1606836948.2348,78.0
1606836948.2368,70.0
1606836948.2387,46.0
1606836948.2407,22.0
1606836948.2427,0.0
1606836948.2448,-12.0
1606836948.2468,-19.0
1606836948.2487,-22.0
1606836948.2507,-19.0
1606836948.253,-17.0
1606836948.2548,-17.0
1606836948.2567,-12.0
1606836948.2587,-4.0
1606836948.2607,-2.0
1606836948.2627,0.0
1606836948.2647,4.0
1606836948.2668,9.0
1606836948.2687,12.0
1606836948.2708,17.0
1606836948.2728,17.0
1606836948.2803,17.0
1606836948.2819,19.0
1606836948.2839,22.0
1606836948.2857,22.0
1606836948.2877,22.0
1606836948.2898,22.0
1606836948.2917,29.0
1606836948.2938,36.0
1606836948.2957,34.0
1606836948.2977,31.0
1606836948.2997,39.0
1606836948.3017,41.0
1606836948.3038,34.0
1606836948.3058,34.0
1606836948.3078,39.0
1606836948.3097,36.0
1606836948.3117,26.0
1606836948.3138,22.0
1606836948.3158,22.0
1606836948.3178,24.0
1606836948.739,26.0
1606836948.7402,24.0
1606836948.7426,24.0
1606836948.7453,22.0
1606836948.7472,9.0
1606836948.7493,7.0
1606836948.7514,17.0
1606836948.7534,26.0
1606836948.7552,26.0
1606836948.7572,36.0
1606836948.7592,51.0
1606836948.7612,46.0
1606836948.7633,29.0
1606836948.7652,22.0
1606836948.7672,19.0
1606836948.7692,12.0
1606836948.7713,14.0
1606836948.7733,41.0
1606836948.7752,90.0
1606836948.7772,185.0
1606836948.7792,342.0
1606836948.7812,508.0
1606836948.7832,635.0
1606836948.7852,807.0
1606836948.7872,1115.0
1606836948.7892,1313.0
1606836948.7912,902.0
1606836948.7932,119.0
1606836948.7952,-190.0
1606836948.7972,-114.0
1606836948.7992,-180.0
1606836948.8012,-246.0
1606836948.8033,-183.0
1606836948.8052,-163.0
1606836948.8072,-180.0
1606836948.8092,-156.0
1606836948.8112,-132.0
1606836948.8132,-124.0
1606836948.8152,-110.0
1606836948.8171,-97.0
1606836948.8191,-88.0
1606836948.8211,-73.0
1606836948.8231,-63.0
1606836948.8252,-56.0
1606836948.8271,-46.0
1606836948.8291,-36.0
1606836948.8311,-24.0
1606836948.8332,-12.0
1606836948.8352,0.0
1606836948.8371,19.0
1606836948.8391,36.0
1606836948.8411,44.0
1606836948.8431,61.0
1606836948.8451,75.0
1606836948.8471,73.0
1606836948.8492,56.0
1606836948.8511,31.0
1606836948.8532,7.0
1606836948.8552,-14.0
1606836948.8571,-26.0
1606836948.8592,-36.0
1606836948.8611,-36.0
1606836948.8631,-34.0
1606836948.8652,-36.0
1606836948.8671,-36.0
1606836948.8692,-29.0
1606836948.8711,-22.0
1606836948.8732,-12.0
1606836948.8752,-7.0
1606836948.8771,-14.0
1606836948.8791,-22.0
1606836948.8811,-22.0
1606836948.8831,-22.0
1606836949.3086,-19.0
1606836949.3095,-19.0
1606836949.312,-17.0
1606836949.3147,-9.0
1606836949.3166,-4.0
1606836949.3186,-9.0
1606836949.3207,-9.0
1606836949.3226,-2.0
1606836949.3246,-4.0
1606836949.3266,-14.0
1606836949.3289,-17.0
1606836949.3307,-9.0
1606836949.3326,-9.0
1606836949.3347,-17.0
1606836949.3366,-17.0
1606836949.3386,-14.0
1606836949.3406,-17.0
1606836949.3426,-12.0
1606836949.3446,-7.0
1606836949.3466,-9.0
1606836949.3486,-12.0
1606836949.3506,-9.0
1606836949.3526,-7.0
1606836949.3546,-4.0
1606836949.3566,-9.0
1606836949.3586,-12.0
1606836949.3605,-4.0
1606836949.3625,7.0
1606836949.3646,22.0
1606836949.3665,34.0
1606836949.3689,39.0
1606836949.3706,34.0
1606836949.3726,22.0
1606836949.3746,14.0
1606836949.3766,14.0
1606836949.3786,9.0
1606836949.3805,12.0
1606836949.3826,31.0
1606836949.3845,78.0
1606836949.3865,178.0
1606836949.3885,330.0
1606836949.3906,471.0
1606836949.3926,574.0
1606836949.3946,753.0
1606836949.3965,1112.0
1606836949.3986,1332.0
1606836949.4005,873.0
1606836949.4025,53.0
1606836949.4045,-237.0
1606836949.4065,-129.0
1606836949.4085,-176.0
1606836949.4105,-239.0
1606836949.4125,-178.0
1606836949.4146,-156.0
1606836949.4165,-168.0
1606836949.4185,-144.0
1606836949.4205,-127.0
1606836949.4225,-124.0
1606836949.4246,-110.0
1606836949.4265,-92.0
1606836949.4285,-80.0
1606836949.4307,-70.0
1606836949.4327,-61.0
1606836949.4346,-56.0
1606836949.4368,-51.0
1606836949.4386,-34.0
1606836949.4405,-12.0
1606836949.4425,-2.0
1606836949.4446,4.0
1606836949.4465,24.0
1606836949.4485,44.0
1606836949.4505,53.0
1606836949.4525,66.0
1606836949.8488,75.0
1606836949.8498,70.0
1606836949.8523,51.0
1606836949.8549,17.0
1606836949.8569,-14.0
1606836949.8589,-34.0
1606836949.8611,-48.0
1606836949.8629,-61.0
1606836949.8649,-58.0
1606836949.8668,-61.0
1606836949.8688,-70.0
1606836949.8708,-68.0
1606836949.8728,-53.0
1606836949.8748,-46.0
1606836949.8768,-51.0
1606836949.8788,-46.0
1606836949.8808,-36.0
1606836949.8828,-34.0
1606836949.8848,-34.0
1606836949.8868,-26.0
1606836949.8888,-19.0
1606836949.8908,-12.0
1606836949.8928,-12.0
1606836949.8948,-9.0
1606836949.8968,-2.0
1606836949.8987,-2.0
1606836949.9008,0.0
1606836949.9028,4.0
1606836949.9048,0.0
1606836949.9067,0.0
1606836949.9088,7.0
1606836949.9109,4.0
1606836949.9128,0.0
1606836949.9148,-2.0
1606836949.9167,-7.0
1606836949.9187,-14.0
1606836949.9208,-17.0
1606836949.9228,-14.0
1606836949.9248,-12.0
1606836949.927,4.0
1606836949.9289,22.0
1606836949.9309,29.0
1606836949.9329,29.0
1606836949.9348,24.0
1606836949.9369,14.0
1606836949.9388,4.0
1606836949.9408,-2.0
1606836949.9429,0.0
1606836949.9448,17.0
1606836949.9468,44.0
1606836949.9487,114.0
1606836949.9508,251.0
1606836949.9527,410.0
1606836949.9548,523.0
1606836949.9568,635.0
1606836949.9587,899.0
1606836949.9608,1283.0
1606836949.9628,1283.0
1606836949.9648,564.0
1606836949.9668,-168.0
1606836949.9688,-244.0
1606836949.9707,-141.0
1606836949.9727,-227.0
1606836949.9748,-234.0
1606836949.9767,-176.0
1606836949.9787,-180.0
1606836949.9808,-183.0
1606836949.9828,-151.0
1606836949.9847,-134.0
1606836949.9867,-127.0
1606836949.9887,-112.0
1606836949.9908,-97.0
1606836949.9928,-85.0
1606836950.4488,-73.0
1606836950.4496,-61.0
1606836950.4515,-48.0
1606836950.4535,-36.0
1606836950.4555,-19.0
1606836950.4575,-4.0
1606836950.4594,9.0
1606836950.4615,17.0
1606836950.4635,24.0
1606836950.4654,39.0
1606836950.4674,56.0
1606836950.4694,66.0
1606836950.4714,66.0
1606836950.4734,58.0
1606836950.4754,34.0
1606836950.4773,0.0
1606836950.4793,-29.0
1606836950.4815,-44.0
1606836950.4834,-56.0
1606836950.4854,-61.0
1606836950.4873,-56.0
1606836950.4893,-44.0
1606836950.4913,-41.0
1606836950.4933,-41.0
1606836950.4954,-36.0
1606836950.4973,-29.0
1606836950.4993,-24.0
1606836950.5013,-19.0
1606836950.5033,-17.0
1606836950.5054,-12.0
1606836950.5073,-7.0
1606836950.5093,-2.0
1606836950.5113,2.0
1606836950.5133,9.0
1606836950.5154,17.0
1606836950.5174,24.0
1606836950.5193,31.0
1606836950.5213,36.0
1606836950.5233,34.0
1606836950.5254,34.0
1606836950.5273,39.0
1606836950.5293,39.0
1606836950.5313,34.0
1606836950.5333,34.0
1606836950.5354,36.0
1606836950.5373,36.0
1606836950.5393,34.0
1606836950.5413,29.0
1606836950.5433,24.0
1606836950.5454,14.0
1606836950.5474,9.0
1606836950.5493,12.0
1606836950.5513,22.0
1606836950.5533,36.0
1606836950.5554,46.0
1606836950.5574,44.0
1606836950.5593,41.0
1606836950.5613,34.0
1606836950.5633,22.0
1606836950.5654,14.0
1606836950.5673,12.0
1606836950.5694,24.0
1606836950.5713,48.0
1606836950.5733,105.0
1606836950.5754,227.0
1606836950.5773,401.0
1606836950.5793,557.0
1606836950.5813,684.0
1606836950.5835,899.0
1606836950.5854,1256.0
1606836950.5873,1374.0
1606836950.5893,780.0
1606836950.5913,-22.0
1606836950.9588,-215.0
1606836950.9597,-129.0
1606836950.9622,-227.0
1606836950.9649,-256.0
1606836950.9668,-183.0
1606836950.9687,-185.0
1606836950.9708,-193.0
1606836950.9728,-156.0
1606836950.9748,-139.0
1606836950.9767,-139.0
1606836950.9787,-124.0
1606836950.9807,-110.0
1606836950.9827,-105.0
1606836950.9847,-105.0
1606836950.9868,-92.0
1606836950.9887,-73.0
1606836950.9907,-61.0
1606836950.9927,-53.0
1606836950.9947,-41.0
1606836950.9968,-22.0
1606836950.9987,-7.0
1606836951.0007,9.0
1606836951.0027,29.0
1606836951.0047,39.0
1606836951.0067,53.0
1606836951.0087,66.0
1606836951.0107,63.0
1606836951.0127,46.0
1606836951.0148,19.0
1606836951.0167,-7.0
1606836951.0187,-24.0
1606836951.0207,-31.0
1606836951.0227,-36.0
1606836951.0247,-41.0
1606836951.0267,-39.0
1606836951.0287,-36.0
1606836951.0307,-34.0
1606836951.0327,-26.0
1606836951.0347,-17.0
1606836951.0367,-12.0
1606836951.0387,-14.0
1606836951.0407,-14.0
1606836951.0427,-14.0
1606836951.0447,-12.0
1606836951.0467,-9.0
1606836951.0487,-4.0
1606836951.0509,-2.0
1606836951.0527,-2.0
1606836951.0547,0.0
1606836951.0568,4.0
1606836951.0587,12.0
1606836951.0607,17.0
1606836951.0627,17.0
1606836951.0647,17.0
1606836951.0667,22.0
1606836951.0689,24.0
1606836951.0707,22.0
1606836951.0727,26.0
1606836951.0748,24.0
1606836951.0767,19.0
1606836951.0787,19.0
1606836951.0807,26.0
1606836951.0827,26.0
1606836951.0847,19.0
1606836951.0867,14.0
1606836951.0887,14.0
1606836951.0907,14.0
1606836951.0927,12.0
1606836951.0948,4.0
1606836951.0967,2.0
1606836951.0987,2.0
1606836951.1007,12.0
1606836951.1027,29.0
1606836951.4989,44.0
1606836951.4998,46.0
1606836951.5023,46.0
1606836951.505,41.0
1606836951.5068,29.0
1606836951.5088,19.0
1606836951.511,4.0
1606836951.5129,-4.0
1606836951.5149,14.0
1606836951.5168,48.0
1606836951.5188,105.0
1606836951.5208,234.0
1606836951.5228,413.0
1606836951.5248,562.0
1606836951.5268,687.0
1606836951.5288,917.0
1606836951.5309,1259.0
1606836951.5328,1264.0
1606836951.5348,589.0
1606836951.5369,-107.0
1606836951.5388,-195.0
1606836951.5408,-139.0
1606836951.5428,-249.0
1606836951.5449,-246.0
1606836951.547,-180.0
1606836951.5489,-193.0
1606836951.5509,-193.0
1606836951.5528,-156.0
1606836951.5548,-144.0
1606836951.5568,-144.0
1606836951.5588,-122.0
1606836951.5608,-107.0
1606836951.5628,-105.0
1606836951.5649,-97.0
1606836951.5668,-88.0
1606836951.5688,-80.0
1606836951.5709,-68.0
1606836951.5728,-53.0
1606836951.5749,-44.0
1606836951.5768,-26.0
1606836951.5788,-9.0
1606836951.5808,4.0
1606836951.5828,17.0
1606836951.5848,36.0
1606836951.5868,51.0
1606836951.5888,56.0
1606836951.5908,51.0
1606836951.5928,39.0
1606836951.5949,17.0
1606836951.5968,-12.0
1606836951.5988,-29.0
1606836951.6008,-39.0
1606836951.6028,-46.0
1606836951.6049,-48.0
1606836951.6068,-44.0
1606836951.6088,-36.0
1606836951.6108,-31.0
1606836951.6128,-29.0
1606836951.6149,-26.0
1606836951.6168,-19.0
1606836951.6188,-14.0
1606836951.6208,-7.0
1606836951.6228,-4.0
1606836951.6249,-7.0
1606836951.6268,-9.0
1606836951.6288,-4.0
1606836951.6308,0.0
1606836951.6328,2.0
1606836951.6348,-2.0
1606836951.6368,-2.0
1606836951.6388,4.0
1606836951.6408,12.0
1606836951.6428,12.0
1606836952.0988,9.0
1606836952.0998,14.0
1606836952.1025,19.0
1606836952.1049,9.0
1606836952.1068,0.0
1606836952.1088,4.0
1606836952.1108,7.0
1606836952.1128,2.0
1606836952.1149,2.0
1606836952.1168,0.0
1606836952.1187,-4.0
1606836952.1208,-2.0
1606836952.1228,2.0
1606836952.1248,2.0
1606836952.1267,2.0
1606836952.1288,2.0
1606836952.1307,2.0
1606836952.1328,4.0
1606836952.1347,7.0
1606836952.1368,4.0
1606836952.1387,4.0
1606836952.1408,7.0
1606836952.1428,7.0
1606836952.1448,7.0
1606836952.1467,14.0
1606836952.1488,24.0
1606836952.1507,36.0
1606836952.1527,46.0
1606836952.1549,44.0
1606836952.1568,29.0
1606836952.1587,17.0
1606836952.1607,17.0
1606836952.1627,14.0
1606836952.1648,17.0
1606836952.1669,24.0
1606836952.1687,48.0
1606836952.1707,110.0
1606836952.1727,242.0
1606836952.1748,401.0
1606836952.1768,528.0
1606836952.1787,645.0
1606836952.1807,895.0
1606836952.1828,1261.0
1606836952.1848,1264.0
1606836952.1867,564.0
1606836952.1887,-134.0
1606836952.1907,-200.0
1606836952.1927,-122.0
1606836952.1948,-222.0
1606836952.1968,-227.0
1606836952.1987,-163.0
1606836952.2007,-173.0
1606836952.2027,-171.0
1606836952.205,-134.0
1606836952.2068,-124.0
1606836952.2087,-124.0
1606836952.2107,-112.0
1606836952.2127,-102.0
1606836952.2148,-95.0
1606836952.2167,-78.0
1606836952.2187,-61.0
1606836952.2207,-48.0
1606836952.2228,-36.0
1606836952.2248,-26.0
1606836952.2267,-14.0
1606836952.2287,4.0
1606836952.2307,24.0
1606836952.2327,41.0
1606836952.2348,51.0
1606836952.2368,61.0
1606836952.2387,70.0
1606836952.2407,80.0
1606836952.2428,75.0
1606836952.6684,53.0
1606836952.6694,17.0
1606836952.6719,-12.0
1606836952.6745,-29.0
1606836952.6764,-44.0
1606836952.6785,-58.0
1606836952.6807,-56.0
1606836952.6825,-48.0
1606836952.6845,-56.0
1606836952.6864,-66.0
1606836952.6884,-56.0
1606836952.6905,-41.0
1606836952.6924,-41.0
1606836952.6943,-41.0
1606836952.6963,-36.0
1606836952.6984,-39.0
1606836952.7004,-41.0
1606836952.7011,-34.0
1606836952.7034,-26.0
1606836952.7053,-24.0
1606836952.7074,-19.0
1606836952.7093,-17.0
1606836952.7114,-12.0
1606836952.7133,-2.0
1606836952.7153,-2.0
1606836952.7173,-7.0
1606836952.7194,-4.0
1606836952.7213,0.0
1606836952.7234,0.0
1606836952.7253,-4.0
1606836952.7274,0.0
1606836952.7295,4.0
1606836952.7314,-2.0
1606836952.732,-9.0
1606836952.7344,-7.0
1606836952.7364,-2.0
1606836952.7383,-2.0
1606836952.7404,-2.0
1606836952.7423,-2.0
1606836952.7444,-2.0
1606836952.7464,-4.0
1606836952.7484,-4.0
1606836952.7503,-2.0
1606836952.7523,0.0
1606836952.7544,12.0
1606836952.7564,34.0
1606836952.7583,41.0
1606836952.7604,34.0
1606836952.7623,29.0
1606836952.763,24.0
1606836952.7654,12.0
1606836952.7674,2.0
1606836952.7693,4.0
1606836952.7713,22.0
1606836952.7733,48.0
1606836952.7754,117.0
1606836952.7773,246.0
1606836952.7794,405.0
1606836952.7813,528.0
1606836952.7834,638.0
1606836952.7854,902.0
1606836952.7873,1296.0
1606836952.7894,1298.0
1606836952.7913,574.0
1606836952.7933,-146.0
1606836952.794,-212.0
1606836952.7963,-119.0
1606836952.7983,-212.0
1606836952.8004,-222.0
1606836952.8023,-158.0
1606836952.8044,-161.0
1606836952.8064,-158.0
1606836952.8084,-132.0
1606836953.208,-124.0
1606836953.2088,-119.0
1606836953.2113,-97.0
1606836953.214,-80.0
1606836953.2159,-75.0
1606836953.2179,-63.0
1606836953.2186,-51.0
1606836953.2209,-41.0
1606836953.2229,-31.0
1606836953.2251,-22.0
1606836953.2269,-14.0
1606836953.2288,2.0
1606836953.2308,22.0
1606836953.2329,31.0
1606836953.2349,41.0
1606836953.237,56.0
1606836953.2388,70.0
1606836953.2408,73.0
1606836953.2429,63.0
1606836953.2448,36.0
1606836953.2468,4.0
1606836953.2475,-26.0
1606836953.2498,-48.0
1606836953.2519,-56.0
1606836953.2539,-61.0
1606836953.2559,-63.0
1606836953.2579,-58.0
1606836953.2598,-48.0
1606836953.2618,-44.0
1606836953.2639,-41.0
1606836953.2658,-34.0
1606836953.2678,-29.0
1606836953.2699,-24.0
1606836953.2718,-19.0
1606836953.2739,-17.0
1606836953.2758,-14.0
1606836953.2778,-12.0
1606836953.2785,-12.0
1606836953.2808,-7.0
1606836953.2829,2.0
1606836953.2849,12.0
1606836953.2868,14.0
1606836953.2888,17.0
1606836953.2908,24.0
1606836953.2928,29.0
1606836953.2949,29.0
1606836953.2968,26.0
1606836953.2988,29.0
1606836953.3008,29.0
1606836953.3029,24.0
1606836953.3049,24.0
1606836953.3068,26.0
1606836953.3088,22.0
1606836953.3095,19.0
1606836953.3118,19.0
1606836953.3139,24.0
1606836953.3158,24.0
1606836953.3179,19.0
1606836953.3198,22.0
1606836953.3218,24.0
1606836953.3241,22.0
1606836953.3259,22.0
1606836953.3278,22.0
1606836953.3298,19.0
1606836953.3318,17.0
1606836953.3339,24.0
1606836953.3358,34.0
1606836953.3378,48.0
1606836953.3398,63.0
1606836953.3405,68.0
1606836953.3429,53.0
1606836953.3449,41.0
1606836953.3468,39.0
1606836953.7786,29.0
1606836953.7799,24.0
1606836953.7824,41.0
1606836953.785,70.0
1606836953.787,134.0
1606836953.789,259.0
1606836953.791,415.0
1606836953.793,550.0
1606836953.7951,687.0
1606836953.7969,951.0
1606836953.7988,1308.0
1606836953.7996,1278.0
1606836953.8018,564.0
1606836953.8038,-112.0
1606836953.8061,-178.0
1606836953.8078,-136.0
1606836953.8098,-251.0
1606836953.8118,-244.0
1606836953.8139,-180.0
1606836953.8158,-195.0
1606836953.8178,-190.0
1606836953.8198,-149.0
1606836953.8218,-139.0
1606836953.8239,-136.0
1606836953.8258,-117.0
1606836953.8279,-102.0
1606836953.8298,-92.0
1606836953.8305,-80.0
1606836953.8328,-68.0
1606836953.8349,-63.0
1606836953.8368,-53.0
1606836953.8389,-34.0
1606836953.8409,-14.0
1606836953.8428,0.0
1606836953.8449,12.0
1606836953.8468,29.0
1606836953.8488,46.0
1606836953.8508,61.0
1606836953.853,75.0
1606836953.8549,83.0
1606836953.8568,80.0
1606836953.8589,61.0
1606836953.8608,26.0
1606836953.8615,-4.0
1606836953.8639,-22.0
1606836953.8658,-34.0
1606836953.8679,-46.0
1606836953.8698,-48.0
1606836953.8718,-46.0
1606836953.8739,-44.0
1606836953.8759,-41.0
1606836953.8778,-34.0
1606836953.8798,-26.0
1606836953.8818,-26.0
1606836953.8839,-24.0
1606836953.8858,-17.0
1606836953.8879,-14.0
1606836953.8898,-14.0
1606836953.8918,-12.0
1606836953.8925,-12.0
1606836953.8939,-14.0
1606836953.8959,-17.0
1606836953.8978,-14.0
1606836953.8998,-9.0
1606836953.9018,-9.0
1606836953.9039,-9.0
1606836953.9058,-2.0
1606836953.9079,7.0
1606836953.9099,7.0
1606836953.9119,9.0
1606836953.9139,14.0
1606836953.9158,12.0
1606836953.9178,2.0
1606836954.3184,2.0
1606836954.3194,9.0
1606836954.3217,12.0
1606836954.3243,7.0
1606836954.3262,4.0
1606836954.3283,4.0
1606836954.3303,4.0
1606836954.3323,2.0
1606836954.3343,-2.0
1606836954.3363,-4.0
1606836954.3383,0.0
1606836954.3402,0.0
1606836954.3422,-2.0
1606836954.3443,2.0
1606836954.3462,9.0
1606836954.3482,12.0
1606836954.3505,7.0
1606836954.3523,7.0
1606836954.3543,9.0
1606836954.3562,7.0
1606836954.3582,7.0
1606836954.3602,14.0
1606836954.3622,29.0
1606836954.3643,39.0
1606836954.3662,46.0
1606836954.3682,51.0
1606836954.3703,44.0
1606836954.3722,34.0
1606836954.3743,26.0
1606836954.3762,19.0
1606836954.3782,19.0
1606836954.3802,36.0
1606836954.3822,75.0
1606836954.3843,154.0
1606836954.3862,298.0
1606836954.3882,464.0
1606836954.3902,601.0
1606836954.3922,760.0
1606836954.3943,1061.0
1606836954.3962,1332.0
1606836954.3982,1049.0
1606836954.4002,264.0
1606836954.4022,-171.0
1606836954.4043,-124.0
1606836954.4062,-163.0
1606836954.4082,-246.0
1606836954.4103,-195.0
1606836954.4122,-163.0
1606836954.4143,-185.0
1606836954.4162,-166.0
1606836954.4182,-136.0
1606836954.4202,-134.0
1606836954.4222,-124.0
1606836954.4243,-112.0
1606836954.4262,-102.0
1606836954.4282,-85.0
1606836954.4303,-66.0
1606836954.4322,-58.0
1606836954.4343,-53.0
1606836954.4363,-44.0
1606836954.4382,-31.0
1606836954.4402,-17.0
1606836954.4422,0.0
1606836954.4443,12.0
1606836954.4462,22.0
1606836954.4482,34.0
1606836954.4503,48.0
1606836954.4524,63.0
1606836954.4543,70.0
1606836954.4563,61.0
1606836954.4582,31.0
1606836954.4602,0.0
1606836954.4622,-29.0
1606836954.8889,-48.0
1606836954.8899,-63.0
1606836954.8923,-68.0
1606836954.895,-73.0
1606836954.897,-73.0
1606836954.8989,-75.0
1606836954.9012,-78.0
1606836954.903,-68.0
1606836954.905,-61.0
1606836954.9069,-61.0
1606836954.9089,-56.0
1606836954.9109,-51.0
1606836954.9129,-46.0
1606836954.9149,-44.0
1606836954.9169,-36.0
1606836954.9189,-34.0
1606836954.9209,-36.0
1606836954.9229,-34.0
1606836954.9249,-26.0
1606836954.9268,-22.0
1606836954.9289,-19.0
1606836954.9309,-14.0
1606836954.9329,-7.0
1606836954.9349,-4.0
1606836954.9369,0.0
1606836954.9389,4.0
1606836954.9409,9.0
1606836954.9429,9.0
1606836954.9449,7.0
1606836954.9469,9.0
1606836954.9489,12.0
1606836954.9509,14.0
1606836954.9528,12.0
1606836954.9549,12.0
1606836954.9568,12.0
1606836954.9588,14.0
1606836954.9609,12.0
1606836954.9628,7.0
1606836954.9649,12.0
1606836954.9669,17.0
1606836954.9688,14.0
1606836954.9708,14.0
1606836954.9728,17.0
1606836954.9749,14.0
1606836954.9769,12.0
1606836954.979,17.0
1606836954.9809,17.0
1606836954.9829,12.0
1606836954.9849,14.0
1606836954.9869,14.0
1606836954.9889,17.0
1606836954.9908,29.0
1606836954.9928,41.0
1606836954.9949,53.0
1606836954.9969,56.0
1606836954.9988,48.0
1606836955.0008,36.0
1606836955.0028,22.0
1606836955.0049,9.0
1606836955.0069,12.0
1606836955.0089,26.0
1606836955.0108,58.0
1606836955.0128,134.0
1606836955.0149,266.0
1606836955.0168,425.0
1606836955.0188,560.0
1606836955.0209,704.0
1606836955.0228,985.0
1606836955.0249,1298.0
1606836955.0268,1105.0
1606836955.0289,332.0
1606836955.0308,-176.0
1606836955.0328,-141.0
1606836955.4888,-132.0
1606836955.4897,-229.0
1606836955.4922,-205.0
1606836955.4948,-171.0
1606836955.4968,-180.0
1606836955.4988,-161.0
1606836955.5009,-144.0
1606836955.5028,-149.0
1606836955.5048,-139.0
1606836955.5068,-117.0
1606836955.5088,-110.0
1606836955.5108,-100.0
1606836955.5128,-88.0
1606836955.5147,-78.0
1606836955.5167,-66.0
1606836955.5188,-48.0
1606836955.5207,-36.0
1606836955.5227,-24.0
1606836955.5247,-9.0
1606836955.5267,4.0
1606836955.5287,22.0
1606836955.5307,34.0
1606836955.5327,44.0
1606836955.535,58.0
1606836955.5368,66.0
1606836955.5387,51.0
1606836955.5407,17.0
1606836955.5427,-22.0
1606836955.5448,-48.0
1606836955.5467,-66.0
1606836955.5487,-85.0
1606836955.5508,-90.0
1606836955.5528,-85.0
1606836955.5548,-85.0
1606836955.5567,-90.0
1606836955.5587,-78.0
1606836955.5607,-66.0
1606836955.5627,-66.0
1606836955.5648,-66.0
1606836955.5667,-51.0
1606836955.5687,-48.0
1606836955.5707,-56.0
1606836955.5727,-51.0
1606836955.5748,-44.0
1606836955.5767,-39.0
1606836955.5787,-31.0
1606836955.5807,-24.0
1606836955.5827,-22.0
1606836955.5847,-17.0
1606836955.5867,-17.0
1606836955.5887,-17.0
1606836955.5907,-17.0
1606836955.5927,-14.0
1606836955.5948,-9.0
1606836955.5967,-4.0
1606836955.5987,-2.0
1606836955.6007,0.0
1606836955.6027,0.0
1606836955.6048,-2.0
1606836955.6067,-4.0
1606836955.6087,-4.0
1606836955.6107,-2.0
1606836955.6127,-4.0
1606836955.6148,-7.0
1606836955.6167,-7.0
1606836955.6188,-4.0
1606836955.6207,-7.0
1606836955.6227,-12.0
1606836955.6248,-9.0
1606836955.6267,2.0
1606836955.6287,19.0
1606836955.6307,36.0
1606836955.6327,34.0
1606836956.0287,24.0
1606836956.0296,12.0
1606836956.0319,4.0
1606836956.0346,0.0
1606836956.0365,0.0
1606836956.0385,14.0
1606836956.0405,48.0
1606836956.0425,117.0
1606836956.0445,246.0
1606836956.0465,398.0
1606836956.0484,506.0
1606836956.0504,626.0
1606836956.0525,931.0
1606836956.0545,1308.0
1606836956.0564,1151.0
1606836956.0584,339.0
1606836956.0604,-239.0
1606836956.0624,-195.0
1606836956.0644,-144.0
1606836956.0664,-242.0
1606836956.0684,-217.0
1606836956.0704,-163.0
1606836956.0724,-183.0
1606836956.0745,-178.0
1606836956.0764,-139.0
1606836956.0784,-132.0
1606836956.0804,-132.0
1606836956.0824,-112.0
1606836956.0845,-90.0
1606836956.0864,-83.0
1606836956.0884,-70.0
1606836956.0904,-58.0
1606836956.0924,-46.0
1606836956.0945,-29.0
1606836956.0964,-14.0
1606836956.0984,-2.0
1606836956.1004,12.0
1606836956.1024,34.0
1606836956.1045,53.0
1606836956.1064,70.0
1606836956.1084,83.0
1606836956.1104,88.0
1606836956.1124,80.0
1606836956.1145,58.0
1606836956.1164,26.0
1606836956.1184,-12.0
1606836956.1204,-51.0
1606836956.1224,-73.0
1606836956.1244,-83.0
1606836956.1264,-88.0
1606836956.1284,-88.0
1606836956.1305,-88.0
1606836956.1326,-83.0
1606836956.1345,-70.0
1606836956.1364,-63.0
1606836956.1384,-61.0
1606836956.1404,-58.0
1606836956.1424,-56.0
1606836956.1445,-53.0
1606836956.1464,-51.0
1606836956.1484,-41.0
1606836956.1504,-34.0
1606836956.1524,-31.0
1606836956.1545,-22.0
1606836956.1564,-7.0
1606836956.1584,-2.0
1606836956.1604,0.0
1606836956.1624,2.0
1606836956.1645,9.0
1606836956.1664,12.0
1606836956.1684,7.0
1606836956.1704,14.0
1606836956.1725,19.0
1606836956.5687,14.0
1606836956.5694,9.0
1606836956.5718,12.0
1606836956.5745,12.0
1606836956.5764,12.0
1606836956.5784,12.0
1606836956.5806,9.0
1606836956.5825,9.0
1606836956.5845,4.0
1606836956.5865,-7.0
1606836956.5884,-7.0
1606836956.5904,4.0
1606836956.5924,17.0
1606836956.5945,29.0
1606836956.5964,44.0
1606836956.5984,51.0
1606836956.6004,41.0
1606836956.6024,31.0
1606836956.6044,26.0
1606836956.6065,22.0
1606836956.6084,17.0
1606836956.6104,31.0
1606836956.6124,63.0
1606836956.6145,119.0
1606836956.6164,234.0
1606836956.6184,401.0
1606836956.6204,552.0
1606836956.6224,677.0
1606836956.6244,899.0
1606836956.6264,1254.0
1606836956.6286,1335.0
1606836956.6305,723.0
1606836956.6324,-31.0
1606836956.6344,-188.0
1606836956.6364,-112.0
1606836956.6384,-212.0
1606836956.6404,-242.0
1606836956.6424,-173.0
1606836956.6445,-171.0
1606836956.6464,-178.0
1606836956.6484,-146.0
1606836956.6504,-129.0
1606836956.6524,-127.0
1606836956.6545,-112.0
1606836956.6564,-95.0
1606836956.6584,-85.0
1606836956.6604,-70.0
1606836956.6624,-58.0
1606836956.6644,-48.0
1606836956.6664,-41.0
1606836956.6684,-29.0
1606836956.6704,-14.0
1606836956.6724,-2.0
1606836956.6745,14.0
1606836956.6764,31.0
1606836956.6784,44.0
1606836956.6804,56.0
1606836956.6824,73.0
1606836956.6844,83.0
1606836956.6864,75.0
1606836956.6884,56.0
1606836956.6904,26.0
1606836956.6924,-7.0
1606836956.6945,-34.0
1606836956.6965,-48.0
1606836956.6984,-53.0
1606836956.7004,-58.0
1606836956.7024,-61.0
1606836956.7045,-56.0
1606836956.7064,-48.0
1606836956.7084,-46.0
1606836956.7104,-41.0
1606836956.7124,-36.0
1606836957.1387,-31.0
1606836957.1394,-34.0
1606836957.1419,-31.0
1606836957.1445,-24.0
1606836957.1465,-17.0
1606836957.1486,-19.0
1606836957.1505,-31.0
1606836957.1525,-29.0
1606836957.1547,-22.0
1606836957.1565,-19.0
1606836957.1585,-17.0
1606836957.1604,-9.0
1606836957.1624,-2.0
1606836957.1645,2.0
1606836957.1664,2.0
1606836957.1684,9.0
1606836957.1705,17.0
1606836957.1724,14.0
1606836957.1745,12.0
1606836957.1765,14.0
1606836957.1786,17.0
1606836957.1804,17.0
1606836957.1824,17.0
1606836957.1845,14.0
1606836957.1864,14.0
1606836957.1884,12.0
1606836957.1904,12.0
1606836957.1924,12.0
1606836957.1945,7.0
1606836957.1964,4.0
1606836957.1984,7.0
1606836957.2005,7.0
1606836957.2024,4.0
1606836957.2045,7.0
1606836957.2064,19.0
1606836957.2084,31.0
1606836957.2105,46.0
1606836957.2124,58.0
1606836957.2145,56.0
1606836957.2164,44.0
1606836957.2184,31.0
1606836957.2204,22.0
1606836957.2224,17.0
1606836957.2245,17.0
1606836957.2264,34.0
1606836957.2284,73.0
1606836957.2304,156.0
1606836957.2324,300.0
1606836957.2345,464.0
1606836957.2364,596.0
1606836957.2384,745.0
1606836957.2404,1027.0
1606836957.2424,1320.0
1606836957.2445,1110.0
1606836957.2464,332.0
1606836957.2485,-168.0
1606836957.2504,-139.0
1606836957.2524,-151.0
1606836957.2545,-246.0
1606836957.2566,-205.0
1606836957.2586,-163.0
1606836957.2604,-185.0
1606836957.2624,-168.0
1606836957.2644,-136.0
1606836957.2664,-132.0
1606836957.2685,-124.0
1606836957.2705,-105.0
1606836957.2724,-95.0
1606836957.2745,-85.0
1606836957.2764,-73.0
1606836957.2784,-61.0
1606836957.2804,-53.0
1606836957.2824,-48.0
1606836957.7082,-39.0
1606836957.709,-22.0
1606836957.7115,-7.0
1606836957.7142,4.0
1606836957.7161,22.0
1606836957.7181,41.0
1606836957.7202,51.0
1606836957.7221,53.0
1606836957.7241,53.0
1606836957.726,48.0
1606836957.728,26.0
1606836957.73,-9.0
1606836957.732,-39.0
1606836957.734,-58.0
1606836957.736,-73.0
1606836957.738,-83.0
1606836957.74,-80.0
1606836957.742,-73.0
1606836957.7441,-75.0
1606836957.746,-73.0
1606836957.748,-66.0
1606836957.7501,-61.0
1606836957.7521,-63.0
1606836957.7541,-63.0
1606836957.756,-56.0
1606836957.758,-48.0
1606836957.76,-44.0
1606836957.762,-41.0
1606836957.764,-44.0
1606836957.766,-39.0
1606836957.768,-34.0
1606836957.77,-31.0
1606836957.772,-31.0
1606836957.7741,-26.0
1606836957.776,-22.0
1606836957.778,-22.0
1606836957.78,-19.0
1606836957.7822,-12.0
1606836957.7841,-12.0
1606836957.786,-9.0
1606836957.788,0.0
1606836957.79,2.0
1606836957.792,-2.0
1606836957.7941,-4.0
1606836957.7961,-2.0
1606836957.798,0.0
1606836957.8,9.0
1606836957.802,4.0
1606836957.804,-4.0
1606836957.806,-2.0
1606836957.808,7.0
1606836957.81,4.0
1606836957.812,2.0
1606836957.8141,2.0
1606836957.816,0.0
1606836957.818,0.0
1606836957.82,2.0
1606836957.822,4.0
1606836957.8241,7.0
1606836957.826,19.0
1606836957.828,41.0
1606836957.83,51.0
1606836957.832,48.0
1606836957.834,41.0
1606836957.836,31.0
1606836957.838,24.0
1606836957.8401,12.0
1606836957.842,7.0
1606836957.8441,22.0
1606836957.846,46.0
1606836957.848,102.0
1606836957.85,227.0
1606836957.852,383.0
1606836958.2486,503.0
1606836958.2494,601.0
1606836958.2518,836.0
1606836958.2545,1220.0
1606836958.2565,1303.0
1606836958.2584,672.0
1606836958.2605,-85.0
1606836958.2624,-229.0
1606836958.2644,-144.0
1606836958.2664,-234.0
1606836958.2683,-259.0
1606836958.2703,-193.0
1606836958.2723,-190.0
1606836958.2744,-195.0
1606836958.2765,-168.0
1606836958.2786,-161.0
1606836958.2804,-158.0
1606836958.2824,-136.0
1606836958.2844,-117.0
1606836958.2864,-110.0
1606836958.2883,-102.0
1606836958.2903,-88.0
1606836958.2923,-80.0
1606836958.2944,-68.0
1606836958.2964,-53.0
1606836958.2984,-36.0
1606836958.3003,-17.0
1606836958.3023,2.0
1606836958.3044,14.0
1606836958.3063,31.0
1606836958.3083,51.0
1606836958.3103,61.0
1606836958.3123,61.0
1606836958.3144,53.0
1606836958.3164,36.0
1606836958.3184,2.0
1606836958.3203,-34.0
1606836958.3223,-56.0
1606836958.3243,-70.0
1606836958.3263,-83.0
1606836958.3283,-92.0
1606836958.3303,-90.0
1606836958.3323,-78.0
1606836958.3344,-70.0
1606836958.3365,-75.0
1606836958.3384,-75.0
1606836958.3403,-68.0
1606836958.3423,-63.0
1606836958.3444,-61.0
1606836958.3463,-56.0
1606836958.3483,-51.0
1606836958.3503,-46.0
1606836958.3523,-46.0
1606836958.3544,-44.0
1606836958.3563,-39.0
1606836958.3584,-36.0
1606836958.3603,-31.0
1606836958.3623,-29.0
1606836958.3643,-26.0
1606836958.3664,-19.0
1606836958.3683,-17.0
1606836958.3704,-14.0
1606836958.3723,-12.0
1606836958.3744,-12.0
1606836958.3763,-12.0
1606836958.3784,-4.0
1606836958.3805,-7.0
1606836958.3824,-12.0
1606836958.3844,-12.0
1606836958.3863,-9.0
1606836958.3884,-9.0
1606836958.3903,-12.0
1606836958.3923,-12.0
1606836958.8485,-9.0
1606836958.8495,-7.0
1606836958.852,-9.0
1606836958.8546,0.0
1606836958.8565,17.0
1606836958.8585,22.0
1606836958.8607,14.0
1606836958.8625,-2.0
1606836958.8645,-7.0
1606836958.8664,-9.0
1606836958.8684,-22.0
1606836958.8704,-22.0
1606836958.8724,-4.0
1606836958.8745,24.0
1606836958.8764,97.0
1606836958.8784,237.0
1606836958.8805,388.0
1606836958.8824,493.0
1606836958.8844,604.0
1606836958.8864,885.0
1606836958.8884,1288.0
1606836958.8904,1298.0
1606836958.8924,572.0
1606836958.8945,-168.0
1606836958.8964,-244.0
1606836958.8984,-146.0
1606836958.9005,-237.0
1606836958.9024,-244.0
1606836958.9045,-180.0
1606836958.9064,-190.0
1606836958.9084,-190.0
1606836958.9104,-149.0
1606836958.9124,-139.0
1606836958.9145,-139.0
1606836958.9164,-117.0
1606836958.9184,-100.0
1606836958.9204,-92.0
1606836958.9224,-78.0
1606836958.9245,-63.0
1606836958.9264,-53.0
1606836958.9284,-46.0
1606836958.9304,-31.0
1606836958.9325,-12.0
1606836958.9346,9.0
1606836958.9366,26.0
1606836958.9386,41.0
1606836958.9405,56.0
1606836958.9425,73.0
1606836958.9445,83.0
1606836958.9464,80.0
1606836958.9484,75.0
1606836958.9504,53.0
1606836958.9524,14.0
1606836958.9545,-22.0
1606836958.9564,-41.0
1606836958.9584,-51.0
1606836958.9604,-61.0
1606836958.9611,-63.0
1606836958.9636,-61.0
1606836958.9655,-58.0
1606836958.9675,-56.0
1606836958.9694,-51.0
1606836958.9714,-44.0
1606836958.9734,-39.0
1606836958.9754,-36.0
1606836958.9774,-31.0
1606836958.9794,-26.0
1606836958.9815,-22.0
1606836958.9834,-19.0
1606836958.9854,-19.0
1606836958.9874,-17.0
1606836958.9894,-14.0
1606836958.9916,-17.0
1606836959.3887,-14.0
1606836959.3897,-4.0
1606836959.3922,0.0
1606836959.3948,-4.0
1606836959.3967,-4.0
1606836959.3987,2.0
1606836959.4008,7.0
1606836959.4027,4.0
1606836959.4047,4.0
1606836959.4067,7.0
1606836959.4088,-2.0
1606836959.4107,-9.0
1606836959.4127,-2.0
1606836959.4135,-2.0
1606836959.4157,-7.0
1606836959.4177,-4.0
1606836959.4197,4.0
1606836959.4217,4.0
1606836959.4237,-2.0
1606836959.4257,-4.0
1606836959.4277,-4.0
1606836959.4297,4.0
1606836959.4319,19.0
1606836959.4337,34.0
1606836959.4357,46.0
1606836959.4377,51.0
1606836959.4397,41.0
1606836959.4417,31.0
1606836959.4437,26.0
1606836959.4444,17.0
1606836959.4457,19.0
1606836959.4477,36.0
1606836959.4497,68.0
1606836959.4517,141.0
1606836959.4537,281.0
1606836959.4557,449.0
1606836959.4577,584.0
1606836959.4597,718.0
1606836959.4617,985.0
1606836959.4637,1335.0
1606836959.4657,1264.0
1606836959.4677,511.0
1606836959.4697,-149.0
1606836959.4717,-183.0
1606836959.4737,-144.0
1606836959.4744,-259.0
1606836959.4767,-244.0
1606836959.4787,-180.0
1606836959.4807,-195.0
1606836959.4827,-193.0
1606836959.4847,-161.0
1606836959.4867,-146.0
1606836959.4887,-139.0
1606836959.4907,-119.0
1606836959.4927,-107.0
1606836959.4947,-102.0
1606836959.4967,-90.0
1606836959.4987,-78.0
1606836959.5007,-68.0
1606836959.5027,-53.0
1606836959.5047,-41.0
1606836959.5054,-26.0
1606836959.5067,-9.0
1606836959.5087,9.0
1606836959.5107,22.0
1606836959.5127,31.0
1606836959.5147,41.0
1606836959.5167,56.0
1606836959.5187,61.0
1606836959.5207,53.0
1606836959.5227,36.0
1606836959.5247,12.0
1606836959.5267,-17.0
1606836959.9591,-39.0
1606836959.9601,-51.0
1606836959.9625,-58.0
1606836959.9652,-61.0
1606836959.9658,-63.0
1606836959.9682,-63.0
1606836959.9702,-56.0
1606836959.9722,-56.0
1606836959.9741,-61.0
1606836959.9761,-56.0
1606836959.9781,-46.0
1606836959.9801,-44.0
1606836959.9821,-44.0
1606836959.9842,-39.0
1606836959.9861,-39.0
1606836959.988,-39.0
1606836959.9901,-39.0
1606836959.9921,-36.0
1606836959.9941,-36.0
1606836959.9961,-34.0
1606836959.9968,-34.0
1606836959.9991,-29.0
1606836960.0012,-24.0
1606836960.0033,-19.0
1606836960.0052,-19.0
1606836960.008,-14.0
1606836960.0091,-12.0
1606836960.0111,-14.0
1606836960.0131,-9.0
1606836960.0151,-4.0
1606836960.0171,-4.0
1606836960.0191,-9.0
1606836960.0213,-7.0
1606836960.0232,-2.0
1606836960.0251,-2.0
1606836960.0271,-4.0
1606836960.0278,-4.0
1606836960.0302,-2.0
1606836960.0321,0.0
1606836960.0341,2.0
1606836960.0361,0.0
1606836960.0381,-2.0
1606836960.0401,-2.0
1606836960.0421,0.0
1606836960.0441,12.0
1606836960.0461,29.0
1606836960.0481,41.0
1606836960.0501,46.0
1606836960.0521,41.0
1606836960.0541,34.0
1606836960.056,26.0
1606836960.0584,17.0
1606836960.0591,12.0
1606836960.061,19.0
1606836960.0631,41.0
1606836960.0651,80.0
1606836960.0671,173.0
1606836960.0691,325.0
1606836960.0711,484.0
1606836960.0731,608.0
1606836960.0751,765.0
1606836960.077,1061.0
1606836960.0791,1332.0
1606836960.0811,1046.0
1606836960.0831,232.0
1606836960.0851,-220.0
1606836960.087,-156.0
1606836960.0877,-188.0
1606836960.0891,-281.0
1606836960.0911,-224.0
1606836960.0931,-193.0
1606836960.0951,-210.0
1606836960.0971,-185.0
1606836960.5288,-158.0
1606836960.5297,-156.0
1606836960.5321,-144.0
1606836960.5349,-122.0
1606836960.537,-112.0
1606836960.5388,-102.0
1606836960.541,-90.0
1606836960.5428,-75.0
1606836960.5435,-68.0
1606836960.5457,-66.0
1606836960.5477,-58.0
1606836960.5497,-39.0
1606836960.5517,-24.0
1606836960.5537,-9.0
1606836960.5557,14.0
1606836960.5577,34.0
1606836960.5597,46.0
1606836960.5617,53.0
1606836960.5637,58.0
1606836960.5657,51.0
1606836960.5677,24.0
1606836960.5697,-12.0
1606836960.5717,-34.0
1606836960.5737,-46.0
1606836960.5744,-58.0
1606836960.5768,-68.0
1606836960.5787,-66.0
1606836960.5807,-61.0
1606836960.5827,-61.0
1606836960.5849,-53.0
1606836960.5867,-48.0
1606836960.5887,-48.0
1606836960.5907,-46.0
1606836960.5927,-44.0
1606836960.5947,-39.0
1606836960.5967,-34.0
1606836960.5987,-36.0
1606836960.6007,-36.0
1606836960.6027,-26.0
1606836960.6047,-22.0
1606836960.6067,-24.0
1606836960.6087,-24.0
1606836960.6107,-19.0
1606836960.6127,-17.0
1606836960.6147,-12.0
1606836960.6167,-12.0
1606836960.6187,-12.0
1606836960.6207,-7.0
1606836960.6227,-4.0
1606836960.6247,-2.0
1606836960.6267,-4.0
1606836960.6287,-12.0
1606836960.6307,-12.0
1606836960.6327,-7.0
1606836960.6347,-7.0
1606836960.6367,-7.0
1606836960.6387,-4.0
1606836960.6407,-2.0
1606836960.6427,-4.0
1606836960.6447,-2.0
1606836960.6467,-2.0
1606836960.6487,-4.0
1606836960.6507,-4.0
1606836960.6527,-4.0
1606836960.6547,-2.0
1606836960.6567,4.0
1606836960.6587,4.0
1606836960.6607,0.0
1606836960.6627,-2.0
1606836960.6647,-2.0
1606836960.6667,4.0
1606836960.6687,17.0
1606836960.6707,29.0
1606836961.0685,39.0
1606836961.0693,44.0
1606836961.0718,29.0
1606836961.0746,14.0
1606836961.0765,9.0
1606836961.0784,2.0
1606836961.0805,-4.0
1606836961.0827,9.0
1606836961.0844,51.0
1606836961.0864,132.0
1606836961.0884,266.0
1606836961.0904,425.0
1606836961.0924,555.0
1606836961.0945,689.0
1606836961.0964,956.0
1606836961.0984,1278.0
1606836961.1005,1139.0
1606836961.1024,361.0
1606836961.1044,-229.0
1606836961.1064,-212.0
1606836961.1084,-176.0
1606836961.1104,-283.0
1606836961.1123,-256.0
1606836961.1144,-198.0
1606836961.1164,-217.0
1606836961.1183,-212.0
1606836961.1205,-180.0
1606836961.1225,-168.0
1606836961.1244,-158.0
1606836961.1263,-141.0
1606836961.1283,-129.0
1606836961.1303,-119.0
1606836961.1323,-105.0
1606836961.1344,-90.0
1606836961.1364,-85.0
1606836961.1384,-70.0
1606836961.1404,-51.0
1606836961.1423,-41.0
1606836961.1444,-29.0
1606836961.1463,-4.0
1606836961.1483,9.0
1606836961.1503,17.0
1606836961.1524,31.0
1606836961.1544,48.0
1606836961.1564,48.0
1606836961.1583,34.0
1606836961.1603,19.0
1606836961.1623,-9.0
1606836961.1644,-44.0
1606836961.1664,-61.0
1606836961.1683,-68.0
1606836961.1703,-80.0
1606836961.1723,-88.0
1606836961.1743,-88.0
1606836961.1764,-83.0
1606836961.1783,-75.0
1606836961.1803,-73.0
1606836961.1824,-78.0
1606836961.1845,-70.0
1606836961.1864,-61.0
1606836961.1883,-58.0
1606836961.1903,-58.0
1606836961.1923,-53.0
1606836961.1944,-44.0
1606836961.1964,-41.0
1606836961.1983,-44.0
1606836961.2004,-44.0
1606836961.2024,-41.0
1606836961.2043,-34.0
1606836961.2064,-26.0
1606836961.2085,-22.0
1606836961.2104,-19.0
1606836961.2124,-26.0
1606836961.6082,-31.0
1606836961.609,-22.0
1606836961.6102,-12.0
1606836961.612,-14.0
1606836961.6141,-19.0
1606836961.616,-17.0
1606836961.618,-14.0
1606836961.62,-19.0
1606836961.622,-29.0
1606836961.624,-31.0
1606836961.6259,-26.0
1606836961.628,-24.0
1606836961.6299,-31.0
1606836961.6319,-31.0
1606836961.634,-22.0
1606836961.6359,-12.0
1606836961.6379,-7.0
1606836961.6399,4.0
1606836961.6419,19.0
1606836961.6439,24.0
1606836961.6459,17.0
1606836961.6479,4.0
1606836961.6499,-12.0
1606836961.652,-17.0
1606836961.6539,-4.0
1606836961.6559,7.0
1606836961.6579,19.0
1606836961.6599,78.0
1606836961.662,205.0
1606836961.6639,364.0
1606836961.6659,464.0
1606836961.6679,540.0
1606836961.6699,780.0
1606836961.6719,1212.0
1606836961.6739,1367.0
1606836961.6759,740.0
1606836961.678,-110.0
1606836961.6799,-298.0
1606836961.6819,-158.0
1606836961.6839,-220.0
1606836961.6859,-264.0
1606836961.6879,-200.0
1606836961.6899,-190.0
1606836961.6919,-202.0
1606836961.6939,-173.0
1606836961.6959,-149.0
1606836961.6979,-144.0
1606836961.6999,-132.0
1606836961.7019,-112.0
1606836961.7039,-100.0
1606836961.7059,-85.0
1606836961.7079,-68.0
1606836961.7099,-58.0
1606836961.7119,-44.0
1606836961.7139,-24.0
1606836961.7159,-9.0
1606836961.7179,9.0
1606836961.7199,36.0
1606836961.7219,56.0
1606836961.7239,68.0
1606836961.7259,83.0
1606836961.7279,97.0
1606836961.7299,95.0
1606836961.7319,83.0
1606836961.7339,53.0
1606836961.7359,7.0
1606836961.7379,-34.0
1606836961.7399,-63.0
1606836961.7419,-80.0
1606836961.7439,-88.0
1606836961.7459,-88.0
1606836961.7479,-88.0
1606836961.7499,-83.0
1606836962.2084,-73.0
1606836962.2094,-68.0
1606836962.2119,-66.0
1606836962.2146,-61.0
1606836962.2165,-61.0
1606836962.2185,-66.0
1606836962.2206,-66.0
1606836962.2225,-66.0
1606836962.2245,-66.0
1606836962.2265,-53.0
1606836962.2286,-46.0
1606836962.2305,-44.0
1606836962.2325,-39.0
1606836962.2345,-29.0
1606836962.2367,-22.0
1606836962.2385,-14.0
1606836962.2404,-14.0
1606836962.2424,-17.0
1606836962.2445,-12.0
1606836962.2464,-9.0
1606836962.2486,-14.0
1606836962.2505,-17.0
1606836962.2511,-9.0
1606836962.2525,-9.0
1606836962.2544,-19.0
1606836962.2564,-24.0
1606836962.2584,-26.0
1606836962.2604,-24.0
1606836962.2624,-12.0
1606836962.2644,4.0
1606836962.2664,12.0
1606836962.2684,12.0
1606836962.2704,12.0
1606836962.2724,2.0
1606836962.2745,-7.0
1606836962.2764,-12.0
1606836962.2784,-17.0
1606836962.2804,-7.0
1606836962.2811,17.0
1606836962.2824,61.0
1606836962.2844,158.0
1606836962.2864,325.0
1606836962.2884,481.0
1606836962.2904,591.0
1606836962.2925,762.0
1606836962.2945,1115.0
1606836962.2964,1403.0
1606836962.2984,1036.0
1606836962.3005,154.0
1606836962.3024,-276.0
1606836962.3045,-173.0
1606836962.3064,-188.0
1606836962.3084,-273.0
1606836962.3104,-217.0
1606836962.3111,-185.0
1606836962.3125,-205.0
1606836962.3145,-180.0
1606836962.3165,-154.0
1606836962.3184,-151.0
1606836962.3204,-139.0
1606836962.3224,-117.0
1606836962.3245,-105.0
1606836962.3264,-95.0
1606836962.3284,-83.0
1606836962.3304,-68.0
1606836962.3326,-53.0
1606836962.3345,-39.0
1606836962.3364,-26.0
1606836962.3384,-9.0
1606836962.3404,7.0
1606836962.3411,26.0
1606836962.3424,46.0
1606836962.3444,63.0
1606836962.7486,75.0
1606836962.7498,83.0
1606836962.7522,85.0
1606836962.7549,73.0
1606836962.7569,44.0
1606836962.7589,7.0
1606836962.761,-17.0
1606836962.7629,-31.0
1606836962.7649,-44.0
1606836962.7669,-51.0
1606836962.7689,-58.0
1606836962.7709,-58.0
1606836962.773,-48.0
1606836962.7737,-44.0
1606836962.7822,-46.0
1606836962.7848,-41.0
1606836962.7869,-29.0
1606836962.7888,-26.0
1606836962.7909,-29.0
1606836962.7928,-22.0
1606836962.7948,-19.0
1606836962.7968,-19.0
1606836962.7988,-22.0
1606836962.8008,-24.0
1606836962.8028,-24.0
1606836962.8048,-22.0
1606836962.8068,-17.0
1606836962.8088,-12.0
1606836962.8108,-7.0
1606836962.8114,-2.0
1606836962.8129,2.0
1606836962.8148,7.0
1606836962.8167,7.0
1606836962.8188,4.0
1606836962.8208,7.0
1606836962.8228,7.0
1606836962.8248,9.0
1606836962.8267,12.0
1606836962.8288,9.0
1606836962.8307,7.0
1606836962.8327,9.0
1606836962.8348,7.0
1606836962.8368,2.0
1606836962.8389,2.0
1606836962.8408,2.0
1606836962.8414,7.0
1606836962.8428,19.0
1606836962.8448,31.0
1606836962.8467,41.0
1606836962.8488,46.0
1606836962.8508,41.0
1606836962.8528,29.0
1606836962.8547,14.0
1606836962.8568,7.0
1606836962.8588,12.0
1606836962.8608,29.0
1606836962.8628,61.0
1606836962.8648,136.0
1606836962.8669,278.0
1606836962.8688,452.0
1606836962.8708,594.0
1606836962.8715,733.0
1606836962.8728,1009.0
1606836962.8749,1367.0
1606836962.8768,1271.0
1606836962.8788,481.0
1606836962.8808,-166.0
1606836962.8828,-180.0
1606836962.8848,-151.0
1606836962.8867,-266.0
1606836962.8888,-242.0
1606836962.8908,-183.0
1606836962.8928,-202.0
1606836963.3488,-193.0
1606836963.35,-156.0
1606836963.3524,-149.0
1606836963.3551,-141.0
1606836963.3571,-122.0
1606836963.359,-112.0
1606836963.361,-112.0
1606836963.363,-107.0
1606836963.365,-95.0
1606836963.367,-80.0
1606836963.369,-68.0
1606836963.371,-56.0
1606836963.373,-39.0
1606836963.375,-19.0
1606836963.3769,-4.0
1606836963.3789,9.0
1606836963.381,24.0
1606836963.3817,46.0
1606836963.3841,58.0
1606836963.3859,63.0
1606836963.3879,61.0
1606836963.3901,41.0
1606836963.392,7.0
1606836963.394,-22.0
1606836963.3959,-39.0
1606836963.398,-51.0
1606836963.3999,-56.0
1606836963.4019,-56.0
1606836963.4039,-51.0
1606836963.4059,-48.0
1606836963.4079,-53.0
1606836963.4099,-51.0
1606836963.4119,-41.0
1606836963.4126,-34.0
1606836963.4139,-31.0
1606836963.4159,-26.0
1606836963.4179,-24.0
1606836963.4199,-26.0
1606836963.4219,-26.0
1606836963.424,-22.0
1606836963.4259,-22.0
1606836963.4279,-22.0
1606836963.4299,-22.0
1606836963.4319,-24.0
1606836963.434,-22.0
1606836963.4359,-14.0
1606836963.4379,-9.0
1606836963.4399,-7.0
1606836963.4419,-4.0
1606836963.4428,-7.0
1606836963.4441,-4.0
1606836963.4459,4.0
1606836963.4479,9.0
1606836963.4499,7.0
1606836963.4519,7.0
1606836963.4539,7.0
1606836963.4559,4.0
1606836963.4579,7.0
1606836963.4599,14.0
1606836963.462,14.0
1606836963.464,14.0
1606836963.4659,12.0
1606836963.4679,9.0
1606836963.4699,12.0
1606836963.4706,14.0
1606836963.4719,14.0
1606836963.4739,17.0
1606836963.4759,17.0
1606836963.4779,14.0
1606836963.4799,9.0
1606836963.4819,9.0
1606836963.4839,19.0
1606836963.4861,34.0
1606836963.8587,46.0
1606836963.8596,56.0
1606836963.8621,58.0
1606836963.8648,51.0
1606836963.8669,39.0
1606836963.8687,29.0
1606836963.8708,24.0
1606836963.8791,24.0
1606836963.8807,34.0
1606836963.8827,70.0
1606836963.8847,161.0
1606836963.8866,303.0
1606836963.8886,457.0
1606836963.8906,586.0
1606836963.8926,738.0
1606836963.8947,1017.0
1606836963.8966,1337.0
1606836963.8986,1178.0
1606836963.9006,388.0
1606836963.9026,-185.0
1606836963.9046,-168.0
1606836963.9066,-156.0
1606836963.9073,-264.0
1606836963.9085,-234.0
1606836963.9106,-185.0
1606836963.9126,-200.0
1606836963.9146,-183.0
1606836963.9166,-154.0
1606836963.9186,-149.0
1606836963.9206,-141.0
1606836963.9226,-122.0
1606836963.9246,-112.0
1606836963.9266,-105.0
1606836963.9287,-88.0
1606836963.9306,-75.0
1606836963.9326,-68.0
1606836963.9347,-58.0
1606836963.9366,-41.0
1606836963.9373,-24.0
1606836963.9386,-9.0
1606836963.9406,4.0
1606836963.9426,24.0
1606836963.9446,44.0
1606836963.9466,58.0
1606836963.9486,73.0
1606836963.9506,80.0
1606836963.9526,73.0
1606836963.9547,48.0
1606836963.9566,19.0
1606836963.9586,-4.0
1606836963.9608,-24.0
1606836963.9627,-36.0
1606836963.9646,-44.0
1606836963.9666,-48.0
1606836963.9673,-53.0
1606836963.9696,-51.0
1606836963.9716,-44.0
1606836963.9736,-39.0
1606836963.9757,-31.0
1606836963.9777,-31.0
1606836963.9796,-31.0
1606836963.9816,-29.0
1606836963.9836,-26.0
1606836963.9856,-26.0
1606836963.9877,-22.0
1606836963.9896,-19.0
1606836963.9916,-24.0
1606836963.9936,-26.0
1606836963.9956,-24.0
1606836963.9976,-19.0
1606836963.9983,-17.0
1606836964.0006,-19.0
1606836964.0026,-22.0
1606836964.429,-22.0
1606836964.4299,-22.0
1606836964.4323,-17.0
1606836964.435,-12.0
1606836964.4371,-14.0
1606836964.439,-22.0
1606836964.4411,-24.0
1606836964.443,-22.0
1606836964.4449,-22.0
1606836964.447,-22.0
1606836964.4489,-17.0
1606836964.4497,-17.0
1606836964.4522,-22.0
1606836964.4539,-22.0
1606836964.4559,-17.0
1606836964.4579,-12.0
1606836964.4599,-12.0
1606836964.4619,-12.0
1606836964.464,-12.0
1606836964.4659,-12.0
1606836964.4679,-14.0
1606836964.4699,-14.0
1606836964.4719,-12.0
1606836964.4739,-9.0
1606836964.4758,-7.0
1606836964.4778,-4.0
1606836964.4798,-7.0
1606836964.4806,-7.0
1606836964.483,-2.0
1606836964.4849,-2.0
1606836964.4869,-2.0
1606836964.4888,2.0
1606836964.4908,4.0
1606836964.4929,0.0
1606836964.4949,-4.0
1606836964.4968,-2.0
1606836964.4989,2.0
1606836964.5008,12.0
1606836964.5028,24.0
1606836964.5049,36.0
1606836964.5068,39.0
1606836964.5088,31.0
1606836964.5108,24.0
1606836964.5116,19.0
1606836964.5139,4.0
1606836964.5158,-2.0
1606836964.5178,12.0
1606836964.5199,41.0
1606836964.5219,90.0
1606836964.5239,198.0
1606836964.5258,359.0
1606836964.5279,498.0
1606836964.5298,599.0
1606836964.5318,809.0
1606836964.5339,1190.0
1606836964.5358,1325.0
1606836964.5378,743.0
1606836964.5399,-39.0
1606836964.5418,-227.0
1606836964.5426,-141.0
1606836964.5449,-227.0
1606836964.547,-259.0
1606836964.5488,-193.0
1606836964.5508,-190.0
1606836964.5529,-202.0
1606836964.5548,-173.0
1606836964.5568,-156.0
1606836964.5588,-156.0
1606836964.5609,-139.0
1606836964.5628,-124.0
1606836964.5649,-117.0
1606836964.5668,-102.0
1606836964.5688,-88.0
1606836964.9681,-78.0
1606836964.9689,-66.0
1606836964.9713,-53.0
1606836964.9741,-41.0
1606836964.976,-22.0
1606836964.9781,0.0
1606836964.9804,9.0
1606836964.9821,17.0
1606836964.9839,41.0
1606836964.9859,58.0
1606836964.9879,61.0
1606836964.9899,56.0
1606836964.992,44.0
1606836964.994,12.0
1606836964.9959,-26.0
1606836964.998,-58.0
1606836965.0,-80.0
1606836965.0006,-92.0
1606836965.0019,-95.0
1606836965.0039,-95.0
1606836965.0059,-95.0
1606836965.0079,-90.0
1606836965.0099,-85.0
1606836965.0119,-83.0
1606836965.0139,-75.0
1606836965.0159,-68.0
1606836965.0179,-63.0
1606836965.0199,-61.0
1606836965.0219,-53.0
1606836965.024,-46.0
1606836965.0259,-46.0
1606836965.0279,-44.0
1606836965.0299,-39.0
1606836965.0306,-34.0
1606836965.0319,-29.0
1606836965.034,-22.0
1606836965.0359,-22.0
1606836965.0379,-24.0
1606836965.0399,-24.0
1606836965.0419,-19.0
1606836965.0439,-14.0
1606836965.0459,-9.0
1606836965.0479,-9.0
1606836965.0499,-12.0
1606836965.0519,-9.0
1606836965.0539,-9.0
1606836965.0559,-14.0
1606836965.0579,-17.0
1606836965.0599,-9.0
1606836965.0606,-4.0
1606836965.0619,-2.0
1606836965.064,-2.0
1606836965.0659,-9.0
1606836965.0679,-12.0
1606836965.0699,-12.0
1606836965.0719,-4.0
1606836965.074,2.0
1606836965.0761,-2.0
1606836965.078,-9.0
1606836965.0799,-17.0
1606836965.0819,-14.0
1606836965.084,-2.0
1606836965.0859,7.0
1606836965.0879,17.0
1606836965.0899,26.0
1606836965.0906,34.0
1606836965.0919,29.0
1606836965.0939,17.0
1606836965.0959,9.0
1606836965.098,2.0
1606836965.1,2.0
1606836965.1019,14.0
1606836965.1039,39.0
1606836965.5689,90.0
1606836965.57,200.0
1606836965.5725,354.0
1606836965.5742,471.0
1606836965.5762,550.0
1606836965.5782,758.0
1606836965.5789,1168.0
1606836965.5801,1359.0
1606836965.5821,804.0
1606836965.5842,-39.0
1606836965.586,-283.0
1606836965.5881,-156.0
1606836965.5901,-212.0
1606836965.5921,-264.0
1606836965.5941,-198.0
1606836965.5961,-185.0
1606836965.598,-198.0
1606836965.6,-168.0
1606836965.602,-149.0
1606836965.604,-144.0
1606836965.606,-129.0
1606836965.608,-112.0
1606836965.6087,-100.0
1606836965.61,-88.0
1606836965.612,-78.0
1606836965.6141,-66.0
1606836965.616,-51.0
1606836965.618,-39.0
1606836965.62,-24.0
1606836965.622,-7.0
1606836965.624,14.0
1606836965.626,36.0
1606836965.628,53.0
1606836965.63,66.0
1606836965.632,70.0
1606836965.6342,73.0
1606836965.636,68.0
1606836965.638,46.0
1606836965.6387,7.0
1606836965.6411,-34.0
1606836965.643,-63.0
1606836965.645,-78.0
1606836965.647,-85.0
1606836965.649,-88.0
1606836965.651,-88.0
1606836965.653,-85.0
1606836965.655,-78.0
1606836965.657,-75.0
1606836965.659,-70.0
1606836965.661,-61.0
1606836965.663,-53.0
1606836965.665,-58.0
1606836965.667,-63.0
1606836965.6677,-53.0
1606836965.669,-46.0
1606836965.671,-44.0
1606836965.673,-36.0
1606836965.675,-31.0
1606836965.677,-26.0
1606836965.679,-19.0
1606836965.681,-17.0
1606836965.6831,-9.0
1606836965.685,-4.0
1606836965.687,-4.0
1606836965.689,-2.0
1606836965.691,0.0
1606836965.693,0.0
1606836965.695,-2.0
1606836965.697,-2.0
1606836965.6977,0.0
1606836965.699,-2.0
1606836965.701,-4.0
1606836965.703,0.0
1606836966.1388,2.0
1606836966.1399,0.0
1606836966.1423,0.0
1606836966.145,4.0
1606836966.1469,4.0
1606836966.1489,2.0
1606836966.151,4.0
1606836966.1529,9.0
1606836966.1549,2.0
1606836966.1569,-4.0
1606836966.1576,-4.0
1606836966.1589,0.0
1606836966.1609,2.0
1606836966.1632,0.0
1606836966.165,-2.0
1606836966.1668,2.0
1606836966.1689,12.0
1606836966.1709,26.0
1606836966.1728,41.0
1606836966.1748,51.0
1606836966.1768,41.0
1606836966.1788,29.0
1606836966.1808,29.0
1606836966.1828,24.0
1606836966.1848,17.0
1606836966.1868,22.0
1606836966.1875,46.0
1606836966.1888,105.0
1606836966.1908,227.0
1606836966.1928,388.0
1606836966.1948,538.0
1606836966.1969,660.0
1606836966.1988,882.0
1606836966.2008,1247.0
1606836966.2028,1352.0
1606836966.2048,753.0
1606836966.2068,-26.0
1606836966.2088,-212.0
1606836966.2108,-132.0
1606836966.2128,-220.0
1606836966.2148,-251.0
1606836966.2168,-188.0
1606836966.2175,-185.0
1606836966.2188,-190.0
1606836966.2208,-163.0
1606836966.2228,-154.0
1606836966.2249,-149.0
1606836966.2268,-134.0
1606836966.2288,-122.0
1606836966.2308,-112.0
1606836966.2328,-100.0
1606836966.2348,-85.0
1606836966.2368,-75.0
1606836966.2388,-66.0
1606836966.2408,-46.0
1606836966.2428,-34.0
1606836966.2448,-24.0
1606836966.2468,-7.0
1606836966.2475,12.0
1606836966.2488,31.0
1606836966.2508,48.0
1606836966.2528,61.0
1606836966.2548,70.0
1606836966.2568,70.0
1606836966.2589,53.0
1606836966.2608,19.0
1606836966.2628,-14.0
1606836966.2648,-44.0
1606836966.2668,-66.0
1606836966.2688,-73.0
1606836966.2708,-70.0
1606836966.2728,-75.0
1606836966.2748,-75.0
1606836966.7082,-66.0
1606836966.7091,-58.0
1606836966.7115,-58.0
1606836966.7143,-53.0
1606836966.7162,-46.0
1606836966.7182,-41.0
1606836966.7203,-39.0
1606836966.7222,-36.0
1606836966.7243,-31.0
1606836966.7261,-31.0
1606836966.7281,-34.0
1606836966.7301,-36.0
1606836966.7321,-34.0
1606836966.7342,-31.0
1606836966.7361,-29.0
1606836966.7381,-24.0
1606836966.7388,-22.0
1606836966.7401,-17.0
1606836966.7421,-12.0
1606836966.7441,-9.0
1606836966.7461,-9.0
1606836966.7481,-7.0
1606836966.7501,-2.0
1606836966.7521,0.0
1606836966.7541,0.0
1606836966.7561,-2.0
1606836966.7582,-2.0
1606836966.7601,0.0
1606836966.7621,0.0
1606836966.7642,2.0
1606836966.7661,2.0
1606836966.7681,0.0
1606836966.7688,0.0
1606836966.7701,0.0
1606836966.7721,2.0
1606836966.7741,9.0
1606836966.7761,7.0
1606836966.7781,0.0
1606836966.7801,2.0
1606836966.7821,7.0
1606836966.7841,9.0
1606836966.7861,9.0
1606836966.7883,9.0
1606836966.7902,9.0
1606836966.7921,9.0
1606836966.7941,9.0
1606836966.7961,9.0
1606836966.7981,7.0
1606836966.7988,4.0
1606836966.8001,2.0
1606836966.8021,14.0
1606836966.8041,34.0
1606836966.8061,44.0
1606836966.8081,44.0
1606836966.8101,34.0
1606836966.8121,26.0
1606836966.8141,17.0
1606836966.8161,9.0
1606836966.8181,9.0
1606836966.8201,22.0
1606836966.8221,51.0
1606836966.8241,112.0
1606836966.8261,239.0
1606836966.8281,410.0
1606836966.8288,550.0
1606836966.8295,689.0
1606836966.8311,956.0
1606836966.8331,1283.0
1606836966.8351,1181.0
1606836966.8371,459.0
1606836966.8391,-132.0
1606836966.8411,-163.0
1606836966.8431,-156.0
1606836967.2486,-266.0
1606836967.2495,-242.0
1606836967.2519,-188.0
1606836967.2546,-205.0
1606836967.2552,-198.0
1606836967.2566,-163.0
1606836967.2586,-154.0
1606836967.2607,-146.0
1606836967.2626,-129.0
1606836967.2646,-119.0
1606836967.2665,-112.0
1606836967.2685,-107.0
1606836967.2705,-100.0
1606836967.2725,-83.0
1606836967.2746,-63.0
1606836967.2765,-51.0
1606836967.2785,-39.0
1606836967.2805,-22.0
1606836967.2825,-2.0
1606836967.2845,19.0
1606836967.2853,41.0
1606836967.2865,58.0
1606836967.2885,73.0
1606836967.2905,80.0
1606836967.2925,75.0
1606836967.2945,53.0
1606836967.2965,22.0
1606836967.2985,-14.0
1606836967.3005,-41.0
1606836967.3025,-66.0
1606836967.3046,-83.0
1606836967.3065,-90.0
1606836967.3085,-83.0
1606836967.3105,-73.0
1606836967.3125,-68.0
1606836967.3145,-66.0
1606836967.3151,-61.0
1606836967.3164,-53.0
1606836967.3185,-46.0
1606836967.3205,-41.0
1606836967.3224,-39.0
1606836967.3245,-34.0
1606836967.3264,-31.0
1606836967.3284,-29.0
1606836967.3304,-26.0
1606836967.3325,-24.0
1606836967.3345,-22.0
1606836967.3365,-22.0
1606836967.3385,-17.0
1606836967.3405,-12.0
1606836967.3424,-9.0
1606836967.3445,-7.0
1606836967.3451,0.0
1606836967.3464,0.0
1606836967.3484,-2.0
1606836967.3504,0.0
1606836967.3524,7.0
1606836967.3544,9.0
1606836967.3565,7.0
1606836967.3585,7.0
1606836967.3605,9.0
1606836967.3625,12.0
1606836967.3645,4.0
1606836967.3664,0.0
1606836967.3685,9.0
1606836967.3704,9.0
1606836967.3724,2.0
1606836967.3745,4.0
1606836967.375,14.0
1606836967.3764,14.0
1606836967.3785,9.0
1606836967.3806,7.0
1606836967.3825,4.0
1606836967.7888,4.0
1606836967.7897,9.0
1606836967.7921,9.0
1606836967.7939,12.0
1606836967.7958,14.0
1606836967.7977,4.0
1606836967.7998,12.0
1606836967.8018,29.0
1606836967.8038,31.0
1606836967.8057,24.0
1606836967.8077,29.0
1606836967.8083,24.0
1606836967.8097,9.0
1606836967.8117,4.0
1606836967.8138,4.0
1606836967.8157,4.0
1606836967.8177,17.0
1606836967.8197,53.0
1606836967.8217,136.0
1606836967.8237,281.0
1606836967.8257,430.0
1606836967.8277,545.0
1606836967.8297,709.0
1606836967.8317,1041.0
1606836967.8337,1283.0
1606836967.8358,895.0
1606836967.8377,100.0
1606836967.8383,-239.0
1606836967.8397,-158.0
1606836967.8417,-198.0
1606836967.8437,-264.0
1606836967.8456,-217.0
1606836967.8477,-195.0
1606836967.8497,-205.0
1606836967.8517,-183.0
1606836967.8537,-163.0
1606836967.8557,-158.0
1606836967.8576,-139.0
1606836967.8597,-119.0
1606836967.8617,-110.0
1606836967.8637,-97.0
1606836967.8656,-83.0
1606836967.8677,-73.0
1606836967.8683,-58.0
1606836967.8696,-39.0
1606836967.8716,-22.0
1606836967.8737,-7.0
1606836967.8756,12.0
1606836967.8776,34.0
1606836967.8798,53.0
1606836967.8817,70.0
1606836967.8837,83.0
1606836967.8857,92.0
1606836967.8877,95.0
1606836967.8896,83.0
1606836967.8916,46.0
1606836967.8937,4.0
1606836967.8956,-29.0
1606836967.8977,-58.0
1606836967.8983,-75.0
1606836967.8996,-75.0
1606836967.9017,-73.0
1606836967.9037,-75.0
1606836967.9057,-75.0
1606836967.9077,-66.0
1606836967.9097,-58.0
1606836967.9117,-56.0
1606836967.9137,-51.0
1606836967.9156,-44.0
1606836967.9176,-39.0
1606836967.9196,-36.0
1606836967.9217,-31.0
1606836967.9237,-24.0
1606836968.3286,-22.0
1606836968.3295,-19.0
1606836968.3319,-17.0
1606836968.3346,-9.0
1606836968.3366,-4.0
1606836968.3385,-7.0
1606836968.3407,-12.0
1606836968.3425,-9.0
1606836968.3445,-2.0
1606836968.3465,-4.0
1606836968.3485,-7.0
1606836968.3505,0.0
1606836968.3525,4.0
1606836968.3545,4.0
1606836968.3551,2.0
1606836968.3565,-2.0
1606836968.3585,-4.0
1606836968.3604,-2.0
1606836968.3625,-4.0
1606836968.3646,-2.0
1606836968.3664,2.0
1606836968.3685,0.0
1606836968.3704,-9.0
1606836968.3725,-7.0
1606836968.3745,2.0
1606836968.3765,0.0
1606836968.3784,-2.0
1606836968.3806,0.0
1606836968.3825,4.0
1606836968.3844,12.0
1606836968.3851,29.0
1606836968.3864,41.0
1606836968.3885,46.0
1606836968.3904,39.0
1606836968.3924,24.0
1606836968.3945,19.0
1606836968.3958,17.0
1606836968.3975,9.0
1606836968.3995,19.0
1606836968.4014,53.0
1606836968.4035,114.0
1606836968.4054,237.0
1606836968.4074,401.0
1606836968.4094,542.0
1606836968.4114,665.0
1606836968.4135,895.0
1606836968.414,1230.0
1606836968.4154,1227.0
1606836968.4174,564.0
1606836968.4194,-114.0
1606836968.4214,-200.0
1606836968.4235,-134.0
1606836968.4255,-232.0
1606836968.4275,-242.0
1606836968.4295,-183.0
1606836968.4314,-193.0
1606836968.4335,-200.0
1606836968.4354,-171.0
1606836968.4374,-158.0
1606836968.4394,-156.0
1606836968.4414,-139.0
1606836968.4435,-119.0
1606836968.444,-107.0
1606836968.4454,-97.0
1606836968.4474,-88.0
1606836968.4494,-78.0
1606836968.4514,-61.0
1606836968.4535,-46.0
1606836968.4554,-31.0
1606836968.4574,-19.0
1606836968.4594,0.0
1606836968.4614,19.0
1606836968.4635,39.0
1606836968.9287,58.0
1606836968.9296,70.0
1606836968.9321,70.0
1606836968.9348,56.0
1606836968.9367,31.0
1606836968.9376,2.0
1606836968.9387,-34.0
1606836968.9408,-70.0
1606836968.9427,-88.0
1606836968.9448,-90.0
1606836968.9467,-92.0
1606836968.9487,-92.0
1606836968.9507,-90.0
1606836968.9527,-88.0
1606836968.9547,-83.0
1606836968.9566,-73.0
1606836968.9587,-68.0
1606836968.9606,-63.0
1606836968.9626,-58.0
1606836968.9647,-51.0
1606836968.9666,-46.0
1606836968.9672,-41.0
1606836968.9686,-39.0
1606836968.9706,-39.0
1606836968.9726,-34.0
1606836968.9746,-24.0
1606836968.9766,-19.0
1606836968.9786,-19.0
1606836968.9806,-14.0
1606836968.9826,-7.0
1606836968.9847,-4.0
1606836968.9866,-2.0
1606836968.9887,2.0
1606836968.9906,2.0
1606836968.9926,2.0
1606836968.9946,2.0
1606836968.9966,7.0
1606836968.9972,7.0
1606836968.9986,7.0
1606836969.0006,2.0
1606836969.0026,4.0
1606836969.0046,4.0
1606836969.0067,2.0
1606836969.0086,4.0
1606836969.0106,2.0
1606836969.0126,-2.0
1606836969.0147,-2.0
1606836969.0166,2.0
1606836969.0186,4.0
1606836969.0206,2.0
1606836969.0226,4.0
1606836969.0246,2.0
1606836969.0266,2.0
1606836969.0272,2.0
1606836969.0286,-2.0
1606836969.0306,2.0
1606836969.0328,19.0
1606836969.0347,34.0
1606836969.0366,39.0
1606836969.0386,44.0
1606836969.0406,39.0
1606836969.0426,24.0
1606836969.0446,14.0
1606836969.0466,7.0
1606836969.0486,7.0
1606836969.0506,22.0
1606836969.0526,48.0
1606836969.0546,110.0
1606836969.0566,239.0
1606836969.0572,405.0
1606836969.0586,547.0
1606836969.0606,689.0
1606836969.0626,951.0
1606836969.4988,1256.0
1606836969.4997,1120.0
1606836969.5021,396.0
1606836969.5039,-158.0
1606836969.5058,-176.0
1606836969.5077,-173.0
1606836969.5098,-269.0
1606836969.5118,-246.0
1606836969.5139,-215.0
1606836969.5158,-234.0
1606836969.5164,-217.0
1606836969.5178,-185.0
1606836969.5198,-183.0
1606836969.5218,-173.0
1606836969.5238,-154.0
1606836969.5258,-141.0
1606836969.5278,-132.0
1606836969.5298,-114.0
1606836969.5318,-97.0
1606836969.5337,-88.0
1606836969.5357,-78.0
1606836969.5377,-63.0
1606836969.5397,-41.0
1606836969.5417,-24.0
1606836969.5438,-7.0
1606836969.5457,14.0
1606836969.5463,34.0
1606836969.5477,48.0
1606836969.5497,63.0
1606836969.5517,70.0
1606836969.5538,66.0
1606836969.5557,36.0
1606836969.5577,2.0
1606836969.5597,-29.0
1606836969.5619,-53.0
1606836969.5638,-70.0
1606836969.5657,-80.0
1606836969.5677,-83.0
1606836969.5697,-83.0
1606836969.5717,-78.0
1606836969.5737,-70.0
1606836969.5757,-66.0
1606836969.5763,-58.0
1606836969.5777,-53.0
1606836969.5797,-51.0
1606836969.5817,-44.0
1606836969.5838,-36.0
1606836969.5857,-34.0
1606836969.5877,-31.0
1606836969.5897,-26.0
1606836969.5917,-24.0
1606836969.5937,-22.0
1606836969.5957,-22.0
1606836969.5977,-14.0
1606836969.5997,-9.0
1606836969.6017,-9.0
1606836969.6037,-7.0
1606836969.6057,-2.0
1606836969.6063,0.0
1606836969.6077,0.0
1606836969.6097,4.0
1606836969.6117,12.0
1606836969.6137,14.0
1606836969.6157,9.0
1606836969.6177,2.0
1606836969.6197,-2.0
1606836969.6217,-4.0
1606836969.6237,-2.0
1606836969.6257,-4.0
1606836969.6277,-4.0
1606836969.6297,-4.0
1606836969.6317,-2.0
1606836969.6337,0.0
1606836970.0384,-2.0
1606836970.0392,-2.0
1606836970.0417,0.0
1606836970.0444,2.0
1606836970.0463,2.0
1606836970.0483,0.0
1606836970.0503,2.0
1606836970.0523,7.0
1606836970.0543,2.0
1606836970.0563,-9.0
1606836970.0583,-17.0
1606836970.0603,-7.0
1606836970.0625,2.0
1606836970.0643,12.0
1606836970.0649,24.0
1606836970.0662,36.0
1606836970.0682,36.0
1606836970.0702,24.0
1606836970.0722,12.0
1606836970.0743,4.0
1606836970.0762,0.0
1606836970.0782,7.0
1606836970.0803,24.0
1606836970.0822,70.0
1606836970.0843,173.0
1606836970.0862,330.0
1606836970.0882,481.0
1606836970.0902,596.0
1606836970.0922,782.0
1606836970.0943,1122.0
1606836970.0948,1259.0
1606836970.0963,731.0
1606836970.0982,-22.0
1606836970.1002,-229.0
1606836970.1022,-144.0
1606836970.1042,-220.0
1606836970.1062,-264.0
1606836970.1082,-205.0
1606836970.1102,-202.0
1606836970.1122,-212.0
1606836970.1142,-178.0
1606836970.1164,-158.0
1606836970.1182,-158.0
1606836970.1202,-146.0
1606836970.1222,-132.0
1606836970.1242,-124.0
1606836970.1248,-110.0
1606836970.1262,-95.0
1606836970.1282,-80.0
1606836970.1302,-63.0
1606836970.1322,-51.0
1606836970.1342,-41.0
1606836970.1363,-22.0
1606836970.1382,2.0
1606836970.1402,19.0
1606836970.1422,34.0
1606836970.1442,51.0
1606836970.1462,61.0
1606836970.1482,66.0
1606836970.1502,63.0
1606836970.1522,41.0
1606836970.1542,4.0
1606836970.1548,-29.0
1606836970.1563,-58.0
1606836970.1583,-85.0
1606836970.1602,-95.0
1606836970.1622,-95.0
1606836970.1642,-97.0
1606836970.1662,-95.0
1606836970.1682,-85.0
1606836970.1702,-78.0
1606836970.1722,-75.0
1606836970.1742,-75.0
1606836970.6085,-70.0
1606836970.6094,-63.0
1606836970.6119,-58.0
1606836970.6146,-51.0
1606836970.6165,-44.0
1606836970.6172,-44.0
1606836970.6185,-56.0
1606836970.6207,-58.0
1606836970.6225,-46.0
1606836970.6245,-39.0
1606836970.6265,-39.0
1606836970.6285,-34.0
1606836970.6305,-29.0
1606836970.6325,-24.0
1606836970.6344,-24.0
1606836970.6365,-24.0
1606836970.6384,-19.0
1606836970.6404,-17.0
1606836970.6424,-14.0
1606836970.6445,-14.0
1606836970.6464,-14.0
1606836970.647,-14.0
1606836970.6485,-14.0
1606836970.6504,-14.0
1606836970.6524,-17.0
1606836970.6544,-12.0
1606836970.6564,-9.0
1606836970.6584,-12.0
1606836970.6604,-12.0
1606836970.6624,-14.0
1606836970.6644,-12.0
1606836970.6664,4.0
1606836970.6685,24.0
1606836970.6704,31.0
1606836970.6724,31.0
1606836970.6744,29.0
1606836970.6764,17.0
1606836970.677,4.0
1606836970.6784,0.0
1606836970.6804,4.0
1606836970.6824,14.0
1606836970.6845,36.0
1606836970.6864,97.0
1606836970.6884,222.0
1606836970.6904,379.0
1606836970.6924,506.0
1606836970.6944,616.0
1606836970.6964,863.0
1606836970.6984,1232.0
1606836970.7004,1239.0
1606836970.7024,552.0
1606836970.7044,-144.0
1606836970.7064,-222.0
1606836970.707,-139.0
1606836970.7084,-229.0
1606836970.7104,-237.0
1606836970.7124,-176.0
1606836970.7144,-185.0
1606836970.7164,-190.0
1606836970.7184,-158.0
1606836970.7205,-146.0
1606836970.7224,-139.0
1606836970.7244,-122.0
1606836970.7264,-110.0
1606836970.7284,-100.0
1606836970.7304,-85.0
1606836970.7324,-70.0
1606836970.7344,-61.0
1606836970.7364,-48.0
1606836970.737,-39.0
1606836970.7384,-22.0
1606836970.7404,-2.0
1606836970.7424,12.0
1606836971.1487,31.0
1606836971.1495,53.0
1606836971.152,68.0
1606836971.1546,75.0
1606836971.1565,80.0
1606836971.1586,70.0
1606836971.1606,41.0
1606836971.1625,-2.0
1606836971.1646,-53.0
1606836971.1665,-85.0
1606836971.1672,-97.0
1606836971.1685,-105.0
1606836971.1706,-105.0
1606836971.1726,-97.0
1606836971.1745,-95.0
1606836971.1765,-92.0
1606836971.1785,-85.0
1606836971.1805,-78.0
1606836971.1825,-73.0
1606836971.1847,-70.0
1606836971.1866,-63.0
1606836971.1886,-56.0
1606836971.1905,-51.0
1606836971.1926,-51.0
1606836971.1946,-46.0
1606836971.1965,-36.0
1606836971.1972,-29.0
1606836971.1985,-26.0
1606836971.2005,-24.0
1606836971.2025,-22.0
1606836971.2045,-17.0
1606836971.2065,-12.0
1606836971.2085,-12.0
1606836971.2105,-9.0
1606836971.2125,-4.0
1606836971.2146,-2.0
1606836971.2165,-2.0
1606836971.2185,2.0
1606836971.2205,0.0
1606836971.2225,-2.0
1606836971.2245,-4.0
1606836971.2265,-4.0
1606836971.2271,-7.0
1606836971.2285,-9.0
1606836971.2305,-12.0
1606836971.2325,-12.0
1606836971.2345,-12.0
1606836971.2365,-9.0
1606836971.2385,-7.0
1606836971.2405,-7.0
1606836971.2425,-12.0
1606836971.2445,-9.0
1606836971.2465,0.0
1606836971.2485,12.0
1606836971.2505,26.0
1606836971.2525,36.0
1606836971.2545,39.0
1606836971.2565,31.0
1606836971.2571,19.0
1606836971.2585,12.0
1606836971.2605,9.0
1606836971.2625,12.0
1606836971.2645,24.0
1606836971.2665,58.0
1606836971.2685,136.0
1606836971.2705,278.0
1606836971.2725,447.0
1606836971.2745,579.0
1606836971.2765,728.0
1606836971.2785,1014.0
1606836971.2807,1315.0
1606836971.2825,1117.0
1606836971.2845,344.0
1606836971.7186,-183.0
1606836971.7198,-168.0
1606836971.7222,-166.0
1606836971.7239,-259.0
1606836971.7259,-227.0
1606836971.7279,-190.0
1606836971.7299,-210.0
1606836971.7319,-193.0
1606836971.7339,-161.0
1606836971.7359,-158.0
1606836971.738,-149.0
1606836971.7399,-129.0
1606836971.7419,-119.0
1606836971.744,-110.0
1606836971.746,-95.0
1606836971.7479,-85.0
1606836971.7485,-75.0
1606836971.7499,-63.0
1606836971.7519,-41.0
1606836971.754,-26.0
1606836971.7559,-17.0
1606836971.7579,0.0
1606836971.7599,26.0
1606836971.7619,41.0
1606836971.7638,53.0
1606836971.7658,66.0
1606836971.7678,70.0
1606836971.7698,58.0
1606836971.7718,26.0
1606836971.7739,-4.0
1606836971.7758,-31.0
1606836971.7778,-58.0
1606836971.7784,-78.0
1606836971.7799,-88.0
1606836971.7818,-88.0
1606836971.7838,-80.0
1606836971.7858,-80.0
1606836971.7878,-80.0
1606836971.7898,-75.0
1606836971.7918,-66.0
1606836971.7939,-66.0
1606836971.7958,-63.0
1606836971.7978,-53.0
1606836971.7998,-48.0
1606836971.8018,-44.0
1606836971.8039,-41.0
1606836971.8058,-39.0
1606836971.8078,-34.0
1606836971.8086,-31.0
1606836971.8098,-29.0
1606836971.8118,-22.0
1606836971.814,-17.0
1606836971.8158,-19.0
1606836971.8178,-14.0
1606836971.8198,-4.0
1606836971.8218,-2.0
1606836971.8238,-2.0
1606836971.8258,0.0
1606836971.8279,2.0
1606836971.8298,2.0
1606836971.8318,7.0
1606836971.8338,12.0
1606836971.8358,14.0
1606836971.8364,12.0
1606836971.8378,7.0
1606836971.8398,4.0
1606836971.8418,7.0
1606836971.8438,7.0
1606836971.8458,4.0
1606836971.8478,9.0
1606836971.8498,7.0
1606836971.8518,7.0
1606836971.8539,7.0
1606836972.3186,7.0
1606836972.3194,4.0
1606836972.3218,4.0
1606836972.3236,9.0
1606836972.3243,22.0
1606836972.3255,34.0
1606836972.3276,39.0
1606836972.3295,41.0
1606836972.3316,36.0
1606836972.3335,24.0
1606836972.3355,12.0
1606836972.3375,7.0
1606836972.3395,7.0
1606836972.3415,17.0
1606836972.3436,44.0
1606836972.3455,105.0
1606836972.3475,224.0
1606836972.3495,386.0
1606836972.3515,538.0
1606836972.3535,672.0
1606836972.354,902.0
1606836972.3555,1234.0
1606836972.3575,1247.0
1606836972.3595,594.0
1606836972.3615,-95.0
1606836972.3635,-193.0
1606836972.3656,-136.0
1606836972.3675,-242.0
1606836972.3695,-249.0
1606836972.3715,-188.0
1606836972.3735,-200.0
1606836972.3754,-202.0
1606836972.3774,-166.0
1606836972.3795,-154.0
1606836972.3815,-149.0
1606836972.3834,-132.0
1606836972.384,-114.0
1606836972.3855,-112.0
1606836972.3874,-105.0
1606836972.3894,-88.0
1606836972.3914,-70.0
1606836972.3935,-66.0
1606836972.3954,-53.0
1606836972.3974,-34.0
1606836972.3994,-17.0
1606836972.4014,-2.0
1606836972.4035,17.0
1606836972.4055,36.0
1606836972.4074,48.0
1606836972.4095,56.0
1606836972.4114,61.0
1606836972.4135,61.0
1606836972.4141,39.0
1606836972.4155,4.0
1606836972.4174,-24.0
1606836972.4194,-56.0
1606836972.4214,-83.0
1606836972.4234,-92.0
1606836972.4255,-88.0
1606836972.4274,-85.0
1606836972.4294,-83.0
1606836972.4314,-80.0
1606836972.4334,-70.0
1606836972.4354,-63.0
1606836972.4374,-63.0
1606836972.4394,-58.0
1606836972.4414,-48.0
1606836972.4435,-41.0
1606836972.444,-44.0
1606836972.4454,-39.0
1606836972.4474,-31.0
1606836972.4494,-29.0
1606836972.4514,-26.0
1606836972.8586,-24.0
1606836972.8594,-22.0
1606836972.8619,-19.0
1606836972.8646,-19.0
1606836972.8667,-17.0
1606836972.8685,-9.0
1606836972.8706,0.0
1606836972.8725,0.0
1606836972.8744,0.0
1606836972.8764,2.0
1606836972.8771,0.0
1606836972.8784,-2.0
1606836972.8804,-4.0
1606836972.8825,-2.0
1606836972.8844,-7.0
1606836972.8864,-14.0
1606836972.8884,-9.0
1606836972.8904,-4.0
1606836972.8925,-7.0
1606836972.8944,-12.0
1606836972.8964,-7.0
1606836972.8984,-4.0
1606836972.9004,-7.0
1606836972.9024,-12.0
1606836972.9044,-9.0
1606836972.9064,-2.0
1606836972.907,-2.0
1606836972.9084,-7.0
1606836972.9104,-9.0
1606836972.9124,-4.0
1606836972.9144,4.0
1606836972.9164,22.0
1606836972.9184,31.0
1606836972.9204,39.0
1606836972.9224,44.0
1606836972.9244,36.0
1606836972.9264,24.0
1606836972.9284,19.0
1606836972.9304,9.0
1606836972.9324,4.0
1606836972.9344,24.0
1606836972.9364,61.0
1606836972.9371,129.0
1606836972.9384,269.0
1606836972.9404,440.0
1606836972.9424,579.0
1606836972.9444,718.0
1606836972.9464,987.0
1606836972.9484,1274.0
1606836972.9504,1068.0
1606836972.9524,313.0
1606836972.9544,-183.0
1606836972.9564,-151.0
1606836972.9584,-154.0
1606836972.9604,-251.0
1606836972.9625,-217.0
1606836972.9644,-176.0
1606836972.9664,-195.0
1606836972.967,-183.0
1606836972.9684,-149.0
1606836972.9704,-139.0
1606836972.9724,-134.0
1606836972.9744,-122.0
1606836972.9764,-110.0
1606836972.9784,-97.0
1606836972.9804,-85.0
1606836972.9824,-78.0
1606836972.9844,-66.0
1606836972.9864,-53.0
1606836972.9884,-39.0
1606836972.9904,-24.0
1606836972.9924,-4.0
1606836972.9944,12.0
1606836973.4587,29.0
1606836973.4597,46.0
1606836973.4621,56.0
1606836973.4639,70.0
1606836973.4658,75.0
1606836973.4677,58.0
1606836973.4698,29.0
1606836973.4718,-4.0
1606836973.4738,-46.0
1606836973.4758,-83.0
1606836973.4778,-92.0
1606836973.4798,-95.0
1606836973.4818,-100.0
1606836973.4837,-100.0
1606836973.4857,-95.0
1606836973.4863,-97.0
1606836973.4877,-95.0
1606836973.4897,-80.0
1606836973.4917,-78.0
1606836973.4938,-78.0
1606836973.4957,-68.0
1606836973.4977,-61.0
1606836973.4997,-61.0
1606836973.5017,-56.0
1606836973.5024,-53.0
1606836973.5037,-51.0
1606836973.5057,-44.0
1606836973.5077,-39.0
1606836973.5097,-39.0
1606836973.5117,-39.0
1606836973.5123,-29.0
1606836973.5137,-24.0
1606836973.5157,-26.0
1606836973.5178,-17.0
1606836973.5197,-7.0
1606836973.5217,-12.0
1606836973.5237,-19.0
1606836973.5256,-19.0
1606836973.5276,-19.0
1606836973.5296,-12.0
1606836973.5317,-7.0
1606836973.5336,-12.0
1606836973.5357,-14.0
1606836973.5377,-12.0
1606836973.5396,-14.0
1606836973.5417,-12.0
1606836973.5423,-4.0
1606836973.5437,-9.0
1606836973.5456,-14.0
1606836973.5476,-9.0
1606836973.5497,-4.0
1606836973.5517,-4.0
1606836973.5537,-9.0
1606836973.5557,-14.0
1606836973.5577,-4.0
1606836973.5597,7.0
1606836973.5617,19.0
1606836973.5637,34.0
1606836973.5656,41.0
1606836973.5677,31.0
1606836973.5696,14.0
1606836973.5716,9.0
1606836973.5723,9.0
1606836973.5737,-2.0
1606836973.5756,2.0
1606836973.5776,41.0
1606836973.5798,100.0
1606836973.5817,207.0
1606836973.5836,361.0
1606836973.5857,493.0
1606836973.5876,594.0
1606836973.5896,816.0
1606836973.5917,1188.0
1606836973.9682,1254.0
1606836973.9691,618.0
1606836973.9715,-112.0
1606836973.9732,-229.0
1606836973.9752,-139.0
1606836973.9758,-224.0
1606836973.9771,-251.0
1606836973.9792,-198.0
1606836973.9812,-198.0
1606836973.9832,-205.0
1606836973.9851,-183.0
1606836973.9873,-168.0
1606836973.9891,-158.0
1606836973.9911,-149.0
1606836973.9931,-141.0
1606836973.9951,-129.0
1606836973.9971,-110.0
1606836973.9991,-95.0
1606836974.0011,-88.0
1606836974.0031,-80.0
1606836974.0051,-68.0
1606836974.0057,-48.0
1606836974.0071,-22.0
1606836974.0091,0.0
1606836974.0111,19.0
1606836974.0133,39.0
1606836974.0151,53.0
1606836974.0171,63.0
1606836974.0191,68.0
1606836974.0211,58.0
1606836974.0233,31.0
1606836974.0251,-9.0
1606836974.0271,-56.0
1606836974.0291,-90.0
1606836974.0311,-105.0
1606836974.0331,-112.0
1606836974.035,-119.0
1606836974.0357,-119.0
1606836974.0371,-114.0
1606836974.039,-105.0
1606836974.0411,-95.0
1606836974.043,-95.0
1606836974.045,-95.0
1606836974.047,-88.0
1606836974.049,-78.0
1606836974.0511,-70.0
1606836974.0531,-70.0
1606836974.0551,-70.0
1606836974.057,-68.0
1606836974.059,-58.0
1606836974.0611,-48.0
1606836974.0631,-41.0
1606836974.0651,-36.0
1606836974.0657,-34.0
1606836974.067,-29.0
1606836974.069,-24.0
1606836974.071,-24.0
1606836974.073,-22.0
1606836974.075,-14.0
1606836974.0771,-12.0
1606836974.079,-17.0
1606836974.0811,-12.0
1606836974.0832,-7.0
1606836974.0851,-9.0
1606836974.087,-12.0
1606836974.0891,-7.0
1606836974.091,-9.0
1606836974.093,-9.0
1606836974.095,-14.0
1606836974.0957,-17.0
1606836974.0971,-12.0
1606836974.099,-7.0
1606836974.1011,-2.0
1606836974.5086,9.0
1606836974.5094,22.0
1606836974.5118,26.0
1606836974.5135,24.0
1606836974.5155,14.0
1606836974.5175,7.0
1606836974.5195,-2.0
1606836974.5217,-17.0
1606836974.5235,-14.0
1606836974.5241,12.0
1606836974.5254,70.0
1606836974.5274,183.0
1606836974.5294,342.0
1606836974.5314,474.0
1606836974.5334,569.0
1606836974.5354,777.0
1606836974.5374,1164.0
1606836974.5394,1318.0
1606836974.5414,748.0
1606836974.5435,-58.0
1606836974.5454,-266.0
1606836974.5474,-149.0
1606836974.5494,-215.0
1606836974.5514,-264.0
1606836974.5535,-198.0
1606836974.554,-183.0
1606836974.5554,-195.0
1606836974.5574,-168.0
1606836974.5594,-149.0
1606836974.5614,-144.0
1606836974.5634,-129.0
1606836974.5654,-112.0
1606836974.5674,-100.0
1606836974.5694,-88.0
1606836974.5714,-78.0
1606836974.5734,-66.0
1606836974.5754,-48.0
1606836974.5774,-31.0
1606836974.5794,-22.0
1606836974.5814,-7.0
1606836974.5835,9.0
1606836974.5841,31.0
1606836974.5854,51.0
1606836974.5874,68.0
1606836974.5894,83.0
1606836974.5914,90.0
1606836974.5934,83.0
1606836974.5954,61.0
1606836974.5974,19.0
1606836974.5994,-31.0
1606836974.6014,-63.0
1606836974.6034,-83.0
1606836974.6054,-95.0
1606836974.6074,-100.0
1606836974.6094,-100.0
1606836974.6114,-92.0
1606836974.6134,-85.0
1606836974.614,-80.0
1606836974.6154,-75.0
1606836974.6174,-73.0
1606836974.6194,-66.0
1606836974.6214,-61.0
1606836974.6234,-58.0
1606836974.6254,-53.0
1606836974.6274,-51.0
1606836974.6294,-51.0
1606836974.6314,-53.0
1606836974.6334,-48.0
1606836974.6354,-36.0
1606836974.6374,-34.0
1606836974.6394,-31.0
1606836974.6414,-24.0
1606836974.6434,-17.0
1606836975.0781,-14.0
1606836975.0789,-14.0
1606836975.0814,-9.0
1606836975.0841,-7.0
1606836975.086,-17.0
1606836975.088,-19.0
1606836975.0901,-14.0
1606836975.092,-14.0
1606836975.0941,-17.0
1606836975.096,-14.0
1606836975.098,-17.0
1606836975.1,-22.0
1606836975.102,-17.0
1606836975.104,-17.0
1606836975.1046,-19.0
1606836975.106,-19.0
1606836975.1079,-9.0
1606836975.11,9.0
1606836975.1122,24.0
1606836975.114,31.0
1606836975.1159,34.0
1606836975.1179,26.0
1606836975.1199,17.0
1606836975.1219,9.0
1606836975.124,4.0
1606836975.1259,12.0
1606836975.1279,31.0
1606836975.13,66.0
1606836975.132,149.0
1606836975.1339,298.0
1606836975.1345,462.0
1606836975.1359,594.0
1606836975.1379,745.0
1606836975.1399,1049.0
1606836975.1419,1354.0
1606836975.1439,1117.0
1606836975.1459,308.0
1606836975.148,-207.0
1606836975.1499,-161.0
1606836975.1519,-158.0
1606836975.154,-256.0
1606836975.1559,-215.0
1606836975.1579,-171.0
1606836975.1599,-195.0
1606836975.1619,-180.0
1606836975.164,-146.0
1606836975.1645,-141.0
1606836975.1659,-132.0
1606836975.1679,-110.0
1606836975.1699,-100.0
1606836975.1719,-92.0
1606836975.174,-80.0
1606836975.1759,-66.0
1606836975.1779,-53.0
1606836975.18,-39.0
1606836975.1819,-26.0
1606836975.1839,-9.0
1606836975.1859,7.0
1606836975.1879,19.0
1606836975.1899,34.0
1606836975.192,53.0
1606836975.1939,68.0
1606836975.1945,80.0
1606836975.1959,83.0
1606836975.1979,68.0
1606836975.1999,41.0
1606836975.2019,7.0
1606836975.204,-29.0
1606836975.2059,-51.0
1606836975.2081,-58.0
1606836975.21,-68.0
1606836975.2119,-73.0
1606836975.2139,-70.0
1606836975.6784,-68.0
1606836975.6796,-68.0
1606836975.682,-66.0
1606836975.6847,-66.0
1606836975.6866,-70.0
1606836975.6873,-68.0
1606836975.6886,-61.0
1606836975.6908,-56.0
1606836975.6926,-53.0
1606836975.6947,-51.0
1606836975.6966,-46.0
1606836975.6986,-41.0
1606836975.7006,-39.0
1606836975.7026,-39.0
1606836975.7046,-31.0
1606836975.7066,-26.0
1606836975.7086,-24.0
1606836975.7106,-22.0
1606836975.7126,-19.0
1606836975.7147,-12.0
1606836975.7166,-4.0
1606836975.7171,-4.0
1606836975.7186,-4.0
1606836975.7206,2.0
1606836975.7226,2.0
1606836975.7246,0.0
1606836975.7266,4.0
1606836975.7286,4.0
1606836975.7306,4.0
1606836975.7326,2.0
1606836975.7347,4.0
1606836975.7366,7.0
1606836975.7386,7.0
1606836975.7405,4.0
1606836975.7425,4.0
1606836975.7446,7.0
1606836975.7452,7.0
1606836975.7466,4.0
1606836975.7486,4.0
1606836975.7506,7.0
1606836975.7526,7.0
1606836975.7546,4.0
1606836975.7565,4.0
1606836975.7586,7.0
1606836975.7605,9.0
1606836975.7625,22.0
1606836975.7645,36.0
1606836975.7667,48.0
1606836975.7686,48.0
1606836975.7705,44.0
1606836975.7725,31.0
1606836975.7746,17.0
1606836975.7752,4.0
1606836975.7765,4.0
1606836975.7785,17.0
1606836975.7805,41.0
1606836975.7825,97.0
1606836975.7845,222.0
1606836975.7865,388.0
1606836975.7885,533.0
1606836975.7905,670.0
1606836975.7925,917.0
1606836975.7946,1259.0
1606836975.7966,1239.0
1606836975.7985,562.0
1606836975.8005,-95.0
1606836975.8025,-171.0
1606836975.8045,-136.0
1606836975.8051,-254.0
1606836975.8065,-251.0
1606836975.8085,-185.0
1606836975.8105,-200.0
1606836975.8125,-200.0
1606836976.2185,-161.0
1606836976.2192,-149.0
1606836976.2216,-146.0
1606836976.2233,-129.0
1606836976.2252,-114.0
1606836976.2272,-105.0
1606836976.2292,-92.0
1606836976.2313,-83.0
1606836976.2319,-75.0
1606836976.2332,-58.0
1606836976.2352,-51.0
1606836976.2372,-48.0
1606836976.2393,-29.0
1606836976.2413,-7.0
1606836976.2433,4.0
1606836976.2452,22.0
1606836976.2472,51.0
1606836976.2492,66.0
1606836976.2512,70.0
1606836976.2533,68.0
1606836976.2552,41.0
1606836976.2572,4.0
1606836976.2592,-29.0
1606836976.2612,-58.0
1606836976.2618,-85.0
1606836976.2635,-102.0
1606836976.2652,-105.0
1606836976.2672,-102.0
1606836976.2692,-97.0
1606836976.2712,-92.0
1606836976.2732,-85.0
1606836976.2752,-83.0
1606836976.2772,-80.0
1606836976.2792,-70.0
1606836976.2812,-66.0
1606836976.2832,-66.0
1606836976.2852,-58.0
1606836976.2872,-53.0
1606836976.2892,-56.0
1606836976.2912,-51.0
1606836976.2918,-46.0
1606836976.2932,-46.0
1606836976.2952,-46.0
1606836976.2972,-48.0
1606836976.2992,-51.0
1606836976.3012,-46.0
1606836976.3032,-39.0
1606836976.3052,-34.0
1606836976.3072,-34.0
1606836976.3092,-36.0
1606836976.3112,-29.0
1606836976.3133,-22.0
1606836976.3152,-22.0
1606836976.3171,-24.0
1606836976.3192,-17.0
1606836976.3212,-17.0
1606836976.3218,-22.0
1606836976.3233,-22.0
1606836976.3252,-17.0
1606836976.3272,-14.0
1606836976.3292,-14.0
1606836976.3312,-17.0
1606836976.3332,-17.0
1606836976.3352,-17.0
1606836976.3372,-17.0
1606836976.3392,-14.0
1606836976.3412,-9.0
1606836976.3432,-7.0
1606836976.3452,-7.0
1606836976.3472,-7.0
1606836976.3492,-2.0
1606836976.3512,0.0
1606836976.3518,-7.0
1606836976.7883,-9.0
1606836976.7891,-2.0
1606836976.7916,12.0
1606836976.7946,24.0
1606836976.7963,31.0
1606836976.7982,36.0
1606836976.8003,26.0
1606836976.8022,4.0
1606836976.8042,-9.0
1606836976.8062,-9.0
1606836976.8082,-7.0
1606836976.8102,2.0
1606836976.8123,34.0
1606836976.8143,105.0
1606836976.8161,239.0
1606836976.8168,396.0
1606836976.8182,515.0
1606836976.8202,648.0
1606836976.8222,939.0
1606836976.8242,1286.0
1606836976.8262,1132.0
1606836976.8282,359.0
1606836976.8302,-195.0
1606836976.8322,-183.0
1606836976.8341,-166.0
1606836976.8361,-261.0
1606836976.8381,-234.0
1606836976.8401,-188.0
1606836976.8421,-198.0
1606836976.8442,-183.0
1606836976.8461,-158.0
1606836976.8467,-156.0
1606836976.8481,-146.0
1606836976.8501,-124.0
1606836976.8521,-107.0
1606836976.8542,-102.0
1606836976.8561,-97.0
1606836976.8581,-85.0
1606836976.8601,-70.0
1606836976.8621,-61.0
1606836976.8642,-46.0
1606836976.8661,-24.0
1606836976.8681,-4.0
1606836976.8701,9.0
1606836976.8721,36.0
1606836976.8741,56.0
1606836976.8761,68.0
1606836976.8767,83.0
1606836976.8781,85.0
1606836976.8801,68.0
1606836976.8822,36.0
1606836976.8841,-9.0
1606836976.8861,-56.0
1606836976.8881,-83.0
1606836976.8902,-97.0
1606836976.8922,-107.0
1606836976.8942,-105.0
1606836976.8961,-97.0
1606836976.8981,-100.0
1606836976.9001,-95.0
1606836976.9022,-90.0
1606836976.9042,-88.0
1606836976.9062,-83.0
1606836976.9067,-78.0
1606836976.9081,-70.0
1606836976.9101,-63.0
1606836976.9121,-61.0
1606836976.9142,-58.0
1606836976.9161,-48.0
1606836976.9181,-44.0
1606836976.9201,-44.0
1606836976.9221,-41.0
1606836976.9242,-34.0
1606836977.3285,-29.0
1606836977.3293,-31.0
1606836977.3318,-22.0
1606836977.3345,-14.0
1606836977.3352,-14.0
1606836977.3364,-17.0
1606836977.3384,-9.0
1606836977.3405,-9.0
1606836977.3424,-22.0
1606836977.3445,-29.0
1606836977.3464,-29.0
1606836977.3484,-26.0
1606836977.3505,-29.0
1606836977.3524,-24.0
1606836977.3544,-19.0
1606836977.3564,-17.0
1606836977.3584,-22.0
1606836977.3604,-22.0
1606836977.3624,-19.0
1606836977.3644,-19.0
1606836977.365,-17.0
1606836977.3664,-12.0
1606836977.3684,-7.0
1606836977.3704,4.0
1606836977.3724,22.0
1606836977.3744,29.0
1606836977.3764,26.0
1606836977.3784,14.0
1606836977.3803,0.0
1606836977.3823,-7.0
1606836977.3843,-7.0
1606836977.3864,-2.0
1606836977.3885,17.0
1606836977.3905,73.0
1606836977.3923,183.0
1606836977.3943,337.0
1606836977.3949,467.0
1606836977.3963,564.0
1606836977.3983,762.0
1606836977.4004,1151.0
1606836977.4023,1367.0
1606836977.4043,870.0
1606836977.4063,22.0
1606836977.4083,-269.0
1606836977.4103,-154.0
1606836977.4124,-202.0
1606836977.4144,-261.0
1606836977.4163,-200.0
1606836977.4183,-185.0
1606836977.4204,-200.0
1606836977.4224,-168.0
1606836977.4243,-149.0
1606836977.4249,-149.0
1606836977.4263,-132.0
1606836977.4284,-112.0
1606836977.4303,-102.0
1606836977.4323,-88.0
1606836977.4343,-73.0
1606836977.4363,-61.0
1606836977.4383,-46.0
1606836977.4403,-29.0
1606836977.4423,-14.0
1606836977.4444,2.0
1606836977.4463,17.0
1606836977.4483,39.0
1606836977.4503,58.0
1606836977.4524,73.0
1606836977.4543,88.0
1606836977.4549,100.0
1606836977.4563,100.0
1606836977.4583,75.0
1606836977.4603,34.0
1606836977.4623,-12.0
