,ecg
1605960032.8565,3073.0
1605960032.8574,6501.0
1605960032.8599,8474.0
1605960032.8626,9443.0
1605960032.8647,10705.0
1605960032.8666,11679.0
1605960032.8686,12199.0
1605960032.8705,12766.0
1605960032.8726,13254.0
1605960032.8745,13520.0
1605960032.8766,13757.0
1605960032.8785,14011.0
1605960032.8805,14167.0
1605960032.8825,14265.0
1605960032.8845,14367.0
1605960032.8865,14445.0
1605960032.8885,14458.0
1605960032.8905,14443.0
1605960032.8925,14445.0
1605960032.8945,14438.0
1605960032.8965,14389.0
1605960032.8985,14338.0
1605960032.9005,14311.0
1605960032.9025,14260.0
1605960032.9045,14038.0
1605960032.9065,13659.0
1605960032.9084,13503.0
1605960032.9104,13942.0
1605960032.9125,14497.0
1605960032.9145,14277.0
1605960032.9164,13666.0
1605960032.9184,13493.0
1605960032.9205,13479.0
1605960032.9224,13298.0
1605960032.9244,13178.0
1605960032.9265,13132.0
1605960032.9284,13015.0
1605960032.9304,12893.0
1605960032.9324,12822.0
1605960032.9344,12734.0
1605960032.9365,12617.0
1605960032.9384,12507.0
1605960032.9405,12392.0
1605960032.9424,12268.0
1605960032.9444,12172.0
1605960032.9465,12087.0
1605960032.9484,11982.0
1605960032.9504,11877.0
1605960032.9524,11774.0
1605960032.9544,11672.0
1605960032.9606,11582.0
1605960032.9612,11472.0
1605960032.9625,11357.0
1605960032.9645,11259.0
1605960032.9665,11140.0
1605960032.9685,11025.0
1605960032.9705,10947.0
1605960032.9726,10859.0
1605960032.9745,10751.0
1605960032.9766,10659.0
1605960032.9785,10581.0
1605960032.9806,10505.0
1605960032.9826,10439.0
1605960032.9845,10383.0
1605960032.9865,10312.0
1605960032.9886,10249.0
1605960032.9906,10192.0
1605960032.9926,10122.0
1605960032.9945,10041.0
1605960032.9966,9973.0
1605960032.9986,9897.0
1605960033.0006,9812.0
1605960033.0026,9736.0
1605960033.4261,9670.0
1605960033.4271,9594.0
1605960033.4295,9499.0
1605960033.4322,9414.0
1605960033.4343,9345.0
1605960033.4362,9255.0
1605960033.4383,9145.0
1605960033.4402,9069.0
1605960033.4421,9020.0
1605960033.4442,8937.0
1605960033.4462,8828.0
1605960033.4482,8767.0
1605960033.4503,8718.0
1605960033.4522,8632.0
1605960033.4542,8562.0
1605960033.4562,8500.0
1605960033.4581,8420.0
1605960033.4601,8342.0
1605960033.4621,8283.0
1605960033.4641,8215.0
1605960033.4662,8142.0
1605960033.4682,8076.0
1605960033.4701,8022.0
1605960033.4721,7961.0
1605960033.4741,7897.0
1605960033.4761,7836.0
1605960033.4781,7773.0
1605960033.4801,7702.0
1605960033.4824,7622.0
1605960033.4841,7551.0
1605960033.4862,7495.0
1605960033.4881,7443.0
1605960033.4901,7395.0
1605960033.4921,7336.0
1605960033.4941,7272.0
1605960033.4961,7209.0
1605960033.4981,7138.0
1605960033.5001,7067.0
1605960033.502,6997.0
1605960033.504,6933.0
1605960033.5061,6887.0
1605960033.508,6838.0
1605960033.5101,6784.0
1605960033.512,6740.0
1605960033.514,6696.0
1605960033.5162,6645.0
1605960033.518,6606.0
1605960033.5201,6557.0
1605960033.5221,6484.0
1605960033.524,6423.0
1605960033.5261,6374.0
1605960033.5281,6308.0
1605960033.53,6125.0
1605960033.5322,5805.0
1605960033.5341,5676.0
1605960033.5362,6145.0
1605960033.538,6735.0
1605960033.54,6562.0
1605960033.542,6008.0
1605960033.544,5883.0
1605960033.5461,5915.0
1605960033.5481,5786.0
1605960033.5501,5715.0
1605960033.552,5717.0
1605960033.554,5659.0
1605960033.556,5590.0
1605960033.5581,5556.0
1605960033.56,5520.0
1605960033.562,5473.0
1605960033.5641,5429.0
1605960033.5661,5385.0
1605960033.5682,5344.0
1605960033.5701,5297.0
1605960033.9662,5244.0
1605960033.9669,5183.0
1605960033.9693,5134.0
1605960033.972,5107.0
1605960033.974,5065.0
1605960033.976,4997.0
1605960033.9783,4946.0
1605960033.9801,4909.0
1605960033.982,4858.0
1605960033.984,4790.0
1605960033.986,4733.0
1605960033.988,4699.0
1605960033.99,4667.0
1605960033.992,4636.0
1605960033.994,4614.0
1605960033.996,4575.0
1605960033.998,4531.0
1605960033.9999,4523.0
1605960034.002,4521.0
1605960034.0039,4504.0
1605960034.006,4506.0
1605960034.0079,4506.0
1605960034.01,4477.0
1605960034.012,4438.0
1605960034.014,4396.0
1605960034.016,4353.0
1605960034.0179,4326.0
1605960034.0199,4309.0
1605960034.0219,4279.0
1605960034.0239,4248.0
1605960034.0261,4218.0
1605960034.028,4182.0
1605960034.0299,4145.0
1605960034.0319,4108.0
1605960034.0339,4062.0
1605960034.036,4013.0
1605960034.0379,3989.0
1605960034.04,3967.0
1605960034.0419,3925.0
1605960034.044,3896.0
1605960034.046,3876.0
1605960034.048,3837.0
1605960034.0499,3806.0
1605960034.0519,3786.0
1605960034.0539,3752.0
1605960034.056,3723.0
1605960034.058,3708.0
1605960034.06,3684.0
1605960034.062,3649.0
1605960034.0639,3623.0
1605960034.066,3603.0
1605960034.0679,3571.0
1605960034.07,3540.0
1605960034.072,3520.0
1605960034.0739,3496.0
1605960034.076,3454.0
1605960034.078,3417.0
1605960034.0801,3408.0
1605960034.082,3395.0
1605960034.0839,3369.0
1605960034.086,3349.0
1605960034.0879,3320.0
1605960034.0899,3273.0
1605960034.092,3251.0
1605960034.094,3251.0
1605960034.096,3227.0
1605960034.098,3176.0
1605960034.0999,3134.0
1605960034.1019,3122.0
1605960034.1039,3110.0
1605960034.106,3083.0
1605960034.1079,3061.0
1605960034.11,3044.0
1605960034.5366,3022.0
1605960034.5374,2995.0
1605960034.5399,2973.0
1605960034.5424,2956.0
1605960034.5445,2929.0
1605960034.5465,2915.0
1605960034.5485,2912.0
1605960034.5504,2875.0
1605960034.5524,2832.0
1605960034.5545,2761.0
1605960034.5565,2541.0
1605960034.5584,2287.0
1605960034.5604,2478.0
1605960034.5624,3154.0
1605960034.5644,3413.0
1605960034.5664,2929.0
1605960034.5684,2617.0
1605960034.5704,2707.0
1605960034.5725,2675.0
1605960034.5744,2568.0
1605960034.5764,2580.0
1605960034.5784,2585.0
1605960034.5804,2536.0
1605960034.5824,2512.0
1605960034.5844,2519.0
1605960034.5864,2500.0
1605960034.5885,2463.0
1605960034.5904,2438.0
1605960034.5925,2426.0
1605960034.5945,2419.0
1605960034.5964,2395.0
1605960034.5984,2363.0
1605960034.6004,2346.0
1605960034.6024,2333.0
1605960034.6045,2316.0
1605960034.6066,2292.0
1605960034.6084,2255.0
1605960034.6104,2226.0
1605960034.6124,2207.0
1605960034.6144,2182.0
1605960034.6164,2153.0
1605960034.6184,2131.0
1605960034.6205,2114.0
1605960034.6224,2097.0
1605960034.6243,2097.0
1605960034.6264,2109.0
1605960034.6284,2097.0
1605960034.6304,2082.0
1605960034.6324,2089.0
1605960034.6345,2097.0
1605960034.6365,2102.0
1605960034.6384,2104.0
1605960034.6404,2106.0
1605960034.6424,2121.0
1605960034.6444,2111.0
1605960034.6464,2087.0
1605960034.6484,2082.0
1605960034.6504,2087.0
1605960034.6524,2067.0
1605960034.6545,2033.0
1605960034.6564,2019.0
1605960034.6584,2006.0
1605960034.6604,1992.0
1605960034.6624,1977.0
1605960034.6644,1940.0
1605960034.6665,1909.0
1605960034.6684,1916.0
1605960034.6705,1909.0
1605960034.6724,1879.0
1605960034.6744,1865.0
1605960034.6764,1865.0
1605960034.6784,1853.0
1605960034.6804,1831.0
1605960035.076,1821.0
1605960035.0769,1816.0
1605960035.0794,1804.0
1605960035.0821,1806.0
1605960035.0841,1801.0
1605960035.0862,1777.0
1605960035.0881,1757.0
1605960035.0899,1750.0
1605960035.0919,1743.0
1605960035.0939,1728.0
1605960035.096,1711.0
1605960035.098,1694.0
1605960035.1,1684.0
1605960035.1021,1687.0
1605960035.104,1687.0
1605960035.106,1677.0
1605960035.1079,1672.0
1605960035.1099,1660.0
1605960035.1119,1640.0
1605960035.1139,1628.0
1605960035.116,1611.0
1605960035.1179,1599.0
1605960035.1199,1596.0
1605960035.1219,1594.0
1605960035.1239,1591.0
1605960035.126,1584.0
1605960035.1279,1567.0
1605960035.1299,1542.0
1605960035.132,1518.0
1605960035.1339,1513.0
1605960035.136,1523.0
1605960035.1379,1516.0
1605960035.1399,1503.0
1605960035.1419,1496.0
1605960035.1439,1494.0
1605960035.1459,1494.0
1605960035.148,1481.0
1605960035.15,1469.0
1605960035.1519,1467.0
1605960035.1539,1457.0
1605960035.1559,1447.0
1605960035.1579,1437.0
1605960035.1599,1416.0
1605960035.1619,1325.0
1605960035.1639,1088.0
1605960035.166,908.0
1605960035.1679,1252.0
1605960035.1699,1923.0
1605960035.1719,1977.0
1605960035.1739,1462.0
1605960035.1759,1289.0
1605960035.1779,1386.0
1605960035.1799,1325.0
1605960035.182,1269.0
1605960035.1839,1303.0
1605960035.186,1298.0
1605960035.1879,1274.0
1605960035.1899,1286.0
1605960035.1919,1279.0
1605960035.1939,1240.0
1605960035.1959,1230.0
1605960035.198,1237.0
1605960035.1999,1223.0
1605960035.2019,1210.0
1605960035.2041,1203.0
1605960035.2059,1184.0
1605960035.2079,1174.0
1605960035.2099,1171.0
1605960035.2119,1162.0
1605960035.214,1149.0
1605960035.216,1145.0
1605960035.2179,1132.0
1605960035.2199,1098.0
1605960035.6162,1074.0
1605960035.6168,1071.0
1605960035.6182,1062.0
1605960035.6202,1044.0
1605960035.6222,1049.0
1605960035.6242,1052.0
1605960035.6262,1032.0
1605960035.6283,1035.0
1605960035.6302,1062.0
1605960035.6322,1064.0
1605960035.6342,1071.0
1605960035.6362,1096.0
1605960035.6382,1105.0
1605960035.6402,1115.0
1605960035.6422,1125.0
1605960035.6443,1127.0
1605960035.6462,1130.0
1605960035.6481,1130.0
1605960035.6501,1125.0
1605960035.6522,1115.0
1605960035.6541,1096.0
1605960035.6562,1081.0
1605960035.6582,1071.0
1605960035.6602,1079.0
1605960035.6622,1091.0
1605960035.6642,1074.0
1605960035.6662,1040.0
1605960035.6682,1025.0
1605960035.6701,1030.0
1605960035.6722,1022.0
1605960035.6742,1008.0
1605960035.6763,1018.0
1605960035.6782,1022.0
1605960035.6801,1000.0
1605960035.6821,991.0
1605960035.6841,1000.0
1605960035.6862,1003.0
1605960035.6882,996.0
1605960035.6901,979.0
1605960035.6922,986.0
1605960035.6943,1003.0
1605960035.6962,991.0
1605960035.6983,976.0
1605960035.7002,969.0
1605960035.7022,966.0
1605960035.7041,964.0
1605960035.7062,959.0
1605960035.7082,947.0
1605960035.7102,937.0
1605960035.7122,939.0
1605960035.7142,942.0
1605960035.7162,927.0
1605960035.7181,913.0
1605960035.7201,913.0
1605960035.7221,910.0
1605960035.7242,913.0
1605960035.7262,910.0
1605960035.7282,900.0
1605960035.7301,893.0
1605960035.7322,893.0
1605960035.7342,895.0
1605960035.7362,886.0
1605960035.7381,866.0
1605960035.7401,856.0
1605960035.7422,852.0
1605960035.7443,847.0
1605960035.7462,852.0
1605960035.7481,859.0
1605960035.7501,854.0
1605960035.7522,849.0
1605960035.7541,861.0
1605960035.7562,869.0
1605960035.7582,859.0
1605960036.2164,847.0
1605960036.2173,839.0
1605960036.2198,832.0
1605960036.2226,822.0
1605960036.2244,793.0
1605960036.2265,654.0
1605960036.2284,371.0
1605960036.2303,290.0
1605960036.2324,847.0
1605960036.2343,1489.0
1605960036.2363,1306.0
1605960036.2384,793.0
1605960036.2403,759.0
1605960036.2423,839.0
1605960036.2444,729.0
1605960036.2463,708.0
1605960036.2483,773.0
1605960036.2503,751.0
1605960036.2523,717.0
1605960036.2544,732.0
1605960036.2565,720.0
1605960036.2583,693.0
1605960036.2604,703.0
1605960036.2623,712.0
1605960036.2643,693.0
1605960036.2663,686.0
1605960036.2683,698.0
1605960036.2704,686.0
1605960036.2723,661.0
1605960036.2743,654.0
1605960036.2763,642.0
1605960036.2783,634.0
1605960036.2803,639.0
1605960036.2823,634.0
1605960036.2843,615.0
1605960036.2864,593.0
1605960036.2883,581.0
1605960036.2903,581.0
1605960036.2923,571.0
1605960036.2943,556.0
1605960036.2963,563.0
1605960036.2983,598.0
1605960036.3003,612.0
1605960036.3024,603.0
1605960036.3044,610.0
1605960036.3063,644.0
1605960036.3083,673.0
1605960036.3103,688.0
1605960036.3123,705.0
1605960036.3143,715.0
1605960036.3163,722.0
1605960036.3183,734.0
1605960036.3204,751.0
1605960036.3223,744.0
1605960036.3243,725.0
1605960036.3263,727.0
1605960036.3283,734.0
1605960036.3303,720.0
1605960036.3323,705.0
1605960036.3343,700.0
1605960036.3364,690.0
1605960036.3383,686.0
1605960036.3403,686.0
1605960036.3423,681.0
1605960036.3443,673.0
1605960036.3463,664.0
1605960036.3483,656.0
1605960036.3503,654.0
1605960036.3523,654.0
1605960036.3544,644.0
1605960036.3563,644.0
1605960036.3584,654.0
1605960036.3603,656.0
1605960036.7867,661.0
1605960036.7876,661.0
1605960036.7896,651.0
1605960036.7914,646.0
1605960036.7934,654.0
1605960036.7954,654.0
1605960036.7973,646.0
1605960036.7994,649.0
1605960036.8013,642.0
1605960036.8033,627.0
1605960036.8053,632.0
1605960036.8072,627.0
1605960036.8092,612.0
1605960036.8113,627.0
1605960036.8132,637.0
1605960036.8153,620.0
1605960036.8173,607.0
1605960036.8192,607.0
1605960036.8212,617.0
1605960036.8233,617.0
1605960036.8252,612.0
1605960036.8272,620.0
1605960036.8292,610.0
1605960036.8313,583.0
1605960036.8333,578.0
1605960036.8352,603.0
1605960036.8372,600.0
1605960036.8392,571.0
1605960036.8412,568.0
1605960036.8432,588.0
1605960036.8452,595.0
1605960036.8473,595.0
1605960036.8493,590.0
1605960036.8512,578.0
1605960036.8532,573.0
1605960036.8552,573.0
1605960036.8572,571.0
1605960036.8592,539.0
1605960036.8612,417.0
1605960036.8632,175.0
1605960036.8653,61.0
1605960036.8672,500.0
1605960036.8692,1179.0
1605960036.8713,1142.0
1605960036.8732,598.0
1605960036.8752,483.0
1605960036.8772,605.0
1605960036.8792,522.0
1605960036.8813,463.0
1605960036.8834,520.0
1605960036.8853,512.0
1605960036.8872,473.0
1605960036.8892,485.0
1605960036.8912,498.0
1605960036.8932,485.0
1605960036.8953,483.0
1605960036.8973,495.0
1605960036.8992,505.0
1605960036.9012,502.0
1605960036.9032,488.0
1605960036.9052,476.0
1605960036.9072,463.0
1605960036.9092,449.0
1605960036.9112,454.0
1605960036.9133,449.0
1605960036.9154,437.0
1605960036.9172,432.0
1605960036.9192,424.0
1605960036.9212,410.0
1605960036.9232,383.0
1605960036.9252,366.0
1605960036.9272,378.0
1605960036.9293,388.0
1605960037.3262,393.0
1605960037.3271,402.0
1605960037.3296,419.0
1605960037.3322,432.0
1605960037.3341,446.0
1605960037.3362,471.0
1605960037.3381,493.0
1605960037.3402,500.0
1605960037.3422,490.0
1605960037.3442,485.0
1605960037.3462,498.0
1605960037.3481,517.0
1605960037.3501,529.0
1605960037.3521,524.0
1605960037.3541,520.0
1605960037.3561,517.0
1605960037.358,507.0
1605960037.3589,502.0
1605960037.3613,510.0
1605960037.3632,512.0
1605960037.3651,502.0
1605960037.3671,490.0
1605960037.3691,476.0
1605960037.3711,468.0
1605960037.3731,466.0
1605960037.3752,466.0
1605960037.3772,466.0
1605960037.3793,468.0
1605960037.3811,473.0
1605960037.3831,478.0
1605960037.3851,468.0
1605960037.3871,458.0
1605960037.3891,461.0
1605960037.3898,476.0
1605960037.3922,480.0
1605960037.3941,478.0
1605960037.3962,476.0
1605960037.3981,478.0
1605960037.4001,483.0
1605960037.4021,485.0
1605960037.4041,478.0
1605960037.4061,480.0
1605960037.4082,485.0
1605960037.4101,466.0
1605960037.4121,458.0
1605960037.4141,466.0
1605960037.4161,458.0
1605960037.4181,451.0
1605960037.4201,463.0
1605960037.4208,466.0
1605960037.4232,471.0
1605960037.4252,478.0
1605960037.4271,476.0
1605960037.4291,468.0
1605960037.4311,480.0
1605960037.4331,471.0
1605960037.4351,437.0
1605960037.4371,429.0
1605960037.4391,441.0
1605960037.4411,437.0
1605960037.4432,434.0
1605960037.4451,449.0
1605960037.4471,458.0
1605960037.4491,458.0
1605960037.4511,468.0
1605960037.4518,483.0
1605960037.4541,480.0
1605960037.4561,446.0
1605960037.4582,429.0
1605960037.4602,446.0
1605960037.4621,454.0
1605960037.4641,393.0
1605960037.4661,190.0
1605960037.8964,-41.0
1605960037.8972,131.0
1605960037.8996,795.0
1605960037.9022,1108.0
1605960037.9042,678.0
1605960037.9052,363.0
1605960037.9072,456.0
1605960037.9092,439.0
1605960037.9112,349.0
1605960037.9132,375.0
1605960037.9152,388.0
1605960037.9172,361.0
1605960037.9192,373.0
1605960037.9212,375.0
1605960037.9232,368.0
1605960037.9252,385.0
1605960037.9272,383.0
1605960037.9292,358.0
1605960037.9312,368.0
1605960037.9332,378.0
1605960037.9352,356.0
1605960037.9359,341.0
1605960037.9382,341.0
1605960037.9402,334.0
1605960037.9422,322.0
1605960037.9443,317.0
1605960037.9463,300.0
1605960037.9482,278.0
1605960037.9502,273.0
1605960037.9522,268.0
1605960037.9542,261.0
1605960037.9562,270.0
1605960037.9583,285.0
1605960037.9602,295.0
1605960037.9622,305.0
1605960037.9642,314.0
1605960037.9661,317.0
1605960037.9669,314.0
1605960037.9692,324.0
1605960037.9712,341.0
1605960037.9732,354.0
1605960037.9752,375.0
1605960037.9772,390.0
1605960037.9792,400.0
1605960037.9812,419.0
1605960037.9832,422.0
1605960037.9852,415.0
1605960037.9872,417.0
1605960037.9892,407.0
1605960037.9912,397.0
1605960037.9932,405.0
1605960037.9952,402.0
1605960037.9972,380.0
1605960037.9979,366.0
1605960038.0002,366.0
1605960038.0023,371.0
1605960038.0045,366.0
1605960038.0063,363.0
1605960038.0082,368.0
1605960038.0101,375.0
1605960038.0122,378.0
1605960038.0142,371.0
1605960038.0163,356.0
1605960038.0182,354.0
1605960038.0202,354.0
1605960038.0222,354.0
1605960038.0242,354.0
1605960038.0263,358.0
1605960038.0269,361.0
1605960038.0283,354.0
1605960038.0303,356.0
1605960038.0322,368.0
1605960038.0342,380.0
1605960038.4665,380.0
1605960038.4674,363.0
1605960038.4698,356.0
1605960038.4725,361.0
1605960038.4745,354.0
1605960038.4765,341.0
1605960038.4784,344.0
1605960038.4804,344.0
1605960038.4825,332.0
1605960038.4844,327.0
1605960038.4851,334.0
1605960038.4874,336.0
1605960038.4894,332.0
1605960038.4914,324.0
1605960038.4934,314.0
1605960038.4954,322.0
1605960038.4974,334.0
1605960038.4993,319.0
1605960038.5014,295.0
1605960038.5034,297.0
1605960038.5054,312.0
1605960038.5074,314.0
1605960038.5094,310.0
1605960038.5114,307.0
1605960038.5134,317.0
1605960038.5155,336.0
1605960038.5161,329.0
1605960038.5184,314.0
1605960038.5204,329.0
1605960038.5224,334.0
1605960038.5244,322.0
1605960038.5264,319.0
1605960038.5284,305.0
1605960038.5304,187.0
1605960038.5325,-73.0
1605960038.5344,-158.0
1605960038.5363,344.0
1605960038.5384,939.0
1605960038.5404,786.0
1605960038.5424,322.0
1605960038.5444,290.0
1605960038.5464,373.0
1605960038.5474,285.0
1605960038.5493,246.0
1605960038.5514,283.0
1605960038.5535,266.0
1605960038.5555,253.0
1605960038.5574,285.0
1605960038.5594,290.0
1605960038.5613,278.0
1605960038.5634,280.0
1605960038.5654,278.0
1605960038.5674,268.0
1605960038.5694,261.0
1605960038.5713,251.0
1605960038.5734,241.0
1605960038.5755,241.0
1605960038.5774,241.0
1605960038.5781,234.0
1605960038.5805,231.0
1605960038.5824,229.0
1605960038.5844,212.0
1605960038.5864,200.0
1605960038.5884,187.0
1605960038.5904,170.0
1605960038.5925,166.0
1605960038.5944,166.0
1605960038.5964,170.0
1605960038.5983,180.0
1605960038.6003,187.0
1605960038.6023,195.0
1605960038.6043,205.0
1605960038.6063,227.0
1605960039.0058,244.0
1605960039.0066,244.0
1605960039.009,256.0
1605960039.0116,292.0
1605960039.0136,310.0
1605960039.0157,305.0
1605960039.0177,305.0
1605960039.0196,310.0
1605960039.0216,305.0
1605960039.0236,295.0
1605960039.0257,292.0
1605960039.0276,290.0
1605960039.0299,283.0
1605960039.0317,285.0
1605960039.0336,290.0
1605960039.0357,288.0
1605960039.0376,285.0
1605960039.0396,283.0
1605960039.0416,268.0
1605960039.0436,256.0
1605960039.0457,270.0
1605960039.0476,278.0
1605960039.0497,261.0
1605960039.0516,258.0
1605960039.0536,268.0
1605960039.0557,273.0
1605960039.0576,280.0
1605960039.0596,278.0
1605960039.0616,261.0
1605960039.0636,263.0
1605960039.0656,295.0
1605960039.0676,314.0
1605960039.0696,295.0
1605960039.0716,258.0
1605960039.0736,261.0
1605960039.0756,290.0
1605960039.0776,288.0
1605960039.0796,263.0
1605960039.0817,261.0
1605960039.0836,273.0
1605960039.0856,270.0
1605960039.0876,263.0
1605960039.0896,278.0
1605960039.0917,292.0
1605960039.0936,285.0
1605960039.0956,278.0
1605960039.0976,292.0
1605960039.0996,302.0
1605960039.1016,290.0
1605960039.1036,263.0
1605960039.1056,236.0
1605960039.1076,239.0
1605960039.1096,256.0
1605960039.1116,256.0
1605960039.1136,261.0
1605960039.1156,285.0
1605960039.1176,288.0
1605960039.1196,253.0
1605960039.1216,251.0
1605960039.1236,280.0
1605960039.1256,290.0
1605960039.1276,290.0
1605960039.1296,290.0
1605960039.1319,256.0
1605960039.1336,156.0
1605960039.1356,-78.0
1605960039.1376,-239.0
1605960039.1396,163.0
1605960039.1416,886.0
1605960039.1436,922.0
1605960039.1457,368.0
1605960039.1476,187.0
1605960039.1496,280.0
1605960039.6062,212.0
1605960039.6069,187.0
1605960039.6084,253.0
1605960039.6103,239.0
1605960039.6123,205.0
1605960039.6143,219.0
1605960039.6163,224.0
1605960039.6183,212.0
1605960039.6203,205.0
1605960039.6223,205.0
1605960039.6243,200.0
1605960039.6263,183.0
1605960039.6283,175.0
1605960039.6303,185.0
1605960039.6323,185.0
1605960039.6343,168.0
1605960039.6363,163.0
1605960039.6383,178.0
1605960039.6403,168.0
1605960039.6423,134.0
1605960039.6443,146.0
1605960039.6463,156.0
1605960039.6483,126.0
1605960039.6503,109.0
1605960039.6523,97.0
1605960039.6543,104.0
1605960039.6563,139.0
1605960039.6582,146.0
1605960039.6602,141.0
1605960039.6622,148.0
1605960039.6642,156.0
1605960039.6663,190.0
1605960039.6682,239.0
1605960039.6702,239.0
1605960039.6722,229.0
1605960039.6742,261.0
1605960039.6762,300.0
1605960039.6782,300.0
1605960039.6802,285.0
1605960039.6822,307.0
1605960039.6842,317.0
1605960039.6865,280.0
1605960039.6883,253.0
1605960039.6902,275.0
1605960039.6922,285.0
1605960039.6942,261.0
1605960039.6963,253.0
1605960039.6982,253.0
1605960039.7002,234.0
1605960039.7023,236.0
1605960039.7042,246.0
1605960039.7063,231.0
1605960039.7082,234.0
1605960039.7102,253.0
1605960039.7122,241.0
1605960039.7142,234.0
1605960039.7163,251.0
1605960039.7182,258.0
1605960039.7202,246.0
1605960039.7222,246.0
1605960039.7242,249.0
1605960039.7263,246.0
1605960039.7282,261.0
1605960039.7302,270.0
1605960039.7322,253.0
1605960039.7342,241.0
1605960039.7363,251.0
1605960039.7382,256.0
1605960039.7402,253.0
1605960039.7422,251.0
1605960039.7442,251.0
1605960039.7463,246.0
1605960039.7482,249.0
1605960040.1464,263.0
1605960040.147,263.0
1605960040.148,258.0
1605960040.15,261.0
1605960040.152,249.0
1605960040.154,214.0
1605960040.156,202.0
1605960040.158,214.0
1605960040.16,224.0
1605960040.162,231.0
1605960040.164,246.0
1605960040.166,244.0
1605960040.168,222.0
1605960040.17,209.0
1605960040.172,214.0
1605960040.174,229.0
1605960040.176,236.0
1605960040.178,224.0
1605960040.1799,224.0
1605960040.1821,205.0
1605960040.184,48.0
1605960040.186,-207.0
1605960040.188,-197.0
1605960040.1899,378.0
1605960040.1919,927.0
1605960040.1939,673.0
1605960040.196,195.0
1605960040.1979,187.0
1605960040.1999,261.0
1605960040.202,178.0
1605960040.204,178.0
1605960040.2059,219.0
1605960040.208,192.0
1605960040.2099,187.0
1605960040.212,202.0
1605960040.214,187.0
1605960040.2161,187.0
1605960040.2179,195.0
1605960040.2199,185.0
1605960040.2219,183.0
1605960040.2239,195.0
1605960040.226,183.0
1605960040.2279,151.0
1605960040.2299,153.0
1605960040.2319,166.0
1605960040.2339,151.0
1605960040.236,134.0
1605960040.2379,126.0
1605960040.2399,129.0
1605960040.2419,139.0
1605960040.2439,139.0
1605960040.246,124.0
1605960040.2479,97.0
1605960040.25,78.0
1605960040.2521,90.0
1605960040.254,112.0
1605960040.2561,122.0
1605960040.2579,139.0
1605960040.2599,144.0
1605960040.2619,156.0
1605960040.2639,187.0
1605960040.266,209.0
1605960040.2679,224.0
1605960040.2699,231.0
1605960040.2719,231.0
1605960040.2739,241.0
1605960040.276,251.0
1605960040.2779,258.0
1605960040.2799,266.0
1605960040.2819,258.0
1605960040.2841,231.0
1605960040.286,212.0
1605960040.2879,219.0
1605960040.7162,227.0
1605960040.7169,217.0
1605960040.7193,214.0
1605960040.722,214.0
1605960040.724,202.0
1605960040.7261,207.0
1605960040.7281,222.0
1605960040.73,207.0
1605960040.732,168.0
1605960040.734,173.0
1605960040.736,205.0
1605960040.738,205.0
1605960040.74,195.0
1605960040.7421,192.0
1605960040.744,192.0
1605960040.746,207.0
1605960040.7479,217.0
1605960040.75,207.0
1605960040.752,205.0
1605960040.7539,217.0
1605960040.7559,219.0
1605960040.758,202.0
1605960040.7599,190.0
1605960040.7619,200.0
1605960040.7639,217.0
1605960040.766,234.0
1605960040.7679,222.0
1605960040.7699,192.0
1605960040.7719,207.0
1605960040.774,224.0
1605960040.776,200.0
1605960040.778,190.0
1605960040.7799,205.0
1605960040.7819,195.0
1605960040.7839,178.0
1605960040.786,180.0
1605960040.7879,190.0
1605960040.79,200.0
1605960040.792,209.0
1605960040.7939,209.0
1605960040.796,209.0
1605960040.7979,212.0
1605960040.7999,209.0
1605960040.8019,205.0
1605960040.8039,200.0
1605960040.8059,187.0
1605960040.808,175.0
1605960040.8099,195.0
1605960040.8121,173.0
1605960040.814,-41.0
1605960040.816,-292.0
1605960040.8179,-90.0
1605960040.8199,581.0
1605960040.822,861.0
1605960040.824,429.0
1605960040.826,129.0
1605960040.828,214.0
1605960040.8299,190.0
1605960040.8319,102.0
1605960040.8339,158.0
1605960040.836,200.0
1605960040.8379,161.0
1605960040.84,136.0
1605960040.8419,141.0
1605960040.8439,148.0
1605960040.846,161.0
1605960040.8479,161.0
1605960040.8499,124.0
1605960040.8519,102.0
1605960040.8539,129.0
1605960040.856,136.0
1605960040.858,129.0
1605960040.8599,136.0
1605960041.2558,134.0
1605960041.2567,119.0
1605960041.2591,112.0
1605960041.2618,107.0
1605960041.2638,97.0
1605960041.2658,78.0
1605960041.2678,58.0
1605960041.2699,61.0
1605960041.2718,68.0
1605960041.2738,63.0
1605960041.2758,68.0
1605960041.2778,80.0
1605960041.2798,85.0
1605960041.2817,92.0
1605960041.2838,119.0
1605960041.2859,136.0
1605960041.2878,139.0
1605960041.2898,161.0
1605960041.2918,187.0
1605960041.2937,197.0
1605960041.2958,209.0
1605960041.2977,209.0
1605960041.2997,200.0
1605960041.3018,217.0
1605960041.3038,227.0
1605960041.3058,195.0
1605960041.3079,175.0
1605960041.3098,192.0
1605960041.3117,178.0
1605960041.3137,148.0
1605960041.3158,158.0
1605960041.3178,168.0
1605960041.3198,166.0
1605960041.3217,168.0
1605960041.3237,168.0
1605960041.3259,175.0
1605960041.3277,183.0
1605960041.3297,168.0
1605960041.3317,151.0
1605960041.3337,163.0
1605960041.3359,183.0
1605960041.3377,180.0
1605960041.3397,168.0
1605960041.3417,166.0
1605960041.3437,156.0
1605960041.3458,151.0
1605960041.3477,158.0
1605960041.3497,170.0
1605960041.3518,185.0
1605960041.3537,190.0
1605960041.3558,178.0
1605960041.3577,163.0
1605960041.3597,163.0
1605960041.3617,163.0
1605960041.3637,163.0
1605960041.3658,163.0
1605960041.3678,163.0
1605960041.3697,180.0
1605960041.3717,205.0
1605960041.3737,190.0
1605960041.3758,151.0
1605960041.3777,134.0
1605960041.3797,131.0
1605960041.3817,141.0
1605960041.3838,156.0
1605960041.3858,163.0
1605960041.3877,158.0
1605960041.3897,163.0
1605960041.3917,175.0
1605960041.3937,183.0
1605960041.3958,183.0
1605960041.3977,178.0
1605960041.3999,173.0
1605960041.7961,178.0
1605960041.7969,178.0
1605960041.7993,161.0
1605960041.802,80.0
1605960041.8041,-148.0
1605960041.806,-349.0
1605960041.8079,-29.0
1605960041.8099,678.0
1605960041.8119,805.0
1605960041.8202,297.0
1605960041.8219,95.0
1605960041.8239,200.0
1605960041.8259,144.0
1605960041.828,70.0
1605960041.83,112.0
1605960041.832,124.0
1605960041.8339,104.0
1605960041.836,119.0
1605960041.8379,119.0
1605960041.8399,97.0
1605960041.8419,104.0
1605960041.8439,114.0
1605960041.846,100.0
1605960041.8479,92.0
1605960041.8499,104.0
1605960041.8519,109.0
1605960041.8539,100.0
1605960041.8559,102.0
1605960041.8579,112.0
1605960041.8599,90.0
1605960041.862,56.0
1605960041.864,46.0
1605960041.8659,41.0
1605960041.8679,31.0
1605960041.8699,14.0
1605960041.8719,4.0
1605960041.8739,12.0
1605960041.8759,31.0
1605960041.8781,51.0
1605960041.88,51.0
1605960041.8819,48.0
1605960041.8839,61.0
1605960041.8859,75.0
1605960041.8879,90.0
1605960041.8899,114.0
1605960041.8919,136.0
1605960041.8939,153.0
1605960041.896,173.0
1605960041.8979,192.0
1605960041.8999,192.0
1605960041.9019,175.0
1605960041.9039,175.0
1605960041.9059,187.0
1605960041.9079,187.0
1605960041.9099,183.0
1605960041.9122,187.0
1605960041.914,185.0
1605960041.9159,158.0
1605960041.9179,136.0
1605960041.9199,136.0
1605960041.9219,148.0
1605960041.9239,156.0
1605960041.9259,151.0
1605960041.9279,146.0
1605960041.93,148.0
1605960041.9319,141.0
1605960041.9339,134.0
1605960041.9359,136.0
1605960041.9379,141.0
1605960041.9399,144.0
1605960041.9419,151.0
1605960041.9439,146.0
1605960041.946,134.0
1605960042.3664,144.0
1605960042.3674,158.0
1605960042.369,148.0
1605960042.371,136.0
1605960042.3731,134.0
1605960042.375,134.0
1605960042.377,134.0
1605960042.3789,126.0
1605960042.3809,114.0
1605960042.3829,124.0
1605960042.3849,141.0
1605960042.3869,144.0
1605960042.3889,139.0
1605960042.391,124.0
1605960042.3929,109.0
1605960042.3949,114.0
1605960042.3969,124.0
1605960042.3989,126.0
1605960042.4009,134.0
1605960042.4029,131.0
1605960042.4049,117.0
1605960042.407,124.0
1605960042.4089,148.0
1605960042.4109,151.0
1605960042.4129,141.0
1605960042.4149,144.0
1605960042.4169,144.0
1605960042.4189,146.0
1605960042.4209,65.0
1605960042.4229,-185.0
1605960042.425,-378.0
1605960042.4269,-26.0
1605960042.4289,703.0
1605960042.4311,832.0
1605960042.4329,285.0
1605960042.4349,53.0
1605960042.4369,166.0
1605960042.439,117.0
1605960042.4409,58.0
1605960042.4428,117.0
1605960042.4449,126.0
1605960042.4469,80.0
1605960042.4489,75.0
1605960042.4509,97.0
1605960042.4529,95.0
1605960042.4549,90.0
1605960042.457,100.0
1605960042.4589,112.0
1605960042.4609,102.0
1605960042.4629,63.0
1605960042.4649,39.0
1605960042.4669,58.0
1605960042.4689,78.0
1605960042.4709,65.0
1605960042.473,56.0
1605960042.4749,53.0
1605960042.4769,56.0
1605960042.4789,53.0
1605960042.4809,34.0
1605960042.4829,7.0
1605960042.4849,4.0
1605960042.4869,19.0
1605960042.4889,26.0
1605960042.4909,31.0
1605960042.4929,43.0
1605960042.4949,61.0
1605960042.4969,87.0
1605960042.4989,112.0
1605960042.5009,124.0
1605960042.5029,134.0
1605960042.505,141.0
1605960042.507,153.0
1605960042.5089,180.0
1605960042.9662,200.0
1605960042.9669,197.0
1605960042.9691,190.0
1605960042.9708,205.0
1605960042.9728,212.0
1605960042.9748,183.0
1605960042.9769,161.0
1605960042.9788,161.0
1605960042.9808,144.0
1605960042.9829,141.0
1605960042.985,156.0
1605960042.987,163.0
1605960042.9889,158.0
1605960042.9908,146.0
1605960042.9928,148.0
1605960042.9948,163.0
1605960042.997,148.0
1605960042.9988,117.0
1605960043.0009,114.0
1605960043.0029,139.0
1605960043.0048,136.0
1605960043.0069,119.0
1605960043.0088,136.0
1605960043.0108,151.0
1605960043.0128,139.0
1605960043.0148,134.0
1605960043.0169,126.0
1605960043.0189,117.0
1605960043.0208,124.0
1605960043.0228,139.0
1605960043.0248,146.0
1605960043.0269,153.0
1605960043.0288,153.0
1605960043.0308,144.0
1605960043.0329,134.0
1605960043.0349,141.0
1605960043.0368,151.0
1605960043.0388,144.0
1605960043.0408,134.0
1605960043.0428,124.0
1605960043.0448,109.0
1605960043.0469,109.0
1605960043.0488,119.0
1605960043.0509,129.0
1605960043.0529,146.0
1605960043.0548,153.0
1605960043.0569,148.0
1605960043.0588,146.0
1605960043.0608,131.0
1605960043.0628,119.0
1605960043.0648,129.0
1605960043.0669,141.0
1605960043.0688,112.0
1605960043.0708,-61.0
1605960043.0728,-322.0
1605960043.0748,-249.0
1605960043.0769,395.0
1605960043.0788,859.0
1605960043.0808,500.0
1605960043.0829,73.0
1605960043.0849,119.0
1605960043.0869,146.0
1605960043.089,51.0
1605960043.0909,80.0
1605960043.0928,129.0
1605960043.0948,90.0
1605960043.0969,78.0
1605960043.0989,109.0
1605960043.1009,109.0
1605960043.1028,97.0
1605960043.1048,100.0
1605960043.1069,90.0
1605960043.1088,73.0
1605960043.5363,78.0
1605960043.5373,90.0
1605960043.5398,83.0
1605960043.5424,68.0
1605960043.5445,63.0
1605960043.5464,56.0
1605960043.5485,51.0
1605960043.5504,48.0
1605960043.5524,41.0
1605960043.5543,24.0
1605960043.5564,2.0
1605960043.5583,-7.0
1605960043.5603,-4.0
1605960043.5624,-9.0
1605960043.5643,-12.0
1605960043.5663,7.0
1605960043.5683,26.0
1605960043.5703,26.0
1605960043.5723,31.0
1605960043.5743,46.0
1605960043.5763,56.0
1605960043.5783,70.0
1605960043.5803,97.0
1605960043.5823,134.0
1605960043.5843,156.0
1605960043.5863,153.0
1605960043.5883,146.0
1605960043.5904,153.0
1605960043.5924,153.0
1605960043.5943,151.0
1605960043.5964,153.0
1605960043.5983,144.0
1605960043.6003,122.0
1605960043.6023,114.0
1605960043.6043,126.0
1605960043.6063,129.0
1605960043.6083,114.0
1605960043.6089,109.0
1605960043.6103,107.0
1605960043.6124,109.0
1605960043.6144,126.0
1605960043.6163,122.0
1605960043.6183,112.0
1605960043.6203,119.0
1605960043.6223,114.0
1605960043.6243,104.0
1605960043.6263,95.0
1605960043.6284,92.0
1605960043.6303,109.0
1605960043.6323,114.0
1605960043.6343,92.0
1605960043.6363,83.0
1605960043.6383,90.0
1605960043.6389,87.0
1605960043.6403,80.0
1605960043.6422,95.0
1605960043.6444,119.0
1605960043.6464,122.0
1605960043.6483,112.0
1605960043.6503,97.0
1605960043.6523,92.0
1605960043.6543,97.0
1605960043.6563,90.0
1605960043.6583,78.0
1605960043.6603,87.0
1605960043.6624,97.0
1605960043.6643,97.0
1605960043.6663,104.0
1605960043.6683,112.0
1605960043.6689,117.0
1605960043.6703,122.0
1605960043.6723,131.0
1605960043.6743,124.0
1605960044.076,102.0
1605960044.0768,102.0
1605960044.0792,107.0
1605960044.0818,100.0
1605960044.0839,43.0
1605960044.0859,-161.0
1605960044.0878,-388.0
1605960044.0899,-151.0
1605960044.0918,546.0
1605960044.0925,791.0
1605960044.0938,314.0
1605960044.0959,19.0
1605960044.0978,104.0
1605960044.0998,85.0
1605960044.1018,24.0
1605960044.1038,70.0
1605960044.1058,90.0
1605960044.1079,58.0
1605960044.11,51.0
1605960044.1118,58.0
1605960044.1138,46.0
1605960044.1158,56.0
1605960044.1178,70.0
1605960044.1198,58.0
1605960044.1218,46.0
1605960044.1225,61.0
1605960044.1239,65.0
1605960044.1258,51.0
1605960044.1278,51.0
1605960044.1298,53.0
1605960044.1318,29.0
1605960044.1338,9.0
1605960044.1358,7.0
1605960044.1378,9.0
1605960044.1399,12.0
1605960044.1418,14.0
1605960044.1438,7.0
1605960044.1458,-2.0
1605960044.1479,12.0
1605960044.1498,36.0
1605960044.1504,39.0
1605960044.1518,29.0
1605960044.1538,46.0
1605960044.1559,75.0
1605960044.1578,90.0
1605960044.1598,95.0
1605960044.1618,107.0
1605960044.1638,124.0
1605960044.1658,139.0
1605960044.1678,153.0
1605960044.1698,158.0
1605960044.1718,151.0
1605960044.1739,156.0
1605960044.1758,166.0
1605960044.1778,153.0
1605960044.1798,134.0
1605960044.1804,136.0
1605960044.1818,151.0
1605960044.1838,139.0
1605960044.1858,112.0
1605960044.1878,112.0
1605960044.1899,119.0
1605960044.1918,117.0
1605960044.1938,117.0
1605960044.1958,117.0
1605960044.1978,104.0
1605960044.1998,107.0
1605960044.2018,117.0
1605960044.2039,117.0
1605960044.2061,117.0
1605960044.2078,124.0
1605960044.2098,119.0
1605960044.2104,104.0
1605960044.6163,104.0
1605960044.6172,109.0
1605960044.6182,95.0
1605960044.6202,87.0
1605960044.6222,95.0
1605960044.6242,87.0
1605960044.6263,85.0
1605960044.6282,107.0
1605960044.6301,122.0
1605960044.6321,97.0
1605960044.6342,68.0
1605960044.6362,73.0
1605960044.6381,78.0
1605960044.6388,70.0
1605960044.6401,70.0
1605960044.6421,75.0
1605960044.6441,85.0
1605960044.6462,104.0
1605960044.6481,117.0
1605960044.6501,112.0
1605960044.6522,87.0
1605960044.6541,78.0
1605960044.6561,100.0
1605960044.6581,107.0
1605960044.6601,83.0
1605960044.6621,-43.0
1605960044.6641,-317.0
1605960044.6662,-393.0
1605960044.6682,136.0
1605960044.6688,771.0
1605960044.6701,625.0
1605960044.6721,117.0
1605960044.6741,46.0
1605960044.6761,129.0
1605960044.6782,65.0
1605960044.6801,46.0
1605960044.6821,73.0
1605960044.6842,51.0
1605960044.6861,51.0
1605960044.6881,70.0
1605960044.6901,61.0
1605960044.6921,58.0
1605960044.6941,75.0
1605960044.6961,68.0
1605960044.6981,39.0
1605960044.6988,36.0
1605960044.7002,51.0
1605960044.7023,58.0
1605960044.7041,48.0
1605960044.7061,31.0
1605960044.7081,24.0
1605960044.7101,34.0
1605960044.7121,26.0
1605960044.7141,4.0
1605960044.7162,-12.0
1605960044.7182,-7.0
1605960044.7201,4.0
1605960044.7221,-4.0
1605960044.7241,-12.0
1605960044.7262,7.0
1605960044.7282,21.0
1605960044.7289,21.0
1605960044.7301,26.0
1605960044.7322,43.0
1605960044.7342,61.0
1605960044.7361,73.0
1605960044.7381,90.0
1605960044.7401,107.0
1605960044.7421,114.0
1605960044.7441,117.0
1605960044.7461,131.0
1605960044.7481,151.0
1605960044.7502,153.0
1605960045.1864,151.0
1605960045.1874,151.0
1605960045.1898,134.0
1605960045.1925,117.0
1605960045.1932,124.0
1605960045.1945,122.0
1605960045.1964,95.0
1605960045.1984,73.0
1605960045.2003,80.0
1605960045.2023,83.0
1605960045.2043,83.0
1605960045.2064,100.0
1605960045.2084,104.0
1605960045.2104,90.0
1605960045.2124,92.0
1605960045.2143,117.0
1605960045.2163,126.0
1605960045.2183,100.0
1605960045.2204,90.0
1605960045.2224,100.0
1605960045.2243,97.0
1605960045.2264,90.0
1605960045.2284,92.0
1605960045.2303,100.0
1605960045.2323,107.0
1605960045.2345,100.0
1605960045.2364,107.0
1605960045.2383,126.0
1605960045.2403,117.0
1605960045.2423,90.0
1605960045.2444,73.0
1605960045.2464,61.0
1605960045.2483,58.0
1605960045.2503,56.0
1605960045.2523,68.0
1605960045.2543,92.0
1605960045.2563,95.0
1605960045.2584,87.0
1605960045.2604,85.0
1605960045.2624,100.0
1605960045.2643,117.0
1605960045.2664,102.0
1605960045.2683,70.0
1605960045.2703,68.0
1605960045.2723,80.0
1605960045.2743,34.0
1605960045.2764,-185.0
1605960045.2784,-417.0
1605960045.2803,-161.0
1605960045.2823,546.0
1605960045.2843,761.0
1605960045.2864,288.0
1605960045.2883,34.0
1605960045.2903,119.0
1605960045.2923,70.0
1605960045.2944,0.0
1605960045.2964,51.0
1605960045.2983,68.0
1605960045.3003,39.0
1605960045.3023,43.0
1605960045.3043,53.0
1605960045.3063,43.0
1605960045.3083,43.0
1605960045.3104,48.0
1605960045.3123,41.0
1605960045.3143,36.0
1605960045.3164,29.0
1605960045.3183,24.0
1605960045.3203,31.0
1605960045.3223,34.0
1605960045.3243,26.0
1605960045.3264,12.0
1605960045.3283,-2.0
1605960045.756,0.0
1605960045.7569,0.0
1605960045.7593,-14.0
1605960045.7621,-19.0
1605960045.7639,-9.0
1605960045.7661,-4.0
1605960045.7679,2.0
1605960045.7699,0.0
1605960045.772,-7.0
1605960045.774,7.0
1605960045.776,21.0
1605960045.7779,14.0
1605960045.78,24.0
1605960045.7819,56.0
1605960045.7839,73.0
1605960045.7859,80.0
1605960045.7879,95.0
1605960045.79,109.0
1605960045.7919,122.0
1605960045.7939,131.0
1605960045.7959,117.0
1605960045.7979,102.0
1605960045.7999,102.0
1605960045.8019,95.0
1605960045.8039,90.0
1605960045.806,97.0
1605960045.8079,92.0
1605960045.8098,90.0
1605960045.8119,102.0
1605960045.8139,102.0
1605960045.8159,85.0
1605960045.8179,87.0
1605960045.8198,95.0
1605960045.822,95.0
1605960045.8239,97.0
1605960045.8259,104.0
1605960045.8279,107.0
1605960045.8299,100.0
1605960045.8318,90.0
1605960045.8338,95.0
1605960045.8359,102.0
1605960045.838,104.0
1605960045.8399,100.0
1605960045.8418,95.0
1605960045.8438,100.0
1605960045.8459,100.0
1605960045.8479,90.0
1605960045.8499,85.0
1605960045.8519,97.0
1605960045.8538,109.0
1605960045.856,97.0
1605960045.8579,75.0
1605960045.8598,68.0
1605960045.8619,61.0
1605960045.864,51.0
1605960045.8659,61.0
1605960045.8678,68.0
1605960045.8699,63.0
1605960045.8719,68.0
1605960045.8738,78.0
1605960045.8759,87.0
1605960045.8779,85.0
1605960045.8798,70.0
1605960045.8818,63.0
1605960045.8838,63.0
1605960045.8859,70.0
1605960045.888,36.0
1605960045.8899,-151.0
1605960045.8918,-402.0
1605960045.8938,-256.0
1605960045.8959,419.0
1605960045.8978,786.0
1605960045.8999,363.0
1605960046.3258,14.0
1605960046.3267,102.0
1605960046.3292,95.0
1605960046.3319,0.0
1605960046.3339,31.0
1605960046.3359,58.0
1605960046.3379,39.0
1605960046.3398,36.0
1605960046.3418,29.0
1605960046.3438,9.0
1605960046.3459,19.0
1605960046.3478,36.0
1605960046.3499,39.0
1605960046.3518,34.0
1605960046.3538,24.0
1605960046.3558,4.0
1605960046.3578,2.0
1605960046.3598,19.0
1605960046.3618,12.0
1605960046.3638,-7.0
1605960046.3658,-9.0
1605960046.3678,0.0
1605960046.3698,-2.0
1605960046.3717,-17.0
1605960046.3737,-29.0
1605960046.3758,-26.0
1605960046.3777,-12.0
1605960046.3797,-9.0
1605960046.3817,-9.0
1605960046.3838,7.0
1605960046.3858,26.0
1605960046.3877,39.0
1605960046.3899,46.0
1605960046.3918,53.0
1605960046.3937,78.0
1605960046.3957,95.0
1605960046.3977,104.0
1605960046.3998,122.0
1605960046.4017,126.0
1605960046.4037,124.0
1605960046.4058,117.0
1605960046.4077,102.0
1605960046.4097,97.0
1605960046.4117,104.0
1605960046.4137,109.0
1605960046.4159,104.0
1605960046.4178,90.0
1605960046.4197,80.0
1605960046.4217,80.0
1605960046.4237,83.0
1605960046.4257,85.0
1605960046.4277,92.0
1605960046.4297,95.0
1605960046.4318,87.0
1605960046.4338,83.0
1605960046.4357,92.0
1605960046.4377,95.0
1605960046.4397,95.0
1605960046.4417,95.0
1605960046.4437,85.0
1605960046.4458,92.0
1605960046.4477,109.0
1605960046.4498,107.0
1605960046.4517,102.0
1605960046.4537,100.0
1605960046.4558,92.0
1605960046.4577,92.0
1605960046.4597,97.0
1605960046.4617,92.0
1605960046.4637,85.0
1605960046.4658,85.0
1605960046.4677,97.0
1605960046.4697,107.0
1605960046.8956,100.0
1605960046.8963,75.0
1605960046.8987,46.0
1605960046.9013,48.0
1605960046.9033,61.0
1605960046.9054,61.0
1605960046.9074,53.0
1605960046.9093,58.0
1605960046.9113,73.0
1605960046.9133,80.0
1605960046.9156,70.0
1605960046.9174,61.0
1605960046.9194,63.0
1605960046.9213,61.0
1605960046.9233,56.0
1605960046.9255,63.0
1605960046.9273,46.0
1605960046.9293,-117.0
1605960046.9313,-390.0
1605960046.9333,-356.0
1605960046.9354,261.0
1605960046.9373,754.0
1605960046.9394,449.0
1605960046.9414,29.0
1605960046.9433,51.0
1605960046.9454,92.0
1605960046.9473,12.0
1605960046.9493,12.0
1605960046.9513,46.0
1605960046.9533,29.0
1605960046.9553,19.0
1605960046.9573,31.0
1605960046.9593,24.0
1605960046.9613,19.0
1605960046.9633,29.0
1605960046.9653,14.0
1605960046.9673,0.0
1605960046.9693,4.0
1605960046.9713,4.0
1605960046.9733,7.0
1605960046.9754,9.0
1605960046.9773,-4.0
1605960046.9793,-7.0
1605960046.9813,-9.0
1605960046.9833,-29.0
1605960046.9854,-34.0
1605960046.9873,-24.0
1605960046.9893,-31.0
1605960046.9913,-43.0
1605960046.9933,-34.0
1605960046.9954,-12.0
1605960046.9973,-4.0
1605960046.9993,0.0
1605960047.0013,7.0
1605960047.0033,14.0
1605960047.0054,26.0
1605960047.0073,43.0
1605960047.0093,63.0
1605960047.0113,70.0
1605960047.0133,65.0
1605960047.0153,73.0
1605960047.0175,85.0
1605960047.0194,95.0
1605960047.0213,104.0
1605960047.0233,100.0
1605960047.0254,95.0
1605960047.0273,95.0
1605960047.0293,95.0
1605960047.0313,90.0
1605960047.0333,87.0
1605960047.0354,85.0
1605960047.0373,78.0
1605960047.0393,68.0
1605960047.4361,80.0
1605960047.4368,83.0
1605960047.4393,63.0
1605960047.4419,63.0
1605960047.4439,73.0
1605960047.4461,70.0
1605960047.448,70.0
1605960047.4499,80.0
1605960047.4519,85.0
1605960047.4539,80.0
1605960047.4559,75.0
1605960047.4579,68.0
1605960047.4599,63.0
1605960047.4618,78.0
1605960047.4639,78.0
1605960047.4658,73.0
1605960047.4678,80.0
1605960047.4699,75.0
1605960047.4719,58.0
1605960047.4738,51.0
1605960047.4759,58.0
1605960047.4778,73.0
1605960047.4798,75.0
1605960047.4819,70.0
1605960047.4838,56.0
1605960047.4859,43.0
1605960047.4878,41.0
1605960047.4898,41.0
1605960047.4918,34.0
1605960047.4938,36.0
1605960047.4959,41.0
1605960047.4978,48.0
1605960047.4998,61.0
1605960047.5019,63.0
1605960047.5038,48.0
1605960047.5059,41.0
1605960047.5078,46.0
1605960047.5098,39.0
1605960047.5118,41.0
1605960047.514,14.0
1605960047.5159,-158.0
1605960047.5179,-424.0
1605960047.5199,-334.0
1605960047.5218,322.0
1605960047.5238,766.0
1605960047.5259,402.0
1605960047.5278,2.0
1605960047.5298,43.0
1605960047.5319,58.0
1605960047.5339,-29.0
1605960047.5359,2.0
1605960047.5378,46.0
1605960047.5398,14.0
1605960047.5418,-2.0
1605960047.5438,12.0
1605960047.5459,14.0
1605960047.5479,-2.0
1605960047.5499,-9.0
1605960047.5518,2.0
1605960047.5538,0.0
1605960047.5559,-9.0
1605960047.5578,-9.0
1605960047.5598,-4.0
1605960047.5618,-7.0
1605960047.5638,-19.0
1605960047.5658,-31.0
1605960047.5678,-46.0
1605960047.5698,-41.0
1605960047.5718,-26.0
1605960047.5738,-46.0
1605960047.5759,-75.0
1605960047.5778,-70.0
1605960047.5798,-51.0
1605960047.9762,-41.0
1605960047.9771,-39.0
1605960047.9796,-41.0
1605960047.9822,-34.0
1605960047.9842,-17.0
1605960047.9862,2.0
1605960047.9882,17.0
1605960047.9902,26.0
1605960047.9921,41.0
1605960047.9942,53.0
1605960047.9962,58.0
1605960047.9981,58.0
1605960048.0001,73.0
1605960048.0021,97.0
1605960048.0041,97.0
1605960048.0061,90.0
1605960048.0081,78.0
1605960048.0103,61.0
1605960048.0122,58.0
1605960048.0141,56.0
1605960048.0161,43.0
1605960048.0181,43.0
1605960048.0201,53.0
1605960048.0221,53.0
1605960048.0241,48.0
1605960048.0261,51.0
1605960048.0281,53.0
1605960048.0301,43.0
1605960048.0321,41.0
1605960048.0341,58.0
1605960048.0361,70.0
1605960048.0381,61.0
1605960048.0401,51.0
1605960048.0421,53.0
1605960048.0441,56.0
1605960048.0462,56.0
1605960048.0482,68.0
1605960048.0502,85.0
1605960048.0521,75.0
1605960048.0541,51.0
1605960048.0562,46.0
1605960048.0581,58.0
1605960048.0601,65.0
1605960048.0621,56.0
1605960048.0641,46.0
1605960048.0661,41.0
1605960048.0681,39.0
1605960048.0701,29.0
1605960048.0721,12.0
1605960048.0741,14.0
1605960048.0761,39.0
1605960048.0781,48.0
1605960048.0801,43.0
1605960048.0821,36.0
1605960048.0841,41.0
1605960048.0862,46.0
1605960048.0881,39.0
1605960048.0901,39.0
1605960048.0921,41.0
1605960048.0941,36.0
1605960048.0961,-2.0
1605960048.0981,-185.0
1605960048.1001,-451.0
1605960048.1021,-319.0
1605960048.1041,395.0
1605960048.1061,803.0
1605960048.1081,363.0
1605960048.1101,-19.0
1605960048.1123,53.0
1605960048.1142,51.0
1605960048.1161,-31.0
1605960048.1181,0.0
1605960048.1201,19.0
1605960048.5462,-4.0
1605960048.5472,-7.0
1605960048.5496,4.0
1605960048.5523,12.0
1605960048.5543,2.0
1605960048.5563,-9.0
1605960048.5585,-2.0
1605960048.5603,-7.0
1605960048.5623,-26.0
1605960048.5643,-26.0
1605960048.5662,-34.0
1605960048.5682,-51.0
1605960048.5702,-53.0
1605960048.5722,-51.0
1605960048.5742,-58.0
1605960048.5762,-68.0
1605960048.5782,-68.0
1605960048.5802,-73.0
1605960048.5822,-80.0
1605960048.5842,-75.0
1605960048.5862,-68.0
1605960048.5882,-63.0
1605960048.5902,-53.0
1605960048.5923,-34.0
1605960048.5942,-21.0
1605960048.5962,-19.0
1605960048.5982,0.0
1605960048.6002,19.0
1605960048.6022,26.0
1605960048.6041,43.0
1605960048.6062,80.0
1605960048.6082,97.0
1605960048.6102,95.0
1605960048.6122,97.0
1605960048.6142,97.0
1605960048.6162,95.0
1605960048.6182,102.0
1605960048.6202,97.0
1605960048.6222,87.0
1605960048.6242,83.0
1605960048.6262,70.0
1605960048.6282,65.0
1605960048.6302,75.0
1605960048.6322,73.0
1605960048.6342,63.0
1605960048.6362,70.0
1605960048.6383,75.0
1605960048.6402,61.0
1605960048.6422,58.0
1605960048.6442,73.0
1605960048.6462,75.0
1605960048.6482,68.0
1605960048.6502,70.0
1605960048.6522,75.0
1605960048.6542,75.0
1605960048.6562,78.0
1605960048.6582,80.0
1605960048.6602,83.0
1605960048.6622,83.0
1605960048.6642,85.0
1605960048.6662,75.0
1605960048.6682,65.0
1605960048.6702,85.0
1605960048.6722,90.0
1605960048.6742,58.0
1605960048.6762,46.0
1605960048.6782,46.0
1605960048.6802,43.0
1605960048.6822,48.0
1605960048.6842,51.0
1605960048.6862,48.0
1605960048.6882,56.0
1605960048.6902,68.0
1605960049.1156,75.0
1605960049.1167,65.0
1605960049.1192,56.0
1605960049.1218,46.0
1605960049.1238,34.0
1605960049.1258,29.0
1605960049.1278,-48.0
1605960049.1297,-292.0
1605960049.1316,-480.0
1605960049.1337,-151.0
1605960049.1356,554.0
1605960049.1376,688.0
1605960049.1396,183.0
1605960049.1411,-26.0
1605960049.1426,73.0
1605960049.1446,26.0
1605960049.1467,-26.0
1605960049.1486,9.0
1605960049.1507,9.0
1605960049.1526,-9.0
1605960049.1547,12.0
1605960049.1567,19.0
1605960049.1586,-4.0
1605960049.1606,-9.0
1605960049.1628,2.0
1605960049.1647,0.0
1605960049.1666,-9.0
1605960049.1686,-9.0
1605960049.1706,-4.0
1605960049.1727,-12.0
1605960049.1747,-29.0
1605960049.1766,-26.0
1605960049.1786,-21.0
1605960049.1806,-31.0
1605960049.1826,-51.0
1605960049.1846,-58.0
1605960049.1866,-51.0
1605960049.1886,-58.0
1605960049.1906,-70.0
1605960049.1926,-61.0
1605960049.1946,-46.0
1605960049.1967,-39.0
1605960049.1986,-19.0
1605960049.2006,0.0
1605960049.2027,14.0
1605960049.2046,21.0
1605960049.2067,29.0
1605960049.2086,58.0
1605960049.2106,85.0
1605960049.2126,90.0
1605960049.2146,87.0
1605960049.2166,97.0
1605960049.2186,109.0
1605960049.2207,112.0
1605960049.2226,104.0
1605960049.2247,100.0
1605960049.2267,97.0
1605960049.2286,90.0
1605960049.2306,83.0
1605960049.2326,75.0
1605960049.2346,61.0
1605960049.2367,61.0
1605960049.2386,73.0
1605960049.2407,75.0
1605960049.2426,63.0
1605960049.2446,61.0
1605960049.2467,65.0
1605960049.2486,70.0
1605960049.2506,68.0
1605960049.2526,61.0
1605960049.2546,58.0
1605960049.2566,61.0
1605960049.2586,63.0
1605960049.6862,68.0
1605960049.6872,73.0
1605960049.6901,73.0
1605960049.6924,58.0
1605960049.6943,51.0
1605960049.6963,65.0
1605960049.6982,68.0
1605960049.7002,51.0
1605960049.7022,46.0
1605960049.7042,48.0
1605960049.7062,36.0
1605960049.7082,17.0
1605960049.7102,12.0
1605960049.7122,21.0
1605960049.7141,29.0
1605960049.7161,24.0
1605960049.7181,24.0
1605960049.7201,46.0
1605960049.7222,63.0
1605960049.7241,53.0
1605960049.7262,39.0
1605960049.7281,46.0
1605960049.7301,39.0
1605960049.7321,29.0
1605960049.7342,39.0
1605960049.7362,-19.0
1605960049.7381,-249.0
1605960049.7401,-476.0
1605960049.7421,-236.0
1605960049.7441,446.0
1605960049.7462,700.0
1605960049.7481,253.0
1605960049.7501,-26.0
1605960049.7521,70.0
1605960049.7541,61.0
1605960049.7562,-21.0
1605960049.7582,4.0
1605960049.7601,24.0
1605960049.7621,0.0
1605960049.7641,4.0
1605960049.7661,14.0
1605960049.7681,7.0
1605960049.7702,4.0
1605960049.7721,7.0
1605960049.7741,4.0
1605960049.7762,2.0
1605960049.7782,0.0
1605960049.7801,-14.0
1605960049.7821,-26.0
1605960049.7841,-19.0
1605960049.7862,-14.0
1605960049.7881,-24.0
1605960049.7901,-39.0
1605960049.7923,-43.0
1605960049.7942,-46.0
1605960049.7962,-46.0
1605960049.7981,-46.0
1605960049.8001,-56.0
1605960049.8021,-68.0
1605960049.8041,-58.0
1605960049.8061,-34.0
1605960049.8081,-26.0
1605960049.8101,-26.0
1605960049.8121,-7.0
1605960049.8142,17.0
1605960049.8161,29.0
1605960049.8181,41.0
1605960049.8201,58.0
1605960049.8221,65.0
1605960049.8241,78.0
1605960049.8262,95.0
1605960049.8281,95.0
1605960049.8302,87.0
1605960050.2558,83.0
1605960050.2568,80.0
1605960050.2592,85.0
1605960050.2604,85.0
1605960050.2619,78.0
1605960050.2639,68.0
1605960050.2658,53.0
1605960050.2679,56.0
1605960050.2699,56.0
1605960050.2719,41.0
1605960050.2739,36.0
1605960050.2758,39.0
1605960050.2777,41.0
1605960050.2797,48.0
1605960050.2817,48.0
1605960050.2837,46.0
1605960050.2858,51.0
1605960050.2877,53.0
1605960050.2897,53.0
1605960050.2904,58.0
1605960050.2927,61.0
1605960050.2947,65.0
1605960050.2967,65.0
1605960050.2987,58.0
1605960050.3007,58.0
1605960050.3027,65.0
1605960050.3047,63.0
1605960050.3067,61.0
1605960050.3087,70.0
1605960050.3107,78.0
1605960050.3127,68.0
1605960050.3149,41.0
1605960050.3168,26.0
1605960050.3187,39.0
1605960050.3207,46.0
1605960050.3214,41.0
1605960050.3237,39.0
1605960050.3258,48.0
1605960050.3278,61.0
1605960050.3298,58.0
1605960050.3317,48.0
1605960050.3337,48.0
1605960050.3358,48.0
1605960050.3377,34.0
1605960050.3397,26.0
1605960050.3417,36.0
1605960050.3437,-41.0
1605960050.3457,-292.0
1605960050.3477,-471.0
1605960050.3498,-129.0
1605960050.3517,554.0
1605960050.3524,659.0
1605960050.3547,161.0
1605960050.3568,-41.0
1605960050.3587,61.0
1605960050.3607,17.0
1605960050.3627,-34.0
1605960050.3648,12.0
1605960050.3667,4.0
1605960050.3687,-21.0
1605960050.3707,-2.0
1605960050.3727,7.0
1605960050.3747,-9.0
1605960050.3767,-9.0
1605960050.3788,0.0
1605960050.3807,-9.0
1605960050.3814,-9.0
1605960050.3837,-2.0
1605960050.3858,-19.0
1605960050.3877,-29.0
1605960050.3898,-26.0
1605960050.3917,-43.0
1605960050.3937,-53.0
1605960050.7962,-41.0
1605960050.7972,-46.0
1605960050.7997,-70.0
1605960050.8023,-73.0
1605960050.8043,-56.0
1605960050.8063,-53.0
1605960050.8069,-65.0
1605960050.8092,-61.0
1605960050.8112,-51.0
1605960050.8134,-48.0
1605960050.8153,-39.0
1605960050.8172,-14.0
1605960050.8192,4.0
1605960050.8212,12.0
1605960050.8232,26.0
1605960050.8252,51.0
1605960050.8272,65.0
1605960050.8292,68.0
1605960050.8312,68.0
1605960050.8332,78.0
1605960050.8353,90.0
1605960050.8373,78.0
1605960050.8379,63.0
1605960050.8392,68.0
1605960050.8412,73.0
1605960050.8432,65.0
1605960050.8453,61.0
1605960050.8472,53.0
1605960050.8493,48.0
1605960050.8512,41.0
1605960050.8532,43.0
1605960050.8553,51.0
1605960050.8572,56.0
1605960050.8592,51.0
1605960050.8612,39.0
1605960050.8632,43.0
1605960050.8653,63.0
1605960050.8672,61.0
1605960050.8679,48.0
1605960050.8702,48.0
1605960050.8722,58.0
1605960050.8742,56.0
1605960050.8762,43.0
1605960050.8782,51.0
1605960050.8802,73.0
1605960050.8822,70.0
1605960050.8842,48.0
1605960050.8862,43.0
1605960050.8882,48.0
1605960050.8902,48.0
1605960050.8922,46.0
1605960050.8942,53.0
1605960050.8962,61.0
1605960050.8982,58.0
1605960050.8988,53.0
1605960050.9002,34.0
1605960050.9022,4.0
1605960050.9042,7.0
1605960050.9062,21.0
1605960050.9082,21.0
1605960050.9104,17.0
1605960050.9122,21.0
1605960050.9142,34.0
1605960050.9162,41.0
1605960050.9182,39.0
1605960050.9202,34.0
1605960050.9222,34.0
1605960050.9242,29.0
1605960050.9262,19.0
1605960050.9282,24.0
1605960050.9289,-2.0
1605960050.9312,-180.0
1605960050.9332,-446.0
1605960051.3662,-351.0
1605960051.3672,297.0
1605960051.3697,705.0
1605960051.3723,324.0
1605960051.3743,-43.0
1605960051.3763,24.0
1605960051.3783,31.0
1605960051.3802,-58.0
1605960051.3822,-31.0
1605960051.3842,0.0
1605960051.3862,-26.0
1605960051.3882,-31.0
1605960051.3902,-17.0
1605960051.3909,-19.0
1605960051.3932,-21.0
1605960051.3952,-17.0
1605960051.3972,-17.0
1605960051.3992,-21.0
1605960051.4013,-31.0
1605960051.4032,-43.0
1605960051.4052,-43.0
1605960051.4072,-51.0
1605960051.4092,-61.0
1605960051.4112,-63.0
1605960051.4132,-70.0
1605960051.4153,-80.0
1605960051.4172,-85.0
1605960051.4192,-83.0
1605960051.4212,-75.0
1605960051.4219,-85.0
1605960051.4242,-87.0
1605960051.4262,-68.0
1605960051.4283,-68.0
1605960051.4302,-70.0
1605960051.4322,-53.0
1605960051.4343,-39.0
1605960051.4363,-26.0
1605960051.4382,7.0
1605960051.4405,26.0
1605960051.4423,21.0
1605960051.4442,26.0
1605960051.4462,41.0
1605960051.4482,53.0
1605960051.4502,63.0
1605960051.4509,70.0
1605960051.4532,65.0
1605960051.4553,58.0
1605960051.4572,61.0
1605960051.4592,63.0
1605960051.4612,56.0
1605960051.4632,41.0
1605960051.4652,39.0
1605960051.4672,36.0
1605960051.4692,24.0
1605960051.4712,19.0
1605960051.4732,19.0
1605960051.4752,26.0
1605960051.4772,39.0
1605960051.4792,26.0
1605960051.4812,17.0
1605960051.4819,34.0
1605960051.4842,43.0
1605960051.4862,41.0
1605960051.4882,43.0
1605960051.4902,46.0
1605960051.4922,34.0
1605960051.4943,26.0
1605960051.4963,39.0
1605960051.4982,58.0
1605960051.5002,58.0
1605960051.5022,41.0
1605960051.5041,29.0
1605960051.5062,31.0
1605960051.906,36.0
1605960051.9068,34.0
1605960051.9092,36.0
1605960051.9119,39.0
1605960051.9138,31.0
1605960051.9158,29.0
1605960051.9179,36.0
1605960051.9198,34.0
1605960051.9218,0.0
1605960051.9238,-17.0
1605960051.9259,-2.0
1605960051.9278,-2.0
1605960051.9298,-14.0
1605960051.9318,-9.0
1605960051.9338,0.0
1605960051.9359,4.0
1605960051.938,9.0
1605960051.9399,12.0
1605960051.9419,7.0
1605960051.9438,0.0
1605960051.9458,-7.0
1605960051.9478,-7.0
1605960051.9498,9.0
1605960051.9518,-46.0
1605960051.9538,-278.0
1605960051.9559,-512.0
1605960051.9578,-249.0
1605960051.9598,495.0
1605960051.9618,739.0
1605960051.9638,224.0
1605960051.9658,-65.0
1605960051.9678,41.0
1605960051.9698,9.0
1605960051.9718,-65.0
1605960051.9738,-29.0
1605960051.9758,-24.0
1605960051.9778,-48.0
1605960051.9798,-34.0
1605960051.9818,-24.0
1605960051.9838,-36.0
1605960051.9858,-34.0
1605960051.9878,-26.0
1605960051.9898,-31.0
1605960051.9918,-34.0
1605960051.9938,-41.0
1605960051.9958,-48.0
1605960051.9978,-41.0
1605960051.9998,-46.0
1605960052.0018,-61.0
1605960052.0038,-61.0
1605960052.0058,-65.0
1605960052.0078,-75.0
1605960052.0098,-85.0
1605960052.0118,-87.0
1605960052.0138,-90.0
1605960052.0158,-97.0
1605960052.0178,-92.0
1605960052.0198,-80.0
1605960052.0218,-80.0
1605960052.0238,-70.0
1605960052.0259,-48.0
1605960052.0279,-19.0
1605960052.0298,2.0
1605960052.0318,-2.0
1605960052.0338,-2.0
1605960052.0359,24.0
1605960052.0378,61.0
1605960052.0401,85.0
1605960052.0418,92.0
1605960052.0438,85.0
1605960052.0458,75.0
1605960052.0478,78.0
1605960052.0498,102.0
1605960052.4763,100.0
1605960052.4772,78.0
1605960052.4796,68.0
1605960052.4823,61.0
1605960052.4843,48.0
1605960052.4863,39.0
1605960052.4883,29.0
1605960052.4903,26.0
1605960052.4923,29.0
1605960052.4942,26.0
1605960052.4962,26.0
1605960052.4982,29.0
1605960052.5002,36.0
1605960052.5022,39.0
1605960052.5042,41.0
1605960052.5063,48.0
1605960052.5082,48.0
1605960052.5102,48.0
1605960052.5122,48.0
1605960052.5142,46.0
1605960052.5162,46.0
1605960052.5182,48.0
1605960052.5202,46.0
1605960052.5222,46.0
1605960052.5242,53.0
1605960052.5262,51.0
1605960052.5282,36.0
1605960052.5302,29.0
1605960052.5322,34.0
1605960052.5342,29.0
1605960052.5362,29.0
1605960052.5382,43.0
1605960052.5402,48.0
1605960052.5422,36.0
1605960052.5442,14.0
1605960052.5462,-2.0
1605960052.5482,0.0
1605960052.5502,9.0
1605960052.5522,2.0
1605960052.5542,4.0
1605960052.5562,24.0
1605960052.5582,36.0
1605960052.5602,29.0
1605960052.5622,34.0
1605960052.5642,46.0
1605960052.5664,34.0
1605960052.5682,14.0
1605960052.5702,14.0
1605960052.5722,19.0
1605960052.5742,-26.0
1605960052.5762,-222.0
1605960052.5782,-463.0
1605960052.5802,-258.0
1605960052.5822,454.0
1605960052.5842,751.0
1605960052.5863,268.0
1605960052.5882,-48.0
1605960052.5902,53.0
1605960052.5923,39.0
1605960052.5942,-41.0
1605960052.5962,2.0
1605960052.5982,31.0
1605960052.6002,-2.0
1605960052.6022,-14.0
1605960052.6042,-4.0
1605960052.6062,-12.0
1605960052.6082,-26.0
1605960052.6102,-19.0
1605960052.6122,-2.0
1605960052.6142,-4.0
1605960052.6162,-19.0
1605960052.6182,-24.0
1605960052.6202,-29.0
1605960053.1367,-31.0
1605960053.1384,-31.0
1605960053.1409,-43.0
1605960053.1435,-56.0
1605960053.1454,-56.0
1605960053.1475,-63.0
1605960053.1495,-87.0
1605960053.1515,-95.0
1605960053.1535,-80.0
1605960053.1555,-78.0
1605960053.1575,-90.0
1605960053.1595,-85.0
1605960053.1615,-58.0
1605960053.1635,-39.0
1605960053.1655,-26.0
1605960053.1674,-17.0
1605960053.1694,-2.0
1605960053.1714,21.0
1605960053.1734,39.0
1605960053.1754,43.0
1605960053.1774,61.0
1605960053.1794,75.0
1605960053.1814,70.0
1605960053.1837,73.0
1605960053.1854,87.0
1605960053.1874,83.0
1605960053.1894,61.0
1605960053.1914,56.0
1605960053.1934,58.0
1605960053.1954,51.0
1605960053.1974,39.0
1605960053.1994,31.0
1605960053.2014,39.0
1605960053.2034,41.0
1605960053.2054,36.0
1605960053.2074,43.0
1605960053.2094,48.0
1605960053.2115,41.0
1605960053.2134,39.0
1605960053.2154,41.0
1605960053.2173,46.0
1605960053.2193,41.0
1605960053.2214,43.0
1605960053.2233,46.0
1605960053.2254,29.0
1605960053.2273,24.0
1605960053.2293,48.0
1605960053.2313,58.0
1605960053.2333,51.0
1605960053.2354,46.0
1605960053.2373,46.0
1605960053.2393,41.0
1605960053.2413,31.0
1605960053.2433,29.0
1605960053.2454,34.0
1605960053.2473,31.0
1605960053.2493,21.0
1605960053.2514,24.0
1605960053.2534,36.0
1605960053.2555,34.0
1605960053.2573,29.0
1605960053.2593,43.0
1605960053.2613,48.0
1605960053.2633,24.0
1605960053.2653,-4.0
1605960053.2673,-9.0
1605960053.2693,12.0
1605960053.2713,21.0
1605960053.2733,17.0
1605960053.2753,21.0
1605960053.2773,24.0
1605960053.2793,31.0
1605960053.2813,46.0
1605960053.616,48.0
1605960053.617,34.0
1605960053.6186,24.0
1605960053.6206,19.0
1605960053.6226,24.0
1605960053.6246,19.0
1605960053.6266,-97.0
1605960053.6286,-363.0
1605960053.6306,-434.0
1605960053.6325,80.0
1605960053.6346,681.0
1605960053.6366,517.0
1605960053.6385,29.0
1605960053.6406,-21.0
1605960053.6426,63.0
1605960053.6446,-14.0
1605960053.6466,-36.0
1605960053.6486,9.0
1605960053.6506,-4.0
1605960053.6526,-31.0
1605960053.6546,-21.0
1605960053.6567,-14.0
1605960053.6585,-19.0
1605960053.6606,-24.0
1605960053.6626,-29.0
1605960053.6645,-29.0
1605960053.6666,-21.0
1605960053.6686,-21.0
1605960053.6706,-39.0
1605960053.6726,-46.0
1605960053.6746,-39.0
1605960053.6766,-43.0
1605960053.6785,-53.0
1605960053.6806,-51.0
1605960053.6826,-61.0
1605960053.6846,-85.0
1605960053.6866,-85.0
1605960053.6886,-73.0
1605960053.6906,-73.0
1605960053.6926,-73.0
1605960053.6946,-65.0
1605960053.6966,-61.0
1605960053.6985,-53.0
1605960053.7006,-41.0
1605960053.7026,-21.0
1605960053.7046,-2.0
1605960053.7066,9.0
1605960053.7086,21.0
1605960053.7106,36.0
1605960053.7126,46.0
1605960053.7146,61.0
1605960053.7165,80.0
1605960053.7187,78.0
1605960053.7206,73.0
1605960053.7226,80.0
1605960053.7246,73.0
1605960053.7266,58.0
1605960053.7285,56.0
1605960053.7306,58.0
1605960053.7326,51.0
1605960053.7345,39.0
1605960053.7366,41.0
1605960053.7386,41.0
1605960053.7406,29.0
1605960053.7426,29.0
1605960053.7446,36.0
1605960053.7466,29.0
1605960053.7486,21.0
1605960053.7506,31.0
1605960053.7526,46.0
1605960053.7546,36.0
1605960053.7566,29.0
1605960053.7586,36.0
1605960054.1558,36.0
1605960054.1568,31.0
1605960054.1592,31.0
1605960054.1619,29.0
1605960054.1639,21.0
1605960054.1658,12.0
1605960054.1679,19.0
1605960054.1698,24.0
1605960054.1718,9.0
1605960054.1738,-7.0
1605960054.1759,-7.0
1605960054.1778,2.0
1605960054.1798,2.0
1605960054.1818,2.0
1605960054.1838,7.0
1605960054.1859,9.0
1605960054.1878,9.0
1605960054.1898,17.0
1605960054.1918,24.0
1605960054.1938,24.0
1605960054.1958,17.0
1605960054.1978,14.0
1605960054.1998,7.0
1605960054.2018,-7.0
1605960054.2038,-7.0
1605960054.2058,-2.0
1605960054.2078,2.0
1605960054.2098,19.0
1605960054.2118,26.0
1605960054.2138,29.0
1605960054.216,34.0
1605960054.2178,34.0
1605960054.2198,29.0
1605960054.2217,31.0
1605960054.2238,24.0
1605960054.2258,17.0
1605960054.2278,7.0
1605960054.2298,-85.0
1605960054.2317,-322.0
1605960054.2338,-451.0
1605960054.2358,-48.0
1605960054.2378,607.0
1605960054.2398,607.0
1605960054.2418,102.0
1605960054.2438,-41.0
1605960054.2458,56.0
1605960054.2478,-9.0
1605960054.2498,-46.0
1605960054.2518,7.0
1605960054.2537,0.0
1605960054.2558,-19.0
1605960054.2577,2.0
1605960054.2598,7.0
1605960054.2618,-12.0
1605960054.2638,-19.0
1605960054.2658,-9.0
1605960054.2678,-2.0
1605960054.2698,-14.0
1605960054.2717,-31.0
1605960054.2737,-31.0
1605960054.2758,-31.0
1605960054.2777,-34.0
1605960054.2797,-36.0
1605960054.2817,-46.0
1605960054.2837,-51.0
1605960054.2858,-56.0
1605960054.2878,-65.0
1605960054.2898,-68.0
1605960054.2918,-75.0
1605960054.2938,-85.0
1605960054.2958,-87.0
1605960054.2977,-85.0
1605960054.2998,-85.0
1605960054.7257,-68.0
1605960054.7267,-36.0
1605960054.7291,-19.0
1605960054.7318,-21.0
1605960054.7338,-9.0
1605960054.7358,12.0
1605960054.7378,19.0
1605960054.7397,21.0
1605960054.7419,48.0
1605960054.7437,70.0
1605960054.7457,61.0
1605960054.7477,48.0
1605960054.7497,48.0
1605960054.7517,51.0
1605960054.7537,51.0
1605960054.7557,46.0
1605960054.7577,41.0
1605960054.7597,29.0
1605960054.7617,14.0
1605960054.7637,19.0
1605960054.7657,29.0
1605960054.7677,26.0
1605960054.7697,19.0
1605960054.7717,19.0
1605960054.7737,19.0
1605960054.7757,14.0
1605960054.7777,2.0
1605960054.7797,0.0
1605960054.7817,9.0
1605960054.7836,17.0
1605960054.7857,14.0
1605960054.7876,9.0
1605960054.7896,12.0
1605960054.7916,17.0
1605960054.7936,21.0
1605960054.7957,19.0
1605960054.7977,14.0
1605960054.7996,19.0
1605960054.8016,21.0
1605960054.8036,21.0
1605960054.8057,26.0
1605960054.8076,24.0
1605960054.8097,12.0
1605960054.8116,7.0
1605960054.8136,9.0
1605960054.8156,19.0
1605960054.8176,21.0
1605960054.8196,14.0
1605960054.8217,7.0
1605960054.8236,14.0
1605960054.8257,26.0
1605960054.8277,29.0
1605960054.8297,24.0
1605960054.8318,19.0
1605960054.8337,7.0
1605960054.8358,0.0
1605960054.8377,-2.0
1605960054.8397,0.0
1605960054.8416,7.0
1605960054.8438,12.0
1605960054.8457,12.0
1605960054.8477,19.0
1605960054.8496,17.0
1605960054.8518,7.0
1605960054.8537,2.0
1605960054.8557,4.0
1605960054.8577,2.0
1605960054.8597,-4.0
1605960054.8617,-9.0
1605960054.8637,-90.0
1605960054.8657,-351.0
1605960054.8677,-502.0
1605960054.8697,-65.0
1605960055.2662,617.0
1605960055.2672,603.0
1605960055.2697,90.0
1605960055.2723,-39.0
1605960055.2743,43.0
1605960055.2763,-31.0
1605960055.2783,-61.0
1605960055.2803,-19.0
1605960055.2822,-41.0
1605960055.2842,-63.0
1605960055.2863,-43.0
1605960055.2882,-29.0
1605960055.2902,-34.0
1605960055.2922,-36.0
1605960055.2941,-31.0
1605960055.2961,-29.0
1605960055.2981,-41.0
1605960055.3001,-56.0
1605960055.3021,-70.0
1605960055.3041,-75.0
1605960055.3062,-70.0
1605960055.3081,-75.0
1605960055.3101,-87.0
1605960055.3121,-95.0
1605960055.3141,-97.0
1605960055.3161,-95.0
1605960055.3181,-104.0
1605960055.3201,-117.0
1605960055.3221,-117.0
1605960055.3242,-112.0
1605960055.3262,-104.0
1605960055.3281,-100.0
1605960055.3301,-90.0
1605960055.3322,-70.0
1605960055.3341,-51.0
1605960055.3362,-43.0
1605960055.3381,-34.0
1605960055.3403,-9.0
1605960055.3422,4.0
1605960055.3443,9.0
1605960055.3462,26.0
1605960055.3481,46.0
1605960055.3501,56.0
1605960055.3521,63.0
1605960055.3541,68.0
1605960055.3561,61.0
1605960055.3582,43.0
1605960055.3602,34.0
1605960055.3621,31.0
1605960055.3641,21.0
1605960055.3661,7.0
1605960055.3682,4.0
1605960055.3701,19.0
1605960055.3721,4.0
1605960055.3742,-29.0
1605960055.3762,-39.0
1605960055.3781,-26.0
1605960055.3801,-14.0
1605960055.3822,-4.0
1605960055.3841,-7.0
1605960055.3861,-9.0
1605960055.3881,-7.0
1605960055.3901,0.0
1605960055.3921,9.0
1605960055.3941,4.0
1605960055.3961,-2.0
1605960055.3981,2.0
1605960055.4001,7.0
1605960055.4021,12.0
1605960055.4041,9.0
1605960055.4061,4.0
1605960055.4081,9.0
1605960055.4101,9.0
1605960055.8363,9.0
1605960055.8373,19.0
1605960055.8397,21.0
1605960055.8424,17.0
1605960055.8443,2.0
1605960055.8463,-12.0
1605960055.8483,-2.0
1605960055.8503,9.0
1605960055.8523,7.0
1605960055.8543,-7.0
1605960055.8563,-21.0
1605960055.8582,-17.0
1605960055.8602,-7.0
1605960055.8622,-9.0
1605960055.8642,-2.0
1605960055.8664,14.0
1605960055.8683,21.0
1605960055.8702,19.0
1605960055.8722,14.0
1605960055.8743,7.0
1605960055.8764,9.0
1605960055.8783,17.0
1605960055.8803,14.0
1605960055.8823,-12.0
1605960055.8843,-146.0
1605960055.8862,-405.0
1605960055.8882,-434.0
1605960055.8903,144.0
1605960055.8923,739.0
1605960055.8942,502.0
1605960055.8962,2.0
1605960055.8982,-9.0
1605960055.9003,56.0
1605960055.9022,-46.0
1605960055.9042,-46.0
1605960055.9063,14.0
1605960055.9082,-7.0
1605960055.9102,-31.0
1605960055.9122,-14.0
1605960055.9142,-19.0
1605960055.9162,-36.0
1605960055.9182,-26.0
1605960055.9202,-14.0
1605960055.9222,-26.0
1605960055.9242,-34.0
1605960055.9263,-39.0
1605960055.9282,-53.0
1605960055.9302,-56.0
1605960055.9322,-65.0
1605960055.9342,-80.0
1605960055.9363,-78.0
1605960055.9382,-83.0
1605960055.9402,-102.0
1605960055.9422,-100.0
1605960055.9442,-97.0
1605960055.9462,-107.0
1605960055.9482,-109.0
1605960055.9502,-97.0
1605960055.9522,-92.0
1605960055.9542,-97.0
1605960055.9562,-83.0
1605960055.9582,-58.0
1605960055.9602,-43.0
1605960055.9622,-39.0
1605960055.9642,-31.0
1605960055.9663,0.0
1605960055.9684,43.0
1605960055.9703,56.0
1605960055.9722,46.0
1605960055.9742,61.0
1605960055.9763,85.0
1605960055.9782,85.0
1605960055.9802,58.0
1605960056.4364,48.0
1605960056.4377,51.0
1605960056.4401,39.0
1605960056.4428,34.0
1605960056.4447,29.0
1605960056.4467,9.0
1605960056.4488,-2.0
1605960056.4507,2.0
1605960056.4527,4.0
1605960056.4547,2.0
1605960056.4567,7.0
1605960056.4587,2.0
1605960056.4608,-4.0
1605960056.4627,-4.0
1605960056.4647,0.0
1605960056.4666,2.0
1605960056.4686,12.0
1605960056.4706,19.0
1605960056.4727,17.0
1605960056.4746,14.0
1605960056.4766,21.0
1605960056.4786,29.0
1605960056.4806,29.0
1605960056.4826,21.0
1605960056.4846,21.0
1605960056.4867,24.0
1605960056.4886,21.0
1605960056.4906,26.0
1605960056.4926,26.0
1605960056.4946,24.0
1605960056.4966,36.0
1605960056.4986,46.0
1605960056.5006,29.0
1605960056.5026,4.0
1605960056.5046,-2.0
1605960056.5066,-2.0
1605960056.5087,-4.0
1605960056.5107,7.0
1605960056.5126,21.0
1605960056.5146,24.0
1605960056.5166,29.0
1605960056.5187,26.0
1605960056.5206,17.0
1605960056.5226,7.0
1605960056.5248,7.0
1605960056.5322,12.0
1605960056.5336,12.0
1605960056.5358,-14.0
1605960056.5376,-190.0
1605960056.5396,-461.0
1605960056.5416,-358.0
1605960056.5437,324.0
1605960056.5456,764.0
1605960056.5476,363.0
1605960056.5496,-48.0
1605960056.5516,19.0
1605960056.5536,53.0
1605960056.5558,-46.0
1605960056.5577,-26.0
1605960056.5596,12.0
1605960056.5603,-21.0
1605960056.5616,-31.0
1605960056.5636,-14.0
1605960056.5656,-14.0
1605960056.5676,-21.0
1605960056.5696,-17.0
1605960056.5716,-14.0
1605960056.5736,-17.0
1605960056.5757,-21.0
1605960056.5776,-26.0
1605960056.5796,-34.0
1605960056.5816,-51.0
1605960056.5837,-68.0
1605960056.9762,-63.0
1605960056.9772,-53.0
1605960056.9796,-65.0
1605960056.9823,-73.0
1605960056.9843,-75.0
1605960056.9863,-92.0
1605960056.9883,-102.0
1605960056.9902,-97.0
1605960056.9922,-90.0
1605960056.9942,-85.0
1605960056.9962,-83.0
1605960056.9982,-78.0
1605960057.0002,-58.0
1605960057.0022,-34.0
1605960057.0042,-24.0
1605960057.0062,-4.0
1605960057.0069,26.0
1605960057.0091,43.0
1605960057.0111,51.0
1605960057.0132,58.0
1605960057.0152,70.0
1605960057.0171,80.0
1605960057.0193,73.0
1605960057.0212,68.0
1605960057.0231,68.0
1605960057.0252,61.0
1605960057.0272,48.0
1605960057.0291,34.0
1605960057.0311,24.0
1605960057.0331,31.0
1605960057.0352,26.0
1605960057.0371,12.0
1605960057.0378,7.0
1605960057.0401,-2.0
1605960057.0422,-7.0
1605960057.0442,2.0
1605960057.0461,9.0
1605960057.0481,4.0
1605960057.0501,0.0
1605960057.0521,4.0
1605960057.0541,12.0
1605960057.0561,17.0
1605960057.0581,17.0
1605960057.0601,17.0
1605960057.0621,14.0
1605960057.0641,14.0
1605960057.0661,17.0
1605960057.0681,21.0
1605960057.0689,24.0
1605960057.0702,29.0
1605960057.0722,29.0
1605960057.0741,21.0
1605960057.0762,31.0
1605960057.0782,36.0
1605960057.0801,9.0
1605960057.0821,-2.0
1605960057.0841,4.0
1605960057.0862,0.0
1605960057.0882,-9.0
1605960057.0901,-2.0
1605960057.0921,14.0
1605960057.0941,26.0
1605960057.0961,31.0
1605960057.0981,29.0
1605960057.0989,17.0
1605960057.1011,12.0
1605960057.1031,17.0
1605960057.1052,17.0
1605960057.1071,14.0
1605960057.1091,-2.0
1605960057.1111,-134.0
1605960057.1131,-397.0
1605960057.1152,-437.0
1605960057.5761,112.0
1605960057.5772,686.0
1605960057.5796,480.0
1605960057.5823,17.0
1605960057.5842,-2.0
1605960057.5862,58.0
1605960057.5882,-34.0
1605960057.5889,-43.0
1605960057.5912,0.0
1605960057.5932,-24.0
1605960057.5952,-39.0
1605960057.5971,-21.0
1605960057.5991,-26.0
1605960057.6012,-36.0
1605960057.6031,-29.0
1605960057.6052,-21.0
1605960057.6071,-29.0
1605960057.6091,-39.0
1605960057.6111,-41.0
1605960057.6131,-43.0
1605960057.6151,-58.0
1605960057.6171,-68.0
1605960057.6191,-61.0
1605960057.6198,-65.0
1605960057.6221,-80.0
1605960057.6244,-90.0
1605960057.6262,-95.0
1605960057.6281,-104.0
1605960057.6301,-112.0
1605960057.6321,-112.0
1605960057.6341,-112.0
1605960057.6361,-104.0
1605960057.6381,-85.0
1605960057.6401,-68.0
1605960057.6421,-61.0
1605960057.6441,-53.0
1605960057.6461,-26.0
1605960057.6481,2.0
1605960057.6501,19.0
1605960057.6508,36.0
1605960057.6531,51.0
1605960057.6551,53.0
1605960057.6571,56.0
1605960057.6592,73.0
1605960057.6611,83.0
1605960057.6631,73.0
1605960057.6652,56.0
1605960057.6671,53.0
1605960057.6691,51.0
1605960057.6711,46.0
1605960057.6731,39.0
1605960057.6753,24.0
1605960057.6773,19.0
1605960057.6791,21.0
1605960057.6811,19.0
1605960057.6818,19.0
1605960057.6831,9.0
1605960057.6852,4.0
1605960057.6871,21.0
1605960057.6891,29.0
1605960057.6911,14.0
1605960057.6931,12.0
1605960057.6951,24.0
1605960057.6972,31.0
1605960057.6991,17.0
1605960057.7011,7.0
1605960057.7031,9.0
1605960057.7052,9.0
1605960057.7071,14.0
1605960057.7091,21.0
1605960057.7111,14.0
1605960057.7118,12.0
1605960057.7131,21.0
1605960058.0855,29.0
1605960058.0863,24.0
1605960058.0887,12.0
1605960058.0913,7.0
1605960058.0933,2.0
1605960058.0953,0.0
1605960058.0974,-2.0
1605960058.0993,-2.0
1605960058.1013,-2.0
1605960058.1033,0.0
1605960058.1054,9.0
1605960058.1073,26.0
1605960058.108,24.0
1605960058.1093,2.0
1605960058.1113,-14.0
1605960058.1133,-14.0
1605960058.1153,-2.0
1605960058.1173,-4.0
1605960058.1193,-17.0
1605960058.1213,-100.0
1605960058.1233,-341.0
1605960058.1253,-505.0
1605960058.1274,-126.0
1605960058.1293,559.0
1605960058.1313,610.0
1605960058.1333,95.0
1605960058.1353,-65.0
1605960058.1373,43.0
1605960058.1379,-21.0
1605960058.1395,-68.0
1605960058.1414,-9.0
1605960058.1433,-14.0
1605960058.1454,-46.0
1605960058.1473,-26.0
1605960058.1493,-12.0
1605960058.1513,-31.0
1605960058.1533,-39.0
1605960058.1553,-31.0
1605960058.1573,-41.0
1605960058.1594,-46.0
1605960058.1613,-41.0
1605960058.1633,-41.0
1605960058.1653,-48.0
1605960058.1673,-61.0
1605960058.1693,-68.0
1605960058.1713,-70.0
1605960058.1733,-78.0
1605960058.1753,-87.0
1605960058.1773,-87.0
1605960058.1793,-90.0
1605960058.1813,-102.0
1605960058.1833,-117.0
1605960058.1853,-119.0
1605960058.1873,-102.0
1605960058.1893,-83.0
1605960058.1913,-73.0
1605960058.1934,-65.0
1605960058.1953,-48.0
1605960058.1973,-26.0
1605960058.1993,-14.0
1605960058.2013,7.0
1605960058.2033,34.0
1605960058.2053,51.0
1605960058.2073,51.0
1605960058.2093,53.0
1605960058.2113,65.0
1605960058.2133,68.0
1605960058.2153,56.0
1605960058.2173,51.0
1605960058.2193,53.0
1605960058.2213,56.0
1605960058.2233,48.0
1605960058.2253,31.0
1605960058.6561,26.0
1605960058.657,31.0
1605960058.6595,26.0
1605960058.6621,24.0
1605960058.6641,29.0
1605960058.666,29.0
1605960058.6681,9.0
1605960058.6703,-9.0
1605960058.6721,-2.0
1605960058.674,7.0
1605960058.6761,2.0
1605960058.678,-2.0
1605960058.68,-7.0
1605960058.682,-7.0
1605960058.684,-4.0
1605960058.6861,0.0
1605960058.688,9.0
1605960058.69,4.0
1605960058.692,-4.0
1605960058.694,2.0
1605960058.696,17.0
1605960058.698,9.0
1605960058.7,0.0
1605960058.702,2.0
1605960058.7041,-4.0
1605960058.7061,-12.0
1605960058.708,-2.0
1605960058.71,4.0
1605960058.712,7.0
1605960058.714,0.0
1605960058.716,-26.0
1605960058.718,-41.0
1605960058.72,-31.0
1605960058.722,-24.0
1605960058.724,-24.0
1605960058.726,-14.0
1605960058.728,-2.0
1605960058.73,0.0
1605960058.732,2.0
1605960058.734,7.0
1605960058.736,0.0
1605960058.738,-9.0
1605960058.74,-9.0
1605960058.742,-17.0
1605960058.744,-24.0
1605960058.746,-124.0
1605960058.748,-400.0
1605960058.75,-517.0
1605960058.752,-7.0
1605960058.754,661.0
1605960058.756,549.0
1605960058.758,36.0
1605960058.76,-36.0
1605960058.762,34.0
1605960058.764,-51.0
1605960058.766,-56.0
1605960058.768,-4.0
1605960058.77,-34.0
1605960058.7722,-58.0
1605960058.774,-36.0
1605960058.776,-31.0
1605960058.778,-41.0
1605960058.78,-39.0
1605960058.782,-48.0
1605960058.784,-61.0
1605960058.786,-56.0
1605960058.788,-65.0
1605960058.79,-68.0
1605960058.792,-63.0
1605960058.794,-75.0
1605960058.796,-92.0
1605960058.798,-92.0
1605960058.8,-97.0
1605960059.1961,-109.0
1605960059.1968,-122.0
1605960059.1992,-126.0
1605960059.2019,-131.0
1605960059.2039,-141.0
1605960059.2059,-148.0
1605960059.208,-144.0
1605960059.2099,-139.0
1605960059.2119,-136.0
1605960059.2139,-124.0
1605960059.2158,-97.0
1605960059.2179,-75.0
1605960059.2199,-61.0
1605960059.2218,-31.0
1605960059.2239,-2.0
1605960059.2259,14.0
1605960059.2278,26.0
1605960059.2298,43.0
1605960059.2318,51.0
1605960059.2339,43.0
1605960059.2359,46.0
1605960059.2378,56.0
1605960059.2398,48.0
1605960059.2418,34.0
1605960059.2438,29.0
1605960059.2459,24.0
1605960059.2478,19.0
1605960059.2498,12.0
1605960059.2518,4.0
1605960059.2538,4.0
1605960059.2558,2.0
1605960059.2578,-7.0
1605960059.2598,-12.0
1605960059.2618,-12.0
1605960059.2638,-12.0
1605960059.2658,-7.0
1605960059.268,7.0
1605960059.2699,9.0
1605960059.2718,-2.0
1605960059.2738,-7.0
1605960059.2758,-7.0
1605960059.2778,0.0
1605960059.2798,-2.0
1605960059.2818,-12.0
1605960059.2838,-7.0
1605960059.2859,0.0
1605960059.2878,-2.0
1605960059.2898,-2.0
1605960059.2918,-4.0
1605960059.2938,-17.0
1605960059.2958,-19.0
1605960059.2978,-12.0
1605960059.2998,-9.0
1605960059.3018,-12.0
1605960059.3038,-12.0
1605960059.3058,-12.0
1605960059.3078,-14.0
1605960059.3098,-29.0
1605960059.3118,-53.0
1605960059.3138,-63.0
1605960059.3158,-46.0
1605960059.3178,-34.0
1605960059.3198,-26.0
1605960059.3218,-21.0
1605960059.3238,-26.0
1605960059.3259,-24.0
1605960059.3278,-21.0
1605960059.3298,-21.0
1605960059.3318,-26.0
1605960059.3338,-34.0
1605960059.3358,-36.0
1605960059.3378,-48.0
1605960059.3398,-131.0
1605960059.7962,-388.0
1605960059.7971,-593.0
1605960059.7996,-183.0
1605960059.8022,603.0
1605960059.8042,651.0
1605960059.8062,56.0
1605960059.8083,-112.0
1605960059.8102,7.0
1605960059.8122,-87.0
1605960059.8142,-146.0
1605960059.8161,-73.0
1605960059.8181,-78.0
1605960059.8201,-109.0
1605960059.8221,-90.0
1605960059.8244,-85.0
1605960059.8262,-97.0
1605960059.8281,-97.0
1605960059.8301,-95.0
1605960059.8321,-95.0
1605960059.8341,-100.0
1605960059.8362,-109.0
1605960059.8381,-124.0
1605960059.8401,-122.0
1605960059.8421,-112.0
1605960059.8441,-126.0
1605960059.8462,-148.0
1605960059.8481,-156.0
1605960059.8501,-158.0
1605960059.8521,-170.0
1605960059.8543,-185.0
1605960059.8563,-202.0
1605960059.8581,-209.0
1605960059.8601,-205.0
1605960059.8621,-195.0
1605960059.8641,-190.0
1605960059.8661,-187.0
1605960059.8681,-168.0
1605960059.8701,-139.0
1605960059.8721,-117.0
1605960059.8741,-97.0
1605960059.8761,-61.0
1605960059.8781,-19.0
1605960059.8788,-4.0
1605960059.8801,-4.0
1605960059.8821,9.0
1605960059.8841,29.0
1605960059.8861,26.0
1605960059.8881,14.0
1605960059.8901,14.0
1605960059.8922,19.0
1605960059.8941,14.0
1605960059.8961,9.0
1605960059.8981,7.0
1605960059.9001,-9.0
1605960059.9021,-17.0
1605960059.9041,-14.0
1605960059.9061,-17.0
1605960059.9081,-19.0
1605960059.9087,-14.0
1605960059.9101,-12.0
1605960059.9121,-17.0
1605960059.9141,-24.0
1605960059.9161,-24.0
1605960059.9181,-19.0
1605960059.9201,-17.0
1605960059.9223,-14.0
1605960059.9242,-19.0
1605960059.9262,-12.0
1605960059.9281,-7.0
1605960059.9301,-12.0
1605960059.9321,-4.0
1605960059.9341,-2.0
1605960059.9361,-2.0
1605960060.3361,4.0
1605960060.337,4.0
1605960060.3395,-4.0
1605960060.3422,-7.0
1605960060.3442,-2.0
1605960060.3461,0.0
1605960060.3482,0.0
1605960060.3501,2.0
1605960060.3521,-17.0
1605960060.3541,-39.0
1605960060.3562,-41.0
1605960060.3581,-39.0
1605960060.3601,-39.0
1605960060.3621,-41.0
1605960060.3641,-26.0
1605960060.366,-4.0
1605960060.3667,-4.0
1605960060.368,-12.0
1605960060.37,-7.0
1605960060.3721,-7.0
1605960060.374,-24.0
1605960060.376,-34.0
1605960060.378,-31.0
1605960060.38,-126.0
1605960060.382,-417.0
1605960060.384,-605.0
1605960060.3861,-109.0
1605960060.388,700.0
1605960060.39,668.0
1605960060.392,56.0
1605960060.394,-68.0
1605960060.396,51.0
1605960060.3967,-53.0
1605960060.399,-95.0
1605960060.401,-26.0
1605960060.403,-36.0
1605960060.405,-61.0
1605960060.4071,-46.0
1605960060.409,-51.0
1605960060.411,-63.0
1605960060.413,-51.0
1605960060.4151,-43.0
1605960060.417,-48.0
1605960060.4192,-61.0
1605960060.4211,-61.0
1605960060.423,-61.0
1605960060.4251,-68.0
1605960060.4257,-75.0
1605960060.427,-85.0
1605960060.429,-87.0
1605960060.431,-92.0
1605960060.433,-112.0
1605960060.4351,-124.0
1605960060.437,-129.0
1605960060.439,-139.0
1605960060.441,-153.0
1605960060.443,-163.0
1605960060.445,-161.0
1605960060.447,-139.0
1605960060.449,-114.0
1605960060.451,-100.0
1605960060.453,-87.0
1605960060.4551,-68.0
1605960060.4557,-34.0
1605960060.457,2.0
1605960060.459,26.0
1605960060.461,36.0
1605960060.463,48.0
1605960060.4651,58.0
1605960060.467,61.0
1605960060.4691,58.0
1605960060.471,63.0
1605960060.473,70.0
1605960060.9061,65.0
1605960060.907,53.0
1605960060.9094,43.0
1605960060.9121,26.0
1605960060.9128,14.0
1605960060.914,17.0
1605960060.916,14.0
1605960060.918,-4.0
1605960060.92,-12.0
1605960060.922,-14.0
1605960060.924,-17.0
1605960060.926,-19.0
1605960060.9279,-17.0
1605960060.9299,-12.0
1605960060.932,-12.0
1605960060.934,-4.0
1605960060.936,0.0
1605960060.9379,-2.0
1605960060.9399,2.0
1605960060.9419,9.0
1605960060.9426,7.0
1605960060.9441,-4.0
1605960060.946,-9.0
1605960060.9479,-4.0
1605960060.9499,-2.0
1605960060.9519,-4.0
1605960060.9539,-2.0
1605960060.9559,-2.0
1605960060.9579,-9.0
1605960060.9599,-21.0
1605960060.9619,-19.0
1605960060.964,-4.0
1605960060.9659,0.0
1605960060.9679,-2.0
1605960060.9699,-2.0
1605960060.972,-2.0
1605960060.9726,-2.0
1605960060.9739,-19.0
1605960060.976,-36.0
1605960060.9779,-34.0
1605960060.9799,-24.0
1605960060.9819,-21.0
1605960060.9839,-21.0
1605960060.986,-9.0
1605960060.9879,4.0
1605960060.9899,7.0
1605960060.9919,2.0
1605960060.9939,-4.0
1605960060.9959,-9.0
1605960060.9979,-12.0
1605960060.9999,-9.0
1605960061.0019,-7.0
1605960061.0026,-70.0
1605960061.0039,-314.0
1605960061.0059,-566.0
1605960061.0079,-292.0
1605960061.0099,498.0
1605960061.0119,749.0
1605960061.0139,195.0
1605960061.016,-78.0
1605960061.0179,48.0
1605960061.02,-19.0
1605960061.0219,-112.0
1605960061.0239,-46.0
1605960061.0259,-21.0
1605960061.0279,-51.0
1605960061.03,-46.0
1605960061.0319,-39.0
1605960061.0326,-48.0
1605960061.0339,-43.0
1605960061.036,-41.0
1605960061.0379,-46.0
1605960061.0407,-41.0
1605960061.4461,-41.0
1605960061.447,-61.0
1605960061.4494,-63.0
1605960061.4521,-61.0
1605960061.4541,-75.0
1605960061.4561,-85.0
1605960061.4581,-80.0
1605960061.46,-80.0
1605960061.4621,-114.0
1605960061.464,-144.0
1605960061.4661,-139.0
1605960061.4668,-136.0
1605960061.468,-144.0
1605960061.4701,-139.0
1605960061.472,-134.0
1605960061.474,-131.0
1605960061.4761,-122.0
1605960061.478,-97.0
1605960061.48,-68.0
1605960061.482,-46.0
1605960061.484,-17.0
1605960061.486,12.0
1605960061.488,29.0
1605960061.49,39.0
1605960061.492,53.0
1605960061.494,63.0
1605960061.496,63.0
1605960061.4967,63.0
1605960061.498,70.0
1605960061.5,65.0
1605960061.502,61.0
1605960061.504,58.0
1605960061.506,51.0
1605960061.508,46.0
1605960061.51,34.0
1605960061.512,17.0
1605960061.514,17.0
1605960061.516,29.0
1605960061.518,31.0
1605960061.52,17.0
1605960061.522,9.0
1605960061.524,7.0
1605960061.526,2.0
1605960061.5267,4.0
1605960061.528,7.0
1605960061.53,0.0
1605960061.532,-2.0
1605960061.534,4.0
1605960061.536,9.0
1605960061.538,9.0
1605960061.5402,12.0
1605960061.5421,14.0
1605960061.544,14.0
1605960061.546,4.0
1605960061.548,-2.0
1605960061.55,-7.0
1605960061.552,2.0
1605960061.554,24.0
1605960061.556,24.0
1605960061.5567,17.0
1605960061.558,14.0
1605960061.56,9.0
1605960061.562,0.0
1605960061.564,2.0
1605960061.566,12.0
1605960061.568,14.0
1605960061.57,14.0
1605960061.572,14.0
1605960061.574,0.0
1605960061.576,-9.0
1605960061.578,17.0
1605960061.58,39.0
1605960061.582,17.0
1605960062.0208,-12.0
1605960062.0218,-7.0
1605960062.0242,-4.0
1605960062.0269,-17.0
1605960062.0289,-17.0
1605960062.0309,-9.0
1605960062.033,-12.0
1605960062.0349,-12.0
1605960062.0368,-9.0
1605960062.0388,-12.0
1605960062.0409,-19.0
1605960062.0428,-21.0
1605960062.0448,-9.0
1605960062.0469,-14.0
1605960062.0488,-131.0
1605960062.0495,-419.0
1605960062.0508,-559.0
1605960062.0528,-68.0
1605960062.0548,649.0
1605960062.0568,581.0
1605960062.0587,36.0
1605960062.0607,-61.0
1605960062.0627,43.0
1605960062.0647,-34.0
1605960062.0667,-68.0
1605960062.0687,-21.0
1605960062.0707,-39.0
1605960062.0727,-56.0
1605960062.0749,-39.0
1605960062.0768,-39.0
1605960062.0788,-46.0
1605960062.0794,-41.0
1605960062.0807,-41.0
1605960062.0827,-53.0
1605960062.0847,-63.0
1605960062.0868,-53.0
1605960062.0887,-48.0
1605960062.0907,-68.0
1605960062.0927,-83.0
1605960062.0947,-75.0
1605960062.0967,-73.0
1605960062.0987,-75.0
1605960062.1007,-90.0
1605960062.1027,-114.0
1605960062.1047,-122.0
1605960062.1067,-119.0
1605960062.1087,-124.0
1605960062.1094,-129.0
1605960062.1107,-124.0
1605960062.1127,-112.0
1605960062.1147,-109.0
1605960062.1167,-109.0
1605960062.1187,-92.0
1605960062.1207,-53.0
1605960062.1227,-17.0
1605960062.1247,-4.0
1605960062.1267,4.0
1605960062.1288,34.0
1605960062.1307,51.0
1605960062.1327,53.0
1605960062.1347,48.0
1605960062.1367,43.0
1605960062.1387,53.0
1605960062.1395,65.0
1605960062.1417,53.0
1605960062.1437,43.0
1605960062.1457,46.0
1605960062.1477,39.0
1605960062.1498,26.0
1605960062.1517,39.0
1605960062.1537,48.0
1605960062.1558,24.0
1605960062.1577,4.0
1605960062.5558,7.0
1605960062.5567,4.0
1605960062.5591,0.0
1605960062.5618,0.0
1605960062.5638,2.0
1605960062.5645,2.0
1605960062.5669,-12.0
1605960062.5688,-17.0
1605960062.5707,-9.0
1605960062.5727,-9.0
1605960062.5747,-12.0
1605960062.5767,-4.0
1605960062.5788,-2.0
1605960062.5807,0.0
1605960062.5827,7.0
1605960062.5848,-4.0
1605960062.5866,-12.0
1605960062.5886,2.0
1605960062.5906,12.0
1605960062.5927,2.0
1605960062.5947,0.0
1605960062.5953,-4.0
1605960062.5967,-7.0
1605960062.5986,2.0
1605960062.6006,9.0
1605960062.6027,0.0
1605960062.6047,-14.0
1605960062.6066,-14.0
1605960062.6086,-2.0
1605960062.6106,4.0
1605960062.6126,7.0
1605960062.6146,7.0
1605960062.6167,12.0
1605960062.6186,12.0
1605960062.6206,-7.0
1605960062.6226,-39.0
1605960062.6246,-46.0
1605960062.6253,-24.0
1605960062.6266,-7.0
1605960062.6286,-7.0
1605960062.6308,-4.0
1605960062.6327,0.0
1605960062.6346,4.0
1605960062.6366,9.0
1605960062.6386,12.0
1605960062.6406,12.0
1605960062.6426,7.0
1605960062.6446,4.0
1605960062.6466,0.0
1605960062.6486,-9.0
1605960062.6506,-85.0
1605960062.6526,-307.0
1605960062.6547,-515.0
1605960062.6553,-241.0
1605960062.6567,461.0
1605960062.6586,656.0
1605960062.6606,168.0
1605960062.6628,-65.0
1605960062.6647,48.0
1605960062.6666,4.0
1605960062.6686,-80.0
1605960062.6706,-31.0
1605960062.6726,-2.0
1605960062.6746,-29.0
1605960062.6766,-34.0
1605960062.6786,-36.0
1605960062.6806,-43.0
1605960062.6826,-26.0
1605960062.6846,-24.0
1605960062.6853,-41.0
1605960062.6866,-51.0
1605960062.6886,-58.0
1605960062.6906,-56.0
1605960063.1561,-46.0
1605960063.1569,-46.0
1605960063.1585,-68.0
1605960063.1605,-85.0
1605960063.1624,-90.0
1605960063.1644,-95.0
1605960063.1664,-100.0
1605960063.1671,-117.0
1605960063.1684,-136.0
1605960063.1704,-134.0
1605960063.1724,-126.0
1605960063.1744,-134.0
1605960063.1764,-131.0
1605960063.1783,-109.0
1605960063.1803,-95.0
1605960063.1825,-97.0
1605960063.1844,-85.0
1605960063.1864,-51.0
1605960063.1883,-36.0
1605960063.1903,-31.0
1605960063.1924,-7.0
1605960063.1943,24.0
1605960063.1963,31.0
1605960063.197,21.0
1605960063.1983,21.0
1605960063.2003,31.0
1605960063.2023,31.0
1605960063.2043,14.0
1605960063.2063,4.0
1605960063.2084,4.0
1605960063.2103,7.0
1605960063.2123,7.0
1605960063.2143,12.0
1605960063.2164,14.0
1605960063.2183,7.0
1605960063.2205,-7.0
1605960063.2224,-9.0
1605960063.2243,-2.0
1605960063.2263,-4.0
1605960063.227,-12.0
1605960063.2283,-2.0
1605960063.2303,2.0
1605960063.2323,-9.0
1605960063.2343,-2.0
1605960063.2363,4.0
1605960063.2383,-2.0
1605960063.2403,-2.0
1605960063.2423,-2.0
1605960063.2443,-4.0
1605960063.2463,2.0
1605960063.2483,2.0
1605960063.2503,0.0
1605960063.2523,2.0
1605960063.2543,7.0
1605960063.2564,2.0
1605960063.257,-2.0
1605960063.2583,7.0
1605960063.2603,7.0
1605960063.2623,-4.0
1605960063.2643,-2.0
1605960063.2663,4.0
1605960063.2683,0.0
1605960063.2703,-2.0
1605960063.2723,0.0
1605960063.2743,2.0
1605960063.2763,-9.0
1605960063.2783,-9.0
1605960063.2803,14.0
1605960063.2823,19.0
1605960063.2843,0.0
1605960063.2864,-17.0
1605960063.287,-24.0
1605960063.2883,-19.0
1605960063.7255,-14.0
1605960063.7263,-9.0
1605960063.7287,-2.0
1605960063.7314,-2.0
1605960063.7334,2.0
1605960063.7355,7.0
1605960063.7373,12.0
1605960063.7393,14.0
1605960063.7413,4.0
1605960063.7433,-12.0
1605960063.7453,-24.0
1605960063.7473,-34.0
1605960063.748,-119.0
1605960063.7495,-366.0
1605960063.7513,-524.0
1605960063.7533,-134.0
1605960063.7554,551.0
1605960063.7573,585.0
1605960063.7593,73.0
1605960063.7613,-75.0
1605960063.7632,29.0
1605960063.7653,-34.0
1605960063.7672,-73.0
1605960063.7693,-29.0
1605960063.7713,-36.0
1605960063.7733,-58.0
1605960063.7753,-43.0
1605960063.7773,-41.0
1605960063.7779,-48.0
1605960063.7792,-48.0
1605960063.7813,-41.0
1605960063.7833,-39.0
1605960063.7853,-39.0
1605960063.7873,-43.0
1605960063.7892,-58.0
1605960063.7913,-61.0
1605960063.7933,-63.0
1605960063.7953,-75.0
1605960063.7973,-78.0
1605960063.7993,-75.0
1605960063.8013,-87.0
1605960063.8032,-107.0
1605960063.8053,-117.0
1605960063.8073,-126.0
1605960063.8079,-126.0
1605960063.8094,-117.0
1605960063.8113,-119.0
1605960063.8132,-119.0
1605960063.8153,-107.0
1605960063.8173,-95.0
1605960063.8193,-90.0
1605960063.8213,-80.0
1605960063.8233,-61.0
1605960063.8253,-31.0
1605960063.8272,-7.0
1605960063.8292,0.0
1605960063.8312,9.0
1605960063.8333,31.0
1605960063.8353,43.0
1605960063.8372,36.0
1605960063.8379,31.0
1605960063.8393,34.0
1605960063.8413,26.0
1605960063.8433,9.0
1605960063.8454,12.0
1605960063.8473,26.0
1605960063.8493,29.0
1605960063.8513,7.0
1605960063.8533,-12.0
1605960063.8553,-4.0
1605960063.8572,14.0
1605960063.8592,17.0
1605960063.8613,2.0
1605960064.296,0.0
1605960064.2969,9.0
1605960064.2993,7.0
1605960064.3004,-4.0
1605960064.302,-2.0
1605960064.304,-4.0
1605960064.306,-9.0
1605960064.308,-7.0
1605960064.3099,2.0
1605960064.3119,7.0
1605960064.3139,-9.0
1605960064.3159,-19.0
1605960064.3179,-12.0
1605960064.3199,-12.0
1605960064.3219,-12.0
1605960064.3239,-4.0
1605960064.3259,-4.0
1605960064.3279,-9.0
1605960064.3299,-2.0
1605960064.3306,12.0
1605960064.3329,7.0
1605960064.3349,-12.0
1605960064.3369,-7.0
1605960064.3389,7.0
1605960064.3408,2.0
1605960064.3428,-4.0
1605960064.3448,4.0
1605960064.3468,7.0
1605960064.3489,-14.0
1605960064.3508,-31.0
1605960064.3529,-21.0
1605960064.3549,-19.0
1605960064.3569,-17.0
1605960064.3588,-2.0
1605960064.3595,2.0
1605960064.3608,4.0
1605960064.3629,12.0
1605960064.3649,7.0
1605960064.3669,-4.0
1605960064.3688,-2.0
1605960064.3708,0.0
1605960064.3728,-4.0
1605960064.3751,-2.0
1605960064.3769,-34.0
1605960064.3788,-205.0
1605960064.3808,-454.0
1605960064.3829,-400.0
1605960064.3849,205.0
1605960064.3868,690.0
1605960064.3888,385.0
1605960064.3895,-41.0
1605960064.3909,-14.0
1605960064.3928,26.0
1605960064.3948,-58.0
1605960064.3969,-48.0
1605960064.3989,-17.0
1605960064.4009,-41.0
1605960064.4028,-48.0
1605960064.4049,-36.0
1605960064.4069,-41.0
1605960064.4088,-41.0
1605960064.4108,-36.0
1605960064.4128,-43.0
1605960064.4149,-56.0
1605960064.4169,-48.0
1605960064.4188,-46.0
1605960064.4195,-53.0
1605960064.4208,-61.0
1605960064.4228,-80.0
1605960064.4249,-100.0
1605960064.4268,-102.0
1605960064.4289,-102.0
1605960064.4309,-114.0
1605960064.8358,-124.0
1605960064.8365,-122.0
1605960064.8389,-131.0
1605960064.8393,-139.0
1605960064.84,-139.0
1605960064.8416,-129.0
1605960064.8422,-109.0
1605960064.8435,-107.0
1605960064.8455,-114.0
1605960064.8476,-95.0
1605960064.8495,-65.0
1605960064.8515,-53.0
1605960064.8535,-46.0
1605960064.8555,-29.0
1605960064.8575,-7.0
1605960064.8595,0.0
1605960064.8615,4.0
1605960064.8635,17.0
1605960064.8655,24.0
1605960064.8675,19.0
1605960064.8697,12.0
1605960064.8715,7.0
1605960064.8721,12.0
1605960064.8735,12.0
1605960064.8755,0.0
1605960064.8774,-9.0
1605960064.8795,-12.0
1605960064.8815,-9.0
1605960064.8835,-7.0
1605960064.8855,-4.0
1605960064.8875,-9.0
1605960064.8895,-19.0
1605960064.8915,-17.0
1605960064.8935,-9.0
1605960064.8955,-9.0
1605960064.8975,-7.0
1605960064.8995,-7.0
1605960064.9015,-2.0
1605960064.9021,0.0
1605960064.9035,-4.0
1605960064.9055,0.0
1605960064.9075,0.0
1605960064.9095,-9.0
1605960064.9115,-2.0
1605960064.9135,9.0
1605960064.9155,4.0
1605960064.9175,-7.0
1605960064.9195,-12.0
1605960064.9215,-4.0
1605960064.9235,-2.0
1605960064.9255,-7.0
1605960064.9275,-4.0
1605960064.9295,2.0
1605960064.9316,-4.0
1605960064.9322,-17.0
1605960064.9335,-2.0
1605960064.9355,7.0
1605960064.9375,-7.0
1605960064.9395,-9.0
1605960064.9415,-2.0
1605960064.9435,-12.0
1605960064.9455,-31.0
1605960064.9475,-43.0
1605960064.9495,-46.0
1605960064.9515,-41.0
1605960064.9535,-43.0
1605960064.9555,-39.0
1605960064.9575,-19.0
1605960064.9595,-12.0
1605960064.9615,-17.0
1605960064.9621,-17.0
1605960064.9636,-4.0
1605960064.9656,-7.0
1605960065.3757,-26.0
1605960065.3766,-31.0
1605960065.379,-17.0
1605960065.3817,-48.0
1605960065.3837,-214.0
1605960065.3858,-476.0
1605960065.3878,-432.0
1605960065.3897,190.0
1605960065.3917,686.0
1605960065.3937,368.0
1605960065.3957,-63.0
1605960065.3977,-29.0
1605960065.3997,4.0
1605960065.4004,-100.0
1605960065.4017,-90.0
1605960065.4037,-41.0
1605960065.4057,-58.0
1605960065.4076,-70.0
1605960065.4096,-61.0
1605960065.4116,-58.0
1605960065.4136,-58.0
1605960065.4157,-63.0
1605960065.4176,-68.0
1605960065.4196,-73.0
1605960065.4216,-75.0
1605960065.4236,-75.0
1605960065.4257,-78.0
1605960065.4276,-87.0
1605960065.4296,-95.0
1605960065.4302,-104.0
1605960065.4316,-117.0
1605960065.4336,-122.0
1605960065.4356,-122.0
1605960065.4376,-131.0
1605960065.4396,-139.0
1605960065.4416,-141.0
1605960065.4436,-148.0
1605960065.4456,-144.0
1605960065.4476,-139.0
1605960065.4496,-141.0
1605960065.4516,-122.0
1605960065.4536,-97.0
1605960065.4556,-97.0
1605960065.4576,-97.0
1605960065.4596,-80.0
1605960065.4602,-53.0
1605960065.4616,-29.0
1605960065.4636,-19.0
1605960065.4656,-2.0
1605960065.4678,17.0
1605960065.4697,21.0
1605960065.4716,17.0
1605960065.4736,12.0
1605960065.4756,-2.0
1605960065.4776,-17.0
1605960065.4796,-17.0
1605960065.4816,-9.0
1605960065.4836,-19.0
1605960065.4856,-24.0
1605960065.4876,-24.0
1605960065.4896,-29.0
1605960065.4902,-29.0
1605960065.4916,-26.0
1605960065.4936,-26.0
1605960065.4956,-29.0
1605960065.4976,-31.0
1605960065.4996,-21.0
1605960065.5016,-9.0
1605960065.5036,-12.0
1605960065.5056,-14.0
1605960065.5076,-19.0
1605960065.5096,-19.0
1605960065.5116,-12.0
1605960065.946,-9.0
1605960065.9469,-9.0
1605960065.9486,-9.0
1605960065.951,-7.0
1605960065.9529,2.0
1605960065.955,-9.0
1605960065.9569,-26.0
1605960065.9589,-21.0
1605960065.9609,-12.0
1605960065.9629,-17.0
1605960065.965,-29.0
1605960065.9669,-24.0
1605960065.9689,-24.0
1605960065.9709,-24.0
1605960065.9729,-12.0
1605960065.975,-2.0
1605960065.9769,-4.0
1605960065.9789,-19.0
1605960065.9795,-43.0
1605960065.9809,-48.0
1605960065.9829,-36.0
1605960065.985,-29.0
1605960065.9868,-31.0
1605960065.9889,-26.0
1605960065.9909,4.0
1605960065.9928,19.0
1605960065.9949,2.0
1605960065.997,-4.0
1605960065.9989,-4.0
1605960066.0009,-9.0
1605960066.0029,-12.0
1605960066.005,-12.0
1605960066.0068,-34.0
1605960066.0088,-166.0
1605960066.0094,-419.0
1605960066.0108,-461.0
1605960066.0128,92.0
1605960066.0149,717.0
1605960066.0168,532.0
1605960066.0189,7.0
1605960066.0208,-48.0
1605960066.0228,21.0
1605960066.0249,-58.0
1605960066.0268,-56.0
1605960066.0288,-14.0
1605960066.0309,-48.0
1605960066.0328,-73.0
1605960066.0349,-53.0
1605960066.0368,-51.0
1605960066.0388,-58.0
1605960066.0395,-56.0
1605960066.0408,-61.0
1605960066.0429,-68.0
1605960066.0449,-53.0
1605960066.0469,-46.0
1605960066.0489,-61.0
1605960066.0508,-75.0
1605960066.0528,-75.0
1605960066.0549,-75.0
1605960066.0568,-87.0
1605960066.0589,-97.0
1605960066.0608,-102.0
1605960066.0628,-107.0
1605960066.0649,-107.0
1605960066.0669,-112.0
1605960066.0689,-122.0
1605960066.0695,-119.0
1605960066.0708,-107.0
1605960066.0728,-97.0
1605960066.0749,-92.0
1605960066.0768,-83.0
1605960066.079,-63.0
1605960066.0808,-46.0
1605960066.516,-26.0
1605960066.5168,0.0
1605960066.5192,12.0
1605960066.5219,12.0
1605960066.5239,19.0
1605960066.5262,34.0
1605960066.5279,41.0
1605960066.5298,26.0
1605960066.5305,12.0
1605960066.5318,19.0
1605960066.5339,21.0
1605960066.5358,14.0
1605960066.5378,4.0
1605960066.5399,4.0
1605960066.5418,0.0
1605960066.5438,-17.0
1605960066.5458,-14.0
1605960066.5478,0.0
1605960066.5498,0.0
1605960066.5518,-4.0
1605960066.5538,-2.0
1605960066.5558,4.0
1605960066.5578,2.0
1605960066.5598,-2.0
1605960066.5604,0.0
1605960066.5618,4.0
1605960066.5638,4.0
1605960066.5658,9.0
1605960066.5678,14.0
1605960066.5698,14.0
1605960066.5718,14.0
1605960066.5738,14.0
1605960066.5758,14.0
1605960066.5778,12.0
1605960066.5798,12.0
1605960066.5817,9.0
1605960066.5838,2.0
1605960066.5858,2.0
1605960066.5878,2.0
1605960066.5897,0.0
1605960066.5904,9.0
1605960066.5917,9.0
1605960066.5937,4.0
1605960066.5958,9.0
1605960066.5977,2.0
1605960066.5998,-24.0
1605960066.6018,-31.0
1605960066.6037,-12.0
1605960066.6057,-4.0
1605960066.6078,-4.0
1605960066.6097,4.0
1605960066.6118,12.0
1605960066.6137,7.0
1605960066.6158,7.0
1605960066.6177,12.0
1605960066.6198,14.0
1605960066.6205,7.0
1605960066.6218,0.0
1605960066.6239,0.0
1605960066.6258,-31.0
1605960066.6278,-217.0
1605960066.6297,-473.0
1605960066.6318,-351.0
1605960066.6338,329.0
1605960066.6358,742.0
1605960066.6378,339.0
1605960066.6398,-48.0
1605960066.6418,9.0
1605960066.6438,17.0
1605960066.6458,-70.0
1605960066.6478,-43.0
1605960066.6497,-14.0
1605960066.6504,-46.0
1605960067.0857,-43.0
1605960067.0866,-29.0
1605960067.0889,-39.0
1605960067.0917,-34.0
1605960067.0936,-31.0
1605960067.0957,-43.0
1605960067.0977,-46.0
1605960067.0996,-46.0
1605960067.1017,-63.0
1605960067.1036,-78.0
1605960067.1057,-75.0
1605960067.1076,-83.0
1605960067.1096,-90.0
1605960067.1103,-83.0
1605960067.1116,-83.0
1605960067.1136,-100.0
1605960067.1157,-109.0
1605960067.1176,-117.0
1605960067.1197,-119.0
1605960067.1216,-119.0
1605960067.1236,-119.0
1605960067.1256,-107.0
1605960067.1276,-85.0
1605960067.1296,-70.0
1605960067.1316,-61.0
1605960067.1336,-53.0
1605960067.1356,-41.0
1605960067.1375,-26.0
1605960067.1395,-9.0
1605960067.1402,7.0
1605960067.1415,9.0
1605960067.1435,4.0
1605960067.1456,19.0
1605960067.1475,39.0
1605960067.1497,43.0
1605960067.1516,34.0
1605960067.1536,19.0
1605960067.1555,9.0
1605960067.1575,4.0
1605960067.1595,0.0
1605960067.1615,-4.0
1605960067.1635,-9.0
1605960067.1656,-19.0
1605960067.1676,-21.0
1605960067.1695,-12.0
1605960067.1701,-2.0
1605960067.1715,-9.0
1605960067.1735,-9.0
1605960067.1756,-2.0
1605960067.1775,-4.0
1605960067.1795,-7.0
1605960067.1815,-4.0
1605960067.1835,2.0
1605960067.1856,4.0
1605960067.1875,2.0
1605960067.1895,2.0
1605960067.1915,9.0
1605960067.1935,4.0
1605960067.1956,-2.0
1605960067.1975,2.0
1605960067.1995,4.0
1605960067.2001,2.0
1605960067.2015,0.0
1605960067.2035,0.0
1605960067.2055,2.0
1605960067.2075,4.0
1605960067.2095,4.0
1605960067.2115,7.0
1605960067.2135,14.0
1605960067.2156,12.0
1605960067.2175,7.0
1605960067.2195,-7.0
1605960067.2215,-21.0
1605960067.6254,-17.0
1605960067.6261,-12.0
1605960067.6264,-19.0
1605960067.6279,-14.0
1605960067.63,4.0
1605960067.6319,19.0
1605960067.6339,17.0
1605960067.6359,2.0
1605960067.6379,0.0
1605960067.6399,2.0
1605960067.6419,-12.0
1605960067.6439,-17.0
1605960067.6461,-21.0
1605960067.6479,-129.0
1605960067.6499,-383.0
1605960067.6519,-498.0
1605960067.6539,-48.0
1605960067.6545,615.0
1605960067.6559,571.0
1605960067.6578,53.0
1605960067.6598,-65.0
1605960067.6618,34.0
1605960067.6638,-34.0
1605960067.6659,-75.0
1605960067.6678,-41.0
1605960067.6698,-56.0
1605960067.6718,-70.0
1605960067.6738,-48.0
1605960067.6759,-43.0
1605960067.6778,-51.0
1605960067.6798,-48.0
1605960067.6818,-48.0
1605960067.6838,-56.0
1605960067.6844,-65.0
1605960067.6858,-65.0
1605960067.6878,-58.0
1605960067.6898,-63.0
1605960067.6918,-78.0
1605960067.6938,-85.0
1605960067.6958,-87.0
1605960067.6978,-90.0
1605960067.6998,-92.0
1605960067.7018,-100.0
1605960067.7038,-112.0
1605960067.7058,-119.0
1605960067.7078,-117.0
1605960067.7098,-102.0
1605960067.7119,-90.0
1605960067.7138,-92.0
1605960067.7144,-92.0
1605960067.7158,-78.0
1605960067.7178,-61.0
1605960067.7198,-48.0
1605960067.7218,-26.0
1605960067.7238,-4.0
1605960067.7258,2.0
1605960067.7278,4.0
1605960067.7298,21.0
1605960067.7318,41.0
1605960067.7338,34.0
1605960067.7358,29.0
1605960067.7378,36.0
1605960067.7399,29.0
1605960067.742,17.0
1605960067.7438,17.0
1605960067.7444,19.0
1605960067.7458,12.0
1605960067.7478,-2.0
1605960067.7498,-9.0
1605960067.7518,0.0
1605960067.7538,2.0
1605960067.7559,-7.0
1605960067.7578,-12.0
1605960068.2257,-12.0
1605960068.2265,-14.0
1605960068.2289,-12.0
1605960068.231,-2.0
1605960068.2326,-7.0
1605960068.2346,-14.0
1605960068.2366,-12.0
1605960068.2373,-14.0
1605960068.2386,-19.0
1605960068.2406,-14.0
1605960068.2426,-14.0
1605960068.2446,-17.0
1605960068.2465,-14.0
1605960068.2485,-12.0
1605960068.2506,-14.0
1605960068.2526,-14.0
1605960068.2546,-19.0
1605960068.2566,-29.0
1605960068.2586,-34.0
1605960068.2605,-19.0
1605960068.2626,-7.0
1605960068.2646,-2.0
1605960068.2665,-2.0
1605960068.2671,-9.0
1605960068.2685,-24.0
1605960068.2705,-36.0
1605960068.2725,-34.0
1605960068.2745,-34.0
1605960068.2765,-39.0
1605960068.2785,-21.0
1605960068.2805,0.0
1605960068.2825,0.0
1605960068.2846,-2.0
1605960068.2865,-4.0
1605960068.2885,2.0
1605960068.2905,4.0
1605960068.2925,-12.0
1605960068.2945,-21.0
1605960068.2965,-21.0
1605960068.2971,-80.0
1605960068.2986,-295.0
1605960068.3007,-507.0
1605960068.3026,-239.0
1605960068.3045,458.0
1605960068.3065,664.0
1605960068.3085,185.0
1605960068.3105,-70.0
1605960068.3125,21.0
1605960068.3145,-17.0
1605960068.3165,-85.0
1605960068.3185,-43.0
1605960068.3205,-39.0
1605960068.3225,-56.0
1605960068.3245,-34.0
1605960068.3265,-34.0
1605960068.3271,-46.0
1605960068.3285,-41.0
1605960068.3305,-43.0
1605960068.3325,-53.0
1605960068.3345,-48.0
1605960068.3365,-48.0
1605960068.3385,-68.0
1605960068.3405,-78.0
1605960068.3425,-65.0
1605960068.3445,-63.0
1605960068.3465,-83.0
1605960068.3485,-97.0
1605960068.3505,-104.0
1605960068.3525,-112.0
1605960068.3545,-109.0
1605960068.3565,-104.0
1605960068.3571,-107.0
1605960068.3585,-112.0
1605960068.7358,-109.0
1605960068.7364,-100.0
1605960068.7388,-80.0
1605960068.7415,-61.0
1605960068.7435,-61.0
1605960068.7454,-56.0
1605960068.7475,-36.0
1605960068.7495,-9.0
1605960068.7514,2.0
1605960068.7534,-2.0
1605960068.7555,12.0
1605960068.7574,29.0
1605960068.7581,19.0
1605960068.7594,14.0
1605960068.7614,21.0
1605960068.7634,24.0
1605960068.7655,17.0
1605960068.7674,7.0
1605960068.7694,0.0
1605960068.7716,-7.0
1605960068.7735,-14.0
1605960068.7755,-12.0
1605960068.7774,-7.0
1605960068.7794,-14.0
1605960068.7814,-17.0
1605960068.7835,-14.0
1605960068.7855,-7.0
1605960068.7874,-2.0
1605960068.788,-7.0
1605960068.7894,-12.0
1605960068.7914,-17.0
1605960068.7934,-14.0
1605960068.7954,-14.0
1605960068.7974,-19.0
1605960068.7994,-14.0
1605960068.8014,-9.0
1605960068.8034,-12.0
1605960068.8054,-9.0
1605960068.8074,-9.0
1605960068.8094,-12.0
1605960068.8114,-12.0
1605960068.8134,-14.0
1605960068.8154,-19.0
1605960068.8174,-14.0
1605960068.818,-2.0
1605960068.8194,-4.0
1605960068.8214,-17.0
1605960068.8234,-14.0
1605960068.8254,-2.0
1605960068.8274,-2.0
1605960068.8294,-12.0
1605960068.8314,-36.0
1605960068.8336,-46.0
1605960068.8355,-26.0
1605960068.8374,-24.0
1605960068.8394,-31.0
1605960068.8414,-17.0
1605960068.8434,-2.0
1605960068.8454,-2.0
1605960068.8474,-4.0
1605960068.848,-4.0
1605960068.8494,-9.0
1605960068.8514,-17.0
1605960068.8534,-19.0
1605960068.8554,-21.0
1605960068.8574,-58.0
1605960068.8594,-222.0
1605960068.8614,-488.0
1605960068.8634,-434.0
1605960068.8654,212.0
1605960068.8676,710.0
1605960068.8695,380.0
1605960068.8714,-46.0
1605960069.3061,-19.0
1605960069.3069,-12.0
1605960069.3093,-104.0
1605960069.3105,-68.0
1605960069.3121,-36.0
1605960069.314,-87.0
1605960069.3161,-97.0
1605960069.3181,-73.0
1605960069.32,-68.0
1605960069.322,-75.0
1605960069.324,-80.0
1605960069.326,-87.0
1605960069.328,-87.0
1605960069.33,-78.0
1605960069.332,-80.0
1605960069.334,-95.0
1605960069.336,-102.0
1605960069.338,-97.0
1605960069.34,-100.0
1605960069.3406,-114.0
1605960069.342,-126.0
1605960069.344,-131.0
1605960069.346,-139.0
1605960069.3479,-146.0
1605960069.3499,-146.0
1605960069.3519,-144.0
1605960069.3539,-139.0
1605960069.356,-134.0
1605960069.3579,-124.0
1605960069.3599,-109.0
1605960069.3619,-97.0
1605960069.3639,-75.0
1605960069.3659,-56.0
1605960069.3679,-48.0
1605960069.3699,-36.0
1605960069.3705,-17.0
1605960069.3719,-2.0
1605960069.3739,7.0
1605960069.376,19.0
1605960069.378,29.0
1605960069.3799,19.0
1605960069.3819,9.0
1605960069.3839,12.0
1605960069.386,14.0
1605960069.3879,12.0
1605960069.3899,7.0
1605960069.3919,-7.0
1605960069.3939,-19.0
1605960069.3961,-24.0
1605960069.398,-19.0
1605960069.3999,-17.0
1605960069.4005,-21.0
1605960069.4019,-17.0
1605960069.4039,-21.0
1605960069.406,-36.0
1605960069.4079,-34.0
1605960069.4099,-17.0
1605960069.4119,-17.0
1605960069.414,-24.0
1605960069.416,-26.0
1605960069.4179,-24.0
1605960069.4199,-24.0
1605960069.4219,-19.0
1605960069.4239,-21.0
1605960069.4259,-29.0
1605960069.4279,-36.0
1605960069.4299,-41.0
1605960069.4306,-36.0
1605960069.4319,-24.0
1605960069.4339,-29.0
1605960069.4359,-41.0
1605960069.4379,-36.0
1605960069.4399,-34.0
1605960069.906,-34.0
1605960069.9069,-26.0
1605960069.9093,-24.0
1605960069.912,-43.0
1605960069.914,-65.0
1605960069.916,-56.0
1605960069.9181,-46.0
1605960069.9187,-58.0
1605960069.92,-53.0
1605960069.922,-34.0
1605960069.924,-29.0
1605960069.926,-29.0
1605960069.9279,-26.0
1605960069.9299,-24.0
1605960069.9319,-34.0
1605960069.9339,-39.0
1605960069.936,-34.0
1605960069.9379,-41.0
1605960069.9399,-112.0
1605960069.9419,-329.0
1605960069.9439,-539.0
1605960069.9459,-256.0
1605960069.9479,495.0
1605960069.9485,725.0
1605960069.9499,202.0
1605960069.9519,-92.0
1605960069.9541,7.0
1605960069.9559,-24.0
1605960069.9579,-97.0
1605960069.9599,-65.0
1605960069.9619,-63.0
1605960069.9639,-73.0
1605960069.9659,-43.0
1605960069.9679,-43.0
1605960069.9699,-68.0
1605960069.9719,-68.0
1605960069.9738,-61.0
1605960069.9759,-63.0
1605960069.9779,-68.0
1605960069.9785,-63.0
1605960069.9798,-68.0
1605960069.9819,-83.0
1605960069.9839,-92.0
1605960069.9859,-87.0
1605960069.9879,-85.0
1605960069.9899,-92.0
1605960069.9918,-107.0
1605960069.9938,-119.0
1605960069.9958,-126.0
1605960069.9979,-134.0
1605960069.9999,-139.0
1605960070.002,-131.0
1605960070.0039,-117.0
1605960070.0059,-104.0
1605960070.0079,-90.0
1605960070.0085,-80.0
1605960070.0099,-78.0
1605960070.0118,-63.0
1605960070.0139,-43.0
1605960070.0159,-24.0
1605960070.0179,-12.0
1605960070.0199,-4.0
1605960070.0219,14.0
1605960070.0239,36.0
1605960070.0258,48.0
1605960070.0278,48.0
1605960070.0299,41.0
1605960070.0319,34.0
1605960070.0339,31.0
1605960070.0359,24.0
1605960070.0379,17.0
1605960070.0385,14.0
1605960070.0399,7.0
1605960070.446,7.0
1605960070.4469,2.0
1605960070.4494,-4.0
1605960070.452,2.0
1605960070.4543,0.0
1605960070.456,-12.0
1605960070.4581,-12.0
1605960070.46,-2.0
1605960070.4619,-4.0
1605960070.464,-9.0
1605960070.466,-7.0
1605960070.468,-14.0
1605960070.47,-19.0
1605960070.4706,-7.0
1605960070.472,-12.0
1605960070.474,-17.0
1605960070.476,-4.0
1605960070.478,-2.0
1605960070.4799,-14.0
1605960070.482,-17.0
1605960070.4839,-9.0
1605960070.486,-9.0
1605960070.4879,-14.0
1605960070.4899,-9.0
1605960070.4919,-4.0
1605960070.494,0.0
1605960070.4959,4.0
1605960070.4979,-7.0
1605960070.4999,-34.0
1605960070.5006,-36.0
1605960070.5019,-24.0
1605960070.5039,-26.0
1605960070.5059,-29.0
1605960070.5079,-17.0
1605960070.5099,-2.0
1605960070.5119,4.0
1605960070.5139,9.0
1605960070.516,-2.0
1605960070.5179,-19.0
1605960070.5199,-14.0
1605960070.5219,-7.0
1605960070.5239,-12.0
1605960070.526,-34.0
1605960070.5279,-161.0
1605960070.5299,-424.0
1605960070.5306,-500.0
1605960070.5319,26.0
1605960070.5339,690.0
1605960070.536,568.0
1605960070.5379,34.0
1605960070.5399,-61.0
1605960070.5419,12.0
1605960070.5439,-68.0
1605960070.5459,-85.0
1605960070.548,-36.0
1605960070.5501,-43.0
1605960070.552,-61.0
1605960070.5539,-53.0
1605960070.556,-56.0
1605960070.5579,-58.0
1605960070.5599,-48.0
1605960070.5606,-53.0
1605960070.5619,-68.0
1605960070.5639,-63.0
1605960070.5659,-56.0
1605960070.5679,-68.0
1605960070.5699,-80.0
1605960070.5719,-80.0
1605960070.5739,-83.0
1605960070.576,-90.0
1605960070.5779,-95.0
1605960070.5799,-104.0
1605960070.5819,-117.0
1605960071.0161,-119.0
1605960071.0169,-126.0
1605960071.0186,-129.0
1605960071.021,-114.0
1605960071.023,-107.0
1605960071.0251,-102.0
1605960071.027,-92.0
1605960071.029,-73.0
1605960071.031,-65.0
1605960071.033,-65.0
1605960071.0349,-43.0
1605960071.037,-19.0
1605960071.0389,-9.0
1605960071.041,7.0
1605960071.043,24.0
1605960071.045,34.0
1605960071.047,41.0
1605960071.049,41.0
1605960071.0496,31.0
1605960071.0509,21.0
1605960071.053,21.0
1605960071.0549,24.0
1605960071.0569,12.0
1605960071.0589,9.0
1605960071.0609,7.0
1605960071.0629,-4.0
1605960071.065,-9.0
1605960071.0669,-2.0
1605960071.0689,0.0
1605960071.0709,-9.0
1605960071.0729,-12.0
1605960071.075,-12.0
1605960071.0769,-19.0
1605960071.0791,-7.0
1605960071.0795,7.0
1605960071.0802,2.0
1605960071.0819,-9.0
1605960071.0839,-2.0
1605960071.0859,4.0
1605960071.0881,-4.0
1605960071.09,-19.0
1605960071.0919,-14.0
1605960071.0939,0.0
1605960071.0959,-4.0
1605960071.0979,-14.0
1605960071.0999,-14.0
1605960071.102,-12.0
1605960071.104,-17.0
1605960071.106,-14.0
1605960071.1065,-7.0
1605960071.108,-4.0
1605960071.1099,-9.0
1605960071.1119,-12.0
1605960071.1139,-24.0
1605960071.1159,-34.0
1605960071.1179,-31.0
1605960071.1199,-26.0
1605960071.1219,-29.0
1605960071.1239,-21.0
1605960071.1259,-4.0
1605960071.1279,4.0
1605960071.1299,-4.0
1605960071.1319,-9.0
1605960071.1339,-9.0
1605960071.1359,-12.0
1605960071.1365,-9.0
1605960071.1379,-9.0
1605960071.1399,-24.0
1605960071.1419,-136.0
1605960071.144,-395.0
1605960071.1459,-510.0
1605960071.1479,-41.0
1605960071.1499,629.0
1605960071.5556,576.0
1605960071.5565,53.0
1605960071.5589,-61.0
1605960071.5616,31.0
1605960071.5635,-34.0
1605960071.5656,-65.0
1605960071.5664,-26.0
1605960071.5676,-36.0
1605960071.5695,-51.0
1605960071.5715,-43.0
1605960071.5735,-53.0
1605960071.5758,-58.0
1605960071.5775,-51.0
1605960071.5795,-56.0
1605960071.5815,-65.0
1605960071.5835,-61.0
1605960071.5855,-53.0
1605960071.5875,-63.0
1605960071.5895,-70.0
1605960071.5915,-75.0
1605960071.5935,-90.0
1605960071.5955,-95.0
1605960071.5961,-92.0
1605960071.5974,-102.0
1605960071.5995,-117.0
1605960071.6015,-119.0
1605960071.6035,-122.0
1605960071.6055,-122.0
1605960071.6075,-117.0
1605960071.6095,-107.0
1605960071.6114,-97.0
1605960071.6135,-83.0
1605960071.6155,-75.0
1605960071.6174,-61.0
1605960071.6194,-41.0
1605960071.6214,-29.0
1605960071.6234,-9.0
1605960071.6254,7.0
1605960071.6261,14.0
1605960071.6274,24.0
1605960071.6294,31.0
1605960071.6314,39.0
1605960071.6334,48.0
1605960071.6355,43.0
1605960071.6374,31.0
1605960071.6395,31.0
1605960071.6414,36.0
1605960071.6434,29.0
1605960071.6454,14.0
1605960071.6474,9.0
1605960071.6494,7.0
1605960071.6514,-2.0
1605960071.6534,-4.0
1605960071.6554,2.0
1605960071.6561,-2.0
1605960071.6574,-9.0
1605960071.6595,-2.0
1605960071.6614,2.0
1605960071.6634,-4.0
1605960071.6654,-2.0
1605960071.6674,2.0
1605960071.6694,0.0
1605960071.6716,7.0
1605960071.6735,9.0
1605960071.6754,-2.0
1605960071.6774,-2.0
1605960071.6794,7.0
1605960071.6814,0.0
1605960071.6834,-12.0
1605960071.6855,-2.0
1605960071.6937,4.0
1605960071.6955,-7.0
1605960071.6974,-14.0
1605960072.0956,-7.0
1605960072.0965,-4.0
1605960072.0989,-7.0
1605960072.1016,-2.0
1605960072.1036,9.0
1605960072.1056,4.0
1605960072.1076,-14.0
1605960072.1095,-39.0
1605960072.1115,-48.0
1605960072.1135,-41.0
1605960072.1142,-39.0
1605960072.1155,-36.0
1605960072.1175,-21.0
1605960072.1195,-9.0
1605960072.1215,-9.0
1605960072.1235,-7.0
1605960072.1256,0.0
1605960072.1275,-4.0
1605960072.1295,-14.0
1605960072.1315,-26.0
1605960072.1335,-26.0
1605960072.1355,-31.0
1605960072.1375,-173.0
1605960072.1395,-451.0
1605960072.1415,-468.0
1605960072.1435,119.0
1605960072.1441,690.0
1605960072.1455,449.0
1605960072.1475,-19.0
1605960072.1496,-39.0
1605960072.1515,7.0
1605960072.1535,-80.0
1605960072.1555,-73.0
1605960072.1575,-31.0
1605960072.1595,-58.0
1605960072.1615,-70.0
1605960072.1635,-43.0
1605960072.1655,-43.0
1605960072.1676,-56.0
1605960072.1696,-51.0
1605960072.1719,-51.0
1605960072.1735,-58.0
1605960072.1742,-65.0
1605960072.1756,-68.0
1605960072.1776,-70.0
1605960072.1796,-83.0
1605960072.1817,-87.0
1605960072.1836,-90.0
1605960072.1856,-100.0
1605960072.1875,-104.0
1605960072.1895,-102.0
1605960072.1915,-112.0
1605960072.1935,-122.0
1605960072.1955,-126.0
1605960072.1974,-126.0
1605960072.1995,-122.0
1605960072.2015,-107.0
1605960072.2035,-92.0
1605960072.2041,-87.0
1605960072.2055,-83.0
1605960072.2075,-75.0
1605960072.2095,-51.0
1605960072.2115,-24.0
1605960072.2135,-12.0
1605960072.2155,0.0
1605960072.2175,14.0
1605960072.2195,19.0
1605960072.2215,19.0
1605960072.2234,26.0
1605960072.2255,36.0
1605960072.2275,39.0
1605960072.2295,26.0
1605960072.2315,12.0
1605960072.6656,7.0
1605960072.6663,4.0
1605960072.6686,0.0
1605960072.6713,-12.0
1605960072.6733,-19.0
1605960072.6754,-29.0
1605960072.6773,-31.0
1605960072.6795,-26.0
1605960072.6813,-29.0
1605960072.6833,-36.0
1605960072.6854,-31.0
1605960072.6873,-26.0
1605960072.6893,-29.0
1605960072.69,-36.0
1605960072.6913,-34.0
1605960072.6933,-19.0
1605960072.6954,-17.0
1605960072.6973,-29.0
1605960072.6995,-29.0
1605960072.7013,-24.0
1605960072.7033,-29.0
1605960072.7053,-36.0
1605960072.7073,-41.0
1605960072.7093,-43.0
1605960072.7113,-36.0
1605960072.7133,-26.0
1605960072.7153,-34.0
1605960072.7172,-48.0
1605960072.7192,-39.0
1605960072.7199,-26.0
1605960072.7212,-34.0
1605960072.7232,-39.0
1605960072.7253,-36.0
1605960072.7273,-36.0
1605960072.7294,-36.0
1605960072.7313,-36.0
1605960072.7332,-51.0
1605960072.7353,-73.0
1605960072.7372,-65.0
1605960072.7392,-48.0
1605960072.7412,-48.0
1605960072.7432,-46.0
1605960072.7453,-39.0
1605960072.7472,-34.0
1605960072.7493,-29.0
1605960072.7498,-24.0
1605960072.7512,-29.0
1605960072.7532,-36.0
1605960072.7553,-41.0
1605960072.7573,-34.0
1605960072.7593,-29.0
1605960072.7613,-107.0
1605960072.7633,-346.0
1605960072.7653,-549.0
1605960072.7673,-229.0
1605960072.7692,510.0
1605960072.7712,683.0
1605960072.7733,153.0
1605960072.7753,-104.0
1605960072.7772,-2.0
1605960072.7792,-41.0
1605960072.7798,-104.0
1605960072.7812,-58.0
1605960072.7832,-48.0
1605960072.7853,-78.0
1605960072.7872,-68.0
1605960072.7892,-65.0
1605960072.7912,-87.0
1605960072.7932,-85.0
1605960072.7954,-75.0
1605960072.7973,-87.0
1605960072.7992,-92.0
1605960072.8012,-83.0
1605960073.2662,-83.0
1605960073.2674,-97.0
1605960073.2702,-109.0
1605960073.2717,-109.0
1605960073.2735,-114.0
1605960073.2754,-126.0
1605960073.2774,-144.0
1605960073.2794,-153.0
1605960073.2814,-161.0
1605960073.2834,-163.0
1605960073.2854,-161.0
1605960073.2874,-161.0
1605960073.2894,-156.0
1605960073.2915,-146.0
1605960073.2934,-141.0
1605960073.2954,-136.0
1605960073.2974,-117.0
1605960073.2981,-95.0
1605960073.2995,-75.0
1605960073.3014,-56.0
1605960073.3035,-39.0
1605960073.3055,-21.0
1605960073.3074,0.0
1605960073.3094,17.0
1605960073.3116,17.0
1605960073.3135,12.0
1605960073.3156,21.0
1605960073.3174,21.0
1605960073.3197,12.0
1605960073.3214,9.0
1605960073.3234,12.0
1605960073.3254,9.0
1605960073.3275,-2.0
1605960073.328,-14.0
1605960073.3294,-24.0
1605960073.3314,-21.0
1605960073.3334,-17.0
1605960073.3353,-19.0
1605960073.3374,-29.0
1605960073.3394,-31.0
1605960073.3414,-26.0
1605960073.3433,-12.0
1605960073.3453,-12.0
1605960073.3473,-21.0
1605960073.3493,-26.0
1605960073.3514,-19.0
1605960073.3533,-9.0
1605960073.3556,-12.0
1605960073.3574,-24.0
1605960073.3579,-26.0
1605960073.3593,-26.0
1605960073.3613,-24.0
1605960073.3633,-14.0
1605960073.3653,-9.0
1605960073.3673,-7.0
1605960073.3693,-12.0
1605960073.3713,-21.0
1605960073.3733,-17.0
1605960073.3753,-17.0
1605960073.3773,-21.0
1605960073.3793,-21.0
1605960073.3813,-14.0
1605960073.3833,-4.0
1605960073.3853,-7.0
1605960073.3873,-9.0
1605960073.3879,-7.0
1605960073.3893,-21.0
1605960073.3914,-41.0
1605960073.3933,-39.0
1605960073.3953,-29.0
1605960073.3973,-29.0
1605960073.3993,-29.0
1605960073.4013,-9.0
1605960073.8059,4.0
1605960073.8068,-7.0
1605960073.8092,-9.0
1605960073.8119,-2.0
1605960073.8138,-4.0
1605960073.8159,-4.0
1605960073.8165,-12.0
1605960073.8179,-26.0
1605960073.8198,-73.0
1605960073.8218,-270.0
1605960073.8238,-532.0
1605960073.8258,-361.0
1605960073.8278,373.0
1605960073.8298,742.0
1605960073.8318,266.0
1605960073.8338,-107.0
1605960073.8358,-14.0
1605960073.8378,-12.0
1605960073.8398,-97.0
1605960073.8418,-70.0
1605960073.8438,-48.0
1605960073.8458,-73.0
1605960073.8464,-65.0
1605960073.8478,-51.0
1605960073.8499,-63.0
1605960073.8519,-68.0
1605960073.8538,-63.0
1605960073.8558,-65.0
1605960073.8577,-68.0
1605960073.8597,-68.0
1605960073.8617,-73.0
1605960073.8637,-75.0
1605960073.8658,-80.0
1605960073.8677,-85.0
1605960073.8697,-90.0
1605960073.8717,-97.0
1605960073.8737,-102.0
1605960073.8758,-112.0
1605960073.8764,-119.0
1605960073.8777,-126.0
1605960073.8797,-136.0
1605960073.8817,-134.0
1605960073.8837,-122.0
1605960073.8858,-114.0
1605960073.8877,-114.0
1605960073.8897,-102.0
1605960073.8917,-73.0
1605960073.8937,-56.0
1605960073.8958,-53.0
1605960073.8977,-34.0
1605960073.8997,-9.0
1605960073.9017,2.0
1605960073.9037,19.0
1605960073.9058,26.0
1605960073.9063,29.0
1605960073.9077,36.0
1605960073.9097,39.0
1605960073.9117,34.0
1605960073.9137,31.0
1605960073.9157,31.0
1605960073.9177,14.0
1605960073.9198,4.0
1605960073.9218,9.0
1605960073.9237,2.0
1605960073.9258,-9.0
1605960073.9277,-12.0
1605960073.9297,-4.0
1605960073.9317,0.0
1605960073.9337,-4.0
1605960073.9358,-19.0
1605960073.9363,-19.0
1605960073.9377,-12.0
1605960073.9397,-9.0
1605960074.376,-19.0
1605960074.3769,-26.0
1605960074.3794,-14.0
1605960074.3822,-7.0
1605960074.384,-9.0
1605960074.3859,-4.0
1605960074.3879,-7.0
1605960074.3899,-26.0
1605960074.3919,-36.0
1605960074.3939,-24.0
1605960074.396,-17.0
1605960074.3979,-24.0
1605960074.3985,-24.0
1605960074.3999,-21.0
1605960074.4019,-21.0
1605960074.4039,-12.0
1605960074.4059,-12.0
1605960074.4078,-21.0
1605960074.4098,-19.0
1605960074.4118,-12.0
1605960074.4138,-9.0
1605960074.4159,-12.0
1605960074.4178,-17.0
1605960074.4198,-14.0
1605960074.4218,-9.0
1605960074.4238,-9.0
1605960074.4259,-9.0
1605960074.4278,-4.0
1605960074.4284,-2.0
1605960074.4298,-21.0
1605960074.4318,-48.0
1605960074.4338,-41.0
1605960074.4358,-19.0
1605960074.4378,-14.0
1605960074.4398,-17.0
1605960074.4418,-12.0
1605960074.4438,-2.0
1605960074.4459,0.0
1605960074.4478,2.0
1605960074.4498,0.0
1605960074.4518,-7.0
1605960074.4538,-9.0
1605960074.4559,-12.0
1605960074.4578,-14.0
1605960074.4584,-68.0
1605960074.4598,-273.0
1605960074.4618,-507.0
1605960074.4638,-300.0
1605960074.4659,410.0
1605960074.4678,717.0
1605960074.4698,246.0
1605960074.4718,-83.0
1605960074.4738,17.0
1605960074.4758,9.0
1605960074.478,-75.0
1605960074.4799,-51.0
1605960074.4818,-31.0
1605960074.4838,-48.0
1605960074.4859,-43.0
1605960074.4878,-36.0
1605960074.4884,-48.0
1605960074.4898,-53.0
1605960074.4918,-36.0
1605960074.4938,-34.0
1605960074.4959,-48.0
1605960074.4978,-56.0
1605960074.4998,-65.0
1605960074.5018,-78.0
1605960074.5038,-73.0
1605960074.5059,-68.0
1605960074.5078,-80.0
1605960074.5098,-102.0
1605960074.5118,-102.0
1605960074.946,-95.0
1605960074.9468,-109.0
1605960074.9492,-124.0
1605960074.9519,-124.0
1605960074.9539,-119.0
1605960074.9559,-119.0
1605960074.958,-112.0
1605960074.9599,-100.0
1605960074.9619,-92.0
1605960074.9639,-87.0
1605960074.966,-73.0
1605960074.9679,-53.0
1605960074.9699,-41.0
1605960074.9719,-21.0
1605960074.9739,-2.0
1605960074.9759,9.0
1605960074.9778,14.0
1605960074.9785,21.0
1605960074.9798,26.0
1605960074.9818,31.0
1605960074.9838,29.0
1605960074.9859,21.0
1605960074.9878,14.0
1605960074.9898,7.0
1605960074.9918,4.0
1605960074.9938,4.0
1605960074.9959,-9.0
1605960074.9978,-19.0
1605960074.9998,-7.0
1605960075.0019,-7.0
1605960075.0038,-19.0
1605960075.0058,-14.0
1605960075.008,-12.0
1605960075.0084,-24.0
1605960075.0098,-26.0
1605960075.0118,-7.0
1605960075.0138,-4.0
1605960075.0158,-14.0
1605960075.0178,-9.0
1605960075.0198,0.0
1605960075.0218,0.0
1605960075.0238,0.0
1605960075.0258,2.0
1605960075.0278,4.0
1605960075.0298,2.0
1605960075.0318,0.0
1605960075.0338,4.0
1605960075.0358,7.0
1605960075.0378,-2.0
1605960075.0384,-4.0
1605960075.0398,2.0
1605960075.0418,4.0
1605960075.0438,7.0
1605960075.0458,7.0
1605960075.0478,4.0
1605960075.0498,0.0
1605960075.0518,0.0
1605960075.0538,9.0
1605960075.0558,4.0
1605960075.0578,-12.0
1605960075.0598,-19.0
1605960075.0618,-7.0
1605960075.0638,-2.0
1605960075.0658,-4.0
1605960075.0678,-2.0
1605960075.0684,-2.0
1605960075.0698,-17.0
1605960075.0718,-34.0
1605960075.0738,-39.0
1605960075.0758,-26.0
1605960075.0778,-14.0
1605960075.0798,-19.0
1605960075.0818,-17.0
1605960075.486,-2.0
1605960075.4869,4.0
1605960075.4893,7.0
1605960075.492,12.0
1605960075.494,12.0
1605960075.496,2.0
1605960075.498,-7.0
1605960075.5,-2.0
1605960075.5007,-12.0
1605960075.502,-141.0
1605960075.5042,-415.0
1605960075.506,-500.0
1605960075.5079,9.0
1605960075.5099,651.0
1605960075.5119,527.0
1605960075.5139,19.0
