Time,ECGTime,ECG
1605960032.8565,3073
1605960032.8574,6501
1605960032.8599,8474
1605960032.8626,9443
1605960032.8647,10705
1605960032.8666,11679
1605960032.8686,12199
1605960032.8705,12766
1605960032.8726,13254
1605960032.8745,13520
1605960032.8766,13757
1605960032.8785,14011
1605960032.8805,14167
1605960032.8825,14265
1605960032.8845,14367
1605960032.8865,14445
1605960032.8885,14458
1605960032.8905,14443
1605960032.8925,14445
1605960032.8945,14438
1605960032.8965,14389
1605960032.8985,14338
1605960032.9005,14311
1605960032.9025,14260
1605960032.9045,14038
1605960032.9065,13659
1605960032.9084,13503
1605960032.9104,13942
1605960032.9125,14497
1605960032.9145,14277
1605960032.9164,13666
1605960032.9184,13493
1605960032.9205,13479
1605960032.9224,13298
1605960032.9244,13178
1605960032.9265,13132
1605960032.9284,13015
1605960032.9304,12893
1605960032.9324,12822
1605960032.9344,12734
1605960032.9365,12617
1605960032.9384,12507
1605960032.9405,12392
1605960032.9424,12268
1605960032.9444,12172
1605960032.9465,12087
1605960032.9484,11982
1605960032.9504,11877
1605960032.9524,11774
1605960032.9544,11672
1605960032.9606,11582
1605960032.9612,11472
1605960032.9625,11357
1605960032.9645,11259
1605960032.9665,11140
1605960032.9685,11025
1605960032.9705,10947
1605960032.9726,10859
1605960032.9745,10751
1605960032.9766,10659
1605960032.9785,10581
1605960032.9806,10505
1605960032.9826,10439
1605960032.9845,10383
1605960032.9865,10312
1605960032.9886,10249
1605960032.9906,10192
1605960032.9926,10122
1605960032.9945,10041
1605960032.9966,9973
1605960032.9986,9897
1605960033.0006,9812
1605960033.0026,9736
1605960033.4261,9670
1605960033.4271,9594
1605960033.4295,9499
1605960033.4322,9414
1605960033.4343,9345
1605960033.4362,9255
1605960033.4383,9145
1605960033.4402,9069
1605960033.4421,9020
1605960033.4442,8937
1605960033.4462,8828
1605960033.4482,8767
1605960033.4503,8718
1605960033.4522,8632
1605960033.4542,8562
1605960033.4562,8500
1605960033.4581,8420
1605960033.4601,8342
1605960033.4621,8283
1605960033.4641,8215
1605960033.4662,8142
1605960033.4682,8076
1605960033.4701,8022
1605960033.4721,7961
1605960033.4741,7897
1605960033.4761,7836
1605960033.4781,7773
1605960033.4801,7702
1605960033.4824,7622
1605960033.4841,7551
1605960033.4862,7495
1605960033.4881,7443
1605960033.4901,7395
1605960033.4921,7336
1605960033.4941,7272
1605960033.4961,7209
1605960033.4981,7138
1605960033.5001,7067
1605960033.5020,6997
1605960033.5040,6933
1605960033.5061,6887
1605960033.5080,6838
1605960033.5101,6784
1605960033.5120,6740
1605960033.5140,6696
1605960033.5162,6645
1605960033.5180,6606
1605960033.5201,6557
1605960033.5221,6484
1605960033.5240,6423
1605960033.5261,6374
1605960033.5281,6308
1605960033.5300,6125
1605960033.5322,5805
1605960033.5341,5676
1605960033.5362,6145
1605960033.5380,6735
1605960033.5400,6562
1605960033.5420,6008
1605960033.5440,5883
1605960033.5461,5915
1605960033.5481,5786
1605960033.5501,5715
1605960033.5520,5717
1605960033.5540,5659
1605960033.5560,5590
1605960033.5581,5556
1605960033.5600,5520
1605960033.5620,5473
1605960033.5641,5429
1605960033.5661,5385
1605960033.5682,5344
1605960033.5701,5297
1605960033.9662,5244
1605960033.9669,5183
1605960033.9693,5134
1605960033.9720,5107
1605960033.9740,5065
1605960033.9760,4997
1605960033.9783,4946
1605960033.9801,4909
1605960033.9820,4858
1605960033.9840,4790
1605960033.9860,4733
1605960033.9880,4699
1605960033.9900,4667
1605960033.9920,4636
1605960033.9940,4614
1605960033.9960,4575
1605960033.9980,4531
1605960033.9999,4523
1605960034.0020,4521
1605960034.0039,4504
1605960034.0060,4506
1605960034.0079,4506
1605960034.0100,4477
1605960034.0120,4438
1605960034.0140,4396
1605960034.0160,4353
1605960034.0179,4326
1605960034.0199,4309
1605960034.0219,4279
1605960034.0239,4248
1605960034.0261,4218
1605960034.0280,4182
1605960034.0299,4145
1605960034.0319,4108
1605960034.0339,4062
1605960034.0360,4013
1605960034.0379,3989
1605960034.0400,3967
1605960034.0419,3925
1605960034.0440,3896
1605960034.0460,3876
1605960034.0480,3837
1605960034.0499,3806
1605960034.0519,3786
1605960034.0539,3752
1605960034.0560,3723
1605960034.0580,3708
1605960034.0600,3684
1605960034.0620,3649
1605960034.0639,3623
1605960034.0660,3603
1605960034.0679,3571
1605960034.0700,3540
1605960034.0720,3520
1605960034.0739,3496
1605960034.0760,3454
1605960034.0780,3417
1605960034.0801,3408
1605960034.0820,3395
1605960034.0839,3369
1605960034.0860,3349
1605960034.0879,3320
1605960034.0899,3273
1605960034.0920,3251
1605960034.0940,3251
1605960034.0960,3227
1605960034.0980,3176
1605960034.0999,3134
1605960034.1019,3122
1605960034.1039,3110
1605960034.1060,3083
1605960034.1079,3061
1605960034.1100,3044
1605960034.5366,3022
1605960034.5374,2995
1605960034.5399,2973
1605960034.5424,2956
1605960034.5445,2929
1605960034.5465,2915
1605960034.5485,2912
1605960034.5504,2875
1605960034.5524,2832
1605960034.5545,2761
1605960034.5565,2541
1605960034.5584,2287
1605960034.5604,2478
1605960034.5624,3154
1605960034.5644,3413
1605960034.5664,2929
1605960034.5684,2617
1605960034.5704,2707
1605960034.5725,2675
1605960034.5744,2568
1605960034.5764,2580
1605960034.5784,2585
1605960034.5804,2536
1605960034.5824,2512
1605960034.5844,2519
1605960034.5864,2500
1605960034.5885,2463
1605960034.5904,2438
1605960034.5925,2426
1605960034.5945,2419
1605960034.5964,2395
1605960034.5984,2363
1605960034.6004,2346
1605960034.6024,2333
1605960034.6045,2316
1605960034.6066,2292
1605960034.6084,2255
1605960034.6104,2226
1605960034.6124,2207
1605960034.6144,2182
1605960034.6164,2153
1605960034.6184,2131
1605960034.6205,2114
1605960034.6224,2097
1605960034.6243,2097
1605960034.6264,2109
1605960034.6284,2097
1605960034.6304,2082
1605960034.6324,2089
1605960034.6345,2097
1605960034.6365,2102
1605960034.6384,2104
1605960034.6404,2106
1605960034.6424,2121
1605960034.6444,2111
1605960034.6464,2087
1605960034.6484,2082
1605960034.6504,2087
1605960034.6524,2067
1605960034.6545,2033
1605960034.6564,2019
1605960034.6584,2006
1605960034.6604,1992
1605960034.6624,1977
1605960034.6644,1940
1605960034.6665,1909
1605960034.6684,1916
1605960034.6705,1909
1605960034.6724,1879
1605960034.6744,1865
1605960034.6764,1865
1605960034.6784,1853
1605960034.6804,1831
1605960035.0760,1821
1605960035.0769,1816
1605960035.0794,1804
1605960035.0821,1806
1605960035.0841,1801
1605960035.0862,1777
1605960035.0881,1757
1605960035.0899,1750
1605960035.0919,1743
1605960035.0939,1728
1605960035.0960,1711
1605960035.0980,1694
1605960035.1000,1684
1605960035.1021,1687
1605960035.1040,1687
1605960035.1060,1677
1605960035.1079,1672
1605960035.1099,1660
1605960035.1119,1640
1605960035.1139,1628
1605960035.1160,1611
1605960035.1179,1599
1605960035.1199,1596
1605960035.1219,1594
1605960035.1239,1591
1605960035.1260,1584
1605960035.1279,1567
1605960035.1299,1542
1605960035.1320,1518
1605960035.1339,1513
1605960035.1360,1523
1605960035.1379,1516
1605960035.1399,1503
1605960035.1419,1496
1605960035.1439,1494
1605960035.1459,1494
1605960035.1480,1481
1605960035.1500,1469
1605960035.1519,1467
1605960035.1539,1457
1605960035.1559,1447
1605960035.1579,1437
1605960035.1599,1416
1605960035.1619,1325
1605960035.1639,1088
1605960035.1660,908
1605960035.1679,1252
1605960035.1699,1923
1605960035.1719,1977
1605960035.1739,1462
1605960035.1759,1289
1605960035.1779,1386
1605960035.1799,1325
1605960035.1820,1269
1605960035.1839,1303
1605960035.1860,1298
1605960035.1879,1274
1605960035.1899,1286
1605960035.1919,1279
1605960035.1939,1240
1605960035.1959,1230
1605960035.1980,1237
1605960035.1999,1223
1605960035.2019,1210
1605960035.2041,1203
1605960035.2059,1184
1605960035.2079,1174
1605960035.2099,1171
1605960035.2119,1162
1605960035.2140,1149
1605960035.2160,1145
1605960035.2179,1132
1605960035.2199,1098
1605960035.6162,1074
1605960035.6168,1071
1605960035.6182,1062
1605960035.6202,1044
1605960035.6222,1049
1605960035.6242,1052
1605960035.6262,1032
1605960035.6283,1035
1605960035.6302,1062
1605960035.6322,1064
1605960035.6342,1071
1605960035.6362,1096
1605960035.6382,1105
1605960035.6402,1115
1605960035.6422,1125
1605960035.6443,1127
1605960035.6462,1130
1605960035.6481,1130
1605960035.6501,1125
1605960035.6522,1115
1605960035.6541,1096
1605960035.6562,1081
1605960035.6582,1071
1605960035.6602,1079
1605960035.6622,1091
1605960035.6642,1074
1605960035.6662,1040
1605960035.6682,1025
1605960035.6701,1030
1605960035.6722,1022
1605960035.6742,1008
1605960035.6763,1018
1605960035.6782,1022
1605960035.6801,1000
1605960035.6821,991
1605960035.6841,1000
1605960035.6862,1003
1605960035.6882,996
1605960035.6901,979
1605960035.6922,986
1605960035.6943,1003
1605960035.6962,991
1605960035.6983,976
1605960035.7002,969
1605960035.7022,966
1605960035.7041,964
1605960035.7062,959
1605960035.7082,947
1605960035.7102,937
1605960035.7122,939
1605960035.7142,942
1605960035.7162,927
1605960035.7181,913
1605960035.7201,913
1605960035.7221,910
1605960035.7242,913
1605960035.7262,910
1605960035.7282,900
1605960035.7301,893
1605960035.7322,893
1605960035.7342,895
1605960035.7362,886
1605960035.7381,866
1605960035.7401,856
1605960035.7422,852
1605960035.7443,847
1605960035.7462,852
1605960035.7481,859
1605960035.7501,854
1605960035.7522,849
1605960035.7541,861
1605960035.7562,869
1605960035.7582,859
1605960036.2164,847
1605960036.2173,839
1605960036.2198,832
1605960036.2226,822
1605960036.2244,793
1605960036.2265,654
1605960036.2284,371
1605960036.2303,290
1605960036.2324,847
1605960036.2343,1489
1605960036.2363,1306
1605960036.2384,793
1605960036.2403,759
1605960036.2423,839
1605960036.2444,729
1605960036.2463,708
1605960036.2483,773
1605960036.2503,751
1605960036.2523,717
1605960036.2544,732
1605960036.2565,720
1605960036.2583,693
1605960036.2604,703
1605960036.2623,712
1605960036.2643,693
1605960036.2663,686
1605960036.2683,698
1605960036.2704,686
1605960036.2723,661
1605960036.2743,654
1605960036.2763,642
1605960036.2783,634
1605960036.2803,639
1605960036.2823,634
1605960036.2843,615
1605960036.2864,593
1605960036.2883,581
1605960036.2903,581
1605960036.2923,571
1605960036.2943,556
1605960036.2963,563
1605960036.2983,598
1605960036.3003,612
1605960036.3024,603
1605960036.3044,610
1605960036.3063,644
1605960036.3083,673
1605960036.3103,688
1605960036.3123,705
1605960036.3143,715
1605960036.3163,722
1605960036.3183,734
1605960036.3204,751
1605960036.3223,744
1605960036.3243,725
1605960036.3263,727
1605960036.3283,734
1605960036.3303,720
1605960036.3323,705
1605960036.3343,700
1605960036.3364,690
1605960036.3383,686
1605960036.3403,686
1605960036.3423,681
1605960036.3443,673
1605960036.3463,664
1605960036.3483,656
1605960036.3503,654
1605960036.3523,654
1605960036.3544,644
1605960036.3563,644
1605960036.3584,654
1605960036.3603,656
1605960036.7867,661
1605960036.7876,661
1605960036.7896,651
1605960036.7914,646
1605960036.7934,654
1605960036.7954,654
1605960036.7973,646
1605960036.7994,649
1605960036.8013,642
1605960036.8033,627
1605960036.8053,632
1605960036.8072,627
1605960036.8092,612
1605960036.8113,627
1605960036.8132,637
1605960036.8153,620
1605960036.8173,607
1605960036.8192,607
1605960036.8212,617
1605960036.8233,617
1605960036.8252,612
1605960036.8272,620
1605960036.8292,610
1605960036.8313,583
1605960036.8333,578
1605960036.8352,603
1605960036.8372,600
1605960036.8392,571
1605960036.8412,568
1605960036.8432,588
1605960036.8452,595
1605960036.8473,595
1605960036.8493,590
1605960036.8512,578
1605960036.8532,573
1605960036.8552,573
1605960036.8572,571
1605960036.8592,539
1605960036.8612,417
1605960036.8632,175
1605960036.8653,61
1605960036.8672,500
1605960036.8692,1179
1605960036.8713,1142
1605960036.8732,598
1605960036.8752,483
1605960036.8772,605
1605960036.8792,522
1605960036.8813,463
1605960036.8834,520
1605960036.8853,512
1605960036.8872,473
1605960036.8892,485
1605960036.8912,498
1605960036.8932,485
1605960036.8953,483
1605960036.8973,495
1605960036.8992,505
1605960036.9012,502
1605960036.9032,488
1605960036.9052,476
1605960036.9072,463
1605960036.9092,449
1605960036.9112,454
1605960036.9133,449
1605960036.9154,437
1605960036.9172,432
1605960036.9192,424
1605960036.9212,410
1605960036.9232,383
1605960036.9252,366
1605960036.9272,378
1605960036.9293,388
1605960037.3262,393
1605960037.3271,402
1605960037.3296,419
1605960037.3322,432
1605960037.3341,446
1605960037.3362,471
1605960037.3381,493
1605960037.3402,500
1605960037.3422,490
1605960037.3442,485
1605960037.3462,498
1605960037.3481,517
1605960037.3501,529
1605960037.3521,524
1605960037.3541,520
1605960037.3561,517
1605960037.3580,507
1605960037.3589,502
1605960037.3613,510
1605960037.3632,512
1605960037.3651,502
1605960037.3671,490
1605960037.3691,476
1605960037.3711,468
1605960037.3731,466
1605960037.3752,466
1605960037.3772,466
1605960037.3793,468
1605960037.3811,473
1605960037.3831,478
1605960037.3851,468
1605960037.3871,458
1605960037.3891,461
1605960037.3898,476
1605960037.3922,480
1605960037.3941,478
1605960037.3962,476
1605960037.3981,478
1605960037.4001,483
1605960037.4021,485
1605960037.4041,478
1605960037.4061,480
1605960037.4082,485
1605960037.4101,466
1605960037.4121,458
1605960037.4141,466
1605960037.4161,458
1605960037.4181,451
1605960037.4201,463
1605960037.4208,466
1605960037.4232,471
1605960037.4252,478
1605960037.4271,476
1605960037.4291,468
1605960037.4311,480
1605960037.4331,471
1605960037.4351,437
1605960037.4371,429
1605960037.4391,441
1605960037.4411,437
1605960037.4432,434
1605960037.4451,449
1605960037.4471,458
1605960037.4491,458
1605960037.4511,468
1605960037.4518,483
1605960037.4541,480
1605960037.4561,446
1605960037.4582,429
1605960037.4602,446
1605960037.4621,454
1605960037.4641,393
1605960037.4661,190
1605960037.8964,-41
1605960037.8972,131
1605960037.8996,795
1605960037.9022,1108
1605960037.9042,678
1605960037.9052,363
1605960037.9072,456
1605960037.9092,439
1605960037.9112,349
1605960037.9132,375
1605960037.9152,388
1605960037.9172,361
1605960037.9192,373
1605960037.9212,375
1605960037.9232,368
1605960037.9252,385
1605960037.9272,383
1605960037.9292,358
1605960037.9312,368
1605960037.9332,378
1605960037.9352,356
1605960037.9359,341
1605960037.9382,341
1605960037.9402,334
1605960037.9422,322
1605960037.9443,317
1605960037.9463,300
1605960037.9482,278
1605960037.9502,273
1605960037.9522,268
1605960037.9542,261
1605960037.9562,270
1605960037.9583,285
1605960037.9602,295
1605960037.9622,305
1605960037.9642,314
1605960037.9661,317
1605960037.9669,314
1605960037.9692,324
1605960037.9712,341
1605960037.9732,354
1605960037.9752,375
1605960037.9772,390
1605960037.9792,400
1605960037.9812,419
1605960037.9832,422
1605960037.9852,415
1605960037.9872,417
1605960037.9892,407
1605960037.9912,397
1605960037.9932,405
1605960037.9952,402
1605960037.9972,380
1605960037.9979,366
1605960038.0002,366
1605960038.0023,371
1605960038.0045,366
1605960038.0063,363
1605960038.0082,368
1605960038.0101,375
1605960038.0122,378
1605960038.0142,371
1605960038.0163,356
1605960038.0182,354
1605960038.0202,354
1605960038.0222,354
1605960038.0242,354
1605960038.0263,358
1605960038.0269,361
1605960038.0283,354
1605960038.0303,356
1605960038.0322,368
1605960038.0342,380
1605960038.4665,380
1605960038.4674,363
1605960038.4698,356
1605960038.4725,361
1605960038.4745,354
1605960038.4765,341
1605960038.4784,344
1605960038.4804,344
1605960038.4825,332
1605960038.4844,327
1605960038.4851,334
1605960038.4874,336
1605960038.4894,332
1605960038.4914,324
1605960038.4934,314
1605960038.4954,322
1605960038.4974,334
1605960038.4993,319
1605960038.5014,295
1605960038.5034,297
1605960038.5054,312
1605960038.5074,314
1605960038.5094,310
1605960038.5114,307
1605960038.5134,317
1605960038.5155,336
1605960038.5161,329
1605960038.5184,314
1605960038.5204,329
1605960038.5224,334
1605960038.5244,322
1605960038.5264,319
1605960038.5284,305
1605960038.5304,187
1605960038.5325,-73
1605960038.5344,-158
1605960038.5363,344
1605960038.5384,939
1605960038.5404,786
1605960038.5424,322
1605960038.5444,290
1605960038.5464,373
1605960038.5474,285
1605960038.5493,246
1605960038.5514,283
1605960038.5535,266
1605960038.5555,253
1605960038.5574,285
1605960038.5594,290
1605960038.5613,278
1605960038.5634,280
1605960038.5654,278
1605960038.5674,268
1605960038.5694,261
1605960038.5713,251
1605960038.5734,241
1605960038.5755,241
1605960038.5774,241
1605960038.5781,234
1605960038.5805,231
1605960038.5824,229
1605960038.5844,212
1605960038.5864,200
1605960038.5884,187
1605960038.5904,170
1605960038.5925,166
1605960038.5944,166
1605960038.5964,170
1605960038.5983,180
1605960038.6003,187
1605960038.6023,195
1605960038.6043,205
1605960038.6063,227
1605960039.0058,244
1605960039.0066,244
1605960039.0090,256
1605960039.0116,292
1605960039.0136,310
1605960039.0157,305
1605960039.0177,305
1605960039.0196,310
1605960039.0216,305
1605960039.0236,295
1605960039.0257,292
1605960039.0276,290
1605960039.0299,283
1605960039.0317,285
1605960039.0336,290
1605960039.0357,288
1605960039.0376,285
1605960039.0396,283
1605960039.0416,268
1605960039.0436,256
1605960039.0457,270
1605960039.0476,278
1605960039.0497,261
1605960039.0516,258
1605960039.0536,268
1605960039.0557,273
1605960039.0576,280
1605960039.0596,278
1605960039.0616,261
1605960039.0636,263
1605960039.0656,295
1605960039.0676,314
1605960039.0696,295
1605960039.0716,258
1605960039.0736,261
1605960039.0756,290
1605960039.0776,288
1605960039.0796,263
1605960039.0817,261
1605960039.0836,273
1605960039.0856,270
1605960039.0876,263
1605960039.0896,278
1605960039.0917,292
1605960039.0936,285
1605960039.0956,278
1605960039.0976,292
1605960039.0996,302
1605960039.1016,290
1605960039.1036,263
1605960039.1056,236
1605960039.1076,239
1605960039.1096,256
1605960039.1116,256
1605960039.1136,261
1605960039.1156,285
1605960039.1176,288
1605960039.1196,253
1605960039.1216,251
1605960039.1236,280
1605960039.1256,290
1605960039.1276,290
1605960039.1296,290
1605960039.1319,256
1605960039.1336,156
1605960039.1356,-78
1605960039.1376,-239
1605960039.1396,163
1605960039.1416,886
1605960039.1436,922
1605960039.1457,368
1605960039.1476,187
1605960039.1496,280
1605960039.6062,212
1605960039.6069,187
1605960039.6084,253
1605960039.6103,239
1605960039.6123,205
1605960039.6143,219
1605960039.6163,224
1605960039.6183,212
1605960039.6203,205
1605960039.6223,205
1605960039.6243,200
1605960039.6263,183
1605960039.6283,175
1605960039.6303,185
1605960039.6323,185
1605960039.6343,168
1605960039.6363,163
1605960039.6383,178
1605960039.6403,168
1605960039.6423,134
1605960039.6443,146
1605960039.6463,156
1605960039.6483,126
1605960039.6503,109
1605960039.6523,97
1605960039.6543,104
1605960039.6563,139
1605960039.6582,146
1605960039.6602,141
1605960039.6622,148
1605960039.6642,156
1605960039.6663,190
1605960039.6682,239
1605960039.6702,239
1605960039.6722,229
1605960039.6742,261
1605960039.6762,300
1605960039.6782,300
1605960039.6802,285
1605960039.6822,307
1605960039.6842,317
1605960039.6865,280
1605960039.6883,253
1605960039.6902,275
1605960039.6922,285
1605960039.6942,261
1605960039.6963,253
1605960039.6982,253
1605960039.7002,234
1605960039.7023,236
1605960039.7042,246
1605960039.7063,231
1605960039.7082,234
1605960039.7102,253
1605960039.7122,241
1605960039.7142,234
1605960039.7163,251
1605960039.7182,258
1605960039.7202,246
1605960039.7222,246
1605960039.7242,249
1605960039.7263,246
1605960039.7282,261
1605960039.7302,270
1605960039.7322,253
1605960039.7342,241
1605960039.7363,251
1605960039.7382,256
1605960039.7402,253
1605960039.7422,251
1605960039.7442,251
1605960039.7463,246
1605960039.7482,249
1605960040.1464,263
1605960040.1470,263
1605960040.1480,258
1605960040.1500,261
1605960040.1520,249
1605960040.1540,214
1605960040.1560,202
1605960040.1580,214
1605960040.1600,224
1605960040.1620,231
1605960040.1640,246
1605960040.1660,244
1605960040.1680,222
1605960040.1700,209
1605960040.1720,214
1605960040.1740,229
1605960040.1760,236
1605960040.1780,224
1605960040.1799,224
1605960040.1821,205
1605960040.1840,48
1605960040.1860,-207
1605960040.1880,-197
1605960040.1899,378
1605960040.1919,927
1605960040.1939,673
1605960040.1960,195
1605960040.1979,187
1605960040.1999,261
1605960040.2020,178
1605960040.2040,178
1605960040.2059,219
1605960040.2080,192
1605960040.2099,187
1605960040.2120,202
1605960040.2140,187
1605960040.2161,187
1605960040.2179,195
1605960040.2199,185
1605960040.2219,183
1605960040.2239,195
1605960040.2260,183
1605960040.2279,151
1605960040.2299,153
1605960040.2319,166
1605960040.2339,151
1605960040.2360,134
1605960040.2379,126
1605960040.2399,129
1605960040.2419,139
1605960040.2439,139
1605960040.2460,124
1605960040.2479,97
1605960040.2500,78
1605960040.2521,90
1605960040.2540,112
1605960040.2561,122
1605960040.2579,139
1605960040.2599,144
1605960040.2619,156
1605960040.2639,187
1605960040.2660,209
1605960040.2679,224
1605960040.2699,231
1605960040.2719,231
1605960040.2739,241
1605960040.2760,251
1605960040.2779,258
1605960040.2799,266
1605960040.2819,258
1605960040.2841,231
1605960040.2860,212
1605960040.2879,219
1605960040.7162,227
1605960040.7169,217
1605960040.7193,214
1605960040.7220,214
1605960040.7240,202
1605960040.7261,207
1605960040.7281,222
1605960040.7300,207
1605960040.7320,168
1605960040.7340,173
1605960040.7360,205
1605960040.7380,205
1605960040.7400,195
1605960040.7421,192
1605960040.7440,192
1605960040.7460,207
1605960040.7479,217
1605960040.7500,207
1605960040.7520,205
1605960040.7539,217
1605960040.7559,219
1605960040.7580,202
1605960040.7599,190
1605960040.7619,200
1605960040.7639,217
1605960040.7660,234
1605960040.7679,222
1605960040.7699,192
1605960040.7719,207
1605960040.7740,224
1605960040.7760,200
1605960040.7780,190
1605960040.7799,205
1605960040.7819,195
1605960040.7839,178
1605960040.7860,180
1605960040.7879,190
1605960040.7900,200
1605960040.7920,209
1605960040.7939,209
1605960040.7960,209
1605960040.7979,212
1605960040.7999,209
1605960040.8019,205
1605960040.8039,200
1605960040.8059,187
1605960040.8080,175
1605960040.8099,195
1605960040.8121,173
1605960040.8140,-41
1605960040.8160,-292
1605960040.8179,-90
1605960040.8199,581
1605960040.8220,861
1605960040.8240,429
1605960040.8260,129
1605960040.8280,214
1605960040.8299,190
1605960040.8319,102
1605960040.8339,158
1605960040.8360,200
1605960040.8379,161
1605960040.8400,136
1605960040.8419,141
1605960040.8439,148
1605960040.8460,161
1605960040.8479,161
1605960040.8499,124
1605960040.8519,102
1605960040.8539,129
1605960040.8560,136
1605960040.8580,129
1605960040.8599,136
1605960041.2558,134
1605960041.2567,119
1605960041.2591,112
1605960041.2618,107
1605960041.2638,97
1605960041.2658,78
1605960041.2678,58
1605960041.2699,61
1605960041.2718,68
1605960041.2738,63
1605960041.2758,68
1605960041.2778,80
1605960041.2798,85
1605960041.2817,92
1605960041.2838,119
1605960041.2859,136
1605960041.2878,139
1605960041.2898,161
1605960041.2918,187
1605960041.2937,197
1605960041.2958,209
1605960041.2977,209
1605960041.2997,200
1605960041.3018,217
1605960041.3038,227
1605960041.3058,195
1605960041.3079,175
1605960041.3098,192
1605960041.3117,178
1605960041.3137,148
1605960041.3158,158
1605960041.3178,168
1605960041.3198,166
1605960041.3217,168
1605960041.3237,168
1605960041.3259,175
1605960041.3277,183
1605960041.3297,168
1605960041.3317,151
1605960041.3337,163
1605960041.3359,183
1605960041.3377,180
1605960041.3397,168
1605960041.3417,166
1605960041.3437,156
1605960041.3458,151
1605960041.3477,158
1605960041.3497,170
1605960041.3518,185
1605960041.3537,190
1605960041.3558,178
1605960041.3577,163
1605960041.3597,163
1605960041.3617,163
1605960041.3637,163
1605960041.3658,163
1605960041.3678,163
1605960041.3697,180
1605960041.3717,205
1605960041.3737,190
1605960041.3758,151
1605960041.3777,134
1605960041.3797,131
1605960041.3817,141
1605960041.3838,156
1605960041.3858,163
1605960041.3877,158
1605960041.3897,163
1605960041.3917,175
1605960041.3937,183
1605960041.3958,183
1605960041.3977,178
1605960041.3999,173
1605960041.7961,178
1605960041.7969,178
1605960041.7993,161
1605960041.8020,80
1605960041.8041,-148
1605960041.8060,-349
1605960041.8079,-29
1605960041.8099,678
1605960041.8119,805
1605960041.8202,297
1605960041.8219,95
1605960041.8239,200
1605960041.8259,144
1605960041.8280,70
1605960041.8300,112
1605960041.8320,124
1605960041.8339,104
1605960041.8360,119
1605960041.8379,119
1605960041.8399,97
1605960041.8419,104
1605960041.8439,114
1605960041.8460,100
1605960041.8479,92
1605960041.8499,104
1605960041.8519,109
1605960041.8539,100
1605960041.8559,102
1605960041.8579,112
1605960041.8599,90
1605960041.8620,56
1605960041.8640,46
1605960041.8659,41
1605960041.8679,31
1605960041.8699,14
1605960041.8719,4
1605960041.8739,12
1605960041.8759,31
1605960041.8781,51
1605960041.8800,51
1605960041.8819,48
1605960041.8839,61
1605960041.8859,75
1605960041.8879,90
1605960041.8899,114
1605960041.8919,136
1605960041.8939,153
1605960041.8960,173
1605960041.8979,192
1605960041.8999,192
1605960041.9019,175
1605960041.9039,175
1605960041.9059,187
1605960041.9079,187
1605960041.9099,183
1605960041.9122,187
1605960041.9140,185
1605960041.9159,158
1605960041.9179,136
1605960041.9199,136
1605960041.9219,148
1605960041.9239,156
1605960041.9259,151
1605960041.9279,146
1605960041.9300,148
1605960041.9319,141
1605960041.9339,134
1605960041.9359,136
1605960041.9379,141
1605960041.9399,144
1605960041.9419,151
1605960041.9439,146
1605960041.9460,134
1605960042.3664,144
1605960042.3674,158
1605960042.3690,148
1605960042.3710,136
1605960042.3731,134
1605960042.3750,134
1605960042.3770,134
1605960042.3789,126
1605960042.3809,114
1605960042.3829,124
1605960042.3849,141
1605960042.3869,144
1605960042.3889,139
1605960042.3910,124
1605960042.3929,109
1605960042.3949,114
1605960042.3969,124
1605960042.3989,126
1605960042.4009,134
1605960042.4029,131
1605960042.4049,117
1605960042.4070,124
1605960042.4089,148
1605960042.4109,151
1605960042.4129,141
1605960042.4149,144
1605960042.4169,144
1605960042.4189,146
1605960042.4209,65
1605960042.4229,-185
1605960042.4250,-378
1605960042.4269,-26
1605960042.4289,703
1605960042.4311,832
1605960042.4329,285
1605960042.4349,53
1605960042.4369,166
1605960042.4390,117
1605960042.4409,58
1605960042.4428,117
1605960042.4449,126
1605960042.4469,80
1605960042.4489,75
1605960042.4509,97
1605960042.4529,95
1605960042.4549,90
1605960042.4570,100
1605960042.4589,112
1605960042.4609,102
1605960042.4629,63
1605960042.4649,39
1605960042.4669,58
1605960042.4689,78
1605960042.4709,65
1605960042.4730,56
1605960042.4749,53
1605960042.4769,56
1605960042.4789,53
1605960042.4809,34
1605960042.4829,7
1605960042.4849,4
1605960042.4869,19
1605960042.4889,26
1605960042.4909,31
1605960042.4929,43
1605960042.4949,61
1605960042.4969,87
1605960042.4989,112
1605960042.5009,124
1605960042.5029,134
1605960042.5050,141
1605960042.5070,153
1605960042.5089,180
1605960042.9662,200
1605960042.9669,197
1605960042.9691,190
1605960042.9708,205
1605960042.9728,212
1605960042.9748,183
1605960042.9769,161
1605960042.9788,161
1605960042.9808,144
1605960042.9829,141
1605960042.9850,156
1605960042.9870,163
1605960042.9889,158
1605960042.9908,146
1605960042.9928,148
1605960042.9948,163
1605960042.9970,148
1605960042.9988,117
1605960043.0009,114
1605960043.0029,139
1605960043.0048,136
1605960043.0069,119
1605960043.0088,136
1605960043.0108,151
1605960043.0128,139
1605960043.0148,134
1605960043.0169,126
1605960043.0189,117
1605960043.0208,124
1605960043.0228,139
1605960043.0248,146
1605960043.0269,153
1605960043.0288,153
1605960043.0308,144
1605960043.0329,134
1605960043.0349,141
1605960043.0368,151
1605960043.0388,144
1605960043.0408,134
1605960043.0428,124
1605960043.0448,109
1605960043.0469,109
1605960043.0488,119
1605960043.0509,129
1605960043.0529,146
1605960043.0548,153
1605960043.0569,148
1605960043.0588,146
1605960043.0608,131
1605960043.0628,119
1605960043.0648,129
1605960043.0669,141
1605960043.0688,112
1605960043.0708,-61
1605960043.0728,-322
1605960043.0748,-249
1605960043.0769,395
1605960043.0788,859
1605960043.0808,500
1605960043.0829,73
1605960043.0849,119
1605960043.0869,146
1605960043.0890,51
1605960043.0909,80
1605960043.0928,129
1605960043.0948,90
1605960043.0969,78
1605960043.0989,109
1605960043.1009,109
1605960043.1028,97
1605960043.1048,100
1605960043.1069,90
1605960043.1088,73
1605960043.5363,78
1605960043.5373,90
1605960043.5398,83
1605960043.5424,68
1605960043.5445,63
1605960043.5464,56
1605960043.5485,51
1605960043.5504,48
1605960043.5524,41
1605960043.5543,24
1605960043.5564,2
1605960043.5583,-7
1605960043.5603,-4
1605960043.5624,-9
1605960043.5643,-12
1605960043.5663,7
1605960043.5683,26
1605960043.5703,26
1605960043.5723,31
1605960043.5743,46
1605960043.5763,56
1605960043.5783,70
1605960043.5803,97
1605960043.5823,134
1605960043.5843,156
1605960043.5863,153
1605960043.5883,146
1605960043.5904,153
1605960043.5924,153
1605960043.5943,151
1605960043.5964,153
1605960043.5983,144
1605960043.6003,122
1605960043.6023,114
1605960043.6043,126
1605960043.6063,129
1605960043.6083,114
1605960043.6089,109
1605960043.6103,107
1605960043.6124,109
1605960043.6144,126
1605960043.6163,122
1605960043.6183,112
1605960043.6203,119
1605960043.6223,114
1605960043.6243,104
1605960043.6263,95
1605960043.6284,92
1605960043.6303,109
1605960043.6323,114
1605960043.6343,92
1605960043.6363,83
1605960043.6383,90
1605960043.6389,87
1605960043.6403,80
1605960043.6422,95
1605960043.6444,119
1605960043.6464,122
1605960043.6483,112
1605960043.6503,97
1605960043.6523,92
1605960043.6543,97
1605960043.6563,90
1605960043.6583,78
1605960043.6603,87
1605960043.6624,97
1605960043.6643,97
1605960043.6663,104
1605960043.6683,112
1605960043.6689,117
1605960043.6703,122
1605960043.6723,131
1605960043.6743,124
1605960044.0760,102
1605960044.0768,102
1605960044.0792,107
1605960044.0818,100
1605960044.0839,43
1605960044.0859,-161
1605960044.0878,-388
1605960044.0899,-151
1605960044.0918,546
1605960044.0925,791
1605960044.0938,314
1605960044.0959,19
1605960044.0978,104
1605960044.0998,85
1605960044.1018,24
1605960044.1038,70
1605960044.1058,90
1605960044.1079,58
1605960044.1100,51
1605960044.1118,58
1605960044.1138,46
1605960044.1158,56
1605960044.1178,70
1605960044.1198,58
1605960044.1218,46
1605960044.1225,61
1605960044.1239,65
1605960044.1258,51
1605960044.1278,51
1605960044.1298,53
1605960044.1318,29
1605960044.1338,9
1605960044.1358,7
1605960044.1378,9
1605960044.1399,12
1605960044.1418,14
1605960044.1438,7
1605960044.1458,-2
1605960044.1479,12
1605960044.1498,36
1605960044.1504,39
1605960044.1518,29
1605960044.1538,46
1605960044.1559,75
1605960044.1578,90
1605960044.1598,95
1605960044.1618,107
1605960044.1638,124
1605960044.1658,139
1605960044.1678,153
1605960044.1698,158
1605960044.1718,151
1605960044.1739,156
1605960044.1758,166
1605960044.1778,153
1605960044.1798,134
1605960044.1804,136
1605960044.1818,151
1605960044.1838,139
1605960044.1858,112
1605960044.1878,112
1605960044.1899,119
1605960044.1918,117
1605960044.1938,117
1605960044.1958,117
1605960044.1978,104
1605960044.1998,107
1605960044.2018,117
1605960044.2039,117
1605960044.2061,117
1605960044.2078,124
1605960044.2098,119
1605960044.2104,104
1605960044.6163,104
1605960044.6172,109
1605960044.6182,95
1605960044.6202,87
1605960044.6222,95
1605960044.6242,87
1605960044.6263,85
1605960044.6282,107
1605960044.6301,122
1605960044.6321,97
1605960044.6342,68
1605960044.6362,73
1605960044.6381,78
1605960044.6388,70
1605960044.6401,70
1605960044.6421,75
1605960044.6441,85
1605960044.6462,104
1605960044.6481,117
1605960044.6501,112
1605960044.6522,87
1605960044.6541,78
1605960044.6561,100
1605960044.6581,107
1605960044.6601,83
1605960044.6621,-43
1605960044.6641,-317
1605960044.6662,-393
1605960044.6682,136
1605960044.6688,771
1605960044.6701,625
1605960044.6721,117
1605960044.6741,46
1605960044.6761,129
1605960044.6782,65
1605960044.6801,46
1605960044.6821,73
1605960044.6842,51
1605960044.6861,51
1605960044.6881,70
1605960044.6901,61
1605960044.6921,58
1605960044.6941,75
1605960044.6961,68
1605960044.6981,39
1605960044.6988,36
1605960044.7002,51
1605960044.7023,58
1605960044.7041,48
1605960044.7061,31
1605960044.7081,24
1605960044.7101,34
1605960044.7121,26
1605960044.7141,4
1605960044.7162,-12
1605960044.7182,-7
1605960044.7201,4
1605960044.7221,-4
1605960044.7241,-12
1605960044.7262,7
1605960044.7282,21
1605960044.7289,21
1605960044.7301,26
1605960044.7322,43
1605960044.7342,61
1605960044.7361,73
1605960044.7381,90
1605960044.7401,107
1605960044.7421,114
1605960044.7441,117
1605960044.7461,131
1605960044.7481,151
1605960044.7502,153
1605960045.1864,151
1605960045.1874,151
1605960045.1898,134
1605960045.1925,117
1605960045.1932,124
1605960045.1945,122
1605960045.1964,95
1605960045.1984,73
1605960045.2003,80
1605960045.2023,83
1605960045.2043,83
1605960045.2064,100
1605960045.2084,104
1605960045.2104,90
1605960045.2124,92
1605960045.2143,117
1605960045.2163,126
1605960045.2183,100
1605960045.2204,90
1605960045.2224,100
1605960045.2243,97
1605960045.2264,90
1605960045.2284,92
1605960045.2303,100
1605960045.2323,107
1605960045.2345,100
1605960045.2364,107
1605960045.2383,126
1605960045.2403,117
1605960045.2423,90
1605960045.2444,73
1605960045.2464,61
1605960045.2483,58
1605960045.2503,56
1605960045.2523,68
1605960045.2543,92
1605960045.2563,95
1605960045.2584,87
1605960045.2604,85
1605960045.2624,100
1605960045.2643,117
1605960045.2664,102
1605960045.2683,70
1605960045.2703,68
1605960045.2723,80
1605960045.2743,34
1605960045.2764,-185
1605960045.2784,-417
1605960045.2803,-161
1605960045.2823,546
1605960045.2843,761
1605960045.2864,288
1605960045.2883,34
1605960045.2903,119
1605960045.2923,70
1605960045.2944,0
1605960045.2964,51
1605960045.2983,68
1605960045.3003,39
1605960045.3023,43
1605960045.3043,53
1605960045.3063,43
1605960045.3083,43
1605960045.3104,48
1605960045.3123,41
1605960045.3143,36
1605960045.3164,29
1605960045.3183,24
1605960045.3203,31
1605960045.3223,34
1605960045.3243,26
1605960045.3264,12
1605960045.3283,-2
1605960045.7560,0
1605960045.7569,0
1605960045.7593,-14
1605960045.7621,-19
1605960045.7639,-9
1605960045.7661,-4
1605960045.7679,2
1605960045.7699,0
1605960045.7720,-7
1605960045.7740,7
1605960045.7760,21
1605960045.7779,14
1605960045.7800,24
1605960045.7819,56
1605960045.7839,73
1605960045.7859,80
1605960045.7879,95
1605960045.7900,109
1605960045.7919,122
1605960045.7939,131
1605960045.7959,117
1605960045.7979,102
1605960045.7999,102
1605960045.8019,95
1605960045.8039,90
1605960045.8060,97
1605960045.8079,92
1605960045.8098,90
1605960045.8119,102
1605960045.8139,102
1605960045.8159,85
1605960045.8179,87
1605960045.8198,95
1605960045.8220,95
1605960045.8239,97
1605960045.8259,104
1605960045.8279,107
1605960045.8299,100
1605960045.8318,90
1605960045.8338,95
1605960045.8359,102
1605960045.8380,104
1605960045.8399,100
1605960045.8418,95
1605960045.8438,100
1605960045.8459,100
1605960045.8479,90
1605960045.8499,85
1605960045.8519,97
1605960045.8538,109
1605960045.8560,97
1605960045.8579,75
1605960045.8598,68
1605960045.8619,61
1605960045.8640,51
1605960045.8659,61
1605960045.8678,68
1605960045.8699,63
1605960045.8719,68
1605960045.8738,78
1605960045.8759,87
1605960045.8779,85
1605960045.8798,70
1605960045.8818,63
1605960045.8838,63
1605960045.8859,70
1605960045.8880,36
1605960045.8899,-151
1605960045.8918,-402
1605960045.8938,-256
1605960045.8959,419
1605960045.8978,786
1605960045.8999,363
1605960046.3258,14
1605960046.3267,102
1605960046.3292,95
1605960046.3319,0
1605960046.3339,31
1605960046.3359,58
1605960046.3379,39
1605960046.3398,36
1605960046.3418,29
1605960046.3438,9
1605960046.3459,19
1605960046.3478,36
1605960046.3499,39
1605960046.3518,34
1605960046.3538,24
1605960046.3558,4
1605960046.3578,2
1605960046.3598,19
1605960046.3618,12
1605960046.3638,-7
1605960046.3658,-9
1605960046.3678,0
1605960046.3698,-2
1605960046.3717,-17
1605960046.3737,-29
1605960046.3758,-26
1605960046.3777,-12
1605960046.3797,-9
1605960046.3817,-9
1605960046.3838,7
1605960046.3858,26
1605960046.3877,39
1605960046.3899,46
1605960046.3918,53
1605960046.3937,78
1605960046.3957,95
1605960046.3977,104
1605960046.3998,122
1605960046.4017,126
1605960046.4037,124
1605960046.4058,117
1605960046.4077,102
1605960046.4097,97
1605960046.4117,104
1605960046.4137,109
1605960046.4159,104
1605960046.4178,90
1605960046.4197,80
1605960046.4217,80
1605960046.4237,83
1605960046.4257,85
1605960046.4277,92
1605960046.4297,95
1605960046.4318,87
1605960046.4338,83
1605960046.4357,92
1605960046.4377,95
1605960046.4397,95
1605960046.4417,95
1605960046.4437,85
1605960046.4458,92
1605960046.4477,109
1605960046.4498,107
1605960046.4517,102
1605960046.4537,100
1605960046.4558,92
1605960046.4577,92
1605960046.4597,97
1605960046.4617,92
1605960046.4637,85
1605960046.4658,85
1605960046.4677,97
1605960046.4697,107
1605960046.8956,100
1605960046.8963,75
1605960046.8987,46
1605960046.9013,48
1605960046.9033,61
1605960046.9054,61
1605960046.9074,53
1605960046.9093,58
1605960046.9113,73
1605960046.9133,80
1605960046.9156,70
1605960046.9174,61
1605960046.9194,63
1605960046.9213,61
1605960046.9233,56
1605960046.9255,63
1605960046.9273,46
1605960046.9293,-117
1605960046.9313,-390
1605960046.9333,-356
1605960046.9354,261
1605960046.9373,754
1605960046.9394,449
1605960046.9414,29
1605960046.9433,51
1605960046.9454,92
1605960046.9473,12
1605960046.9493,12
1605960046.9513,46
1605960046.9533,29
1605960046.9553,19
1605960046.9573,31
1605960046.9593,24
1605960046.9613,19
1605960046.9633,29
1605960046.9653,14
1605960046.9673,0
1605960046.9693,4
1605960046.9713,4
1605960046.9733,7
1605960046.9754,9
1605960046.9773,-4
1605960046.9793,-7
1605960046.9813,-9
1605960046.9833,-29
1605960046.9854,-34
1605960046.9873,-24
1605960046.9893,-31
1605960046.9913,-43
1605960046.9933,-34
1605960046.9954,-12
1605960046.9973,-4
1605960046.9993,0
1605960047.0013,7
1605960047.0033,14
1605960047.0054,26
1605960047.0073,43
1605960047.0093,63
1605960047.0113,70
1605960047.0133,65
1605960047.0153,73
1605960047.0175,85
1605960047.0194,95
1605960047.0213,104
1605960047.0233,100
1605960047.0254,95
1605960047.0273,95
1605960047.0293,95
1605960047.0313,90
1605960047.0333,87
1605960047.0354,85
1605960047.0373,78
1605960047.0393,68
1605960047.4361,80
1605960047.4368,83
1605960047.4393,63
1605960047.4419,63
1605960047.4439,73
1605960047.4461,70
1605960047.4480,70
1605960047.4499,80
1605960047.4519,85
1605960047.4539,80
1605960047.4559,75
1605960047.4579,68
1605960047.4599,63
1605960047.4618,78
1605960047.4639,78
1605960047.4658,73
1605960047.4678,80
1605960047.4699,75
1605960047.4719,58
1605960047.4738,51
1605960047.4759,58
1605960047.4778,73
1605960047.4798,75
1605960047.4819,70
1605960047.4838,56
1605960047.4859,43
1605960047.4878,41
1605960047.4898,41
1605960047.4918,34
1605960047.4938,36
1605960047.4959,41
1605960047.4978,48
1605960047.4998,61
1605960047.5019,63
1605960047.5038,48
1605960047.5059,41
1605960047.5078,46
1605960047.5098,39
1605960047.5118,41
1605960047.5140,14
1605960047.5159,-158
1605960047.5179,-424
1605960047.5199,-334
1605960047.5218,322
1605960047.5238,766
1605960047.5259,402
1605960047.5278,2
1605960047.5298,43
1605960047.5319,58
1605960047.5339,-29
1605960047.5359,2
1605960047.5378,46
1605960047.5398,14
1605960047.5418,-2
1605960047.5438,12
1605960047.5459,14
1605960047.5479,-2
1605960047.5499,-9
1605960047.5518,2
1605960047.5538,0
1605960047.5559,-9
1605960047.5578,-9
1605960047.5598,-4
1605960047.5618,-7
1605960047.5638,-19
1605960047.5658,-31
1605960047.5678,-46
1605960047.5698,-41
1605960047.5718,-26
1605960047.5738,-46
1605960047.5759,-75
1605960047.5778,-70
1605960047.5798,-51
1605960047.9762,-41
1605960047.9771,-39
1605960047.9796,-41
1605960047.9822,-34
1605960047.9842,-17
1605960047.9862,2
1605960047.9882,17
1605960047.9902,26
1605960047.9921,41
1605960047.9942,53
1605960047.9962,58
1605960047.9981,58
1605960048.0001,73
1605960048.0021,97
1605960048.0041,97
1605960048.0061,90
1605960048.0081,78
1605960048.0103,61
1605960048.0122,58
1605960048.0141,56
1605960048.0161,43
1605960048.0181,43
1605960048.0201,53
1605960048.0221,53
1605960048.0241,48
1605960048.0261,51
1605960048.0281,53
1605960048.0301,43
1605960048.0321,41
1605960048.0341,58
1605960048.0361,70
1605960048.0381,61
1605960048.0401,51
1605960048.0421,53
1605960048.0441,56
1605960048.0462,56
1605960048.0482,68
1605960048.0502,85
1605960048.0521,75
1605960048.0541,51
1605960048.0562,46
1605960048.0581,58
1605960048.0601,65
1605960048.0621,56
1605960048.0641,46
1605960048.0661,41
1605960048.0681,39
1605960048.0701,29
1605960048.0721,12
1605960048.0741,14
1605960048.0761,39
1605960048.0781,48
1605960048.0801,43
1605960048.0821,36
1605960048.0841,41
1605960048.0862,46
1605960048.0881,39
1605960048.0901,39
1605960048.0921,41
1605960048.0941,36
1605960048.0961,-2
1605960048.0981,-185
1605960048.1001,-451
1605960048.1021,-319
1605960048.1041,395
1605960048.1061,803
1605960048.1081,363
1605960048.1101,-19
1605960048.1123,53
1605960048.1142,51
1605960048.1161,-31
1605960048.1181,0
1605960048.1201,19
1605960048.5462,-4
1605960048.5472,-7
1605960048.5496,4
1605960048.5523,12
1605960048.5543,2
1605960048.5563,-9
1605960048.5585,-2
1605960048.5603,-7
1605960048.5623,-26
1605960048.5643,-26
1605960048.5662,-34
1605960048.5682,-51
1605960048.5702,-53
1605960048.5722,-51
1605960048.5742,-58
1605960048.5762,-68
1605960048.5782,-68
1605960048.5802,-73
1605960048.5822,-80
1605960048.5842,-75
1605960048.5862,-68
1605960048.5882,-63
1605960048.5902,-53
1605960048.5923,-34
1605960048.5942,-21
1605960048.5962,-19
1605960048.5982,0
1605960048.6002,19
1605960048.6022,26
1605960048.6041,43
1605960048.6062,80
1605960048.6082,97
1605960048.6102,95
1605960048.6122,97
1605960048.6142,97
1605960048.6162,95
1605960048.6182,102
1605960048.6202,97
1605960048.6222,87
1605960048.6242,83
1605960048.6262,70
1605960048.6282,65
1605960048.6302,75
1605960048.6322,73
1605960048.6342,63
1605960048.6362,70
1605960048.6383,75
1605960048.6402,61
1605960048.6422,58
1605960048.6442,73
1605960048.6462,75
1605960048.6482,68
1605960048.6502,70
1605960048.6522,75
1605960048.6542,75
1605960048.6562,78
1605960048.6582,80
1605960048.6602,83
1605960048.6622,83
1605960048.6642,85
1605960048.6662,75
1605960048.6682,65
1605960048.6702,85
1605960048.6722,90
1605960048.6742,58
1605960048.6762,46
1605960048.6782,46
1605960048.6802,43
1605960048.6822,48
1605960048.6842,51
1605960048.6862,48
1605960048.6882,56
1605960048.6902,68
1605960049.1156,75
1605960049.1167,65
1605960049.1192,56
1605960049.1218,46
1605960049.1238,34
1605960049.1258,29
1605960049.1278,-48
1605960049.1297,-292
1605960049.1316,-480
1605960049.1337,-151
1605960049.1356,554
1605960049.1376,688
1605960049.1396,183
1605960049.1411,-26
1605960049.1426,73
1605960049.1446,26
1605960049.1467,-26
1605960049.1486,9
1605960049.1507,9
1605960049.1526,-9
1605960049.1547,12
1605960049.1567,19
1605960049.1586,-4
1605960049.1606,-9
1605960049.1628,2
1605960049.1647,0
1605960049.1666,-9
1605960049.1686,-9
1605960049.1706,-4
1605960049.1727,-12
1605960049.1747,-29
1605960049.1766,-26
1605960049.1786,-21
1605960049.1806,-31
1605960049.1826,-51
1605960049.1846,-58
1605960049.1866,-51
1605960049.1886,-58
1605960049.1906,-70
1605960049.1926,-61
1605960049.1946,-46
1605960049.1967,-39
1605960049.1986,-19
1605960049.2006,0
1605960049.2027,14
1605960049.2046,21
1605960049.2067,29
1605960049.2086,58
1605960049.2106,85
1605960049.2126,90
1605960049.2146,87
1605960049.2166,97
1605960049.2186,109
1605960049.2207,112
1605960049.2226,104
1605960049.2247,100
1605960049.2267,97
1605960049.2286,90
1605960049.2306,83
1605960049.2326,75
1605960049.2346,61
1605960049.2367,61
1605960049.2386,73
1605960049.2407,75
1605960049.2426,63
1605960049.2446,61
1605960049.2467,65
1605960049.2486,70
1605960049.2506,68
1605960049.2526,61
1605960049.2546,58
1605960049.2566,61
1605960049.2586,63
1605960049.6862,68
1605960049.6872,73
1605960049.6901,73
1605960049.6924,58
1605960049.6943,51
1605960049.6963,65
1605960049.6982,68
1605960049.7002,51
1605960049.7022,46
1605960049.7042,48
1605960049.7062,36
1605960049.7082,17
1605960049.7102,12
1605960049.7122,21
1605960049.7141,29
1605960049.7161,24
1605960049.7181,24
1605960049.7201,46
1605960049.7222,63
1605960049.7241,53
1605960049.7262,39
1605960049.7281,46
1605960049.7301,39
1605960049.7321,29
1605960049.7342,39
1605960049.7362,-19
1605960049.7381,-249
1605960049.7401,-476
1605960049.7421,-236
1605960049.7441,446
1605960049.7462,700
1605960049.7481,253
1605960049.7501,-26
1605960049.7521,70
1605960049.7541,61
1605960049.7562,-21
1605960049.7582,4
1605960049.7601,24
1605960049.7621,0
1605960049.7641,4
1605960049.7661,14
1605960049.7681,7
1605960049.7702,4
1605960049.7721,7
1605960049.7741,4
1605960049.7762,2
1605960049.7782,0
1605960049.7801,-14
1605960049.7821,-26
1605960049.7841,-19
1605960049.7862,-14
1605960049.7881,-24
1605960049.7901,-39
1605960049.7923,-43
1605960049.7942,-46
1605960049.7962,-46
1605960049.7981,-46
1605960049.8001,-56
1605960049.8021,-68
1605960049.8041,-58
1605960049.8061,-34
1605960049.8081,-26
1605960049.8101,-26
1605960049.8121,-7
1605960049.8142,17
1605960049.8161,29
1605960049.8181,41
1605960049.8201,58
1605960049.8221,65
1605960049.8241,78
1605960049.8262,95
1605960049.8281,95
1605960049.8302,87
1605960050.2558,83
1605960050.2568,80
1605960050.2592,85
1605960050.2604,85
1605960050.2619,78
1605960050.2639,68
1605960050.2658,53
1605960050.2679,56
1605960050.2699,56
1605960050.2719,41
1605960050.2739,36
1605960050.2758,39
1605960050.2777,41
1605960050.2797,48
1605960050.2817,48
1605960050.2837,46
1605960050.2858,51
1605960050.2877,53
1605960050.2897,53
1605960050.2904,58
1605960050.2927,61
1605960050.2947,65
1605960050.2967,65
1605960050.2987,58
1605960050.3007,58
1605960050.3027,65
1605960050.3047,63
1605960050.3067,61
1605960050.3087,70
1605960050.3107,78
1605960050.3127,68
1605960050.3149,41
1605960050.3168,26
1605960050.3187,39
1605960050.3207,46
1605960050.3214,41
1605960050.3237,39
1605960050.3258,48
1605960050.3278,61
1605960050.3298,58
1605960050.3317,48
1605960050.3337,48
1605960050.3358,48
1605960050.3377,34
1605960050.3397,26
1605960050.3417,36
1605960050.3437,-41
1605960050.3457,-292
1605960050.3477,-471
1605960050.3498,-129
1605960050.3517,554
1605960050.3524,659
1605960050.3547,161
1605960050.3568,-41
1605960050.3587,61
1605960050.3607,17
1605960050.3627,-34
1605960050.3648,12
1605960050.3667,4
1605960050.3687,-21
1605960050.3707,-2
1605960050.3727,7
1605960050.3747,-9
1605960050.3767,-9
1605960050.3788,0
1605960050.3807,-9
1605960050.3814,-9
1605960050.3837,-2
1605960050.3858,-19
1605960050.3877,-29
1605960050.3898,-26
1605960050.3917,-43
1605960050.3937,-53
1605960050.7962,-41
1605960050.7972,-46
1605960050.7997,-70
1605960050.8023,-73
1605960050.8043,-56
1605960050.8063,-53
1605960050.8069,-65
1605960050.8092,-61
1605960050.8112,-51
1605960050.8134,-48
1605960050.8153,-39
1605960050.8172,-14
1605960050.8192,4
1605960050.8212,12
1605960050.8232,26
1605960050.8252,51
1605960050.8272,65
1605960050.8292,68
1605960050.8312,68
1605960050.8332,78
1605960050.8353,90
1605960050.8373,78
1605960050.8379,63
1605960050.8392,68
1605960050.8412,73
1605960050.8432,65
1605960050.8453,61
1605960050.8472,53
1605960050.8493,48
1605960050.8512,41
1605960050.8532,43
1605960050.8553,51
1605960050.8572,56
1605960050.8592,51
1605960050.8612,39
1605960050.8632,43
1605960050.8653,63
1605960050.8672,61
1605960050.8679,48
1605960050.8702,48
1605960050.8722,58
1605960050.8742,56
1605960050.8762,43
1605960050.8782,51
1605960050.8802,73
1605960050.8822,70
1605960050.8842,48
1605960050.8862,43
1605960050.8882,48
1605960050.8902,48
1605960050.8922,46
1605960050.8942,53
1605960050.8962,61
1605960050.8982,58
1605960050.8988,53
1605960050.9002,34
1605960050.9022,4
1605960050.9042,7
1605960050.9062,21
1605960050.9082,21
1605960050.9104,17
1605960050.9122,21
1605960050.9142,34
1605960050.9162,41
1605960050.9182,39
1605960050.9202,34
1605960050.9222,34
1605960050.9242,29
1605960050.9262,19
1605960050.9282,24
1605960050.9289,-2
1605960050.9312,-180
1605960050.9332,-446
1605960051.3662,-351
1605960051.3672,297
1605960051.3697,705
1605960051.3723,324
1605960051.3743,-43
1605960051.3763,24
1605960051.3783,31
1605960051.3802,-58
1605960051.3822,-31
1605960051.3842,0
1605960051.3862,-26
1605960051.3882,-31
1605960051.3902,-17
1605960051.3909,-19
1605960051.3932,-21
1605960051.3952,-17
1605960051.3972,-17
1605960051.3992,-21
1605960051.4013,-31
1605960051.4032,-43
1605960051.4052,-43
1605960051.4072,-51
1605960051.4092,-61
1605960051.4112,-63
1605960051.4132,-70
1605960051.4153,-80
1605960051.4172,-85
1605960051.4192,-83
1605960051.4212,-75
1605960051.4219,-85
1605960051.4242,-87
1605960051.4262,-68
1605960051.4283,-68
1605960051.4302,-70
1605960051.4322,-53
1605960051.4343,-39
1605960051.4363,-26
1605960051.4382,7
1605960051.4405,26
1605960051.4423,21
1605960051.4442,26
1605960051.4462,41
1605960051.4482,53
1605960051.4502,63
1605960051.4509,70
1605960051.4532,65
1605960051.4553,58
1605960051.4572,61
1605960051.4592,63
1605960051.4612,56
1605960051.4632,41
1605960051.4652,39
1605960051.4672,36
1605960051.4692,24
1605960051.4712,19
1605960051.4732,19
1605960051.4752,26
1605960051.4772,39
1605960051.4792,26
1605960051.4812,17
1605960051.4819,34
1605960051.4842,43
1605960051.4862,41
1605960051.4882,43
1605960051.4902,46
1605960051.4922,34
1605960051.4943,26
1605960051.4963,39
1605960051.4982,58
1605960051.5002,58
1605960051.5022,41
1605960051.5041,29
1605960051.5062,31
1605960051.9060,36
1605960051.9068,34
1605960051.9092,36
1605960051.9119,39
1605960051.9138,31
1605960051.9158,29
1605960051.9179,36
1605960051.9198,34
1605960051.9218,0
1605960051.9238,-17
1605960051.9259,-2
1605960051.9278,-2
1605960051.9298,-14
1605960051.9318,-9
1605960051.9338,0
1605960051.9359,4
1605960051.9380,9
1605960051.9399,12
1605960051.9419,7
1605960051.9438,0
1605960051.9458,-7
1605960051.9478,-7
1605960051.9498,9
1605960051.9518,-46
1605960051.9538,-278
1605960051.9559,-512
1605960051.9578,-249
1605960051.9598,495
1605960051.9618,739
1605960051.9638,224
1605960051.9658,-65
1605960051.9678,41
1605960051.9698,9
1605960051.9718,-65
1605960051.9738,-29
1605960051.9758,-24
1605960051.9778,-48
1605960051.9798,-34
1605960051.9818,-24
1605960051.9838,-36
1605960051.9858,-34
1605960051.9878,-26
1605960051.9898,-31
1605960051.9918,-34
1605960051.9938,-41
1605960051.9958,-48
1605960051.9978,-41
1605960051.9998,-46
1605960052.0018,-61
1605960052.0038,-61
1605960052.0058,-65
1605960052.0078,-75
1605960052.0098,-85
1605960052.0118,-87
1605960052.0138,-90
1605960052.0158,-97
1605960052.0178,-92
1605960052.0198,-80
1605960052.0218,-80
1605960052.0238,-70
1605960052.0259,-48
1605960052.0279,-19
1605960052.0298,2
1605960052.0318,-2
1605960052.0338,-2
1605960052.0359,24
1605960052.0378,61
1605960052.0401,85
1605960052.0418,92
1605960052.0438,85
1605960052.0458,75
1605960052.0478,78
1605960052.0498,102
1605960052.4763,100
1605960052.4772,78
1605960052.4796,68
1605960052.4823,61
1605960052.4843,48
1605960052.4863,39
1605960052.4883,29
1605960052.4903,26
1605960052.4923,29
1605960052.4942,26
1605960052.4962,26
1605960052.4982,29
1605960052.5002,36
1605960052.5022,39
1605960052.5042,41
1605960052.5063,48
1605960052.5082,48
1605960052.5102,48
1605960052.5122,48
1605960052.5142,46
1605960052.5162,46
1605960052.5182,48
1605960052.5202,46
1605960052.5222,46
1605960052.5242,53
1605960052.5262,51
1605960052.5282,36
1605960052.5302,29
1605960052.5322,34
1605960052.5342,29
1605960052.5362,29
1605960052.5382,43
1605960052.5402,48
1605960052.5422,36
1605960052.5442,14
1605960052.5462,-2
1605960052.5482,0
1605960052.5502,9
1605960052.5522,2
1605960052.5542,4
1605960052.5562,24
1605960052.5582,36
1605960052.5602,29
1605960052.5622,34
1605960052.5642,46
1605960052.5664,34
1605960052.5682,14
1605960052.5702,14
1605960052.5722,19
1605960052.5742,-26
1605960052.5762,-222
1605960052.5782,-463
1605960052.5802,-258
1605960052.5822,454
1605960052.5842,751
1605960052.5863,268
1605960052.5882,-48
1605960052.5902,53
1605960052.5923,39
1605960052.5942,-41
1605960052.5962,2
1605960052.5982,31
1605960052.6002,-2
1605960052.6022,-14
1605960052.6042,-4
1605960052.6062,-12
1605960052.6082,-26
1605960052.6102,-19
1605960052.6122,-2
1605960052.6142,-4
1605960052.6162,-19
1605960052.6182,-24
1605960052.6202,-29
1605960053.1367,-31
1605960053.1384,-31
1605960053.1409,-43
1605960053.1435,-56
1605960053.1454,-56
1605960053.1475,-63
1605960053.1495,-87
1605960053.1515,-95
1605960053.1535,-80
1605960053.1555,-78
1605960053.1575,-90
1605960053.1595,-85
1605960053.1615,-58
1605960053.1635,-39
1605960053.1655,-26
1605960053.1674,-17
1605960053.1694,-2
1605960053.1714,21
1605960053.1734,39
1605960053.1754,43
1605960053.1774,61
1605960053.1794,75
1605960053.1814,70
1605960053.1837,73
1605960053.1854,87
1605960053.1874,83
1605960053.1894,61
1605960053.1914,56
1605960053.1934,58
1605960053.1954,51
1605960053.1974,39
1605960053.1994,31
1605960053.2014,39
1605960053.2034,41
1605960053.2054,36
1605960053.2074,43
1605960053.2094,48
1605960053.2115,41
1605960053.2134,39
1605960053.2154,41
1605960053.2173,46
1605960053.2193,41
1605960053.2214,43
1605960053.2233,46
1605960053.2254,29
1605960053.2273,24
1605960053.2293,48
1605960053.2313,58
1605960053.2333,51
1605960053.2354,46
1605960053.2373,46
1605960053.2393,41
1605960053.2413,31
1605960053.2433,29
1605960053.2454,34
1605960053.2473,31
1605960053.2493,21
1605960053.2514,24
1605960053.2534,36
1605960053.2555,34
1605960053.2573,29
1605960053.2593,43
1605960053.2613,48
1605960053.2633,24
1605960053.2653,-4
1605960053.2673,-9
1605960053.2693,12
1605960053.2713,21
1605960053.2733,17
1605960053.2753,21
1605960053.2773,24
1605960053.2793,31
1605960053.2813,46
1605960053.6160,48
1605960053.6170,34
1605960053.6186,24
1605960053.6206,19
1605960053.6226,24
1605960053.6246,19
1605960053.6266,-97
1605960053.6286,-363
1605960053.6306,-434
1605960053.6325,80
1605960053.6346,681
1605960053.6366,517
1605960053.6385,29
1605960053.6406,-21
1605960053.6426,63
1605960053.6446,-14
1605960053.6466,-36
1605960053.6486,9
1605960053.6506,-4
1605960053.6526,-31
1605960053.6546,-21
1605960053.6567,-14
1605960053.6585,-19
1605960053.6606,-24
1605960053.6626,-29
1605960053.6645,-29
1605960053.6666,-21
1605960053.6686,-21
1605960053.6706,-39
1605960053.6726,-46
1605960053.6746,-39
1605960053.6766,-43
1605960053.6785,-53
1605960053.6806,-51
1605960053.6826,-61
1605960053.6846,-85
1605960053.6866,-85
1605960053.6886,-73
1605960053.6906,-73
1605960053.6926,-73
1605960053.6946,-65
1605960053.6966,-61
1605960053.6985,-53
1605960053.7006,-41
1605960053.7026,-21
1605960053.7046,-2
1605960053.7066,9
1605960053.7086,21
1605960053.7106,36
1605960053.7126,46
1605960053.7146,61
1605960053.7165,80
1605960053.7187,78
1605960053.7206,73
1605960053.7226,80
1605960053.7246,73
1605960053.7266,58
1605960053.7285,56
1605960053.7306,58
1605960053.7326,51
1605960053.7345,39
1605960053.7366,41
1605960053.7386,41
1605960053.7406,29
1605960053.7426,29
1605960053.7446,36
1605960053.7466,29
1605960053.7486,21
1605960053.7506,31
1605960053.7526,46
1605960053.7546,36
1605960053.7566,29
1605960053.7586,36
1605960054.1558,36
1605960054.1568,31
1605960054.1592,31
1605960054.1619,29
1605960054.1639,21
1605960054.1658,12
1605960054.1679,19
1605960054.1698,24
1605960054.1718,9
1605960054.1738,-7
1605960054.1759,-7
1605960054.1778,2
1605960054.1798,2
1605960054.1818,2
1605960054.1838,7
1605960054.1859,9
1605960054.1878,9
1605960054.1898,17
1605960054.1918,24
1605960054.1938,24
1605960054.1958,17
1605960054.1978,14
1605960054.1998,7
1605960054.2018,-7
1605960054.2038,-7
1605960054.2058,-2
1605960054.2078,2
1605960054.2098,19
1605960054.2118,26
1605960054.2138,29
1605960054.2160,34
1605960054.2178,34
1605960054.2198,29
1605960054.2217,31
1605960054.2238,24
1605960054.2258,17
1605960054.2278,7
1605960054.2298,-85
1605960054.2317,-322
1605960054.2338,-451
1605960054.2358,-48
1605960054.2378,607
1605960054.2398,607
1605960054.2418,102
1605960054.2438,-41
1605960054.2458,56
1605960054.2478,-9
1605960054.2498,-46
1605960054.2518,7
1605960054.2537,0
1605960054.2558,-19
1605960054.2577,2
1605960054.2598,7
1605960054.2618,-12
1605960054.2638,-19
1605960054.2658,-9
1605960054.2678,-2
1605960054.2698,-14
1605960054.2717,-31
1605960054.2737,-31
1605960054.2758,-31
1605960054.2777,-34
1605960054.2797,-36
1605960054.2817,-46
1605960054.2837,-51
1605960054.2858,-56
1605960054.2878,-65
1605960054.2898,-68
1605960054.2918,-75
1605960054.2938,-85
1605960054.2958,-87
1605960054.2977,-85
1605960054.2998,-85
1605960054.7257,-68
1605960054.7267,-36
1605960054.7291,-19
1605960054.7318,-21
1605960054.7338,-9
1605960054.7358,12
1605960054.7378,19
1605960054.7397,21
1605960054.7419,48
1605960054.7437,70
1605960054.7457,61
1605960054.7477,48
1605960054.7497,48
1605960054.7517,51
1605960054.7537,51
1605960054.7557,46
1605960054.7577,41
1605960054.7597,29
1605960054.7617,14
1605960054.7637,19
1605960054.7657,29
1605960054.7677,26
1605960054.7697,19
1605960054.7717,19
1605960054.7737,19
1605960054.7757,14
1605960054.7777,2
1605960054.7797,0
1605960054.7817,9
1605960054.7836,17
1605960054.7857,14
1605960054.7876,9
1605960054.7896,12
1605960054.7916,17
1605960054.7936,21
1605960054.7957,19
1605960054.7977,14
1605960054.7996,19
1605960054.8016,21
1605960054.8036,21
1605960054.8057,26
1605960054.8076,24
1605960054.8097,12
1605960054.8116,7
1605960054.8136,9
1605960054.8156,19
1605960054.8176,21
1605960054.8196,14
1605960054.8217,7
1605960054.8236,14
1605960054.8257,26
1605960054.8277,29
1605960054.8297,24
1605960054.8318,19
1605960054.8337,7
1605960054.8358,0
1605960054.8377,-2
1605960054.8397,0
1605960054.8416,7
1605960054.8438,12
1605960054.8457,12
1605960054.8477,19
1605960054.8496,17
1605960054.8518,7
1605960054.8537,2
1605960054.8557,4
1605960054.8577,2
1605960054.8597,-4
1605960054.8617,-9
1605960054.8637,-90
1605960054.8657,-351
1605960054.8677,-502
1605960054.8697,-65
1605960055.2662,617
1605960055.2672,603
1605960055.2697,90
1605960055.2723,-39
1605960055.2743,43
1605960055.2763,-31
1605960055.2783,-61
1605960055.2803,-19
1605960055.2822,-41
1605960055.2842,-63
1605960055.2863,-43
1605960055.2882,-29
1605960055.2902,-34
1605960055.2922,-36
1605960055.2941,-31
1605960055.2961,-29
1605960055.2981,-41
1605960055.3001,-56
1605960055.3021,-70
1605960055.3041,-75
1605960055.3062,-70
1605960055.3081,-75
1605960055.3101,-87
1605960055.3121,-95
1605960055.3141,-97
1605960055.3161,-95
1605960055.3181,-104
1605960055.3201,-117
1605960055.3221,-117
1605960055.3242,-112
1605960055.3262,-104
1605960055.3281,-100
1605960055.3301,-90
1605960055.3322,-70
1605960055.3341,-51
1605960055.3362,-43
1605960055.3381,-34
1605960055.3403,-9
1605960055.3422,4
1605960055.3443,9
1605960055.3462,26
1605960055.3481,46
1605960055.3501,56
1605960055.3521,63
1605960055.3541,68
1605960055.3561,61
1605960055.3582,43
1605960055.3602,34
1605960055.3621,31
1605960055.3641,21
1605960055.3661,7
1605960055.3682,4
1605960055.3701,19
1605960055.3721,4
1605960055.3742,-29
1605960055.3762,-39
1605960055.3781,-26
1605960055.3801,-14
1605960055.3822,-4
1605960055.3841,-7
1605960055.3861,-9
1605960055.3881,-7
1605960055.3901,0
1605960055.3921,9
1605960055.3941,4
1605960055.3961,-2
1605960055.3981,2
1605960055.4001,7
1605960055.4021,12
1605960055.4041,9
1605960055.4061,4
1605960055.4081,9
1605960055.4101,9
1605960055.8363,9
1605960055.8373,19
1605960055.8397,21
1605960055.8424,17
1605960055.8443,2
1605960055.8463,-12
1605960055.8483,-2
1605960055.8503,9
1605960055.8523,7
1605960055.8543,-7
1605960055.8563,-21
1605960055.8582,-17
1605960055.8602,-7
1605960055.8622,-9
1605960055.8642,-2
1605960055.8664,14
1605960055.8683,21
1605960055.8702,19
1605960055.8722,14
1605960055.8743,7
1605960055.8764,9
1605960055.8783,17
1605960055.8803,14
1605960055.8823,-12
1605960055.8843,-146
1605960055.8862,-405
1605960055.8882,-434
1605960055.8903,144
1605960055.8923,739
1605960055.8942,502
1605960055.8962,2
1605960055.8982,-9
1605960055.9003,56
1605960055.9022,-46
1605960055.9042,-46
1605960055.9063,14
1605960055.9082,-7
1605960055.9102,-31
1605960055.9122,-14
1605960055.9142,-19
1605960055.9162,-36
1605960055.9182,-26
1605960055.9202,-14
1605960055.9222,-26
1605960055.9242,-34
1605960055.9263,-39
1605960055.9282,-53
1605960055.9302,-56
1605960055.9322,-65
1605960055.9342,-80
1605960055.9363,-78
1605960055.9382,-83
1605960055.9402,-102
1605960055.9422,-100
1605960055.9442,-97
1605960055.9462,-107
1605960055.9482,-109
1605960055.9502,-97
1605960055.9522,-92
1605960055.9542,-97
1605960055.9562,-83
1605960055.9582,-58
1605960055.9602,-43
1605960055.9622,-39
1605960055.9642,-31
1605960055.9663,0
1605960055.9684,43
1605960055.9703,56
1605960055.9722,46
1605960055.9742,61
1605960055.9763,85
1605960055.9782,85
1605960055.9802,58
1605960056.4364,48
1605960056.4377,51
1605960056.4401,39
1605960056.4428,34
1605960056.4447,29
1605960056.4467,9
1605960056.4488,-2
1605960056.4507,2
1605960056.4527,4
1605960056.4547,2
1605960056.4567,7
1605960056.4587,2
1605960056.4608,-4
1605960056.4627,-4
1605960056.4647,0
1605960056.4666,2
1605960056.4686,12
1605960056.4706,19
1605960056.4727,17
1605960056.4746,14
1605960056.4766,21
1605960056.4786,29
1605960056.4806,29
1605960056.4826,21
1605960056.4846,21
1605960056.4867,24
1605960056.4886,21
1605960056.4906,26
1605960056.4926,26
1605960056.4946,24
1605960056.4966,36
1605960056.4986,46
1605960056.5006,29
1605960056.5026,4
1605960056.5046,-2
1605960056.5066,-2
1605960056.5087,-4
1605960056.5107,7
1605960056.5126,21
1605960056.5146,24
1605960056.5166,29
1605960056.5187,26
1605960056.5206,17
1605960056.5226,7
1605960056.5248,7
1605960056.5322,12
1605960056.5336,12
1605960056.5358,-14
1605960056.5376,-190
1605960056.5396,-461
1605960056.5416,-358
1605960056.5437,324
1605960056.5456,764
1605960056.5476,363
1605960056.5496,-48
1605960056.5516,19
1605960056.5536,53
1605960056.5558,-46
1605960056.5577,-26
1605960056.5596,12
1605960056.5603,-21
1605960056.5616,-31
1605960056.5636,-14
1605960056.5656,-14
1605960056.5676,-21
1605960056.5696,-17
1605960056.5716,-14
1605960056.5736,-17
1605960056.5757,-21
1605960056.5776,-26
1605960056.5796,-34
1605960056.5816,-51
1605960056.5837,-68
1605960056.9762,-63
1605960056.9772,-53
1605960056.9796,-65
1605960056.9823,-73
1605960056.9843,-75
1605960056.9863,-92
1605960056.9883,-102
1605960056.9902,-97
1605960056.9922,-90
1605960056.9942,-85
1605960056.9962,-83
1605960056.9982,-78
1605960057.0002,-58
1605960057.0022,-34
1605960057.0042,-24
1605960057.0062,-4
1605960057.0069,26
1605960057.0091,43
1605960057.0111,51
1605960057.0132,58
1605960057.0152,70
1605960057.0171,80
1605960057.0193,73
1605960057.0212,68
1605960057.0231,68
1605960057.0252,61
1605960057.0272,48
1605960057.0291,34
1605960057.0311,24
1605960057.0331,31
1605960057.0352,26
1605960057.0371,12
1605960057.0378,7
1605960057.0401,-2
1605960057.0422,-7
1605960057.0442,2
1605960057.0461,9
1605960057.0481,4
1605960057.0501,0
1605960057.0521,4
1605960057.0541,12
1605960057.0561,17
1605960057.0581,17
1605960057.0601,17
1605960057.0621,14
1605960057.0641,14
1605960057.0661,17
1605960057.0681,21
1605960057.0689,24
1605960057.0702,29
1605960057.0722,29
1605960057.0741,21
1605960057.0762,31
1605960057.0782,36
1605960057.0801,9
1605960057.0821,-2
1605960057.0841,4
1605960057.0862,0
1605960057.0882,-9
1605960057.0901,-2
1605960057.0921,14
1605960057.0941,26
1605960057.0961,31
1605960057.0981,29
1605960057.0989,17
1605960057.1011,12
1605960057.1031,17
1605960057.1052,17
1605960057.1071,14
1605960057.1091,-2
1605960057.1111,-134
1605960057.1131,-397
1605960057.1152,-437
1605960057.5761,112
1605960057.5772,686
1605960057.5796,480
1605960057.5823,17
1605960057.5842,-2
1605960057.5862,58
1605960057.5882,-34
1605960057.5889,-43
1605960057.5912,0
1605960057.5932,-24
1605960057.5952,-39
1605960057.5971,-21
1605960057.5991,-26
1605960057.6012,-36
1605960057.6031,-29
1605960057.6052,-21
1605960057.6071,-29
1605960057.6091,-39
1605960057.6111,-41
1605960057.6131,-43
1605960057.6151,-58
1605960057.6171,-68
1605960057.6191,-61
1605960057.6198,-65
1605960057.6221,-80
1605960057.6244,-90
1605960057.6262,-95
1605960057.6281,-104
1605960057.6301,-112
1605960057.6321,-112
1605960057.6341,-112
1605960057.6361,-104
1605960057.6381,-85
1605960057.6401,-68
1605960057.6421,-61
1605960057.6441,-53
1605960057.6461,-26
1605960057.6481,2
1605960057.6501,19
1605960057.6508,36
1605960057.6531,51
1605960057.6551,53
1605960057.6571,56
1605960057.6592,73
1605960057.6611,83
1605960057.6631,73
1605960057.6652,56
1605960057.6671,53
1605960057.6691,51
1605960057.6711,46
1605960057.6731,39
1605960057.6753,24
1605960057.6773,19
1605960057.6791,21
1605960057.6811,19
1605960057.6818,19
1605960057.6831,9
1605960057.6852,4
1605960057.6871,21
1605960057.6891,29
1605960057.6911,14
1605960057.6931,12
1605960057.6951,24
1605960057.6972,31
1605960057.6991,17
1605960057.7011,7
1605960057.7031,9
1605960057.7052,9
1605960057.7071,14
1605960057.7091,21
1605960057.7111,14
1605960057.7118,12
1605960057.7131,21
1605960058.0855,29
1605960058.0863,24
1605960058.0887,12
1605960058.0913,7
1605960058.0933,2
1605960058.0953,0
1605960058.0974,-2
1605960058.0993,-2
1605960058.1013,-2
1605960058.1033,0
1605960058.1054,9
1605960058.1073,26
1605960058.1080,24
1605960058.1093,2
1605960058.1113,-14
1605960058.1133,-14
1605960058.1153,-2
1605960058.1173,-4
1605960058.1193,-17
1605960058.1213,-100
1605960058.1233,-341
1605960058.1253,-505
1605960058.1274,-126
1605960058.1293,559
1605960058.1313,610
1605960058.1333,95
1605960058.1353,-65
1605960058.1373,43
1605960058.1379,-21
1605960058.1395,-68
1605960058.1414,-9
1605960058.1433,-14
1605960058.1454,-46
1605960058.1473,-26
1605960058.1493,-12
1605960058.1513,-31
1605960058.1533,-39
1605960058.1553,-31
1605960058.1573,-41
1605960058.1594,-46
1605960058.1613,-41
1605960058.1633,-41
1605960058.1653,-48
1605960058.1673,-61
1605960058.1693,-68
1605960058.1713,-70
1605960058.1733,-78
1605960058.1753,-87
1605960058.1773,-87
1605960058.1793,-90
1605960058.1813,-102
1605960058.1833,-117
1605960058.1853,-119
1605960058.1873,-102
1605960058.1893,-83
1605960058.1913,-73
1605960058.1934,-65
1605960058.1953,-48
1605960058.1973,-26
1605960058.1993,-14
1605960058.2013,7
1605960058.2033,34
1605960058.2053,51
1605960058.2073,51
1605960058.2093,53
1605960058.2113,65
1605960058.2133,68
1605960058.2153,56
1605960058.2173,51
1605960058.2193,53
1605960058.2213,56
1605960058.2233,48
1605960058.2253,31
1605960058.6561,26
1605960058.6570,31
1605960058.6595,26
1605960058.6621,24
1605960058.6641,29
1605960058.6660,29
1605960058.6681,9
1605960058.6703,-9
1605960058.6721,-2
1605960058.6740,7
1605960058.6761,2
1605960058.6780,-2
1605960058.6800,-7
1605960058.6820,-7
1605960058.6840,-4
1605960058.6861,0
1605960058.6880,9
1605960058.6900,4
1605960058.6920,-4
1605960058.6940,2
1605960058.6960,17
1605960058.6980,9
1605960058.7000,0
1605960058.7020,2
1605960058.7041,-4
1605960058.7061,-12
1605960058.7080,-2
1605960058.7100,4
1605960058.7120,7
1605960058.7140,0
1605960058.7160,-26
1605960058.7180,-41
1605960058.7200,-31
1605960058.7220,-24
1605960058.7240,-24
1605960058.7260,-14
1605960058.7280,-2
1605960058.7300,0
1605960058.7320,2
1605960058.7340,7
1605960058.7360,0
1605960058.7380,-9
1605960058.7400,-9
1605960058.7420,-17
1605960058.7440,-24
1605960058.7460,-124
1605960058.7480,-400
1605960058.7500,-517
1605960058.7520,-7
1605960058.7540,661
1605960058.7560,549
1605960058.7580,36
1605960058.7600,-36
1605960058.7620,34
1605960058.7640,-51
1605960058.7660,-56
1605960058.7680,-4
1605960058.7700,-34
1605960058.7722,-58
1605960058.7740,-36
1605960058.7760,-31
1605960058.7780,-41
1605960058.7800,-39
1605960058.7820,-48
1605960058.7840,-61
1605960058.7860,-56
1605960058.7880,-65
1605960058.7900,-68
1605960058.7920,-63
1605960058.7940,-75
1605960058.7960,-92
1605960058.7980,-92
1605960058.8000,-97
1605960059.1961,-109
1605960059.1968,-122
1605960059.1992,-126
1605960059.2019,-131
1605960059.2039,-141
1605960059.2059,-148
1605960059.2080,-144
1605960059.2099,-139
1605960059.2119,-136
1605960059.2139,-124
1605960059.2158,-97
1605960059.2179,-75
1605960059.2199,-61
1605960059.2218,-31
1605960059.2239,-2
1605960059.2259,14
1605960059.2278,26
1605960059.2298,43
1605960059.2318,51
1605960059.2339,43
1605960059.2359,46
1605960059.2378,56
1605960059.2398,48
1605960059.2418,34
1605960059.2438,29
1605960059.2459,24
1605960059.2478,19
1605960059.2498,12
1605960059.2518,4
1605960059.2538,4
1605960059.2558,2
1605960059.2578,-7
1605960059.2598,-12
1605960059.2618,-12
1605960059.2638,-12
1605960059.2658,-7
1605960059.2680,7
1605960059.2699,9
1605960059.2718,-2
1605960059.2738,-7
1605960059.2758,-7
1605960059.2778,0
1605960059.2798,-2
1605960059.2818,-12
1605960059.2838,-7
1605960059.2859,0
1605960059.2878,-2
1605960059.2898,-2
1605960059.2918,-4
1605960059.2938,-17
1605960059.2958,-19
1605960059.2978,-12
1605960059.2998,-9
1605960059.3018,-12
1605960059.3038,-12
1605960059.3058,-12
1605960059.3078,-14
1605960059.3098,-29
1605960059.3118,-53
1605960059.3138,-63
1605960059.3158,-46
1605960059.3178,-34
1605960059.3198,-26
1605960059.3218,-21
1605960059.3238,-26
1605960059.3259,-24
1605960059.3278,-21
1605960059.3298,-21
1605960059.3318,-26
1605960059.3338,-34
1605960059.3358,-36
1605960059.3378,-48
1605960059.3398,-131
1605960059.7962,-388
1605960059.7971,-593
1605960059.7996,-183
1605960059.8022,603
1605960059.8042,651
1605960059.8062,56
1605960059.8083,-112
1605960059.8102,7
1605960059.8122,-87
1605960059.8142,-146
1605960059.8161,-73
1605960059.8181,-78
1605960059.8201,-109
1605960059.8221,-90
1605960059.8244,-85
1605960059.8262,-97
1605960059.8281,-97
1605960059.8301,-95
1605960059.8321,-95
1605960059.8341,-100
1605960059.8362,-109
1605960059.8381,-124
1605960059.8401,-122
1605960059.8421,-112
1605960059.8441,-126
1605960059.8462,-148
1605960059.8481,-156
1605960059.8501,-158
1605960059.8521,-170
1605960059.8543,-185
1605960059.8563,-202
1605960059.8581,-209
1605960059.8601,-205
1605960059.8621,-195
1605960059.8641,-190
1605960059.8661,-187
1605960059.8681,-168
1605960059.8701,-139
1605960059.8721,-117
1605960059.8741,-97
1605960059.8761,-61
1605960059.8781,-19
1605960059.8788,-4
1605960059.8801,-4
1605960059.8821,9
1605960059.8841,29
1605960059.8861,26
1605960059.8881,14
1605960059.8901,14
1605960059.8922,19
1605960059.8941,14
1605960059.8961,9
1605960059.8981,7
1605960059.9001,-9
1605960059.9021,-17
1605960059.9041,-14
1605960059.9061,-17
1605960059.9081,-19
1605960059.9087,-14
1605960059.9101,-12
1605960059.9121,-17
1605960059.9141,-24
1605960059.9161,-24
1605960059.9181,-19
1605960059.9201,-17
1605960059.9223,-14
1605960059.9242,-19
1605960059.9262,-12
1605960059.9281,-7
1605960059.9301,-12
1605960059.9321,-4
1605960059.9341,-2
1605960059.9361,-2
1605960060.3361,4
1605960060.3370,4
1605960060.3395,-4
1605960060.3422,-7
1605960060.3442,-2
1605960060.3461,0
1605960060.3482,0
1605960060.3501,2
1605960060.3521,-17
1605960060.3541,-39
1605960060.3562,-41
1605960060.3581,-39
1605960060.3601,-39
1605960060.3621,-41
1605960060.3641,-26
1605960060.3660,-4
1605960060.3667,-4
1605960060.3680,-12
1605960060.3700,-7
1605960060.3721,-7
1605960060.3740,-24
1605960060.3760,-34
1605960060.3780,-31
1605960060.3800,-126
1605960060.3820,-417
1605960060.3840,-605
1605960060.3861,-109
1605960060.3880,700
1605960060.3900,668
1605960060.3920,56
1605960060.3940,-68
1605960060.3960,51
1605960060.3967,-53
1605960060.3990,-95
1605960060.4010,-26
1605960060.4030,-36
1605960060.4050,-61
1605960060.4071,-46
1605960060.4090,-51
1605960060.4110,-63
1605960060.4130,-51
1605960060.4151,-43
1605960060.4170,-48
1605960060.4192,-61
1605960060.4211,-61
1605960060.4230,-61
1605960060.4251,-68
1605960060.4257,-75
1605960060.4270,-85
1605960060.4290,-87
1605960060.4310,-92
1605960060.4330,-112
1605960060.4351,-124
1605960060.4370,-129
1605960060.4390,-139
1605960060.4410,-153
1605960060.4430,-163
1605960060.4450,-161
1605960060.4470,-139
1605960060.4490,-114
1605960060.4510,-100
1605960060.4530,-87
1605960060.4551,-68
1605960060.4557,-34
1605960060.4570,2
1605960060.4590,26
1605960060.4610,36
1605960060.4630,48
1605960060.4651,58
1605960060.4670,61
1605960060.4691,58
1605960060.4710,63
1605960060.4730,70
1605960060.9061,65
1605960060.9070,53
1605960060.9094,43
1605960060.9121,26
1605960060.9128,14
1605960060.9140,17
1605960060.9160,14
1605960060.9180,-4
1605960060.9200,-12
1605960060.9220,-14
1605960060.9240,-17
1605960060.9260,-19
1605960060.9279,-17
1605960060.9299,-12
1605960060.9320,-12
1605960060.9340,-4
1605960060.9360,0
1605960060.9379,-2
1605960060.9399,2
1605960060.9419,9
1605960060.9426,7
1605960060.9441,-4
1605960060.9460,-9
1605960060.9479,-4
1605960060.9499,-2
1605960060.9519,-4
1605960060.9539,-2
1605960060.9559,-2
1605960060.9579,-9
1605960060.9599,-21
1605960060.9619,-19
1605960060.9640,-4
1605960060.9659,0
1605960060.9679,-2
1605960060.9699,-2
1605960060.9720,-2
1605960060.9726,-2
1605960060.9739,-19
1605960060.9760,-36
1605960060.9779,-34
1605960060.9799,-24
1605960060.9819,-21
1605960060.9839,-21
1605960060.9860,-9
1605960060.9879,4
1605960060.9899,7
1605960060.9919,2
1605960060.9939,-4
1605960060.9959,-9
1605960060.9979,-12
1605960060.9999,-9
1605960061.0019,-7
1605960061.0026,-70
1605960061.0039,-314
1605960061.0059,-566
1605960061.0079,-292
1605960061.0099,498
1605960061.0119,749
1605960061.0139,195
1605960061.0160,-78
1605960061.0179,48
1605960061.0200,-19
1605960061.0219,-112
1605960061.0239,-46
1605960061.0259,-21
1605960061.0279,-51
1605960061.0300,-46
1605960061.0319,-39
1605960061.0326,-48
1605960061.0339,-43
1605960061.0360,-41
1605960061.0379,-46
1605960061.0407,-41
1605960061.4461,-41
1605960061.4470,-61
1605960061.4494,-63
1605960061.4521,-61
1605960061.4541,-75
1605960061.4561,-85
1605960061.4581,-80
1605960061.4600,-80
1605960061.4621,-114
1605960061.4640,-144
1605960061.4661,-139
1605960061.4668,-136
1605960061.4680,-144
1605960061.4701,-139
1605960061.4720,-134
1605960061.4740,-131
1605960061.4761,-122
1605960061.4780,-97
1605960061.4800,-68
1605960061.4820,-46
1605960061.4840,-17
1605960061.4860,12
1605960061.4880,29
1605960061.4900,39
1605960061.4920,53
1605960061.4940,63
1605960061.4960,63
1605960061.4967,63
1605960061.4980,70
1605960061.5000,65
1605960061.5020,61
1605960061.5040,58
1605960061.5060,51
1605960061.5080,46
1605960061.5100,34
1605960061.5120,17
1605960061.5140,17
1605960061.5160,29
1605960061.5180,31
1605960061.5200,17
1605960061.5220,9
1605960061.5240,7
1605960061.5260,2
1605960061.5267,4
1605960061.5280,7
1605960061.5300,0
1605960061.5320,-2
1605960061.5340,4
1605960061.5360,9
1605960061.5380,9
1605960061.5402,12
1605960061.5421,14
1605960061.5440,14
1605960061.5460,4
1605960061.5480,-2
1605960061.5500,-7
1605960061.5520,2
1605960061.5540,24
1605960061.5560,24
1605960061.5567,17
1605960061.5580,14
1605960061.5600,9
1605960061.5620,0
1605960061.5640,2
1605960061.5660,12
1605960061.5680,14
1605960061.5700,14
1605960061.5720,14
1605960061.5740,0
1605960061.5760,-9
1605960061.5780,17
1605960061.5800,39
1605960061.5820,17
1605960062.0208,-12
1605960062.0218,-7
1605960062.0242,-4
1605960062.0269,-17
1605960062.0289,-17
1605960062.0309,-9
1605960062.0330,-12
1605960062.0349,-12
1605960062.0368,-9
1605960062.0388,-12
1605960062.0409,-19
1605960062.0428,-21
1605960062.0448,-9
1605960062.0469,-14
1605960062.0488,-131
1605960062.0495,-419
1605960062.0508,-559
1605960062.0528,-68
1605960062.0548,649
1605960062.0568,581
1605960062.0587,36
1605960062.0607,-61
1605960062.0627,43
1605960062.0647,-34
1605960062.0667,-68
1605960062.0687,-21
1605960062.0707,-39
1605960062.0727,-56
1605960062.0749,-39
1605960062.0768,-39
1605960062.0788,-46
1605960062.0794,-41
1605960062.0807,-41
1605960062.0827,-53
1605960062.0847,-63
1605960062.0868,-53
1605960062.0887,-48
1605960062.0907,-68
1605960062.0927,-83
1605960062.0947,-75
1605960062.0967,-73
1605960062.0987,-75
1605960062.1007,-90
1605960062.1027,-114
1605960062.1047,-122
1605960062.1067,-119
1605960062.1087,-124
1605960062.1094,-129
1605960062.1107,-124
1605960062.1127,-112
1605960062.1147,-109
1605960062.1167,-109
1605960062.1187,-92
1605960062.1207,-53
1605960062.1227,-17
1605960062.1247,-4
1605960062.1267,4
1605960062.1288,34
1605960062.1307,51
1605960062.1327,53
1605960062.1347,48
1605960062.1367,43
1605960062.1387,53
1605960062.1395,65
1605960062.1417,53
1605960062.1437,43
1605960062.1457,46
1605960062.1477,39
1605960062.1498,26
1605960062.1517,39
1605960062.1537,48
1605960062.1558,24
1605960062.1577,4
1605960062.5558,7
1605960062.5567,4
1605960062.5591,0
1605960062.5618,0
1605960062.5638,2
1605960062.5645,2
1605960062.5669,-12
1605960062.5688,-17
1605960062.5707,-9
1605960062.5727,-9
1605960062.5747,-12
1605960062.5767,-4
1605960062.5788,-2
1605960062.5807,0
1605960062.5827,7
1605960062.5848,-4
1605960062.5866,-12
1605960062.5886,2
1605960062.5906,12
1605960062.5927,2
1605960062.5947,0
1605960062.5953,-4
1605960062.5967,-7
1605960062.5986,2
1605960062.6006,9
1605960062.6027,0
1605960062.6047,-14
1605960062.6066,-14
1605960062.6086,-2
1605960062.6106,4
1605960062.6126,7
1605960062.6146,7
1605960062.6167,12
1605960062.6186,12
1605960062.6206,-7
1605960062.6226,-39
1605960062.6246,-46
1605960062.6253,-24
1605960062.6266,-7
1605960062.6286,-7
1605960062.6308,-4
1605960062.6327,0
1605960062.6346,4
1605960062.6366,9
1605960062.6386,12
1605960062.6406,12
1605960062.6426,7
1605960062.6446,4
1605960062.6466,0
1605960062.6486,-9
1605960062.6506,-85
1605960062.6526,-307
1605960062.6547,-515
1605960062.6553,-241
1605960062.6567,461
1605960062.6586,656
1605960062.6606,168
1605960062.6628,-65
1605960062.6647,48
1605960062.6666,4
1605960062.6686,-80
1605960062.6706,-31
1605960062.6726,-2
1605960062.6746,-29
1605960062.6766,-34
1605960062.6786,-36
1605960062.6806,-43
1605960062.6826,-26
1605960062.6846,-24
1605960062.6853,-41
1605960062.6866,-51
1605960062.6886,-58
1605960062.6906,-56
1605960063.1561,-46
1605960063.1569,-46
1605960063.1585,-68
1605960063.1605,-85
1605960063.1624,-90
1605960063.1644,-95
1605960063.1664,-100
1605960063.1671,-117
1605960063.1684,-136
1605960063.1704,-134
1605960063.1724,-126
1605960063.1744,-134
1605960063.1764,-131
1605960063.1783,-109
1605960063.1803,-95
1605960063.1825,-97
1605960063.1844,-85
1605960063.1864,-51
1605960063.1883,-36
1605960063.1903,-31
1605960063.1924,-7
1605960063.1943,24
1605960063.1963,31
1605960063.1970,21
1605960063.1983,21
1605960063.2003,31
1605960063.2023,31
1605960063.2043,14
1605960063.2063,4
1605960063.2084,4
1605960063.2103,7
1605960063.2123,7
1605960063.2143,12
1605960063.2164,14
1605960063.2183,7
1605960063.2205,-7
1605960063.2224,-9
1605960063.2243,-2
1605960063.2263,-4
1605960063.2270,-12
1605960063.2283,-2
1605960063.2303,2
1605960063.2323,-9
1605960063.2343,-2
1605960063.2363,4
1605960063.2383,-2
1605960063.2403,-2
1605960063.2423,-2
1605960063.2443,-4
1605960063.2463,2
1605960063.2483,2
1605960063.2503,0
1605960063.2523,2
1605960063.2543,7
1605960063.2564,2
1605960063.2570,-2
1605960063.2583,7
1605960063.2603,7
1605960063.2623,-4
1605960063.2643,-2
1605960063.2663,4
1605960063.2683,0
1605960063.2703,-2
1605960063.2723,0
1605960063.2743,2
1605960063.2763,-9
1605960063.2783,-9
1605960063.2803,14
1605960063.2823,19
1605960063.2843,0
1605960063.2864,-17
1605960063.2870,-24
1605960063.2883,-19
1605960063.7255,-14
1605960063.7263,-9
1605960063.7287,-2
1605960063.7314,-2
1605960063.7334,2
1605960063.7355,7
1605960063.7373,12
1605960063.7393,14
1605960063.7413,4
1605960063.7433,-12
1605960063.7453,-24
1605960063.7473,-34
1605960063.7480,-119
1605960063.7495,-366
1605960063.7513,-524
1605960063.7533,-134
1605960063.7554,551
1605960063.7573,585
1605960063.7593,73
1605960063.7613,-75
1605960063.7632,29
1605960063.7653,-34
1605960063.7672,-73
1605960063.7693,-29
1605960063.7713,-36
1605960063.7733,-58
1605960063.7753,-43
1605960063.7773,-41
1605960063.7779,-48
1605960063.7792,-48
1605960063.7813,-41
1605960063.7833,-39
1605960063.7853,-39
1605960063.7873,-43
1605960063.7892,-58
1605960063.7913,-61
1605960063.7933,-63
1605960063.7953,-75
1605960063.7973,-78
1605960063.7993,-75
1605960063.8013,-87
1605960063.8032,-107
1605960063.8053,-117
1605960063.8073,-126
1605960063.8079,-126
1605960063.8094,-117
1605960063.8113,-119
1605960063.8132,-119
1605960063.8153,-107
1605960063.8173,-95
1605960063.8193,-90
1605960063.8213,-80
1605960063.8233,-61
1605960063.8253,-31
1605960063.8272,-7
1605960063.8292,0
1605960063.8312,9
1605960063.8333,31
1605960063.8353,43
1605960063.8372,36
1605960063.8379,31
1605960063.8393,34
1605960063.8413,26
1605960063.8433,9
1605960063.8454,12
1605960063.8473,26
1605960063.8493,29
1605960063.8513,7
1605960063.8533,-12
1605960063.8553,-4
1605960063.8572,14
1605960063.8592,17
1605960063.8613,2
1605960064.2960,0
1605960064.2969,9
1605960064.2993,7
1605960064.3004,-4
1605960064.3020,-2
1605960064.3040,-4
1605960064.3060,-9
1605960064.3080,-7
1605960064.3099,2
1605960064.3119,7
1605960064.3139,-9
1605960064.3159,-19
1605960064.3179,-12
1605960064.3199,-12
1605960064.3219,-12
1605960064.3239,-4
1605960064.3259,-4
1605960064.3279,-9
1605960064.3299,-2
1605960064.3306,12
1605960064.3329,7
1605960064.3349,-12
1605960064.3369,-7
1605960064.3389,7
1605960064.3408,2
1605960064.3428,-4
1605960064.3448,4
1605960064.3468,7
1605960064.3489,-14
1605960064.3508,-31
1605960064.3529,-21
1605960064.3549,-19
1605960064.3569,-17
1605960064.3588,-2
1605960064.3595,2
1605960064.3608,4
1605960064.3629,12
1605960064.3649,7
1605960064.3669,-4
1605960064.3688,-2
1605960064.3708,0
1605960064.3728,-4
1605960064.3751,-2
1605960064.3769,-34
1605960064.3788,-205
1605960064.3808,-454
1605960064.3829,-400
1605960064.3849,205
1605960064.3868,690
1605960064.3888,385
1605960064.3895,-41
1605960064.3909,-14
1605960064.3928,26
1605960064.3948,-58
1605960064.3969,-48
1605960064.3989,-17
1605960064.4009,-41
1605960064.4028,-48
1605960064.4049,-36
1605960064.4069,-41
1605960064.4088,-41
1605960064.4108,-36
1605960064.4128,-43
1605960064.4149,-56
1605960064.4169,-48
1605960064.4188,-46
1605960064.4195,-53
1605960064.4208,-61
1605960064.4228,-80
1605960064.4249,-100
1605960064.4268,-102
1605960064.4289,-102
1605960064.4309,-114
1605960064.8358,-124
1605960064.8365,-122
1605960064.8389,-131
1605960064.8393,-139
1605960064.8400,-139
1605960064.8416,-129
1605960064.8422,-109
1605960064.8435,-107
1605960064.8455,-114
1605960064.8476,-95
1605960064.8495,-65
1605960064.8515,-53
1605960064.8535,-46
1605960064.8555,-29
1605960064.8575,-7
1605960064.8595,0
1605960064.8615,4
1605960064.8635,17
1605960064.8655,24
1605960064.8675,19
1605960064.8697,12
1605960064.8715,7
1605960064.8721,12
1605960064.8735,12
1605960064.8755,0
1605960064.8774,-9
1605960064.8795,-12
1605960064.8815,-9
1605960064.8835,-7
1605960064.8855,-4
1605960064.8875,-9
1605960064.8895,-19
1605960064.8915,-17
1605960064.8935,-9
1605960064.8955,-9
1605960064.8975,-7
1605960064.8995,-7
1605960064.9015,-2
1605960064.9021,0
1605960064.9035,-4
1605960064.9055,0
1605960064.9075,0
1605960064.9095,-9
1605960064.9115,-2
1605960064.9135,9
1605960064.9155,4
1605960064.9175,-7
1605960064.9195,-12
1605960064.9215,-4
1605960064.9235,-2
1605960064.9255,-7
1605960064.9275,-4
1605960064.9295,2
1605960064.9316,-4
1605960064.9322,-17
1605960064.9335,-2
1605960064.9355,7
1605960064.9375,-7
1605960064.9395,-9
1605960064.9415,-2
1605960064.9435,-12
1605960064.9455,-31
1605960064.9475,-43
1605960064.9495,-46
1605960064.9515,-41
1605960064.9535,-43
1605960064.9555,-39
1605960064.9575,-19
1605960064.9595,-12
1605960064.9615,-17
1605960064.9621,-17
1605960064.9636,-4
1605960064.9656,-7
1605960065.3757,-26
1605960065.3766,-31
1605960065.3790,-17
1605960065.3817,-48
1605960065.3837,-214
1605960065.3858,-476
1605960065.3878,-432
1605960065.3897,190
1605960065.3917,686
1605960065.3937,368
1605960065.3957,-63
1605960065.3977,-29
1605960065.3997,4
1605960065.4004,-100
1605960065.4017,-90
1605960065.4037,-41
1605960065.4057,-58
1605960065.4076,-70
1605960065.4096,-61
1605960065.4116,-58
1605960065.4136,-58
1605960065.4157,-63
1605960065.4176,-68
1605960065.4196,-73
1605960065.4216,-75
1605960065.4236,-75
1605960065.4257,-78
1605960065.4276,-87
1605960065.4296,-95
1605960065.4302,-104
1605960065.4316,-117
1605960065.4336,-122
1605960065.4356,-122
1605960065.4376,-131
1605960065.4396,-139
1605960065.4416,-141
1605960065.4436,-148
1605960065.4456,-144
1605960065.4476,-139
1605960065.4496,-141
1605960065.4516,-122
1605960065.4536,-97
1605960065.4556,-97
1605960065.4576,-97
1605960065.4596,-80
1605960065.4602,-53
1605960065.4616,-29
1605960065.4636,-19
1605960065.4656,-2
1605960065.4678,17
1605960065.4697,21
1605960065.4716,17
1605960065.4736,12
1605960065.4756,-2
1605960065.4776,-17
1605960065.4796,-17
1605960065.4816,-9
1605960065.4836,-19
1605960065.4856,-24
1605960065.4876,-24
1605960065.4896,-29
1605960065.4902,-29
1605960065.4916,-26
1605960065.4936,-26
1605960065.4956,-29
1605960065.4976,-31
1605960065.4996,-21
1605960065.5016,-9
1605960065.5036,-12
1605960065.5056,-14
1605960065.5076,-19
1605960065.5096,-19
1605960065.5116,-12
1605960065.9460,-9
1605960065.9469,-9
1605960065.9486,-9
1605960065.9510,-7
1605960065.9529,2
1605960065.9550,-9
1605960065.9569,-26
1605960065.9589,-21
1605960065.9609,-12
1605960065.9629,-17
1605960065.9650,-29
1605960065.9669,-24
1605960065.9689,-24
1605960065.9709,-24
1605960065.9729,-12
1605960065.9750,-2
1605960065.9769,-4
1605960065.9789,-19
1605960065.9795,-43
1605960065.9809,-48
1605960065.9829,-36
1605960065.9850,-29
1605960065.9868,-31
1605960065.9889,-26
1605960065.9909,4
1605960065.9928,19
1605960065.9949,2
1605960065.9970,-4
1605960065.9989,-4
1605960066.0009,-9
1605960066.0029,-12
1605960066.0050,-12
1605960066.0068,-34
1605960066.0088,-166
1605960066.0094,-419
1605960066.0108,-461
1605960066.0128,92
1605960066.0149,717
1605960066.0168,532
1605960066.0189,7
1605960066.0208,-48
1605960066.0228,21
1605960066.0249,-58
1605960066.0268,-56
1605960066.0288,-14
1605960066.0309,-48
1605960066.0328,-73
1605960066.0349,-53
1605960066.0368,-51
1605960066.0388,-58
1605960066.0395,-56
1605960066.0408,-61
1605960066.0429,-68
1605960066.0449,-53
1605960066.0469,-46
1605960066.0489,-61
1605960066.0508,-75
1605960066.0528,-75
1605960066.0549,-75
1605960066.0568,-87
1605960066.0589,-97
1605960066.0608,-102
1605960066.0628,-107
1605960066.0649,-107
1605960066.0669,-112
1605960066.0689,-122
1605960066.0695,-119
1605960066.0708,-107
1605960066.0728,-97
1605960066.0749,-92
1605960066.0768,-83
1605960066.0790,-63
1605960066.0808,-46
1605960066.5160,-26
1605960066.5168,0
1605960066.5192,12
1605960066.5219,12
1605960066.5239,19
1605960066.5262,34
1605960066.5279,41
1605960066.5298,26
1605960066.5305,12
1605960066.5318,19
1605960066.5339,21
1605960066.5358,14
1605960066.5378,4
1605960066.5399,4
1605960066.5418,0
1605960066.5438,-17
1605960066.5458,-14
1605960066.5478,0
1605960066.5498,0
1605960066.5518,-4
1605960066.5538,-2
1605960066.5558,4
1605960066.5578,2
1605960066.5598,-2
1605960066.5604,0
1605960066.5618,4
1605960066.5638,4
1605960066.5658,9
1605960066.5678,14
1605960066.5698,14
1605960066.5718,14
1605960066.5738,14
1605960066.5758,14
1605960066.5778,12
1605960066.5798,12
1605960066.5817,9
1605960066.5838,2
1605960066.5858,2
1605960066.5878,2
1605960066.5897,0
1605960066.5904,9
1605960066.5917,9
1605960066.5937,4
1605960066.5958,9
1605960066.5977,2
1605960066.5998,-24
1605960066.6018,-31
1605960066.6037,-12
1605960066.6057,-4
1605960066.6078,-4
1605960066.6097,4
1605960066.6118,12
1605960066.6137,7
1605960066.6158,7
1605960066.6177,12
1605960066.6198,14
1605960066.6205,7
1605960066.6218,0
1605960066.6239,0
1605960066.6258,-31
1605960066.6278,-217
1605960066.6297,-473
1605960066.6318,-351
1605960066.6338,329
1605960066.6358,742
1605960066.6378,339
1605960066.6398,-48
1605960066.6418,9
1605960066.6438,17
1605960066.6458,-70
1605960066.6478,-43
1605960066.6497,-14
1605960066.6504,-46
1605960067.0857,-43
1605960067.0866,-29
1605960067.0889,-39
1605960067.0917,-34
1605960067.0936,-31
1605960067.0957,-43
1605960067.0977,-46
1605960067.0996,-46
1605960067.1017,-63
1605960067.1036,-78
1605960067.1057,-75
1605960067.1076,-83
1605960067.1096,-90
1605960067.1103,-83
1605960067.1116,-83
1605960067.1136,-100
1605960067.1157,-109
1605960067.1176,-117
1605960067.1197,-119
1605960067.1216,-119
1605960067.1236,-119
1605960067.1256,-107
1605960067.1276,-85
1605960067.1296,-70
1605960067.1316,-61
1605960067.1336,-53
1605960067.1356,-41
1605960067.1375,-26
1605960067.1395,-9
1605960067.1402,7
1605960067.1415,9
1605960067.1435,4
1605960067.1456,19
1605960067.1475,39
1605960067.1497,43
1605960067.1516,34
1605960067.1536,19
1605960067.1555,9
1605960067.1575,4
1605960067.1595,0
1605960067.1615,-4
1605960067.1635,-9
1605960067.1656,-19
1605960067.1676,-21
1605960067.1695,-12
1605960067.1701,-2
1605960067.1715,-9
1605960067.1735,-9
1605960067.1756,-2
1605960067.1775,-4
1605960067.1795,-7
1605960067.1815,-4
1605960067.1835,2
1605960067.1856,4
1605960067.1875,2
1605960067.1895,2
1605960067.1915,9
1605960067.1935,4
1605960067.1956,-2
1605960067.1975,2
1605960067.1995,4
1605960067.2001,2
1605960067.2015,0
1605960067.2035,0
1605960067.2055,2
1605960067.2075,4
1605960067.2095,4
1605960067.2115,7
1605960067.2135,14
1605960067.2156,12
1605960067.2175,7
1605960067.2195,-7
1605960067.2215,-21
1605960067.6254,-17
1605960067.6261,-12
1605960067.6264,-19
1605960067.6279,-14
1605960067.6300,4
1605960067.6319,19
1605960067.6339,17
1605960067.6359,2
1605960067.6379,0
1605960067.6399,2
1605960067.6419,-12
1605960067.6439,-17
1605960067.6461,-21
1605960067.6479,-129
1605960067.6499,-383
1605960067.6519,-498
1605960067.6539,-48
1605960067.6545,615
1605960067.6559,571
1605960067.6578,53
1605960067.6598,-65
1605960067.6618,34
1605960067.6638,-34
1605960067.6659,-75
1605960067.6678,-41
1605960067.6698,-56
1605960067.6718,-70
1605960067.6738,-48
1605960067.6759,-43
1605960067.6778,-51
1605960067.6798,-48
1605960067.6818,-48
1605960067.6838,-56
1605960067.6844,-65
1605960067.6858,-65
1605960067.6878,-58
1605960067.6898,-63
1605960067.6918,-78
1605960067.6938,-85
1605960067.6958,-87
1605960067.6978,-90
1605960067.6998,-92
1605960067.7018,-100
1605960067.7038,-112
1605960067.7058,-119
1605960067.7078,-117
1605960067.7098,-102
1605960067.7119,-90
1605960067.7138,-92
1605960067.7144,-92
1605960067.7158,-78
1605960067.7178,-61
1605960067.7198,-48
1605960067.7218,-26
1605960067.7238,-4
1605960067.7258,2
1605960067.7278,4
1605960067.7298,21
1605960067.7318,41
1605960067.7338,34
1605960067.7358,29
1605960067.7378,36
1605960067.7399,29
1605960067.7420,17
1605960067.7438,17
1605960067.7444,19
1605960067.7458,12
1605960067.7478,-2
1605960067.7498,-9
1605960067.7518,0
1605960067.7538,2
1605960067.7559,-7
1605960067.7578,-12
1605960068.2257,-12
1605960068.2265,-14
1605960068.2289,-12
1605960068.2310,-2
1605960068.2326,-7
1605960068.2346,-14
1605960068.2366,-12
1605960068.2373,-14
1605960068.2386,-19
1605960068.2406,-14
1605960068.2426,-14
1605960068.2446,-17
1605960068.2465,-14
1605960068.2485,-12
1605960068.2506,-14
1605960068.2526,-14
1605960068.2546,-19
1605960068.2566,-29
1605960068.2586,-34
1605960068.2605,-19
1605960068.2626,-7
1605960068.2646,-2
1605960068.2665,-2
1605960068.2671,-9
1605960068.2685,-24
1605960068.2705,-36
1605960068.2725,-34
1605960068.2745,-34
1605960068.2765,-39
1605960068.2785,-21
1605960068.2805,0
1605960068.2825,0
1605960068.2846,-2
1605960068.2865,-4
1605960068.2885,2
1605960068.2905,4
1605960068.2925,-12
1605960068.2945,-21
1605960068.2965,-21
1605960068.2971,-80
1605960068.2986,-295
1605960068.3007,-507
1605960068.3026,-239
1605960068.3045,458
1605960068.3065,664
1605960068.3085,185
1605960068.3105,-70
1605960068.3125,21
1605960068.3145,-17
1605960068.3165,-85
1605960068.3185,-43
1605960068.3205,-39
1605960068.3225,-56
1605960068.3245,-34
1605960068.3265,-34
1605960068.3271,-46
1605960068.3285,-41
1605960068.3305,-43
1605960068.3325,-53
1605960068.3345,-48
1605960068.3365,-48
1605960068.3385,-68
1605960068.3405,-78
1605960068.3425,-65
1605960068.3445,-63
1605960068.3465,-83
1605960068.3485,-97
1605960068.3505,-104
1605960068.3525,-112
1605960068.3545,-109
1605960068.3565,-104
1605960068.3571,-107
1605960068.3585,-112
1605960068.7358,-109
1605960068.7364,-100
1605960068.7388,-80
1605960068.7415,-61
1605960068.7435,-61
1605960068.7454,-56
1605960068.7475,-36
1605960068.7495,-9
1605960068.7514,2
1605960068.7534,-2
1605960068.7555,12
1605960068.7574,29
1605960068.7581,19
1605960068.7594,14
1605960068.7614,21
1605960068.7634,24
1605960068.7655,17
1605960068.7674,7
1605960068.7694,0
1605960068.7716,-7
1605960068.7735,-14
1605960068.7755,-12
1605960068.7774,-7
1605960068.7794,-14
1605960068.7814,-17
1605960068.7835,-14
1605960068.7855,-7
1605960068.7874,-2
1605960068.7880,-7
1605960068.7894,-12
1605960068.7914,-17
1605960068.7934,-14
1605960068.7954,-14
1605960068.7974,-19
1605960068.7994,-14
1605960068.8014,-9
1605960068.8034,-12
1605960068.8054,-9
1605960068.8074,-9
1605960068.8094,-12
1605960068.8114,-12
1605960068.8134,-14
1605960068.8154,-19
1605960068.8174,-14
1605960068.8180,-2
1605960068.8194,-4
1605960068.8214,-17
1605960068.8234,-14
1605960068.8254,-2
1605960068.8274,-2
1605960068.8294,-12
1605960068.8314,-36
1605960068.8336,-46
1605960068.8355,-26
1605960068.8374,-24
1605960068.8394,-31
1605960068.8414,-17
1605960068.8434,-2
1605960068.8454,-2
1605960068.8474,-4
1605960068.8480,-4
1605960068.8494,-9
1605960068.8514,-17
1605960068.8534,-19
1605960068.8554,-21
1605960068.8574,-58
1605960068.8594,-222
1605960068.8614,-488
1605960068.8634,-434
1605960068.8654,212
1605960068.8676,710
1605960068.8695,380
1605960068.8714,-46
1605960069.3061,-19
1605960069.3069,-12
1605960069.3093,-104
1605960069.3105,-68
1605960069.3121,-36
1605960069.3140,-87
1605960069.3161,-97
1605960069.3181,-73
1605960069.3200,-68
1605960069.3220,-75
1605960069.3240,-80
1605960069.3260,-87
1605960069.3280,-87
1605960069.3300,-78
1605960069.3320,-80
1605960069.3340,-95
1605960069.3360,-102
1605960069.3380,-97
1605960069.3400,-100
1605960069.3406,-114
1605960069.3420,-126
1605960069.3440,-131
1605960069.3460,-139
1605960069.3479,-146
1605960069.3499,-146
1605960069.3519,-144
1605960069.3539,-139
1605960069.3560,-134
1605960069.3579,-124
1605960069.3599,-109
1605960069.3619,-97
1605960069.3639,-75
1605960069.3659,-56
1605960069.3679,-48
1605960069.3699,-36
1605960069.3705,-17
1605960069.3719,-2
1605960069.3739,7
1605960069.3760,19
1605960069.3780,29
1605960069.3799,19
1605960069.3819,9
1605960069.3839,12
1605960069.3860,14
1605960069.3879,12
1605960069.3899,7
1605960069.3919,-7
1605960069.3939,-19
1605960069.3961,-24
1605960069.3980,-19
1605960069.3999,-17
1605960069.4005,-21
1605960069.4019,-17
1605960069.4039,-21
1605960069.4060,-36
1605960069.4079,-34
1605960069.4099,-17
1605960069.4119,-17
1605960069.4140,-24
1605960069.4160,-26
1605960069.4179,-24
1605960069.4199,-24
1605960069.4219,-19
1605960069.4239,-21
1605960069.4259,-29
1605960069.4279,-36
1605960069.4299,-41
1605960069.4306,-36
1605960069.4319,-24
1605960069.4339,-29
1605960069.4359,-41
1605960069.4379,-36
1605960069.4399,-34
1605960069.9060,-34
1605960069.9069,-26
1605960069.9093,-24
1605960069.9120,-43
1605960069.9140,-65
1605960069.9160,-56
1605960069.9181,-46
1605960069.9187,-58
1605960069.9200,-53
1605960069.9220,-34
1605960069.9240,-29
1605960069.9260,-29
1605960069.9279,-26
1605960069.9299,-24
1605960069.9319,-34
1605960069.9339,-39
1605960069.9360,-34
1605960069.9379,-41
1605960069.9399,-112
1605960069.9419,-329
1605960069.9439,-539
1605960069.9459,-256
1605960069.9479,495
1605960069.9485,725
1605960069.9499,202
1605960069.9519,-92
1605960069.9541,7
1605960069.9559,-24
1605960069.9579,-97
1605960069.9599,-65
1605960069.9619,-63
1605960069.9639,-73
1605960069.9659,-43
1605960069.9679,-43
1605960069.9699,-68
1605960069.9719,-68
1605960069.9738,-61
1605960069.9759,-63
1605960069.9779,-68
1605960069.9785,-63
1605960069.9798,-68
1605960069.9819,-83
1605960069.9839,-92
1605960069.9859,-87
1605960069.9879,-85
1605960069.9899,-92
1605960069.9918,-107
1605960069.9938,-119
1605960069.9958,-126
1605960069.9979,-134
1605960069.9999,-139
1605960070.0020,-131
1605960070.0039,-117
1605960070.0059,-104
1605960070.0079,-90
1605960070.0085,-80
1605960070.0099,-78
1605960070.0118,-63
1605960070.0139,-43
1605960070.0159,-24
1605960070.0179,-12
1605960070.0199,-4
1605960070.0219,14
1605960070.0239,36
1605960070.0258,48
1605960070.0278,48
1605960070.0299,41
1605960070.0319,34
1605960070.0339,31
1605960070.0359,24
1605960070.0379,17
1605960070.0385,14
1605960070.0399,7
1605960070.4460,7
1605960070.4469,2
1605960070.4494,-4
1605960070.4520,2
1605960070.4543,0
1605960070.4560,-12
1605960070.4581,-12
1605960070.4600,-2
1605960070.4619,-4
1605960070.4640,-9
1605960070.4660,-7
1605960070.4680,-14
1605960070.4700,-19
1605960070.4706,-7
1605960070.4720,-12
1605960070.4740,-17
1605960070.4760,-4
1605960070.4780,-2
1605960070.4799,-14
1605960070.4820,-17
1605960070.4839,-9
1605960070.4860,-9
1605960070.4879,-14
1605960070.4899,-9
1605960070.4919,-4
1605960070.4940,0
1605960070.4959,4
1605960070.4979,-7
1605960070.4999,-34
1605960070.5006,-36
1605960070.5019,-24
1605960070.5039,-26
1605960070.5059,-29
1605960070.5079,-17
1605960070.5099,-2
1605960070.5119,4
1605960070.5139,9
1605960070.5160,-2
1605960070.5179,-19
1605960070.5199,-14
1605960070.5219,-7
1605960070.5239,-12
1605960070.5260,-34
1605960070.5279,-161
1605960070.5299,-424
1605960070.5306,-500
1605960070.5319,26
1605960070.5339,690
1605960070.5360,568
1605960070.5379,34
1605960070.5399,-61
1605960070.5419,12
1605960070.5439,-68
1605960070.5459,-85
1605960070.5480,-36
1605960070.5501,-43
1605960070.5520,-61
1605960070.5539,-53
1605960070.5560,-56
1605960070.5579,-58
1605960070.5599,-48
1605960070.5606,-53
1605960070.5619,-68
1605960070.5639,-63
1605960070.5659,-56
1605960070.5679,-68
1605960070.5699,-80
1605960070.5719,-80
1605960070.5739,-83
1605960070.5760,-90
1605960070.5779,-95
1605960070.5799,-104
1605960070.5819,-117
1605960071.0161,-119
1605960071.0169,-126
1605960071.0186,-129
1605960071.0210,-114
1605960071.0230,-107
1605960071.0251,-102
1605960071.0270,-92
1605960071.0290,-73
1605960071.0310,-65
1605960071.0330,-65
1605960071.0349,-43
1605960071.0370,-19
1605960071.0389,-9
1605960071.0410,7
1605960071.0430,24
1605960071.0450,34
1605960071.0470,41
1605960071.0490,41
1605960071.0496,31
1605960071.0509,21
1605960071.0530,21
1605960071.0549,24
1605960071.0569,12
1605960071.0589,9
1605960071.0609,7
1605960071.0629,-4
1605960071.0650,-9
1605960071.0669,-2
1605960071.0689,0
1605960071.0709,-9
1605960071.0729,-12
1605960071.0750,-12
1605960071.0769,-19
1605960071.0791,-7
1605960071.0795,7
1605960071.0802,2
1605960071.0819,-9
1605960071.0839,-2
1605960071.0859,4
1605960071.0881,-4
1605960071.0900,-19
1605960071.0919,-14
1605960071.0939,0
1605960071.0959,-4
1605960071.0979,-14
1605960071.0999,-14
1605960071.1020,-12
1605960071.1040,-17
1605960071.1060,-14
1605960071.1065,-7
1605960071.1080,-4
1605960071.1099,-9
1605960071.1119,-12
1605960071.1139,-24
1605960071.1159,-34
1605960071.1179,-31
1605960071.1199,-26
1605960071.1219,-29
1605960071.1239,-21
1605960071.1259,-4
1605960071.1279,4
1605960071.1299,-4
1605960071.1319,-9
1605960071.1339,-9
1605960071.1359,-12
1605960071.1365,-9
1605960071.1379,-9
1605960071.1399,-24
1605960071.1419,-136
1605960071.1440,-395
1605960071.1459,-510
1605960071.1479,-41
1605960071.1499,629
1605960071.5556,576
1605960071.5565,53
1605960071.5589,-61
1605960071.5616,31
1605960071.5635,-34
1605960071.5656,-65
1605960071.5664,-26
1605960071.5676,-36
1605960071.5695,-51
1605960071.5715,-43
1605960071.5735,-53
1605960071.5758,-58
1605960071.5775,-51
1605960071.5795,-56
1605960071.5815,-65
1605960071.5835,-61
1605960071.5855,-53
1605960071.5875,-63
1605960071.5895,-70
1605960071.5915,-75
1605960071.5935,-90
1605960071.5955,-95
1605960071.5961,-92
1605960071.5974,-102
1605960071.5995,-117
1605960071.6015,-119
1605960071.6035,-122
1605960071.6055,-122
1605960071.6075,-117
1605960071.6095,-107
1605960071.6114,-97
1605960071.6135,-83
1605960071.6155,-75
1605960071.6174,-61
1605960071.6194,-41
1605960071.6214,-29
1605960071.6234,-9
1605960071.6254,7
1605960071.6261,14
1605960071.6274,24
1605960071.6294,31
1605960071.6314,39
1605960071.6334,48
1605960071.6355,43
1605960071.6374,31
1605960071.6395,31
1605960071.6414,36
1605960071.6434,29
1605960071.6454,14
1605960071.6474,9
1605960071.6494,7
1605960071.6514,-2
1605960071.6534,-4
1605960071.6554,2
1605960071.6561,-2
1605960071.6574,-9
1605960071.6595,-2
1605960071.6614,2
1605960071.6634,-4
1605960071.6654,-2
1605960071.6674,2
1605960071.6694,0
1605960071.6716,7
1605960071.6735,9
1605960071.6754,-2
1605960071.6774,-2
1605960071.6794,7
1605960071.6814,0
1605960071.6834,-12
1605960071.6855,-2
1605960071.6937,4
1605960071.6955,-7
1605960071.6974,-14
1605960072.0956,-7
1605960072.0965,-4
1605960072.0989,-7
1605960072.1016,-2
1605960072.1036,9
1605960072.1056,4
1605960072.1076,-14
1605960072.1095,-39
1605960072.1115,-48
1605960072.1135,-41
1605960072.1142,-39
1605960072.1155,-36
1605960072.1175,-21
1605960072.1195,-9
1605960072.1215,-9
1605960072.1235,-7
1605960072.1256,0
1605960072.1275,-4
1605960072.1295,-14
1605960072.1315,-26
1605960072.1335,-26
1605960072.1355,-31
1605960072.1375,-173
1605960072.1395,-451
1605960072.1415,-468
1605960072.1435,119
1605960072.1441,690
1605960072.1455,449
1605960072.1475,-19
1605960072.1496,-39
1605960072.1515,7
1605960072.1535,-80
1605960072.1555,-73
1605960072.1575,-31
1605960072.1595,-58
1605960072.1615,-70
1605960072.1635,-43
1605960072.1655,-43
1605960072.1676,-56
1605960072.1696,-51
1605960072.1719,-51
1605960072.1735,-58
1605960072.1742,-65
1605960072.1756,-68
1605960072.1776,-70
1605960072.1796,-83
1605960072.1817,-87
1605960072.1836,-90
1605960072.1856,-100
1605960072.1875,-104
1605960072.1895,-102
1605960072.1915,-112
1605960072.1935,-122
1605960072.1955,-126
1605960072.1974,-126
1605960072.1995,-122
1605960072.2015,-107
1605960072.2035,-92
1605960072.2041,-87
1605960072.2055,-83
1605960072.2075,-75
1605960072.2095,-51
1605960072.2115,-24
1605960072.2135,-12
1605960072.2155,0
1605960072.2175,14
1605960072.2195,19
1605960072.2215,19
1605960072.2234,26
1605960072.2255,36
1605960072.2275,39
1605960072.2295,26
1605960072.2315,12
1605960072.6656,7
1605960072.6663,4
1605960072.6686,0
1605960072.6713,-12
1605960072.6733,-19
1605960072.6754,-29
1605960072.6773,-31
1605960072.6795,-26
1605960072.6813,-29
1605960072.6833,-36
1605960072.6854,-31
1605960072.6873,-26
1605960072.6893,-29
1605960072.6900,-36
1605960072.6913,-34
1605960072.6933,-19
1605960072.6954,-17
1605960072.6973,-29
1605960072.6995,-29
1605960072.7013,-24
1605960072.7033,-29
1605960072.7053,-36
1605960072.7073,-41
1605960072.7093,-43
1605960072.7113,-36
1605960072.7133,-26
1605960072.7153,-34
1605960072.7172,-48
1605960072.7192,-39
1605960072.7199,-26
1605960072.7212,-34
1605960072.7232,-39
1605960072.7253,-36
1605960072.7273,-36
1605960072.7294,-36
1605960072.7313,-36
1605960072.7332,-51
1605960072.7353,-73
1605960072.7372,-65
1605960072.7392,-48
1605960072.7412,-48
1605960072.7432,-46
1605960072.7453,-39
1605960072.7472,-34
1605960072.7493,-29
1605960072.7498,-24
1605960072.7512,-29
1605960072.7532,-36
1605960072.7553,-41
1605960072.7573,-34
1605960072.7593,-29
1605960072.7613,-107
1605960072.7633,-346
1605960072.7653,-549
1605960072.7673,-229
1605960072.7692,510
1605960072.7712,683
1605960072.7733,153
1605960072.7753,-104
1605960072.7772,-2
1605960072.7792,-41
1605960072.7798,-104
1605960072.7812,-58
1605960072.7832,-48
1605960072.7853,-78
1605960072.7872,-68
1605960072.7892,-65
1605960072.7912,-87
1605960072.7932,-85
1605960072.7954,-75
1605960072.7973,-87
1605960072.7992,-92
1605960072.8012,-83
1605960073.2662,-83
1605960073.2674,-97
1605960073.2702,-109
1605960073.2717,-109
1605960073.2735,-114
1605960073.2754,-126
1605960073.2774,-144
1605960073.2794,-153
1605960073.2814,-161
1605960073.2834,-163
1605960073.2854,-161
1605960073.2874,-161
1605960073.2894,-156
1605960073.2915,-146
1605960073.2934,-141
1605960073.2954,-136
1605960073.2974,-117
1605960073.2981,-95
1605960073.2995,-75
1605960073.3014,-56
1605960073.3035,-39
1605960073.3055,-21
1605960073.3074,0
1605960073.3094,17
1605960073.3116,17
1605960073.3135,12
1605960073.3156,21
1605960073.3174,21
1605960073.3197,12
1605960073.3214,9
1605960073.3234,12
1605960073.3254,9
1605960073.3275,-2
1605960073.3280,-14
1605960073.3294,-24
1605960073.3314,-21
1605960073.3334,-17
1605960073.3353,-19
1605960073.3374,-29
1605960073.3394,-31
1605960073.3414,-26
1605960073.3433,-12
1605960073.3453,-12
1605960073.3473,-21
1605960073.3493,-26
1605960073.3514,-19
1605960073.3533,-9
1605960073.3556,-12
1605960073.3574,-24
1605960073.3579,-26
1605960073.3593,-26
1605960073.3613,-24
1605960073.3633,-14
1605960073.3653,-9
1605960073.3673,-7
1605960073.3693,-12
1605960073.3713,-21
1605960073.3733,-17
1605960073.3753,-17
1605960073.3773,-21
1605960073.3793,-21
1605960073.3813,-14
1605960073.3833,-4
1605960073.3853,-7
1605960073.3873,-9
1605960073.3879,-7
1605960073.3893,-21
1605960073.3914,-41
1605960073.3933,-39
1605960073.3953,-29
1605960073.3973,-29
1605960073.3993,-29
1605960073.4013,-9
1605960073.8059,4
1605960073.8068,-7
1605960073.8092,-9
1605960073.8119,-2
1605960073.8138,-4
1605960073.8159,-4
1605960073.8165,-12
1605960073.8179,-26
1605960073.8198,-73
1605960073.8218,-270
1605960073.8238,-532
1605960073.8258,-361
1605960073.8278,373
1605960073.8298,742
1605960073.8318,266
1605960073.8338,-107
1605960073.8358,-14
1605960073.8378,-12
1605960073.8398,-97
1605960073.8418,-70
1605960073.8438,-48
1605960073.8458,-73
1605960073.8464,-65
1605960073.8478,-51
1605960073.8499,-63
1605960073.8519,-68
1605960073.8538,-63
1605960073.8558,-65
1605960073.8577,-68
1605960073.8597,-68
1605960073.8617,-73
1605960073.8637,-75
1605960073.8658,-80
1605960073.8677,-85
1605960073.8697,-90
1605960073.8717,-97
1605960073.8737,-102
1605960073.8758,-112
1605960073.8764,-119
1605960073.8777,-126
1605960073.8797,-136
1605960073.8817,-134
1605960073.8837,-122
1605960073.8858,-114
1605960073.8877,-114
1605960073.8897,-102
1605960073.8917,-73
1605960073.8937,-56
1605960073.8958,-53
1605960073.8977,-34
1605960073.8997,-9
1605960073.9017,2
1605960073.9037,19
1605960073.9058,26
1605960073.9063,29
1605960073.9077,36
1605960073.9097,39
1605960073.9117,34
1605960073.9137,31
1605960073.9157,31
1605960073.9177,14
1605960073.9198,4
1605960073.9218,9
1605960073.9237,2
1605960073.9258,-9
1605960073.9277,-12
1605960073.9297,-4
1605960073.9317,0
1605960073.9337,-4
1605960073.9358,-19
1605960073.9363,-19
1605960073.9377,-12
1605960073.9397,-9
1605960074.3760,-19
1605960074.3769,-26
1605960074.3794,-14
1605960074.3822,-7
1605960074.3840,-9
1605960074.3859,-4
1605960074.3879,-7
1605960074.3899,-26
1605960074.3919,-36
1605960074.3939,-24
1605960074.3960,-17
1605960074.3979,-24
1605960074.3985,-24
1605960074.3999,-21
1605960074.4019,-21
1605960074.4039,-12
1605960074.4059,-12
1605960074.4078,-21
1605960074.4098,-19
1605960074.4118,-12
1605960074.4138,-9
1605960074.4159,-12
1605960074.4178,-17
1605960074.4198,-14
1605960074.4218,-9
1605960074.4238,-9
1605960074.4259,-9
1605960074.4278,-4
1605960074.4284,-2
1605960074.4298,-21
1605960074.4318,-48
1605960074.4338,-41
1605960074.4358,-19
1605960074.4378,-14
1605960074.4398,-17
1605960074.4418,-12
1605960074.4438,-2
1605960074.4459,0
1605960074.4478,2
1605960074.4498,0
1605960074.4518,-7
1605960074.4538,-9
1605960074.4559,-12
1605960074.4578,-14
1605960074.4584,-68
1605960074.4598,-273
1605960074.4618,-507
1605960074.4638,-300
1605960074.4659,410
1605960074.4678,717
1605960074.4698,246
1605960074.4718,-83
1605960074.4738,17
1605960074.4758,9
1605960074.4780,-75
1605960074.4799,-51
1605960074.4818,-31
1605960074.4838,-48
1605960074.4859,-43
1605960074.4878,-36
1605960074.4884,-48
1605960074.4898,-53
1605960074.4918,-36
1605960074.4938,-34
1605960074.4959,-48
1605960074.4978,-56
1605960074.4998,-65
1605960074.5018,-78
1605960074.5038,-73
1605960074.5059,-68
1605960074.5078,-80
1605960074.5098,-102
1605960074.5118,-102
1605960074.9460,-95
1605960074.9468,-109
1605960074.9492,-124
1605960074.9519,-124
1605960074.9539,-119
1605960074.9559,-119
1605960074.9580,-112
1605960074.9599,-100
1605960074.9619,-92
1605960074.9639,-87
1605960074.9660,-73
1605960074.9679,-53
1605960074.9699,-41
1605960074.9719,-21
1605960074.9739,-2
1605960074.9759,9
1605960074.9778,14
1605960074.9785,21
1605960074.9798,26
1605960074.9818,31
1605960074.9838,29
1605960074.9859,21
1605960074.9878,14
1605960074.9898,7
1605960074.9918,4
1605960074.9938,4
1605960074.9959,-9
1605960074.9978,-19
1605960074.9998,-7
1605960075.0019,-7
1605960075.0038,-19
1605960075.0058,-14
1605960075.0080,-12
1605960075.0084,-24
1605960075.0098,-26
1605960075.0118,-7
1605960075.0138,-4
1605960075.0158,-14
1605960075.0178,-9
1605960075.0198,0
1605960075.0218,0
1605960075.0238,0
1605960075.0258,2
1605960075.0278,4
1605960075.0298,2
1605960075.0318,0
1605960075.0338,4
1605960075.0358,7
1605960075.0378,-2
1605960075.0384,-4
1605960075.0398,2
1605960075.0418,4
1605960075.0438,7
1605960075.0458,7
1605960075.0478,4
1605960075.0498,0
1605960075.0518,0
1605960075.0538,9
1605960075.0558,4
1605960075.0578,-12
1605960075.0598,-19
1605960075.0618,-7
1605960075.0638,-2
1605960075.0658,-4
1605960075.0678,-2
1605960075.0684,-2
1605960075.0698,-17
1605960075.0718,-34
1605960075.0738,-39
1605960075.0758,-26
1605960075.0778,-14
1605960075.0798,-19
1605960075.0818,-17
1605960075.4860,-2
1605960075.4869,4
1605960075.4893,7
1605960075.4920,12
1605960075.4940,12
1605960075.4960,2
1605960075.4980,-7
1605960075.5000,-2
1605960075.5007,-12
1605960075.5020,-141
1605960075.5042,-415
1605960075.5060,-500
1605960075.5079,9
1605960075.5099,651
1605960075.5119,527
1605960075.5139,19
1605960075.5159,-53
1605960075.5179,29
1605960075.5199,-48
1605960075.5219,-68
1605960075.5239,-24
1605960075.5259,-46
1605960075.5279,-61
1605960075.5299,-39
1605960075.5305,-41
1605960075.5319,-51
1605960075.5339,-53
1605960075.5359,-53
1605960075.5379,-48
1605960075.5399,-46
1605960075.5419,-58
1605960075.5439,-61
1605960075.5459,-58
1605960075.5479,-63
1605960075.5499,-75
1605960075.5518,-80
1605960075.5539,-87
1605960075.5559,-104
1605960075.5579,-109
1605960075.5585,-104
1605960075.5598,-114
1605960075.5618,-129
1605960075.5638,-119
1605960075.5659,-102
1605960075.5679,-97
1605960075.5699,-95
1605960075.5718,-78
1605960075.5739,-61
1605960075.5759,-48
1605960075.5778,-36
1605960075.5798,-34
1605960075.5819,-24
1605960075.5838,2
1605960075.5859,17
1605960075.5878,14
1605960075.5885,12
1605960075.5899,21
1605960075.5918,29
1605960075.5939,29
1605960075.5959,21
1605960075.5979,12
1605960075.6000,12
1605960075.6019,9
1605960075.6039,0
1605960075.6059,2
1605960075.6078,0
1605960075.6098,-7
1605960075.6118,-2
1605960075.6139,0
1605960075.6159,-4
1605960075.6179,-2
1605960075.6185,0
1605960075.6198,-4
1605960076.0255,-7
1605960076.0263,4
1605960076.0287,12
1605960076.0315,9
1605960076.0334,4
1605960076.0354,2
1605960076.0374,7
1605960076.0393,9
1605960076.0413,-2
1605960076.0434,-2
1605960076.0454,2
1605960076.0461,0
1605960076.0474,-2
1605960076.0495,-2
1605960076.0514,0
1605960076.0533,-2
1605960076.0553,-9
1605960076.0573,-9
1605960076.0593,0
1605960076.0613,4
1605960076.0633,4
1605960076.0654,0
1605960076.0673,-4
1605960076.0693,-2
1605960076.0713,4
1605960076.0733,4
1605960076.0753,-4
1605960076.0759,-4
1605960076.0773,4
1605960076.0793,7
1605960076.0813,-2
1605960076.0833,-21
1605960076.0853,-34
1605960076.0873,-21
1605960076.0893,-12
1605960076.0913,-19
1605960076.0933,-14
1605960076.0953,-4
1605960076.0974,2
1605960076.0994,7
1605960076.1013,9
1605960076.1033,12
1605960076.1054,9
1605960076.1059,-2
1605960076.1074,-17
1605960076.1094,-26
1605960076.1114,-100
1605960076.1133,-332
1605960076.1153,-517
1605960076.1173,-183
1605960076.1193,515
1605960076.1213,637
1605960076.1233,136
1605960076.1253,-63
1605960076.1273,39
1605960076.1293,-21
1605960076.1313,-80
1605960076.1333,-29
1605960076.1353,-36
1605960076.1359,-63
1605960076.1373,-41
1605960076.1393,-36
1605960076.1413,-58
1605960076.1433,-58
1605960076.1453,-41
1605960076.1473,-46
1605960076.1493,-61
1605960076.1513,-63
1605960076.1533,-65
1605960076.1553,-83
1605960076.1573,-85
1605960076.1593,-78
1605960076.1613,-85
1605960076.6256,-100
1605960076.6264,-107
1605960076.6282,-117
1605960076.6302,-131
1605960076.6322,-146
1605960076.6342,-161
1605960076.6362,-161
1605960076.6382,-148
1605960076.6402,-141
1605960076.6422,-126
1605960076.6442,-112
1605960076.6462,-109
1605960076.6482,-97
1605960076.6502,-70
1605960076.6522,-46
1605960076.6542,-31
1605960076.6548,-17
1605960076.6563,-7
1605960076.6581,-2
1605960076.6601,9
1605960076.6621,17
1605960076.6641,14
1605960076.6661,14
1605960076.6681,17
1605960076.6701,4
1605960076.6721,-9
1605960076.6741,-12
1605960076.6761,-9
1605960076.6781,-14
1605960076.6801,-19
1605960076.6821,-19
1605960076.6841,-19
1605960076.6847,-19
1605960076.6862,-12
1605960076.6881,-9
1605960076.6901,-19
1605960076.6921,-29
1605960076.6941,-34
1605960076.6961,-26
1605960076.6981,-24
1605960076.7001,-31
1605960076.7021,-24
1605960076.7041,-14
1605960076.7061,-14
1605960076.7081,-21
1605960076.7101,-21
1605960076.7121,-14
1605960076.7141,-9
1605960076.7147,-12
1605960076.7161,-12
1605960076.7181,-17
1605960076.7201,-17
1605960076.7221,-19
1605960076.7241,-26
1605960076.7261,-24
1605960076.7281,-21
1605960076.7301,-14
1605960076.7321,-9
1605960076.7341,-9
1605960076.7361,-21
1605960076.7381,-31
1605960076.7401,-26
1605960076.7421,-17
1605960076.7441,-14
1605960076.7447,-9
1605960076.7461,-17
1605960076.7481,-26
1605960076.7501,-34
1605960076.7523,-53
1605960076.7541,-56
1605960076.7561,-36
1605960076.7581,-39
1605960076.7601,-53
1605960077.1960,-39
1605960077.1968,-21
1605960077.1992,-24
1605960077.2010,-26
1605960077.2029,-17
1605960077.2050,-17
1605960077.2069,-21
1605960077.2076,-24
1605960077.2090,-34
1605960077.2109,-58
1605960077.2129,-185
1605960077.2150,-461
1605960077.2169,-546
1605960077.2189,-7
1605960077.2209,661
1605960077.2229,524
1605960077.2250,-2
1605960077.2269,-75
1605960077.2289,-2
1605960077.2309,-87
1605960077.2329,-95
1605960077.2349,-48
1605960077.2368,-73
1605960077.2375,-95
1605960077.2388,-78
1605960077.2408,-78
1605960077.2428,-95
1605960077.2449,-92
1605960077.2468,-85
1605960077.2488,-109
1605960077.2508,-119
1605960077.2528,-100
1605960077.2549,-102
1605960077.2568,-124
1605960077.2588,-131
1605960077.2608,-131
1605960077.2628,-146
1605960077.2649,-158
1605960077.2668,-158
1605960077.2674,-161
1605960077.2688,-180
1605960077.2708,-187
1605960077.2728,-180
1605960077.2748,-170
1605960077.2769,-168
1605960077.2788,-163
1605960077.2810,-148
1605960077.2829,-129
1605960077.2849,-114
1605960077.2868,-97
1605960077.2888,-80
1605960077.2908,-61
1605960077.2928,-41
1605960077.2949,-26
1605960077.2968,-7
1605960077.2974,4
1605960077.2988,7
1605960077.3008,12
1605960077.3028,17
1605960077.3049,14
1605960077.3068,19
1605960077.3088,24
1605960077.3108,7
1605960077.3128,-12
1605960077.3135,-9
1605960077.3149,-7
1605960077.3168,-17
1605960077.3188,-19
1605960077.3208,-21
1605960077.3228,-26
1605960077.3234,-21
1605960077.3249,-17
1605960077.3268,-17
1605960077.7659,-9
1605960077.7667,-2
1605960077.7692,-9
1605960077.7718,-21
1605960077.7738,-7
1605960077.7758,14
1605960077.7779,19
1605960077.7798,12
1605960077.7817,2
1605960077.7837,-9
1605960077.7844,-19
1605960077.7857,-19
1605960077.7878,-14
1605960077.7898,-7
1605960077.7918,-4
1605960077.7937,-14
1605960077.7958,-17
1605960077.7977,-7
1605960077.7998,-4
1605960077.8018,-9
1605960077.8037,-17
1605960077.8057,-31
1605960077.8077,-39
1605960077.8097,-21
1605960077.8119,-7
1605960077.8138,-9
1605960077.8143,-26
1605960077.8157,-53
1605960077.8177,-63
1605960077.8197,-46
1605960077.8217,-41
1605960077.8237,-36
1605960077.8258,-14
1605960077.8277,0
1605960077.8297,-14
1605960077.8317,-26
1605960077.8337,-31
1605960077.8357,-26
1605960077.8377,-12
1605960077.8397,-19
1605960077.8417,-39
1605960077.8437,-68
1605960077.8443,-209
1605960077.8457,-463
1605960077.8477,-419
1605960077.8497,234
1605960077.8517,759
1605960077.8537,415
1605960077.8557,-56
1605960077.8577,-36
1605960077.8597,-7
1605960077.8617,-114
1605960077.8637,-90
1605960077.8657,-24
1605960077.8677,-46
1605960077.8697,-70
1605960077.8717,-58
1605960077.8737,-56
1605960077.8743,-61
1605960077.8757,-56
1605960077.8777,-68
1605960077.8797,-83
1605960077.8817,-83
1605960077.8837,-75
1605960077.8857,-73
1605960077.8877,-75
1605960077.8897,-87
1605960077.8917,-92
1605960077.8937,-95
1605960077.8957,-100
1605960077.8977,-112
1605960077.8997,-134
1605960077.9017,-151
1605960078.2759,-163
1605960078.2769,-168
1605960078.2786,-151
1605960078.2802,-126
1605960078.2822,-114
1605960078.2842,-119
1605960078.2862,-117
1605960078.2882,-80
1605960078.2902,-46
1605960078.2922,-43
1605960078.2942,-39
1605960078.2962,-14
1605960078.2981,2
1605960078.3001,0
1605960078.3021,4
1605960078.3041,14
1605960078.3061,12
1605960078.3067,17
1605960078.3081,24
1605960078.3101,17
1605960078.3121,7
1605960078.3141,-2
1605960078.3161,-4
1605960078.3181,-9
1605960078.3201,-21
1605960078.3221,-31
1605960078.3241,-24
1605960078.3261,-12
1605960078.3281,-19
1605960078.3301,-21
1605960078.3321,-9
1605960078.3341,-14
1605960078.3361,-21
1605960078.3367,-17
1605960078.3380,-7
1605960078.3401,-2
1605960078.3420,-2
1605960078.3441,-7
1605960078.3461,0
1605960078.3481,7
1605960078.3500,2
1605960078.3520,-4
1605960078.3541,-7
1605960078.3560,-2
1605960078.3580,-4
1605960078.3601,-9
1605960078.3620,-4
1605960078.3640,-4
1605960078.3661,4
1605960078.3667,7
1605960078.3680,-7
1605960078.3701,-4
1605960078.3721,4
1605960078.3742,2
1605960078.3761,2
1605960078.3781,-2
1605960078.3800,-4
1605960078.3820,-7
1605960078.3841,-19
1605960078.3861,-34
1605960078.3880,-39
1605960078.3901,-17
1605960078.3920,2
1605960078.3940,-4
1605960078.3961,-2
1605960078.3967,7
1605960078.3980,4
1605960078.4001,0
1605960078.4020,-12
1605960078.4040,-21
1605960078.4061,-12
1605960078.4081,-26
1605960078.4100,-175
1605960078.8461,-444
1605960078.8471,-454
1605960078.8495,119
1605960078.8522,671
1605960078.8542,429
1605960078.8561,-43
1605960078.8567,-58
1605960078.8581,4
1605960078.8601,-90
1605960078.8621,-95
1605960078.8641,-39
1605960078.8661,-61
1605960078.8681,-80
1605960078.8701,-70
1605960078.8721,-65
1605960078.8740,-68
1605960078.8760,-68
1605960078.8781,-70
1605960078.8800,-80
1605960078.8820,-80
1605960078.8841,-63
1605960078.8860,-68
1605960078.8867,-85
1605960078.8880,-85
1605960078.8900,-95
1605960078.8920,-112
1605960078.8940,-112
1605960078.8960,-109
1605960078.8980,-126
1605960078.9000,-144
1605960078.9020,-144
1605960078.9042,-144
1605960078.9061,-156
1605960078.9081,-153
1605960078.9100,-129
1605960078.9120,-107
1605960078.9140,-104
1605960078.9161,-102
1605960078.9167,-87
1605960078.9180,-63
1605960078.9200,-48
1605960078.9220,-31
1605960078.9240,-7
1605960078.9260,17
1605960078.9280,17
1605960078.9301,12
1605960078.9320,9
1605960078.9340,9
1605960078.9361,14
1605960078.9380,14
1605960078.9400,0
1605960078.9420,-7
1605960078.9440,-7
1605960078.9462,-12
1605960078.9466,-7
1605960078.9480,-9
1605960078.9500,-29
1605960078.9520,-34
1605960078.9540,-17
1605960078.9560,-12
1605960078.9580,-29
1605960078.9600,-21
1605960078.9620,-2
1605960078.9640,-24
1605960078.9661,-39
1605960078.9680,-14
1605960078.9700,0
1605960078.9720,-9
1605960078.9740,-19
1605960078.9761,-19
1605960078.9766,-19
1605960078.9780,-19
1605960078.9800,-4
1605960079.3861,-7
1605960079.3870,-29
1605960079.3895,-34
1605960079.3921,-21
1605960079.3941,-17
1605960079.3961,-29
1605960079.3983,-41
1605960079.4002,-43
1605960079.4021,-41
1605960079.4044,-43
1605960079.4061,-39
1605960079.4067,-24
1605960079.4081,-17
1605960079.4100,-24
1605960079.4122,-31
1605960079.4141,-19
1605960079.4160,-31
1605960079.4180,-61
1605960079.4200,-65
1605960079.4220,-48
1605960079.4240,-36
1605960079.4260,-29
1605960079.4280,-26
1605960079.4300,-21
1605960079.4320,-21
1605960079.4340,-39
1605960079.4360,-41
1605960079.4366,-9
1605960079.4380,-9
1605960079.4400,-41
1605960079.4420,-17
1605960079.4440,-56
1605960079.4460,-305
1605960079.4480,-537
1605960079.4500,-275
1605960079.4520,407
1605960079.4540,627
1605960079.4560,173
1605960079.4580,-87
