,hr,rr,ecg,gsr,temperature
1602839686.8345,62.0,1069.0,290.0,436.00000000000006,36.31
1602839686.837,62.0,1069.0,1411.0,436.00000000000006,36.31
1602839686.8396,62.0,1069.0,3411.0,436.00000000000006,36.31
1602839686.8422,62.0,1069.0,4934.0,436.00000000000006,36.31
1602839686.844,62.0,1069.0,5759.0,436.00000000000006,36.31
1602839686.846,62.0,1069.0,6662.0,436.00000000000006,36.31
1602839686.848,62.0,1069.0,7544.0,436.00000000000006,36.31
1602839686.8501,62.0,1069.0,8161.0,436.00000000000006,36.31
1602839686.852,62.0,1069.0,8727.0,436.00000000000006,36.31
1602839686.8542,62.0,1069.0,9279.0,436.00000000000006,36.31
1602839686.8562,62.0,1069.0,9718.0,436.00000000000006,36.31
1602839686.8582,62.0,1069.0,10117.0,436.00000000000006,36.31
1602839686.8604,62.0,1069.0,10507.0,436.00000000000006,36.31
1602839686.8625,62.0,1069.0,10831.0,436.00000000000006,36.31
1602839686.864,62.0,1069.0,11119.0,436.00000000000006,36.31
1602839686.866,62.0,1069.0,11405.0,436.00000000000006,36.31
1602839686.868,62.0,1069.0,11662.0,436.00000000000006,36.31
1602839686.87,62.0,1069.0,11884.0,436.00000000000006,36.31
1602839686.872,62.0,1069.0,12093.0,436.00000000000006,36.31
1602839686.874,62.0,1069.0,12279.0,436.00000000000006,36.31
1602839686.876,62.0,1069.0,12441.0,436.00000000000006,36.31
1602839686.878,62.0,1069.0,12584.0,436.00000000000006,36.31
1602839686.88,62.0,1069.0,12712.0,436.00000000000006,36.31
1602839686.882,62.0,1069.0,12838.0,436.00000000000006,36.31
1602839686.884,62.0,1069.0,12945.0,436.0,36.31
1602839686.886,62.0,1069.0,13027.0,436.0,36.31
1602839686.888,62.0,1069.0,13090.0,436.0,36.31
1602839686.89,62.0,1069.0,13156.0,436.0,36.31
1602839686.892,62.0,1069.0,13209.0,436.0,36.31
1602839686.8939,62.0,1069.0,13250.0,436.0,36.31
1602839686.8959,62.0,1069.0,13301.0,436.0,36.31
1602839686.8979,62.0,1069.0,13364.0,436.0,36.31
1602839686.9,62.0,1069.0,13398.0,436.0,36.31
1602839686.9019,62.0,1069.0,13405.0,436.0,36.31
1602839686.9039,62.0,1069.0,13434.0,436.0,36.31
1602839686.9059,62.0,1069.0,13475.0,436.0,36.31
1602839686.9079,62.0,1069.0,13480.0,436.0,36.31
1602839686.9099,62.0,1069.0,13475.0,436.0,36.31
1602839686.9119,62.0,1069.0,13482.0,436.0,36.31
1602839686.9139,62.0,1069.0,13480.0,436.0,36.31
1602839686.9159,62.0,1069.0,13463.0,436.0,36.31
1602839686.9179,62.0,1069.0,13465.0,436.0,36.31
1602839686.92,62.0,1069.0,13470.0,436.0,36.31
1602839686.9219,62.0,1069.0,13446.0,436.0,36.31
1602839686.9242,62.0,1069.0,13415.0,436.0,36.31
1602839686.9259,62.0,1069.0,13400.0,436.0,36.31
1602839686.9279,62.0,1069.0,13376.0,436.0,36.31
1602839686.9299,62.0,1069.0,13325.0,436.0,36.31
1602839686.9319,62.0,1069.0,13281.0,436.0,36.31
1602839686.9338,62.0,1069.0,13243.0,436.0,36.31
1602839686.9366,62.0,1069.0,13199.0,435.9999999999377,36.31
1602839686.9379,62.0,1069.0,13156.0,435.9999999999377,36.31
1602839686.9398,62.0,1069.0,13100.0,435.9999999999377,36.31
1602839686.9419,62.0,1069.0,13042.0,435.9999999999377,36.31
1602839686.9439,62.0,1069.0,12996.0,435.9999999999377,36.31
1602839686.9458,62.0,1069.0,12942.0,435.9999999999377,36.31
1602839686.9478,62.0,1069.0,12872.0,435.9999999999377,36.31
1602839686.9499,62.0,1069.0,12797.0,435.9999999999377,36.31
1602839686.9518,62.0,1069.0,12737.0,435.9999999999377,36.31
1602839686.9538,62.0,1069.0,12688.0,435.9999999999377,36.31
1602839686.9558,62.0,1069.0,12611.0,435.9999999999377,36.31
1602839686.9578,62.0,1069.0,12514.0,435.9999999999377,36.31
1602839686.9598,62.0,1069.0,12446.0,435.9999999999377,36.31
1602839686.962,62.0,1069.0,12381.0,435.9999999999377,36.31
1602839686.9638,62.0,1069.0,12296.0,435.9999999999377,36.31
1602839686.9658,62.0,1069.0,12214.0,435.9999999999377,36.31
1602839686.9678,62.0,1069.0,12153.0,435.9999999999377,36.31
1602839686.9698,62.0,1069.0,12095.0,435.9999999999377,36.31
1602839686.9718,62.0,1069.0,12013.0,435.9999999999377,36.31
1602839686.9739,62.0,1069.0,11914.0,435.9999999999377,36.31
1602839686.9759,62.0,1069.0,11826.0,435.9999999999377,36.31
1602839686.9778,62.0,1069.0,11749.0,435.9999999999377,36.31
1602839686.9798,62.0,1069.0,11664.0,435.9999999999377,36.31
1602839687.4023,61.0,1098.0,11584.0,435.9999999999377,36.31
1602839687.4034,61.0,1098.0,11509.0,435.9999999999377,36.31
1602839687.4058,61.0,1098.0,11420.0,435.9999999999377,36.31
1602839687.4085,61.0,1098.0,11320.0,435.9999999999377,36.31
1602839687.4104,61.0,1098.0,11240.0,435.9999999999377,36.31
1602839687.4125,61.0,1098.0,11168.0,435.9999999999377,36.31
1602839687.4146,61.0,1098.0,11071.0,435.9999999999377,36.31
1602839687.4164,61.0,1098.0,10967.0,435.9999999999377,36.31
1602839687.4184,61.0,1098.0,10882.0,435.9999999999377,36.31
1602839687.4204,61.0,1098.0,10814.0,435.9999999999377,36.31
1602839687.4225,61.0,1098.0,10727.0,435.9999999999377,36.31
1602839687.4244,61.0,1098.0,10601.0,435.9999999999377,36.31
1602839687.4265,61.0,1098.0,10502.0,435.9999999999377,36.31
1602839687.4284,61.0,1098.0,10429.0,435.9999999999377,36.31
1602839687.4304,61.0,1098.0,10325.0,435.9999999999377,36.31
1602839687.4324,61.0,1098.0,10231.0,435.9999999999377,36.31
1602839687.4344,61.0,1098.0,10161.0,435.9999999999377,36.31
1602839687.4364,61.0,1098.0,10066.0,435.9999999999377,36.31
1602839687.4384,61.0,1098.0,9962.0,435.9999999999377,36.31
1602839687.4404,61.0,1098.0,9877.0,435.9999999999377,36.31
1602839687.4425,61.0,1098.0,9785.0,435.9999999999377,36.31
1602839687.4444,61.0,1098.0,9686.0,435.9999999999377,36.31
1602839687.4464,61.0,1098.0,9604.0,435.9999999999377,36.31
1602839687.4484,61.0,1098.0,9522.0,435.9999999999377,36.31
1602839687.4504,61.0,1098.0,9434.0,435.9999999999377,36.31
1602839687.4524,61.0,1098.0,9345.0,435.9999999999377,36.31
1602839687.4543,61.0,1098.0,9246.0,435.9999999999377,36.31
1602839687.4564,61.0,1098.0,9146.0,435.9999999999377,36.31
1602839687.4642,61.0,1098.0,9081.0,435.9999999999377,36.31
1602839687.4654,61.0,1098.0,9023.0,435.9999999999377,36.31
1602839687.4673,61.0,1098.0,8931.0,435.9999999999377,36.31
1602839687.4693,61.0,1098.0,8829.0,435.9999999999377,36.31
1602839687.4713,61.0,1098.0,8742.0,435.9999999999377,36.31
1602839687.4734,61.0,1098.0,8655.0,435.9999999999377,36.31
1602839687.4754,61.0,1098.0,8556.0,435.9999999999377,36.31
1602839687.4773,61.0,1098.0,8456.0,435.9999999999377,36.31
1602839687.4793,61.0,1098.0,8367.0,435.9999999999377,36.31
1602839687.4813,61.0,1098.0,8287.0,435.9999999999377,36.31
1602839687.4834,61.0,1098.0,8209.0,435.9999999999377,36.31
1602839687.4853,61.0,1098.0,8129.0,435.9999999999377,36.31
1602839687.4873,61.0,1098.0,8037.0,435.9999999999377,36.31
1602839687.4893,61.0,1098.0,7941.0,435.9999999999377,36.31
1602839687.4913,61.0,1098.0,7856.0,435.9999999999377,36.31
1602839687.4934,61.0,1098.0,7776.0,435.9999999999377,36.31
1602839687.4953,61.0,1098.0,7698.0,435.9999999999377,36.31
1602839687.4973,61.0,1098.0,7718.0,435.9999999999377,36.31
1602839687.4994,61.0,1098.0,7887.0,435.9999999999377,36.31
1602839687.5013,61.0,1098.0,7953.0,435.9999999999377,36.31
1602839687.5033,61.0,1098.0,7507.0,435.9999999999377,36.31
1602839687.5053,61.0,1098.0,6863.0,435.9999999999377,36.31
1602839687.5073,61.0,1098.0,6824.0,435.9999999999377,36.31
1602839687.5093,61.0,1098.0,7120.0,435.9999999999377,36.31
1602839687.5114,61.0,1098.0,7081.0,435.9999999999377,36.31
1602839687.5134,61.0,1098.0,6936.0,435.9999999999377,36.31
1602839687.5153,61.0,1098.0,6926.0,435.9999999999377,36.31
1602839687.5174,61.0,1098.0,6870.0,435.9999999999377,36.31
1602839687.5193,61.0,1098.0,6759.0,435.9999999999377,36.31
1602839687.5214,61.0,1098.0,6689.0,435.9999999999377,36.31
1602839687.5233,61.0,1098.0,6631.0,435.9999999999377,36.31
1602839687.5253,61.0,1098.0,6551.0,435.9999999999377,36.31
1602839687.5273,61.0,1098.0,6481.0,435.9999999999377,36.31
1602839687.5293,61.0,1098.0,6420.0,435.9999999999377,36.31
1602839687.5313,61.0,1098.0,6348.0,435.9999999999377,36.31
1602839687.5334,61.0,1098.0,6277.0,435.9999999999377,36.31
1602839687.5354,61.0,1098.0,6212.0,435.9999999999377,36.31
1602839687.5374,61.0,1098.0,6142.0,435.9999999999377,36.31
1602839687.5393,61.0,1098.0,6076.0,435.9999999999377,36.31
1602839687.5413,61.0,1098.0,6016.0,435.9999999999377,36.31
1602839687.5434,61.0,1098.0,5950.0,435.9999999999377,36.31
1602839687.5453,61.0,1098.0,5885.0,435.9999999999377,36.31
1602839687.5473,61.0,1098.0,5832.0,435.9999999999377,36.31
1602839687.5493,61.0,1098.0,5781.0,435.9999999999377,36.31
1602839687.5513,61.0,1098.0,5718.0,435.9999999999377,36.31
1602839687.9425,61.0,1024.0,5626.0,435.9999999999377,36.31
1602839687.9431,61.0,1024.0,5544.0,435.9999999999377,36.31
1602839687.9445,61.0,1024.0,5503.0,435.9999999999377,36.31
1602839687.9464,61.0,1024.0,5457.0,435.9999999999377,36.31
1602839687.9485,61.0,1024.0,5389.0,435.9999999999377,36.31
1602839687.9505,61.0,1024.0,5333.0,435.9999999999377,36.31
1602839687.9527,61.0,1024.0,5294.0,435.9999999999377,36.31
1602839687.9545,61.0,1024.0,5246.0,435.9999999999377,36.31
1602839687.9564,61.0,1024.0,5185.0,435.9999999999377,36.31
1602839687.9584,61.0,1024.0,5132.0,435.9999999999377,36.31
1602839687.9604,61.0,1024.0,5084.0,435.9999999999377,36.31
1602839687.9625,61.0,1024.0,5023.0,435.9999999999377,36.31
1602839687.9644,61.0,1024.0,4936.0,435.9999999999377,36.31
1602839687.9664,61.0,1024.0,4861.0,435.9999999999377,36.31
1602839687.9684,61.0,1024.0,4803.0,435.9999999999377,36.31
1602839687.9704,61.0,1024.0,4745.0,435.9999999999377,36.31
1602839687.9725,61.0,1024.0,4672.0,435.9999999999377,36.31
1602839687.9744,61.0,1024.0,4592.0,435.9999999999377,36.31
1602839687.9764,61.0,1024.0,4508.0,435.9999999999377,36.31
1602839687.9784,61.0,1024.0,4425.0,435.9999999999377,36.31
1602839687.9804,61.0,1024.0,4362.0,435.9999999999377,36.31
1602839687.9824,61.0,1024.0,4309.0,435.9999999999377,36.31
1602839687.9844,61.0,1024.0,4258.0,435.9999999999377,36.31
1602839687.9864,61.0,1024.0,4205.0,435.9999999999377,36.31
1602839687.9884,61.0,1024.0,4159.0,435.9999999999377,36.31
1602839687.9904,61.0,1024.0,4118.0,435.9999999999377,36.31
1602839687.9925,61.0,1024.0,4072.0,435.9999999999377,36.31
1602839687.9944,61.0,1024.0,4026.0,435.9999999999377,36.31
1602839687.9964,61.0,1024.0,3985.0,435.9999999999377,36.31
1602839687.9985,61.0,1024.0,3936.0,435.9999999999377,36.31
1602839688.0004,61.0,1024.0,3885.0,435.9999999999377,36.31
1602839688.0024,61.0,1024.0,3839.0,435.9999999999377,36.31
1602839688.0044,61.0,1024.0,3793.0,435.9999999999377,36.31
1602839688.0064,61.0,1024.0,3742.0,435.9999999999377,36.31
1602839688.0084,61.0,1024.0,3699.0,435.9999999999377,36.31
1602839688.0104,61.0,1024.0,3660.0,435.9999999999377,36.31
1602839688.0126,61.0,1024.0,3609.0,435.9999999999377,36.31
1602839688.0144,61.0,1024.0,3566.0,435.9999999999377,36.31
1602839688.0164,61.0,1024.0,3542.0,435.9999999999377,36.31
1602839688.0184,61.0,1024.0,3510.0,435.9999999999377,36.31
1602839688.0205,61.0,1024.0,3464.0,435.9999999999377,36.31
1602839688.0225,61.0,1024.0,3411.0,435.9999999999377,36.31
1602839688.0244,61.0,1024.0,3362.0,435.9999999999377,36.31
1602839688.0264,61.0,1024.0,3316.0,435.9999999999377,36.31
1602839688.0284,61.0,1024.0,3275.0,435.9999999999377,36.31
1602839688.0305,61.0,1024.0,3244.0,435.9999999999377,36.31
1602839688.0324,61.0,1024.0,3210.0,435.9999999999377,36.31
1602839688.0344,61.0,1024.0,3169.0,435.9999999999377,36.31
1602839688.0364,61.0,1024.0,3135.0,435.9999999999377,36.31
1602839688.0385,61.0,1024.0,3106.0,435.9999999999377,36.31
1602839688.0404,61.0,1024.0,3065.0,435.9999999999377,36.31
1602839688.0425,61.0,1024.0,3031.0,435.9999999999377,36.31
1602839688.0444,61.0,1024.0,3004.0,435.9999999999377,36.31
1602839688.0464,61.0,1024.0,2965.0,435.9999999999377,36.31
1602839688.0484,61.0,1024.0,2927.0,435.9999999999377,36.31
1602839688.0504,61.0,1024.0,2893.0,435.9999999999377,36.31
1602839688.0525,61.0,1024.0,2859.0,435.9999999999377,36.31
1602839688.0546,61.0,1024.0,2827.0,435.9999999999377,36.31
1602839688.0564,61.0,1024.0,2789.0,435.9999999999377,36.31
1602839688.0584,61.0,1024.0,2757.0,435.9999999999377,36.31
1602839688.0604,61.0,1024.0,2738.0,435.9999999999377,36.31
1602839688.0625,61.0,1024.0,2704.0,435.9999999999377,36.31
1602839688.0644,61.0,1024.0,2655.0,435.9999999999377,36.31
1602839688.0664,61.0,1024.0,2626.0,435.9999999999377,36.31
1602839688.0684,61.0,1024.0,2605.0,435.9999999999377,36.31
1602839688.0704,61.0,1024.0,2571.0,435.9999999999377,36.31
1602839688.0725,61.0,1024.0,2539.0,435.9999999999377,36.31
1602839688.0744,61.0,1024.0,2513.0,435.9999999999377,36.31
1602839688.0764,61.0,1024.0,2491.0,435.9999999999377,36.31
1602839688.0784,61.0,1024.0,2469.0,435.9999999999377,36.31
1602839688.0804,61.0,1024.0,2440.0,435.9999999999377,36.31
1602839688.0824,61.0,1024.0,2406.0,435.9999999999377,36.31
1602839688.0844,61.0,1024.0,2379.0,435.9999999999377,36.31
1602839688.4818,61.0,1024.0,2350.0,435.9999999999377,36.31
1602839688.4829,61.0,1024.0,2314.0,435.9999999999377,36.31
1602839688.4853,61.0,1024.0,2285.0,435.9999999999377,36.31
1602839688.4879,61.0,1024.0,2266.0,435.9999999999377,36.31
1602839688.49,61.0,1024.0,2241.0,435.9999999999377,36.31
1602839688.4919,61.0,1024.0,2208.0,435.9999999999377,36.31
1602839688.4939,61.0,1024.0,2186.0,435.9999999999377,36.31
1602839688.4959,61.0,1024.0,2159.0,435.9999999999377,36.31
1602839688.4979,61.0,1024.0,2123.0,435.9999999999377,36.31
1602839688.4999,61.0,1024.0,2091.0,435.9999999999377,36.31
1602839688.5019,61.0,1024.0,2070.0,435.9999999999377,36.31
1602839688.5038,61.0,1024.0,2053.0,435.9999999999377,36.31
1602839688.5059,61.0,1024.0,2028.0,435.9999999999377,36.31
1602839688.5079,61.0,1024.0,2002.0,435.9999999999377,36.31
1602839688.5098,61.0,1024.0,1985.0,435.9999999999377,36.31
1602839688.5118,61.0,1024.0,1965.0,435.9999999999377,36.31
1602839688.5139,61.0,1024.0,1936.0,435.9999999999377,36.31
1602839688.5158,61.0,1024.0,1912.0,435.9999999999377,36.31
1602839688.5178,61.0,1024.0,1907.0,435.9999999999377,36.31
1602839688.5198,61.0,1024.0,1900.0,435.9999999999377,36.31
1602839688.5218,61.0,1024.0,1886.0,435.9999999999377,36.31
1602839688.5239,61.0,1024.0,1864.0,435.9999999999377,36.31
1602839688.5258,61.0,1024.0,1827.0,435.9999999999377,36.31
1602839688.5278,61.0,1024.0,1801.0,435.9999999999377,36.31
1602839688.5299,61.0,1024.0,1789.0,435.9999999999377,36.31
1602839688.5318,61.0,1024.0,1764.0,435.9999999999377,36.31
1602839688.5338,61.0,1024.0,1731.0,435.9999999999377,36.31
1602839688.5358,61.0,1024.0,1702.0,435.9999999999377,36.31
1602839688.5378,61.0,1024.0,1685.0,435.9999999999377,36.31
1602839688.5398,61.0,1024.0,1663.0,435.9999999999377,36.31
1602839688.5419,61.0,1024.0,1634.0,435.9999999999377,36.31
1602839688.5438,61.0,1024.0,1607.0,435.9999999999377,36.31
1602839688.5458,61.0,1024.0,1602.0,435.9999999999377,36.31
1602839688.5478,61.0,1024.0,1597.0,435.9999999999377,36.31
1602839688.5499,61.0,1024.0,1576.0,435.9999999999377,36.31
1602839688.552,61.0,1024.0,1576.0,435.9999999999377,36.31
1602839688.5539,61.0,1024.0,1711.0,435.9999999999377,36.31
1602839688.5558,61.0,1024.0,1975.0,435.9999999999377,36.31
1602839688.5578,61.0,1024.0,1982.0,435.9999999999377,36.31
1602839688.5599,61.0,1024.0,1409.0,435.9999999999377,36.31
1602839688.5618,61.0,1024.0,907.0,435.9999999999377,36.31
1602839688.5639,61.0,1024.0,1147.0,435.9999999999377,36.31
1602839688.5658,61.0,1024.0,1474.0,435.9999999999377,36.31
1602839688.5678,61.0,1024.0,1406.0,435.9999999999377,36.31
1602839688.5698,61.0,1024.0,1380.0,435.9999999999377,36.31
1602839688.5718,61.0,1024.0,1459.0,435.9999999999377,36.31
1602839688.5738,61.0,1024.0,1416.0,435.9999999999377,36.31
1602839688.5758,61.0,1024.0,1367.0,435.9999999999377,36.31
1602839688.5778,61.0,1024.0,1389.0,435.9999999999377,36.31
1602839688.5798,61.0,1024.0,1370.0,435.9999999999377,36.31
1602839688.5818,61.0,1024.0,1321.0,435.9999999999377,36.31
1602839688.5838,61.0,1024.0,1314.0,435.9999999999377,36.31
1602839688.5858,61.0,1024.0,1346.0,435.9999999999377,36.31
1602839688.5878,61.0,1024.0,1346.0,435.9999999999377,36.31
1602839688.5898,61.0,1024.0,1288.0,435.9999999999377,36.31
1602839688.5918,61.0,1024.0,1251.0,435.9999999999377,36.31
1602839688.5939,61.0,1024.0,1263.0,435.9999999999377,36.31
1602839688.5958,61.0,1024.0,1268.0,435.9999999999377,36.31
1602839688.5978,61.0,1024.0,1256.0,435.9999999999377,36.31
1602839688.5998,61.0,1024.0,1234.0,435.9999999999377,36.31
1602839688.6018,61.0,1024.0,1212.0,435.9999999999377,36.31
1602839688.6038,61.0,1024.0,1222.0,435.9999999999377,36.31
1602839688.6058,61.0,1024.0,1234.0,435.9999999999377,36.31
1602839688.6078,61.0,1024.0,1217.0,435.9999999999377,36.31
1602839688.6098,61.0,1024.0,1181.0,435.9999999999377,36.31
1602839688.6118,61.0,1024.0,1169.0,435.9999999999377,36.31
1602839688.6139,61.0,1024.0,1200.0,435.9999999999377,36.31
1602839688.6158,61.0,1024.0,1227.0,435.9999999999377,36.31
1602839688.6178,61.0,1024.0,1203.0,435.9999999999377,36.31
1602839688.6198,61.0,1024.0,1164.0,435.9999999999377,36.31
1602839688.6218,61.0,1024.0,1159.0,435.9999999999377,36.31
1602839688.6238,61.0,1024.0,1169.0,435.9999999999377,36.31
1602839688.6258,61.0,1024.0,1159.0,435.9999999999377,36.31
1602839689.0526,61.0,1054.0,1152.0,435.9999999999377,36.31
1602839689.0534,61.0,1054.0,1142.0,435.9999999999377,36.31
1602839689.0558,61.0,1054.0,1111.0,435.9999999999377,36.31
1602839689.0584,61.0,1054.0,1082.0,435.9999999999377,36.31
1602839689.0604,61.0,1054.0,1074.0,435.9999999999377,36.31
1602839689.0625,61.0,1054.0,1065.0,435.9999999999377,36.31
1602839689.0645,61.0,1054.0,1024.0,435.9999999999377,36.31
1602839689.0664,61.0,1054.0,982.0,435.9999999999377,36.31
1602839689.0684,61.0,1054.0,963.0,435.9999999999377,36.31
1602839689.0704,61.0,1054.0,922.0,435.9999999999377,36.31
1602839689.0725,61.0,1054.0,866.0,435.9999999999377,36.31
1602839689.0743,61.0,1054.0,864.0,435.9999999999377,36.31
1602839689.0763,61.0,1054.0,900.0,435.9999999999377,36.31
1602839689.0785,61.0,1054.0,890.0,435.9999999999377,36.31
1602839689.0804,61.0,1054.0,840.0,435.9999999999377,36.31
1602839689.0824,61.0,1054.0,813.0,435.9999999999377,36.31
1602839689.0844,61.0,1054.0,811.0,435.9999999999377,36.31
1602839689.0864,61.0,1054.0,779.0,435.9999999999377,36.31
1602839689.0883,61.0,1054.0,765.0,435.9999999999377,36.31
1602839689.0903,61.0,1054.0,813.0,435.9999999999377,36.31
1602839689.0924,61.0,1054.0,818.0,435.9999999999377,36.31
1602839689.0943,61.0,1054.0,765.0,435.9999999999377,36.31
1602839689.0964,61.0,1054.0,755.0,435.9999999999377,36.31
1602839689.0983,61.0,1054.0,779.0,435.9999999999377,36.31
1602839689.1003,61.0,1054.0,784.0,435.9999999999377,36.31
1602839689.1024,61.0,1054.0,774.0,435.9999999999377,36.31
1602839689.1043,61.0,1054.0,762.0,435.9999999999377,36.31
1602839689.1063,61.0,1054.0,752.0,435.9999999999377,36.31
1602839689.1083,61.0,1054.0,750.0,435.9999999999377,36.31
1602839689.1103,61.0,1054.0,738.0,435.9999999999377,36.31
1602839689.1124,61.0,1054.0,736.0,435.9999999999377,36.31
1602839689.1144,61.0,1054.0,762.0,435.9999999999377,36.31
1602839689.1163,61.0,1054.0,738.0,435.9999999999377,36.31
1602839689.1184,61.0,1054.0,690.0,435.9999999999377,36.31
1602839689.1203,61.0,1054.0,706.0,435.9999999999377,36.31
1602839689.1224,61.0,1054.0,723.0,435.9999999999377,36.31
1602839689.1243,61.0,1054.0,687.0,435.9999999999377,36.31
1602839689.1263,61.0,1054.0,665.0,435.9999999999377,36.31
1602839689.1283,61.0,1054.0,697.0,435.9999999999377,36.31
1602839689.1303,61.0,1054.0,731.0,435.9999999999377,36.31
1602839689.1324,61.0,1054.0,714.0,435.9999999999377,36.31
1602839689.1343,61.0,1054.0,673.0,435.9999999999377,36.31
1602839689.1364,61.0,1054.0,665.0,435.9999999999377,36.31
1602839689.1383,61.0,1054.0,675.0,435.9999999999377,36.31
1602839689.1403,61.0,1054.0,656.0,435.9999999999377,36.31
1602839689.1424,61.0,1054.0,644.0,435.9999999999377,36.31
1602839689.1443,61.0,1054.0,663.0,435.9999999999377,36.31
1602839689.1463,61.0,1054.0,660.0,435.9999999999377,36.31
1602839689.1483,61.0,1054.0,631.0,435.9999999999377,36.31
1602839689.1503,61.0,1054.0,631.0,435.9999999999377,36.31
1602839689.1524,61.0,1054.0,644.0,435.9999999999377,36.31
1602839689.1544,61.0,1054.0,622.0,435.9999999999377,36.31
1602839689.1564,61.0,1054.0,605.0,435.9999999999377,36.31
1602839689.1583,61.0,1054.0,598.0,435.9999999999377,36.31
1602839689.1603,61.0,1054.0,583.0,435.9999999999377,36.31
1602839689.1624,61.0,1054.0,593.0,435.9999999999377,36.31
1602839689.1644,61.0,1054.0,617.0,435.9999999999377,36.31
1602839689.1664,61.0,1054.0,631.0,435.9999999999377,36.31
1602839689.1683,61.0,1054.0,648.0,435.9999999999377,36.31
1602839689.1703,61.0,1054.0,629.0,435.9999999999377,36.31
1602839689.1724,61.0,1054.0,571.0,435.9999999999377,36.31
1602839689.1743,61.0,1054.0,559.0,435.9999999999377,36.31
1602839689.1764,61.0,1054.0,578.0,435.9999999999377,36.31
1602839689.1783,61.0,1054.0,566.0,435.9999999999377,36.31
1602839689.1805,61.0,1054.0,535.0,435.9999999999377,36.31
1602839689.1824,61.0,1054.0,530.0,435.9999999999377,36.31
1602839689.1843,61.0,1054.0,544.0,435.9999999999377,36.31
1602839689.1863,61.0,1054.0,544.0,435.9999999999377,36.31
1602839689.1884,61.0,1054.0,542.0,435.9999999999377,36.31
1602839689.1903,61.0,1054.0,561.0,435.9999999999377,36.31
1602839689.1924,61.0,1054.0,564.0,435.9999999999377,36.31
1602839689.1943,61.0,1054.0,535.0,435.9999999999377,36.31
1602839689.1964,61.0,1054.0,522.0,435.9999999999377,36.31
1602839689.6223,61.0,1054.0,549.0,435.9999999999377,36.31
1602839689.6231,61.0,1054.0,554.0,435.9999999999377,36.31
1602839689.6248,61.0,1054.0,520.0,435.9999999999377,36.31
1602839689.6268,61.0,1054.0,491.0,435.9999999999377,36.31
1602839689.6288,61.0,1054.0,493.0,435.9999999999377,36.31
1602839689.6308,61.0,1054.0,518.0,435.9999999999377,36.31
1602839689.6328,61.0,1054.0,530.0,435.9999999999377,36.31
1602839689.6348,61.0,1054.0,503.0,435.9999999999377,36.31
1602839689.6368,61.0,1054.0,486.0,435.9999999999377,36.31
1602839689.6388,61.0,1054.0,498.0,435.9999999999377,36.31
1602839689.6408,61.0,1054.0,486.0,435.9999999999377,36.31
1602839689.6428,61.0,1054.0,469.0,435.9999999999377,36.31
1602839689.6447,61.0,1054.0,491.0,435.9999999999377,36.31
1602839689.6467,61.0,1054.0,510.0,435.9999999999377,36.31
1602839689.6487,61.0,1054.0,472.0,435.9999999999377,36.31
1602839689.6507,61.0,1054.0,426.0,435.9999999999377,36.31
1602839689.6528,61.0,1054.0,426.0,435.9999999999377,36.31
1602839689.6547,61.0,1054.0,435.0,435.9999999999377,36.31
1602839689.6567,61.0,1054.0,438.0,435.9999999999377,36.31
1602839689.6587,61.0,1054.0,450.0,435.9999999999377,36.31
1602839689.6607,61.0,1054.0,457.0,435.9999999999377,36.31
1602839689.6628,61.0,1054.0,452.0,435.9999999999377,36.31
1602839689.6647,61.0,1054.0,450.0,435.9999999999377,36.31
1602839689.6668,61.0,1054.0,438.0,435.9999999999377,36.31
1602839689.6687,61.0,1054.0,430.0,435.9999999999377,36.31
1602839689.6707,61.0,1054.0,535.0,435.9999999999377,36.31
1602839689.6728,61.0,1054.0,796.0,435.9999999999377,36.31
1602839689.6748,61.0,1054.0,941.0,435.9999999999377,36.31
1602839689.6768,61.0,1054.0,549.0,435.9999999999377,36.31
1602839689.6788,61.0,1054.0,-38.0,435.9999999999377,36.31
1602839689.6808,61.0,1054.0,-7.0,435.9999999999377,36.31
1602839689.6828,61.0,1054.0,394.0,435.9999999999377,36.31
1602839689.6848,61.0,1054.0,457.0,435.9999999999377,36.31
1602839689.6867,61.0,1054.0,370.0,435.9999999999377,36.31
1602839689.6888,61.0,1054.0,418.0,435.9999999999377,36.31
1602839689.6908,61.0,1054.0,445.0,435.9999999999377,36.31
1602839689.6928,61.0,1054.0,423.0,435.9999999999377,36.31
1602839689.6948,61.0,1054.0,428.0,435.9999999999377,36.31
1602839689.6968,61.0,1054.0,433.0,435.9999999999377,36.31
1602839689.6987,61.0,1054.0,428.0,435.9999999999377,36.31
1602839689.7008,61.0,1054.0,433.0,435.9999999999377,36.31
1602839689.7028,61.0,1054.0,421.0,435.9999999999377,36.31
1602839689.7049,61.0,1054.0,404.0,435.9999999999377,36.31
1602839689.7068,61.0,1054.0,416.0,435.9999999999377,36.31
1602839689.7088,61.0,1054.0,426.0,435.9999999999377,36.31
1602839689.7108,61.0,1054.0,406.0,435.9999999999377,36.31
1602839689.7128,61.0,1054.0,397.0,435.9999999999377,36.31
1602839689.7148,61.0,1054.0,406.0,435.9999999999377,36.31
1602839689.7168,61.0,1054.0,399.0,435.9999999999377,36.31
1602839689.7188,61.0,1054.0,384.0,435.9999999999377,36.31
1602839689.7207,61.0,1054.0,401.0,435.9999999999377,36.31
1602839689.7228,61.0,1054.0,416.0,435.9999999999377,36.31
1602839689.7248,61.0,1054.0,414.0,435.9999999999377,36.31
1602839689.7268,61.0,1054.0,423.0,435.9999999999377,36.31
1602839689.7288,61.0,1054.0,430.0,435.9999999999377,36.31
1602839689.7308,61.0,1054.0,416.0,435.9999999999377,36.31
1602839689.7328,61.0,1054.0,418.0,435.9999999999377,36.31
1602839689.7347,61.0,1054.0,433.0,435.9999999999377,36.31
1602839689.7368,61.0,1054.0,428.0,435.9999999999377,36.31
1602839689.7388,61.0,1054.0,433.0,435.9999999999377,36.31
1602839689.7407,61.0,1054.0,447.0,435.9999999999377,36.31
1602839689.7427,61.0,1054.0,435.0,435.9999999999377,36.31
1602839689.7448,61.0,1054.0,426.0,435.9999999999377,36.31
1602839689.7468,61.0,1054.0,452.0,435.9999999999377,36.31
1602839689.7488,61.0,1054.0,462.0,435.9999999999377,36.31
1602839689.7508,61.0,1054.0,426.0,435.9999999999377,36.31
1602839689.7528,61.0,1054.0,392.0,435.9999999999377,36.31
1602839689.7548,61.0,1054.0,387.0,435.9999999999377,36.31
1602839689.7568,61.0,1054.0,384.0,435.9999999999377,36.31
1602839689.7588,61.0,1054.0,351.0,435.9999999999377,36.31
1602839689.7607,61.0,1054.0,324.0,435.9999999999377,36.31
1602839689.7628,61.0,1054.0,329.0,435.9999999999377,36.31
1602839689.7648,61.0,1054.0,324.0,435.9999999999377,36.31
1602839690.1927,60.0,1072.0,290.0,435.9999999999377,36.31
1602839690.1936,60.0,1072.0,268.0,435.9999999999377,36.31
1602839690.196,60.0,1072.0,263.0,435.9999999999377,36.31
1602839690.1987,60.0,1072.0,242.0,435.9999999999377,36.31
1602839690.2007,60.0,1072.0,230.0,435.9999999999377,36.31
1602839690.2027,60.0,1072.0,249.0,435.9999999999377,36.31
1602839690.2047,60.0,1072.0,256.0,435.9999999999377,36.31
1602839690.2067,60.0,1072.0,242.0,435.9999999999377,36.31
1602839690.2086,60.0,1072.0,246.0,435.9999999999377,36.31
1602839690.2107,60.0,1072.0,254.0,435.9999999999377,36.31
1602839690.2126,60.0,1072.0,232.0,435.9999999999377,36.31
1602839690.2146,60.0,1072.0,213.0,435.9999999999377,36.31
1602839690.2167,60.0,1072.0,217.0,435.9999999999377,36.31
1602839690.2186,60.0,1072.0,234.0,435.9999999999377,36.31
1602839690.2206,60.0,1072.0,266.0,435.9999999999377,36.31
1602839690.2226,60.0,1072.0,271.0,435.9999999999377,36.31
1602839690.2246,60.0,1072.0,246.0,435.9999999999377,36.31
1602839690.2266,60.0,1072.0,259.0,435.9999999999377,36.31
1602839690.2286,60.0,1072.0,273.0,435.9999999999377,36.31
1602839690.2306,60.0,1072.0,256.0,435.9999999999377,36.31
1602839690.2327,60.0,1072.0,263.0,435.9999999999377,36.31
1602839690.2346,60.0,1072.0,292.0,435.9999999999377,36.31
1602839690.2366,60.0,1072.0,276.0,435.9999999999377,36.31
1602839690.2386,60.0,1072.0,234.0,435.9999999999377,36.31
1602839690.2406,60.0,1072.0,225.0,435.9999999999377,36.31
1602839690.2426,60.0,1072.0,244.0,435.9999999999377,36.31
1602839690.2446,60.0,1072.0,239.0,435.9999999999377,36.31
1602839690.2466,60.0,1072.0,200.0,435.9999999999377,36.31
1602839690.2486,60.0,1072.0,196.0,435.9999999999377,36.31
1602839690.2506,60.0,1072.0,239.0,435.9999999999377,36.31
1602839690.2526,60.0,1072.0,254.0,435.9999999999377,36.31
1602839690.2546,60.0,1072.0,217.0,435.9999999999377,36.31
1602839690.2566,60.0,1072.0,213.0,435.9999999999377,36.31
1602839690.2586,60.0,1072.0,288.0,435.9999999999377,36.31
1602839690.2606,60.0,1072.0,360.0,435.9999999999377,36.31
1602839690.2625,60.0,1072.0,309.0,435.9999999999377,36.31
1602839690.2646,60.0,1072.0,152.0,435.9999999999377,36.31
1602839690.2667,60.0,1072.0,106.0,435.9999999999377,36.31
1602839690.2686,60.0,1072.0,215.0,435.9999999999377,36.31
1602839690.2706,60.0,1072.0,261.0,435.9999999999377,36.31
1602839690.2726,60.0,1072.0,198.0,435.9999999999377,36.31
1602839690.2746,60.0,1072.0,193.0,435.9999999999377,36.31
1602839690.2766,60.0,1072.0,261.0,435.9999999999377,36.31
1602839690.2786,60.0,1072.0,254.0,435.9999999999377,36.31
1602839690.2806,60.0,1072.0,198.0,435.9999999999377,36.31
1602839690.2826,60.0,1072.0,213.0,435.9999999999377,36.31
1602839690.2846,60.0,1072.0,237.0,435.9999999999377,36.31
1602839690.2866,60.0,1072.0,234.0,435.9999999999377,36.31
1602839690.2886,60.0,1072.0,266.0,435.9999999999377,36.31
1602839690.2906,60.0,1072.0,266.0,435.9999999999377,36.31
1602839690.2926,60.0,1072.0,242.0,435.9999999999377,36.31
1602839690.2946,60.0,1072.0,222.0,435.9999999999377,36.31
1602839690.2966,60.0,1072.0,196.0,435.9999999999377,36.31
1602839690.2986,60.0,1072.0,239.0,435.9999999999377,36.31
1602839690.3006,60.0,1072.0,261.0,435.9999999999377,36.31
1602839690.3026,60.0,1072.0,138.0,435.9999999999377,36.31
1602839690.3046,60.0,1072.0,106.0,435.9999999999377,36.31
1602839690.3066,60.0,1072.0,246.0,435.9999999999377,36.31
1602839690.3086,60.0,1072.0,244.0,435.9999999999377,36.31
1602839690.3106,60.0,1072.0,179.0,435.9999999999377,36.31
1602839690.3126,60.0,1072.0,263.0,435.9999999999377,36.31
1602839690.3146,60.0,1072.0,285.0,435.9999999999377,36.31
1602839690.3166,60.0,1072.0,191.0,435.9999999999377,36.31
1602839690.3186,60.0,1072.0,196.0,435.9999999999377,36.31
1602839690.3206,60.0,1072.0,305.0,435.9999999999377,36.31
1602839690.3226,60.0,1072.0,312.0,435.9999999999377,36.31
1602839690.3246,60.0,1072.0,254.0,435.9999999999377,36.31
1602839690.3266,60.0,1072.0,271.0,435.9999999999377,36.31
1602839690.3286,60.0,1072.0,244.0,435.9999999999377,36.31
1602839690.3306,60.0,1072.0,200.0,435.9999999999377,36.31
1602839690.3325,60.0,1072.0,171.0,435.9999999999377,36.31
1602839690.3347,60.0,1072.0,159.0,435.9999999999377,36.31
1602839690.3367,60.0,1072.0,215.0,435.9999999999377,36.31
1602839690.7624,60.0,1072.0,234.0,435.9999999999377,36.31
1602839690.7633,60.0,1072.0,222.0,435.9999999999377,36.31
1602839690.7657,60.0,1072.0,261.0,435.9999999999377,36.31
1602839690.7684,60.0,1072.0,297.0,435.9999999999377,36.31
1602839690.7704,60.0,1072.0,273.0,435.9999999999377,36.31
1602839690.7724,60.0,1072.0,200.0,435.9999999999377,36.31
1602839690.7744,60.0,1072.0,154.0,435.9999999999377,36.31
1602839690.7763,60.0,1072.0,186.0,435.9999999999377,36.31
1602839690.7783,60.0,1072.0,198.0,435.9999999999377,36.31
1602839690.7804,60.0,1072.0,232.0,435.9999999999377,36.31
1602839690.7824,60.0,1072.0,297.0,435.9999999999377,36.31
1602839690.7843,60.0,1072.0,213.0,435.9999999999377,36.31
1602839690.7864,60.0,1072.0,159.0,435.9999999999377,36.31
1602839690.7883,60.0,1072.0,377.0,435.9999999999377,36.31
1602839690.7903,60.0,1072.0,670.0,435.9999999999377,36.31
1602839690.7924,60.0,1072.0,605.0,435.9999999999377,36.31
1602839690.7942,60.0,1072.0,62.0,435.9999999999377,36.31
1602839690.7962,60.0,1072.0,-375.0,435.9999999999377,36.31
1602839690.7983,60.0,1072.0,-217.0,435.9999999999377,36.31
1602839690.8002,60.0,1072.0,237.0,435.9999999999377,36.31
1602839690.8023,60.0,1072.0,307.0,435.9999999999377,36.31
1602839690.8043,60.0,1072.0,26.0,435.9999999999377,36.31
1602839690.8062,60.0,1072.0,108.0,435.9999999999377,36.31
1602839690.8082,60.0,1072.0,365.0,435.9999999999377,36.31
1602839690.8103,60.0,1072.0,254.0,435.9999999999377,36.31
1602839690.8124,60.0,1072.0,116.0,435.9999999999377,36.31
1602839690.8143,60.0,1072.0,271.0,435.9999999999377,36.31
1602839690.8162,60.0,1072.0,387.0,435.9999999999377,36.31
1602839690.8183,60.0,1072.0,210.0,435.9999999999377,36.31
1602839690.8204,60.0,1072.0,94.0,435.9999999999377,36.31
1602839690.8223,60.0,1072.0,193.0,435.9999999999377,36.31
1602839690.8243,60.0,1072.0,87.0,435.9999999999377,36.31
1602839690.8262,60.0,1072.0,-4.0,435.9999999999377,36.31
1602839690.8283,60.0,1072.0,246.0,435.9999999999377,36.31
1602839690.8303,60.0,1072.0,355.0,435.9999999999377,36.31
1602839690.8323,60.0,1072.0,208.0,435.9999999999377,36.31
1602839690.8342,60.0,1072.0,205.0,435.9999999999377,36.31
1602839690.8362,60.0,1072.0,326.0,435.9999999999377,36.31
1602839690.8383,60.0,1072.0,326.0,435.9999999999377,36.31
1602839690.8402,60.0,1072.0,152.0,435.9999999999377,36.31
1602839690.8424,60.0,1072.0,58.0,435.9999999999377,36.31
1602839690.8443,60.0,1072.0,215.0,435.9999999999377,36.31
1602839690.8463,60.0,1072.0,380.0,435.9999999999377,36.31
1602839690.8482,60.0,1072.0,331.0,435.9999999999377,36.31
1602839690.8503,60.0,1072.0,213.0,435.9999999999377,36.31
1602839690.8524,60.0,1072.0,210.0,435.9999999999377,36.31
1602839690.8543,60.0,1072.0,246.0,435.9999999999377,36.31
1602839690.8563,60.0,1072.0,251.0,435.9999999999377,36.31
1602839690.8582,60.0,1072.0,292.0,435.9999999999377,36.31
1602839690.8605,60.0,1072.0,372.0,435.9999999999377,36.31
1602839690.8624,60.0,1072.0,338.0,435.9999999999377,36.31
1602839690.8642,60.0,1072.0,254.0,435.9999999999377,36.31
1602839690.8663,60.0,1072.0,334.0,435.9999999999377,36.31
1602839690.8683,60.0,1072.0,329.0,435.9999999999377,36.31
1602839690.8703,60.0,1072.0,111.0,435.9999999999377,36.31
1602839690.8723,60.0,1072.0,108.0,435.9999999999377,36.31
1602839690.8743,60.0,1072.0,261.0,435.9999999999377,36.31
1602839690.8763,60.0,1072.0,205.0,435.9999999999377,36.31
1602839690.8783,60.0,1072.0,92.0,435.9999999999377,36.31
1602839690.8803,60.0,1072.0,82.0,435.9999999999377,36.31
1602839690.8824,60.0,1072.0,174.0,435.9999999999377,36.31
1602839690.8843,60.0,1072.0,314.0,435.9999999999377,36.31
1602839690.8863,60.0,1072.0,256.0,435.9999999999377,36.31
1602839690.8884,60.0,1072.0,-46.0,435.9999999999377,36.31
1602839690.8903,60.0,1072.0,-87.0,435.9999999999377,36.31
1602839690.8924,60.0,1072.0,222.0,435.9999999999377,36.31
1602839690.8943,60.0,1072.0,174.0,435.9999999999377,36.31
1602839690.8963,60.0,1072.0,-111.0,435.9999999999377,36.31
1602839690.8983,60.0,1072.0,4.0,435.9999999999377,36.31
1602839690.9003,60.0,1072.0,145.0,435.9999999999377,36.31
1602839690.9024,60.0,1072.0,94.0,435.9999999999377,36.31
1602839690.9043,60.0,1072.0,164.0,435.9999999999377,36.31
1602839690.9063,60.0,1072.0,230.0,435.9999999999377,36.31
1602839691.363,60.0,1076.0,145.0,435.9999999999377,36.31
1602839691.3647,60.0,1076.0,58.0,435.9999999999377,36.31
1602839691.3671,60.0,1076.0,60.0,435.9999999999377,36.31
1602839691.3698,60.0,1076.0,123.0,435.9999999999377,36.31
1602839691.3718,60.0,1076.0,191.0,435.9999999999377,36.31
1602839691.3736,60.0,1076.0,208.0,435.9999999999377,36.31
1602839691.3758,60.0,1076.0,130.0,435.9999999999377,36.31
1602839691.3776,60.0,1076.0,43.0,435.9999999999377,36.31
1602839691.3796,60.0,1076.0,96.0,435.9999999999377,36.31
1602839691.3816,60.0,1076.0,176.0,435.9999999999377,36.31
1602839691.3836,60.0,1076.0,167.0,435.9999999999377,36.31
1602839691.3856,60.0,1076.0,140.0,435.9999999999377,36.31
1602839691.3877,60.0,1076.0,128.0,435.9999999999377,36.31
1602839691.3896,60.0,1076.0,133.0,435.9999999999377,36.31
1602839691.3916,60.0,1076.0,113.0,435.9999999999377,36.31
1602839691.3935,60.0,1076.0,79.0,435.9999999999377,36.31
1602839691.3955,60.0,1076.0,94.0,435.9999999999377,36.31
1602839691.3976,60.0,1076.0,135.0,435.9999999999377,36.31
1602839691.3995,60.0,1076.0,135.0,435.9999999999377,36.31
1602839691.4015,60.0,1076.0,121.0,435.9999999999377,36.31
1602839691.4035,60.0,1076.0,147.0,435.9999999999377,36.31
1602839691.4055,60.0,1076.0,135.0,435.9999999999377,36.31
1602839691.4076,60.0,1076.0,94.0,435.9999999999377,36.31
1602839691.4095,60.0,1076.0,125.0,435.9999999999377,36.31
1602839691.4115,60.0,1076.0,184.0,435.9999999999377,36.31
1602839691.4135,60.0,1076.0,162.0,435.9999999999377,36.31
1602839691.4155,60.0,1076.0,108.0,435.9999999999377,36.31
1602839691.4177,60.0,1076.0,108.0,435.9999999999377,36.31
1602839691.4182,60.0,1076.0,130.0,435.9999999999377,36.31
1602839691.4195,60.0,1076.0,135.0,435.9999999999377,36.31
1602839691.4215,60.0,1076.0,128.0,435.9999999999377,36.31
1602839691.4235,60.0,1076.0,118.0,435.9999999999377,36.31
1602839691.4255,60.0,1076.0,142.0,435.9999999999377,36.31
1602839691.4275,60.0,1076.0,171.0,435.9999999999377,36.31
1602839691.4295,60.0,1076.0,128.0,435.9999999999377,36.31
1602839691.4315,60.0,1076.0,62.0,435.9999999999377,36.31
1602839691.4336,60.0,1076.0,77.0,435.9999999999377,36.31
1602839691.4355,60.0,1076.0,169.0,435.9999999999377,36.31
1602839691.4375,60.0,1076.0,205.0,435.9999999999377,36.31
1602839691.4396,60.0,1076.0,121.0,435.9999999999377,36.31
1602839691.4416,60.0,1076.0,125.0,435.9999999999377,36.31
1602839691.4435,60.0,1076.0,256.0,435.9999999999377,36.31
1602839691.4455,60.0,1076.0,208.0,435.9999999999377,36.31
1602839691.4475,60.0,1076.0,50.0,435.9999999999377,36.31
1602839691.4482,60.0,1076.0,113.0,435.9999999999377,36.31
1602839691.4495,60.0,1076.0,239.0,435.9999999999377,36.31
1602839691.4515,60.0,1076.0,220.0,435.9999999999377,36.31
1602839691.4535,60.0,1076.0,181.0,435.9999999999377,36.31
1602839691.4555,60.0,1076.0,111.0,435.9999999999377,36.31
1602839691.4575,60.0,1076.0,43.0,435.9999999999377,36.31
1602839691.4595,60.0,1076.0,113.0,435.9999999999377,36.31
1602839691.4615,60.0,1076.0,181.0,435.9999999999377,36.31
1602839691.4636,60.0,1076.0,152.0,435.9999999999377,36.31
1602839691.4655,60.0,1076.0,152.0,435.9999999999377,36.31
1602839691.4675,60.0,1076.0,169.0,435.9999999999377,36.31
1602839691.4695,60.0,1076.0,196.0,435.9999999999377,36.31
1602839691.4715,60.0,1076.0,230.0,435.9999999999377,36.31
1602839691.4736,60.0,1076.0,142.0,435.9999999999377,36.31
1602839691.4755,60.0,1076.0,33.0,435.9999999999377,36.31
1602839691.4775,60.0,1076.0,130.0,435.9999999999377,36.31
1602839691.4782,60.0,1076.0,370.0,435.9999999999377,36.31
1602839691.4795,60.0,1076.0,593.0,435.9999999999377,36.31
1602839691.4815,60.0,1076.0,549.0,435.9999999999377,36.31
1602839691.4836,60.0,1076.0,-21.0,435.9999999999377,36.31
1602839691.4855,60.0,1076.0,-481.0,435.9999999999377,36.31
1602839691.4875,60.0,1076.0,-72.0,435.9999999999377,36.31
1602839691.4895,60.0,1076.0,443.0,435.9999999999377,36.31
1602839691.4915,60.0,1076.0,135.0,435.9999999999377,36.31
1602839691.4935,60.0,1076.0,-230.0,435.9999999999377,36.31
1602839691.4955,60.0,1076.0,106.0,435.9999999999377,36.31
1602839691.4975,60.0,1076.0,348.0,435.9999999999377,36.31
1602839691.4995,60.0,1076.0,140.0,435.9999999999377,36.31
1602839691.5015,60.0,1076.0,121.0,435.9999999999377,36.31
1602839691.8717,60.0,1076.0,244.0,435.9999999999377,36.31
1602839691.8723,60.0,1076.0,198.0,435.9999999999377,36.31
1602839691.8747,60.0,1076.0,222.0,435.9999999999377,36.31
1602839691.8759,60.0,1076.0,355.0,435.9999999999377,36.31
1602839691.8774,60.0,1076.0,246.0,435.9999999999377,36.31
1602839691.8796,60.0,1076.0,24.0,435.9999999999377,36.31
1602839691.8814,60.0,1076.0,96.0,435.9999999999377,36.31
1602839691.8835,60.0,1076.0,256.0,435.9999999999377,36.31
1602839691.8854,60.0,1076.0,193.0,435.9999999999377,36.31
1602839691.8874,60.0,1076.0,113.0,435.9999999999377,36.31
1602839691.8894,60.0,1076.0,147.0,435.9999999999377,36.31
1602839691.8914,60.0,1076.0,193.0,435.9999999999377,36.31
1602839691.8934,60.0,1076.0,222.0,435.9999999999377,36.31
1602839691.8954,60.0,1076.0,266.0,435.9999999999377,36.31
1602839691.8973,60.0,1076.0,377.0,435.9999999999377,36.31
1602839691.8994,60.0,1076.0,324.0,435.9999999999377,36.31
1602839691.9014,60.0,1076.0,16.0,435.9999999999377,36.31
1602839691.9034,60.0,1076.0,26.0,435.9999999999377,36.31
1602839691.9054,60.0,1076.0,300.0,435.9999999999377,36.31
1602839691.906,60.0,1076.0,307.0,435.9999999999377,36.31
1602839691.9074,60.0,1076.0,196.0,435.9999999999377,36.31
1602839691.9093,60.0,1076.0,200.0,435.9999999999377,36.31
1602839691.9113,60.0,1076.0,232.0,435.9999999999377,36.31
1602839691.9134,60.0,1076.0,246.0,435.9858694606702,36.31
1602839691.9153,60.0,1076.0,266.0,435.9731808131647,36.31
1602839691.9173,60.0,1076.0,268.0,435.9619049282946,36.31
1602839691.9194,60.0,1076.0,266.0,435.9520126769336,36.31
1602839691.9214,60.0,1076.0,312.0,435.94347492995496,36.31
1602839691.9234,60.0,1076.0,292.0,435.9362625582324,36.31
1602839691.9254,60.0,1076.0,147.0,435.9303464326392,36.31
1602839691.9273,60.0,1076.0,99.0,435.925697424049,36.31
1602839691.9294,60.0,1076.0,167.0,435.9222864033353,36.31
1602839691.9314,60.0,1076.0,142.0,435.92008424137157,36.31
1602839691.9334,60.0,1076.0,77.0,435.91906180903123,36.31
1602839691.9353,60.0,1076.0,108.0,435.91918997718784,36.31
1602839691.936,60.0,1076.0,150.0,435.92043961671493,36.31
1602839691.9374,60.0,1076.0,130.0,435.9227815984859,36.31
1602839691.9393,60.0,1076.0,96.0,435.9261867933743,36.31
1602839691.9413,60.0,1076.0,70.0,435.9306260722537,36.31
1602839691.9434,60.0,1076.0,123.0,435.9360703059974,36.31
1602839691.9453,60.0,1076.0,176.0,435.9424903654791,36.31
1602839691.9474,60.0,1076.0,67.0,435.9498571215722,36.31
1602839691.9494,60.0,1076.0,-9.0,435.9581414451502,36.31
1602839691.9513,60.0,1076.0,84.0,435.9673142070866,36.31
1602839691.9534,60.0,1076.0,135.0,435.97734627825486,36.31
1602839691.9553,60.0,1076.0,104.0,435.98820852952855,36.31
1602839691.9573,60.0,1076.0,101.0,435.9998718317811,36.31
1602839691.9594,60.0,1076.0,116.0,436.012307055886,36.31
1602839691.9613,60.0,1076.0,92.0,436.02548507271683,36.31
1602839691.9633,60.0,1076.0,72.0,436.039376753147,36.31
1602839691.9653,60.0,1076.0,118.0,436.05395296805006,36.31
1602839691.966,60.0,1076.0,171.0,436.06918458829944,36.31
1602839691.9673,60.0,1076.0,162.0,436.0850424847687,36.31
1602839691.9693,60.0,1076.0,135.0,436.1014975283313,36.31
1602839691.9714,60.0,1076.0,133.0,436.11852058986074,36.31
1602839691.9734,60.0,1076.0,125.0,436.1360825402306,36.31
1602839691.9755,60.0,1076.0,108.0,436.15415425031415,36.31
1602839691.9774,60.0,1076.0,96.0,436.1727065909851,36.31
1602839691.9794,60.0,1076.0,79.0,436.1917104331169,36.31
1602839691.9814,60.0,1076.0,75.0,436.21113664758303,36.31
1602839691.9834,60.0,1076.0,106.0,436.23095610525695,36.31
1602839691.9854,60.0,1076.0,125.0,436.2511396770122,36.31
1602839691.9873,60.0,1076.0,113.0,436.27165823372223,36.31
1602839691.9893,60.0,1076.0,123.0,436.29248264626057,36.31
1602839691.9913,60.0,1076.0,118.0,436.3135837855007,36.31
1602839691.9934,60.0,1076.0,79.0,436.33493252231614,36.31
1602839691.9953,60.0,1076.0,92.0,436.35649972758034,36.31
1602839691.996,60.0,1076.0,130.0,436.3782562721668,36.31
1602839691.9973,60.0,1076.0,130.0,436.40017302694906,36.31
1602839691.9993,60.0,1076.0,123.0,436.4222208628006,36.31
1602839692.0013,60.0,1076.0,135.0,436.4443706505949,36.31
1602839692.0034,60.0,1076.0,145.0,436.46659326120545,36.31
1602839692.0053,60.0,1076.0,113.0,436.4888595655058,36.31
1602839692.4127,60.0,1065.0,84.0,436.51114043436934,36.31
1602839692.4136,60.0,1065.0,108.0,436.53340673866967,36.31
1602839692.416,60.0,1065.0,121.0,436.55562934928025,36.31
1602839692.4187,60.0,1065.0,101.0,436.5777791370746,36.31
1602839692.4206,60.0,1065.0,108.0,436.59982697292605,36.31
1602839692.4227,60.0,1065.0,130.0,436.62174372770835,36.31
1602839692.4232,60.0,1065.0,130.0,436.6435002722949,36.31
1602839692.4246,60.0,1065.0,121.0,436.6650674775591,36.31
1602839692.4266,60.0,1065.0,113.0,436.6864162143745,36.31
1602839692.4286,60.0,1065.0,118.0,436.70751735361455,36.31
1602839692.4306,60.0,1065.0,154.0,436.7283417661529,36.31
1602839692.4325,60.0,1065.0,176.0,436.7488603228629,36.31
1602839692.4345,60.0,1065.0,142.0,436.7690438946181,36.31
1602839692.4365,60.0,1065.0,101.0,436.7888633522921,36.31
1602839692.4385,60.0,1065.0,92.0,436.80828956675816,36.31
1602839692.4405,60.0,1065.0,118.0,436.82729340889,36.31
1602839692.4425,60.0,1065.0,130.0,436.8458457495609,36.31
1602839692.4445,60.0,1065.0,125.0,436.86391745964454,36.31
1602839692.4465,60.0,1065.0,138.0,436.8814794100143,36.31
1602839692.4485,60.0,1065.0,147.0,436.8985024715438,36.31
1602839692.4505,60.0,1065.0,140.0,436.9149575151064,36.31
1602839692.4526,60.0,1065.0,159.0,436.93081541157574,36.31
1602839692.4532,60.0,1065.0,125.0,436.94604703182506,36.31
1602839692.4545,60.0,1065.0,14.0,436.97475378599563,36.31
1602839692.4565,60.0,1065.0,21.0,437.0013341139313,36.31
1602839692.4585,60.0,1065.0,121.0,437.0257880156322,36.31
1602839692.4605,60.0,1065.0,133.0,437.0481154910982,36.31
1602839692.4625,60.0,1065.0,113.0,437.0683165403293,36.31
1602839692.4645,60.0,1065.0,193.0,437.08639116332563,36.31
1602839692.4665,60.0,1065.0,416.0,437.10233936008706,36.31
1602839692.4685,60.0,1065.0,593.0,437.1161611306136,36.31
1602839692.4705,60.0,1065.0,338.0,437.12785647490534,36.31
1602839692.4725,60.0,1065.0,-205.0,437.1374253929622,36.31
1602839692.4745,60.0,1065.0,-292.0,437.14486788478416,36.31
1602839692.4767,60.0,1065.0,62.0,437.15018395037134,36.31
1602839692.4786,60.0,1065.0,176.0,437.1533735897236,36.31
1602839692.4805,60.0,1065.0,96.0,437.154436802841,36.31
1602839692.4826,60.0,1065.0,167.0,437.1533735897236,36.31
1602839692.4832,60.0,1065.0,237.0,437.15018395037134,36.31
1602839692.4845,60.0,1065.0,179.0,437.14486788478416,36.31
1602839692.4865,60.0,1065.0,123.0,437.1374253929622,36.31
1602839692.4885,60.0,1065.0,118.0,437.12785647490534,36.31
1602839692.4905,60.0,1065.0,121.0,437.1161611306136,36.31
1602839692.4925,60.0,1065.0,133.0,437.10233936008706,36.31
1602839692.4945,60.0,1065.0,164.0,437.08639116332563,36.31
1602839692.4965,60.0,1065.0,188.0,437.0683165403293,36.31
1602839692.4985,60.0,1065.0,193.0,437.0481154910982,36.31
1602839692.5005,60.0,1065.0,188.0,437.0257880156322,36.31
1602839692.5025,60.0,1065.0,184.0,437.0013341139313,36.31
1602839692.5045,60.0,1065.0,188.0,436.97475378599563,36.31
1602839692.5065,60.0,1065.0,222.0,436.94604703182506,36.31
1602839692.5085,60.0,1065.0,230.0,436.93081541157574,36.31
1602839692.5106,60.0,1065.0,181.0,436.9149575151064,36.31
1602839692.5125,60.0,1065.0,152.0,436.8985024715438,36.31
1602839692.5132,60.0,1065.0,159.0,436.8814794100143,36.31
1602839692.5145,60.0,1065.0,176.0,436.86391745964454,36.31
1602839692.5165,60.0,1065.0,203.0,436.8458457495609,36.31
1602839692.5185,60.0,1065.0,225.0,436.82729340889,36.31
1602839692.5205,60.0,1065.0,234.0,436.80828956675816,36.31
1602839692.5226,60.0,1065.0,232.0,436.7888633522921,36.31
1602839692.5245,60.0,1065.0,227.0,436.7690438946181,36.31
1602839692.5265,60.0,1065.0,234.0,436.7488603228629,36.31
1602839692.5285,60.0,1065.0,249.0,436.7283417661529,36.31
1602839692.5305,60.0,1065.0,254.0,436.70751735361455,36.31
1602839692.5325,60.0,1065.0,268.0,436.6864162143745,36.31
1602839692.5345,60.0,1065.0,290.0,436.6650674775591,36.31
1602839692.5365,60.0,1065.0,285.0,436.6435002722949,36.31
1602839692.5385,60.0,1065.0,259.0,436.62174372770835,36.31
1602839692.5405,60.0,1065.0,249.0,436.59982697292605,36.31
1602839692.5425,60.0,1065.0,268.0,436.5777791370746,36.31
1602839692.5433,60.0,1065.0,251.0,436.55562934928025,36.31
1602839692.5445,60.0,1065.0,186.0,436.53340673866967,36.31
1602839692.5466,60.0,1065.0,164.0,436.51114043436934,36.31
1602839692.9522,60.0,1052.0,184.0,436.4888595655058,36.31
1602839692.953,60.0,1052.0,167.0,436.46659326120545,36.31
1602839692.9546,60.0,1052.0,133.0,436.4443706505949,36.31
1602839692.9566,60.0,1052.0,111.0,436.4222208628006,36.31
1602839692.9586,60.0,1052.0,113.0,436.40017302694906,36.31
1602839692.9606,60.0,1052.0,123.0,436.3782562721668,36.31
1602839692.9626,60.0,1052.0,104.0,436.35649972758034,36.31
1602839692.9646,60.0,1052.0,87.0,436.33493252231614,36.31
1602839692.9666,60.0,1052.0,104.0,436.3135837855007,36.31
1602839692.9686,60.0,1052.0,108.0,436.29248264626057,36.31
1602839692.9706,60.0,1052.0,92.0,436.27165823372223,36.31
1602839692.9726,60.0,1052.0,101.0,436.2511396770122,36.31
1602839692.9748,60.0,1052.0,123.0,436.23095610525695,36.31
1602839692.9766,60.0,1052.0,118.0,436.21113664758303,36.31
1602839692.9786,60.0,1052.0,118.0,436.1917104331169,36.31
1602839692.9806,60.0,1052.0,130.0,436.1727065909851,36.31
1602839692.9826,60.0,1052.0,138.0,436.15415425031415,36.31
1602839692.9846,60.0,1052.0,142.0,436.1360825402306,36.31
1602839692.9866,60.0,1052.0,152.0,436.11852058986074,36.31
1602839692.9886,60.0,1052.0,157.0,436.1014975283313,36.31
1602839692.9906,60.0,1052.0,142.0,436.0850424847687,36.31
1602839692.9926,60.0,1052.0,118.0,436.06918458829944,36.31
1602839692.9946,60.0,1052.0,138.0,436.05395296805006,36.31
1602839692.9966,60.0,1052.0,169.0,436.039376753147,36.31
1602839692.9986,60.0,1052.0,157.0,436.02548507271683,36.31
1602839693.0006,60.0,1052.0,128.0,436.012307055886,36.31
1602839693.0026,60.0,1052.0,138.0,435.9998718317811,36.31
1602839693.0046,60.0,1052.0,164.0,435.98820852952855,36.31
1602839693.0066,60.0,1052.0,162.0,435.97734627825486,36.31
1602839693.0086,60.0,1052.0,142.0,435.9673142070866,36.31
1602839693.0106,60.0,1052.0,154.0,435.9581414451502,36.31
1602839693.0126,60.0,1052.0,174.0,435.9498571215722,36.31
1602839693.0145,60.0,1052.0,142.0,435.9424903654791,36.31
1602839693.0166,60.0,1052.0,104.0,435.9360703059974,36.31
1602839693.0185,60.0,1052.0,106.0,435.9306260722537,36.31
1602839693.0205,60.0,1052.0,121.0,435.9261867933743,36.31
1602839693.0226,60.0,1052.0,123.0,435.9227815984859,36.31
1602839693.0246,60.0,1052.0,133.0,435.92043961671493,36.31
1602839693.0265,60.0,1052.0,157.0,435.91918997718784,36.31
1602839693.0285,60.0,1052.0,154.0,435.91906180903123,36.31
1602839693.0306,60.0,1052.0,123.0,435.92008424137157,36.31
1602839693.0325,60.0,1052.0,108.0,435.9222864033353,36.31
1602839693.0345,60.0,1052.0,138.0,435.925697424049,36.31
1602839693.0365,60.0,1052.0,181.0,435.9303464326392,36.31
1602839693.0386,60.0,1052.0,171.0,435.9362625582324,36.31
1602839693.0405,60.0,1052.0,125.0,435.94347492995496,36.31
1602839693.0426,60.0,1052.0,128.0,435.9520126769336,36.31
1602839693.0445,60.0,1052.0,135.0,435.9619049282946,36.31
1602839693.0466,60.0,1052.0,118.0,435.9731808131647,36.31
1602839693.0486,60.0,1052.0,121.0,435.9858694606702,36.31
1602839693.0505,60.0,1052.0,135.0,435.9999999999377,36.31
1602839693.0526,60.0,1052.0,174.0,435.9999999999377,36.31
1602839693.0545,60.0,1052.0,210.0,435.9999999999377,36.31
1602839693.0566,60.0,1052.0,167.0,435.9999999999377,36.31
1602839693.0585,60.0,1052.0,106.0,435.9999999999377,36.31
1602839693.0605,60.0,1052.0,108.0,435.9999999999377,36.31
1602839693.0626,60.0,1052.0,135.0,435.9999999999377,36.31
1602839693.0645,60.0,1052.0,140.0,435.9999999999377,36.31
1602839693.0666,60.0,1052.0,130.0,435.9999999999377,36.31
1602839693.0685,60.0,1052.0,123.0,435.9999999999377,36.31
1602839693.0705,60.0,1052.0,154.0,435.9999999999377,36.31
1602839693.0727,60.0,1052.0,193.0,435.9999999999377,36.31
1602839693.0745,60.0,1052.0,167.0,435.9999999999377,36.31
1602839693.0767,60.0,1052.0,99.0,435.9999999999377,36.31
1602839693.0786,60.0,1052.0,75.0,435.9999999999377,36.31
1602839693.0805,60.0,1052.0,104.0,435.9999999999377,36.31
1602839693.0825,60.0,1052.0,123.0,435.9999999999377,36.31
1602839693.0846,60.0,1052.0,125.0,435.9999999999377,36.31
1602839693.0865,60.0,1052.0,234.0,435.9999999999377,36.31
1602839693.0886,60.0,1052.0,506.0,435.9999999999377,36.31
1602839693.0906,60.0,1052.0,673.0,435.9999999999377,36.31
1602839693.0926,60.0,1052.0,278.0,435.9999999999377,36.31
1602839693.0945,60.0,1052.0,-375.0,435.9999999999377,36.31
1602839693.5525,60.0,1052.0,-372.0,435.9999999999377,36.31
1602839693.5533,60.0,1052.0,77.0,435.9999999999377,36.31
1602839693.5557,60.0,1052.0,169.0,435.9999999999377,36.31
1602839693.5584,60.0,1052.0,72.0,435.9999999999377,36.31
1602839693.5603,60.0,1052.0,108.0,435.9999999999377,36.31
1602839693.5624,60.0,1052.0,116.0,435.9999999999377,36.31
1602839693.5645,60.0,1052.0,72.0,435.9999999999377,36.31
1602839693.5663,60.0,1052.0,87.0,435.9999999999377,36.31
1602839693.5684,60.0,1052.0,147.0,435.9999999999377,36.31
1602839693.5703,60.0,1052.0,181.0,435.9999999999377,36.31
1602839693.5724,60.0,1052.0,150.0,435.9999999999377,36.31
1602839693.5743,60.0,1052.0,108.0,435.9999999999377,36.31
1602839693.5763,60.0,1052.0,142.0,435.9999999999377,36.31
1602839693.5783,60.0,1052.0,210.0,435.9999999999377,36.31
1602839693.5803,60.0,1052.0,191.0,435.9999999999377,36.31
1602839693.5824,60.0,1052.0,152.0,435.9999999999377,36.31
1602839693.5843,60.0,1052.0,184.0,435.9999999999377,36.31
1602839693.5863,60.0,1052.0,171.0,435.9999999999377,36.31
1602839693.5883,60.0,1052.0,111.0,435.9999999999377,36.31
1602839693.5903,60.0,1052.0,108.0,435.9999999999377,36.31
1602839693.5924,60.0,1052.0,169.0,435.9999999999377,36.31
1602839693.5943,60.0,1052.0,230.0,435.9999999999377,36.31
1602839693.5963,60.0,1052.0,222.0,435.9999999999377,36.31
1602839693.5983,60.0,1052.0,154.0,436.0141305392052,36.31
1602839693.6003,60.0,1052.0,133.0,436.0268191867107,36.31
1602839693.6023,60.0,1052.0,154.0,436.03809507158076,36.31
1602839693.6043,60.0,1052.0,162.0,436.0479873229418,36.31
1602839693.6063,60.0,1052.0,186.0,436.0565250699204,36.31
1602839693.6083,60.0,1052.0,213.0,436.063737441643,36.31
1602839693.6103,60.0,1052.0,222.0,436.0696535672362,36.31
1602839693.6123,60.0,1052.0,234.0,436.0743025758263,36.31
1602839693.6143,60.0,1052.0,237.0,436.07771359654004,36.31
1602839693.6163,60.0,1052.0,225.0,436.07991575850383,36.31
1602839693.6183,60.0,1052.0,230.0,436.08093819084417,36.31
1602839693.6203,60.0,1052.0,259.0,436.0808100226875,36.31
1602839693.6224,60.0,1052.0,249.0,436.07956038316047,36.31
1602839693.6242,60.0,1052.0,188.0,436.0772184013895,36.31
1602839693.6262,60.0,1052.0,162.0,436.07381320650103,36.31
1602839693.6283,60.0,1052.0,162.0,436.0693739276217,36.31
1602839693.6303,60.0,1052.0,140.0,436.063929693878,36.31
1602839693.6323,60.0,1052.0,118.0,436.0575096343963,36.31
1602839693.6344,60.0,1052.0,101.0,436.0501428783032,36.31
1602839693.6363,60.0,1052.0,87.0,436.0418585547252,36.31
1602839693.6383,60.0,1052.0,72.0,436.0326857927888,36.31
1602839693.6403,60.0,1052.0,84.0,436.02265372162054,36.31
1602839693.6423,60.0,1052.0,108.0,436.01179147034685,36.31
1602839693.6442,60.0,1052.0,87.0,436.0001281680943,36.31
1602839693.6463,60.0,1052.0,26.0,435.9876929439894,36.31
1602839693.6483,60.0,1052.0,19.0,435.97451492715857,36.31
1602839693.6502,60.0,1052.0,94.0,435.9606232467284,36.31
1602839693.6523,60.0,1052.0,147.0,435.94604703182534,36.31
1602839693.6543,60.0,1052.0,111.0,435.93081541157596,36.31
1602839693.6562,60.0,1052.0,65.0,435.91495751510666,36.31
1602839693.6583,60.0,1052.0,84.0,435.8985024715441,36.31
1602839693.6602,60.0,1052.0,72.0,435.8814794100146,36.31
1602839693.6623,60.0,1052.0,53.0,435.8639174596448,36.31
1602839693.6643,60.0,1052.0,84.0,435.8458457495612,36.31
1602839693.6663,60.0,1052.0,79.0,435.8272934088903,36.31
1602839693.6683,60.0,1052.0,43.0,435.8082895667585,36.31
1602839693.6703,60.0,1052.0,82.0,435.7888633522924,36.31
1602839693.6723,60.0,1052.0,142.0,435.7690438946185,36.31
1602839693.6743,60.0,1052.0,135.0,435.74886032286327,36.31
1602839693.6762,60.0,1052.0,133.0,435.7283417661532,36.31
1602839693.6783,60.0,1052.0,152.0,435.70751735361483,36.31
1602839693.6802,60.0,1052.0,121.0,435.6864162143747,36.31
1602839693.6823,60.0,1052.0,101.0,435.6650674775592,36.31
1602839693.6842,60.0,1052.0,138.0,435.64350027229494,36.31
1602839693.6862,60.0,1052.0,140.0,435.62174372770846,36.31
1602839693.6882,60.0,1052.0,123.0,435.59982697292617,36.31
1602839693.6902,60.0,1052.0,123.0,435.5777791370746,36.31
1602839693.6923,60.0,1052.0,121.0,435.55562934928025,36.31
1602839693.6943,60.0,1052.0,123.0,435.53340673866967,36.31
1602839693.6962,60.0,1052.0,96.0,435.51114043436934,36.31
1602839694.1523,60.0,944.0,58.0,435.48885956550583,36.31
1602839694.1532,60.0,944.0,89.0,435.4665932612055,36.31
1602839694.1556,60.0,944.0,121.0,435.4443706505949,36.31
1602839694.1583,60.0,944.0,111.0,435.4222208628006,36.31
1602839694.1602,60.0,944.0,152.0,435.40017302694906,36.31
1602839694.1623,60.0,944.0,191.0,435.37825627216677,36.31
1602839694.1643,60.0,944.0,106.0,435.3564997275802,36.31
1602839694.1663,60.0,944.0,38.0,435.334932522316,36.31
1602839694.1682,60.0,944.0,92.0,435.3135837855006,36.31
1602839694.1702,60.0,944.0,113.0,435.2924826462605,36.31
1602839694.1723,60.0,944.0,79.0,435.2716582337221,36.31
1602839694.1742,60.0,944.0,87.0,435.2511396770121,36.31
1602839694.1762,60.0,944.0,101.0,435.2309561052569,36.31
1602839694.1782,60.0,944.0,99.0,435.211136647583,36.31
1602839694.1802,60.0,944.0,138.0,435.19171043311684,36.31
1602839694.1823,60.0,944.0,145.0,435.17270659098506,36.31
1602839694.1842,60.0,944.0,92.0,435.1541542503141,36.31
1602839694.1862,60.0,944.0,87.0,435.13608254023046,36.31
1602839694.1882,60.0,944.0,121.0,435.1185205898607,36.31
1602839694.1904,60.0,944.0,121.0,435.10149752833127,36.31
1602839694.1923,60.0,944.0,121.0,435.0850424847686,36.31
1602839694.1942,60.0,944.0,138.0,435.0691845882994,36.31
1602839694.1962,60.0,944.0,128.0,435.05395296805,36.31
1602839694.1982,60.0,944.0,92.0,435.03937675314694,36.31
1602839694.2002,60.0,944.0,79.0,435.0254850727168,36.31
1602839694.2022,60.0,944.0,92.0,435.01230705588597,36.31
1602839694.2042,60.0,944.0,113.0,434.99987183178104,36.31
1602839694.2061,60.0,944.0,128.0,434.9882085295285,36.31
1602839694.2081,60.0,944.0,104.0,434.9773462782548,36.31
1602839694.2101,60.0,944.0,89.0,434.96731420708653,36.31
1602839694.2122,60.0,944.0,104.0,434.95814144515015,36.31
1602839694.2141,60.0,944.0,84.0,434.94985712157217,36.31
1602839694.2161,60.0,944.0,116.0,434.94249036547905,36.31
1602839694.2181,60.0,944.0,348.0,434.9360703059974,36.31
1602839694.2201,60.0,944.0,598.0,434.93062607225363,36.31
1602839694.2222,60.0,944.0,414.0,434.9261867933743,36.31
1602839694.2241,60.0,944.0,-179.0,434.92278159848587,36.31
1602839694.2261,60.0,944.0,-406.0,434.9204396167149,36.31
1602839694.2281,60.0,944.0,-43.0,434.91918997718784,36.31
1602839694.2301,60.0,944.0,154.0,434.9190618090312,36.31
1602839694.2323,60.0,944.0,48.0,434.9200842413715,36.31
1602839694.2341,60.0,944.0,72.0,434.9222864033353,36.31
1602839694.2361,60.0,944.0,142.0,434.925697424049,36.31
1602839694.2381,60.0,944.0,104.0,434.93034643263917,36.31
1602839694.2401,60.0,944.0,111.0,434.93626255823233,36.31
1602839694.2422,60.0,944.0,159.0,434.94347492995496,36.31
1602839694.2441,60.0,944.0,135.0,434.9520126769335,36.31
1602839694.2461,60.0,944.0,108.0,434.9619049282946,36.31
1602839694.2481,60.0,944.0,133.0,434.9731808131646,36.31
1602839694.2502,60.0,944.0,140.0,434.98586946067013,36.31
1602839694.2522,60.0,944.0,125.0,434.99999999993764,36.31
1602839694.2541,60.0,944.0,123.0,434.99999999993764,36.31
1602839694.2561,60.0,944.0,138.0,434.99999999993764,36.31
1602839694.2581,60.0,944.0,140.0,434.99999999993764,36.31
1602839694.2602,60.0,944.0,135.0,434.99999999993764,36.31
1602839694.2622,60.0,944.0,135.0,434.99999999993764,36.31
1602839694.2642,60.0,944.0,140.0,434.99999999993764,36.31
1602839694.2662,60.0,944.0,152.0,434.99999999993764,36.31
1602839694.2682,60.0,944.0,167.0,434.99999999993764,36.31
1602839694.2703,60.0,944.0,174.0,434.99999999993764,36.31
1602839694.2724,60.0,944.0,176.0,434.99999999993764,36.31
1602839694.2741,60.0,944.0,181.0,434.99999999993764,36.31
1602839694.2761,60.0,944.0,193.0,434.99999999993764,36.31
1602839694.2781,60.0,944.0,205.0,434.99999999993764,36.31
1602839694.2801,60.0,944.0,203.0,434.99999999993764,36.31
1602839694.2822,60.0,944.0,198.0,434.99999999993764,36.31
1602839694.2842,60.0,944.0,210.0,434.99999999993764,36.31
1602839694.2861,60.0,944.0,222.0,434.99999999993764,36.31
1602839694.2881,60.0,944.0,208.0,434.99999999993764,36.31
1602839694.2901,60.0,944.0,200.0,434.99999999993764,36.31
1602839694.2923,60.0,944.0,225.0,434.99999999993764,36.31
1602839694.2942,60.0,944.0,244.0,434.99999999993764,36.31
1602839694.2961,60.0,944.0,205.0,434.99999999993764,36.31
1602839694.6923,60.0,944.0,142.0,434.99999999993764,36.31
1602839694.6932,60.0,944.0,133.0,434.99999999993764,36.31
1602839694.6957,60.0,944.0,154.0,434.99999999993764,36.31
1602839694.6983,60.0,944.0,152.0,434.99999999993764,36.31
1602839694.7004,60.0,944.0,138.0,434.99999999993764,36.31
1602839694.7023,60.0,944.0,123.0,434.99999999993764,36.31
1602839694.7042,60.0,944.0,101.0,434.99999999993764,36.31
1602839694.7062,60.0,944.0,84.0,434.99999999993764,36.31
1602839694.7082,60.0,944.0,92.0,434.99999999993764,36.31
1602839694.7102,60.0,944.0,94.0,434.99999999993764,36.31
1602839694.7122,60.0,944.0,99.0,434.99999999993764,36.31
1602839694.7142,60.0,944.0,123.0,434.99999999993764,36.31
1602839694.7162,60.0,944.0,92.0,434.99999999993764,36.31
1602839694.7182,60.0,944.0,16.0,434.99999999993764,36.31
1602839694.7202,60.0,944.0,-2.0,434.99999999993764,36.31
1602839694.7223,60.0,944.0,24.0,434.99999999993764,36.31
1602839694.7241,60.0,944.0,43.0,434.99999999993764,36.31
1602839694.7261,60.0,944.0,65.0,434.99999999993764,36.31
1602839694.7281,60.0,944.0,75.0,434.99999999993764,36.31
1602839694.7302,60.0,944.0,77.0,434.99999999993764,36.31
1602839694.7322,60.0,944.0,94.0,434.99999999993764,36.31
1602839694.7342,60.0,944.0,111.0,434.99999999993764,36.31
1602839694.7362,60.0,944.0,113.0,434.99999999993764,36.31
1602839694.7381,60.0,944.0,94.0,434.99999999993764,36.31
1602839694.7401,60.0,944.0,75.0,434.99999999993764,36.31
1602839694.7422,60.0,944.0,82.0,434.99999999993764,36.31
1602839694.7442,60.0,944.0,96.0,434.99999999993764,36.31
1602839694.7461,60.0,944.0,96.0,434.99999999993764,36.31
1602839694.7481,60.0,944.0,89.0,434.99999999993764,36.31
1602839694.7502,60.0,944.0,101.0,434.99999999993764,36.31
1602839694.7522,60.0,944.0,116.0,434.99999999993764,36.31
1602839694.7542,60.0,944.0,111.0,434.99999999993764,36.31
1602839694.7561,60.0,944.0,111.0,434.99999999993764,36.31
1602839694.7581,60.0,944.0,130.0,434.99999999993764,36.31
1602839694.7601,60.0,944.0,111.0,434.99999999993764,36.31
1602839694.7622,60.0,944.0,77.0,434.99999999993764,36.31
1602839694.7641,60.0,944.0,106.0,434.99999999993764,36.31
1602839694.7662,60.0,944.0,125.0,434.99999999993764,36.31
1602839694.7681,60.0,944.0,96.0,434.99999999993764,36.31
1602839694.7701,60.0,944.0,89.0,434.99999999993764,36.31
1602839694.7722,60.0,944.0,87.0,434.99999999993764,36.31
1602839694.7742,60.0,944.0,82.0,434.99999999993764,36.31
1602839694.7761,60.0,944.0,111.0,434.99999999993764,36.31
1602839694.7782,60.0,944.0,128.0,434.99999999993764,36.31
1602839694.7801,60.0,944.0,116.0,434.99999999993764,36.31
1602839694.7822,60.0,944.0,113.0,434.99999999993764,36.31
1602839694.7841,60.0,944.0,116.0,434.99999999993764,36.31
1602839694.7861,60.0,944.0,92.0,434.99999999993764,36.31
1602839694.7883,60.0,944.0,77.0,434.99999999993764,36.31
1602839694.7902,60.0,944.0,104.0,434.99999999993764,36.31
1602839694.7922,60.0,944.0,125.0,434.99999999993764,36.31
1602839694.7941,60.0,944.0,125.0,434.99999999993764,36.31
1602839694.7962,60.0,944.0,123.0,434.99999999993764,36.31
1602839694.7982,60.0,944.0,128.0,434.99999999993764,36.31
1602839694.8002,60.0,944.0,123.0,434.99999999993764,36.31
1602839694.8022,60.0,944.0,104.0,434.99999999993764,36.31
1602839694.8041,60.0,944.0,92.0,434.99999999993764,36.31
1602839694.8061,60.0,944.0,104.0,434.99999999993764,36.31
1602839694.8082,60.0,944.0,130.0,434.99999999993764,36.31
1602839694.8101,60.0,944.0,157.0,434.99999999993764,36.31
1602839694.8122,60.0,944.0,167.0,434.99999999993764,36.31
1602839694.8141,60.0,944.0,142.0,434.99999999993764,36.31
1602839694.8161,60.0,944.0,113.0,434.99999999993764,36.31
1602839694.8181,60.0,944.0,123.0,434.99999999993764,36.31
1602839694.8202,60.0,944.0,133.0,434.99999999993764,36.31
1602839694.8222,60.0,944.0,118.0,434.99999999993764,36.31
1602839694.8241,60.0,944.0,101.0,434.99999999993764,36.31
1602839694.8262,60.0,944.0,94.0,434.99999999993764,36.31
1602839694.8282,60.0,944.0,89.0,434.99999999993764,36.31
1602839694.8302,60.0,944.0,75.0,434.99999999993764,36.31
1602839694.8322,60.0,944.0,84.0,434.99999999993764,36.31
1602839694.8341,60.0,944.0,118.0,434.99999999993764,36.31
1602839694.8361,60.0,944.0,128.0,434.99999999993764,36.31
1602839695.2318,60.0,902.0,108.0,434.99999999993764,36.31
1602839695.2328,60.0,902.0,118.0,434.99999999993764,36.31
1602839695.2352,60.0,902.0,271.0,434.99999999993764,36.31
1602839695.2378,60.0,902.0,525.0,434.99999999993764,36.31
1602839695.2398,60.0,902.0,515.0,434.99999999993764,36.31
1602839695.2418,60.0,902.0,9.0,434.99999999993764,36.31
1602839695.2438,60.0,902.0,-401.0,434.99999999993764,36.31
1602839695.2458,60.0,902.0,-171.0,434.99999999993764,36.31
1602839695.2477,60.0,902.0,116.0,434.99999999993764,36.31
1602839695.2497,60.0,902.0,67.0,434.99999999993764,36.31
1602839695.2518,60.0,902.0,53.0,434.99999999993764,36.31
1602839695.2537,60.0,902.0,101.0,434.99999999993764,36.31
1602839695.2558,60.0,902.0,62.0,434.99999999993764,36.31
1602839695.2577,60.0,902.0,46.0,434.99999999993764,36.31
1602839695.2597,60.0,902.0,87.0,434.99999999993764,36.31
1602839695.2617,60.0,902.0,108.0,434.99999999993764,36.31
1602839695.2638,60.0,902.0,116.0,434.99999999993764,36.31
1602839695.2657,60.0,902.0,106.0,434.99999999993764,36.31
1602839695.2677,60.0,902.0,87.0,434.99999999993764,36.31
1602839695.2697,60.0,902.0,94.0,434.99999999993764,36.31
1602839695.2717,60.0,902.0,113.0,434.99999999993764,36.31
1602839695.2737,60.0,902.0,108.0,434.99999999993764,36.31
1602839695.2757,60.0,902.0,104.0,434.99999999993764,36.31
1602839695.2777,60.0,902.0,123.0,435.04239161774024,36.31
1602839695.2797,60.0,902.0,145.0,435.0804575602568,36.31
1602839695.2817,60.0,902.0,135.0,435.1142852148669,36.31
1602839695.2839,60.0,902.0,113.0,435.14396196895007,36.31
1602839695.2857,60.0,902.0,130.0,435.1695752098858,36.31
1602839695.2877,60.0,902.0,150.0,435.19121232505364,36.31
1602839695.2897,60.0,902.0,121.0,435.20896070183306,36.31
1602839695.2917,60.0,902.0,118.0,435.22290772760357,36.31
1602839695.2937,60.0,902.0,157.0,435.23314078974477,36.31
1602839695.2957,60.0,902.0,179.0,435.2397472756361,36.31
1602839695.2977,60.0,902.0,174.0,435.24281457265704,36.31
1602839695.2997,60.0,902.0,174.0,435.24243006818716,36.31
1602839695.3017,60.0,902.0,196.0,435.238681149606,36.31
1602839695.3037,60.0,902.0,203.0,435.231655204293,36.31
1602839695.3058,60.0,902.0,200.0,435.22143961962774,36.31
1602839695.3077,60.0,902.0,184.0,435.20812178298974,36.31
1602839695.3097,60.0,902.0,176.0,435.19178908175843,36.31
1602839695.3117,60.0,902.0,184.0,435.1725289033134,36.31
1602839695.3138,60.0,902.0,179.0,435.15042863503413,36.31
1602839695.3157,60.0,902.0,169.0,435.1255756643002,36.31
1602839695.3177,60.0,902.0,176.0,435.09805737849103,36.31
1602839695.3197,60.0,902.0,169.0,435.0679611649862,36.31
1602839695.3217,60.0,902.0,140.0,435.0353744111652,36.31
1602839695.3237,60.0,902.0,116.0,435.0003845044075,36.31
1602839695.3257,60.0,902.0,106.0,434.9630788320927,36.31
1602839695.3277,60.0,902.0,89.0,434.9235447816003,36.31
1602839695.3297,60.0,902.0,77.0,434.88186974030975,36.31
1602839695.3318,60.0,902.0,75.0,434.83814109560063,36.31
1602839695.3337,60.0,902.0,72.0,434.79244623485243,36.31
1602839695.3357,60.0,902.0,77.0,434.74487254544465,36.31
1602839695.3377,60.0,902.0,77.0,434.69550741475683,36.31
1602839695.3397,60.0,902.0,65.0,434.6444382301685,36.31
1602839695.3417,60.0,902.0,70.0,434.59175237905913,36.31
1602839695.3437,60.0,902.0,75.0,434.53753724880823,36.31
1602839695.3457,60.0,902.0,53.0,434.4818802267954,36.31
1602839695.3477,60.0,902.0,46.0,434.42486870040005,36.31
1602839695.3497,60.0,902.0,58.0,434.3665900570017,36.31
1602839695.3517,60.0,902.0,65.0,434.30713168397995,36.31
1602839695.3537,60.0,902.0,79.0,434.2465809687143,36.31
1602839695.3557,60.0,902.0,96.0,434.18502529858415,36.31
1602839695.3577,60.0,902.0,101.0,434.12255206096916,36.31
1602839695.3597,60.0,902.0,94.0,434.05924864324874,36.31
1602839695.3617,60.0,902.0,99.0,433.99520243280244,36.31
1602839695.3637,60.0,902.0,116.0,433.93050081700983,36.31
1602839695.3657,60.0,902.0,125.0,433.8652311832504,36.31
1602839695.3677,60.0,902.0,99.0,433.7994809189036,36.31
1602839695.3697,60.0,902.0,60.0,433.733337411349,36.31
1602839695.3717,60.0,902.0,60.0,433.6668880479661,36.31
1602839695.3737,60.0,902.0,87.0,433.6002202161344,36.31
1602839695.3757,60.0,902.0,92.0,433.5334213032334,36.31
1602839695.7717,60.0,902.0,84.0,433.46657869664267,36.31
1602839695.7724,60.0,902.0,89.0,433.3997797837417,36.31
1602839695.7748,60.0,902.0,94.0,433.3331119519099,36.31
1602839695.7774,60.0,902.0,96.0,433.26666258852697,36.31
1602839695.7796,60.0,902.0,96.0,433.20051908097236,36.31
1602839695.7814,60.0,902.0,99.0,433.1347688166255,36.31
1602839695.7834,60.0,902.0,104.0,433.069499182866,36.31
1602839695.7854,60.0,902.0,94.0,433.00479756707335,36.31
1602839695.7874,60.0,902.0,77.0,432.9407513566271,36.31
1602839695.7894,60.0,902.0,75.0,432.87744793890676,36.31
1602839695.7914,60.0,902.0,70.0,432.81497470129176,36.31
1602839695.7934,60.0,902.0,58.0,432.7534190311616,36.31
1602839695.7954,60.0,902.0,60.0,432.69286831589585,36.31
1602839695.7974,60.0,902.0,65.0,432.63340994287415,36.31
1602839695.7994,60.0,902.0,84.0,432.5751312994758,36.31
1602839695.8014,60.0,902.0,104.0,432.5181197730804,36.31
1602839695.8034,60.0,902.0,94.0,432.46246275106756,36.31
1602839695.8054,60.0,902.0,72.0,432.40824762081667,36.31
1602839695.8074,60.0,902.0,75.0,432.3555617697073,36.31
1602839695.8094,60.0,902.0,94.0,432.3044925851189,36.31
1602839695.8113,60.0,902.0,96.0,432.25512745443115,36.31
1602839695.8134,60.0,902.0,99.0,432.2075537650234,36.31
1602839695.8153,60.0,902.0,111.0,432.1618589042752,36.31
1602839695.8174,60.0,902.0,106.0,432.14639133810107,36.31
1602839695.8194,60.0,902.0,94.0,432.13009359182155,36.31
1602839695.8214,60.0,902.0,108.0,432.1131113110692,36.31
1602839695.8233,60.0,902.0,118.0,432.0955901414765,36.31
1602839695.8253,60.0,902.0,89.0,432.07767572867607,36.31
1602839695.8274,60.0,902.0,70.0,432.05951371830025,36.31
1602839695.8293,60.0,902.0,77.0,432.0412497559817,36.31
1602839695.8314,60.0,902.0,84.0,432.02302948735286,36.31
1602839695.8334,60.0,902.0,101.0,432.00499855804634,36.31
1602839695.8354,60.0,902.0,142.0,431.9873026136947,36.31
1602839695.8373,60.0,902.0,169.0,431.9700872999303,36.31
1602839695.8393,60.0,902.0,133.0,431.9534982623857,36.31
1602839695.8413,60.0,902.0,79.0,431.9376811466936,36.31
1602839695.8435,60.0,902.0,89.0,431.9227815984863,36.31
1602839695.8453,60.0,902.0,135.0,431.90894526339656,36.31
1602839695.8473,60.0,902.0,133.0,431.8963177870567,36.31
1602839695.8493,60.0,902.0,94.0,431.8850448150993,36.31
1602839695.8513,60.0,902.0,67.0,431.8752719931569,36.31
1602839695.8534,60.0,902.0,77.0,431.8671449668621,36.31
1602839695.8554,60.0,902.0,94.0,431.8608093818472,36.31
1602839695.8573,60.0,902.0,92.0,431.856410883745,36.31
1602839695.8593,60.0,902.0,89.0,431.8540951181879,36.31
1602839695.8613,60.0,902.0,106.0,431.8540077308084,36.31
1602839695.8634,60.0,902.0,108.0,431.85629436723895,36.31
1602839695.8653,60.0,902.0,89.0,431.8611006731123,36.31
1602839695.8674,60.0,902.0,128.0,431.8685722940608,36.31
1602839695.8693,60.0,902.0,338.0,431.87885487571697,36.31
1602839695.8713,60.0,902.0,600.0,431.8920940637135,36.31
1602839695.8735,60.0,902.0,457.0,431.8616308232146,36.31
1602839695.8754,60.0,902.0,-162.0,431.82991503027614,36.31
1602839695.8773,60.0,902.0,-452.0,431.79700494315097,36.31
1602839695.8794,60.0,902.0,-89.0,431.762958820092,36.31
1602839695.8815,60.0,902.0,142.0,431.72783491935246,36.31
1602839695.8834,60.0,902.0,36.0,431.6916914991852,36.31
1602839695.8854,60.0,902.0,50.0,431.65458681784327,36.31
1602839695.8874,60.0,902.0,128.0,431.6165791335797,36.31
1602839695.8894,60.0,902.0,96.0,431.57772670464755,36.31
1602839695.8914,60.0,902.0,87.0,431.5380877892997,36.31
1602839695.8934,60.0,902.0,123.0,431.49772064578923,36.31
1602839695.8954,60.0,902.0,116.0,431.45668353236914,36.31
1602839695.8974,60.0,902.0,101.0,431.4150347072925,36.31
1602839695.8994,60.0,902.0,125.0,431.37283242881216,36.31
1602839695.9014,60.0,902.0,147.0,431.33013495518134,36.31
1602839695.9034,60.0,902.0,138.0,431.28700054465287,36.31
1602839695.9053,60.0,902.0,121.0,431.24348745547985,36.31
1602839695.9074,60.0,902.0,108.0,431.1996539459153,36.31
1602839695.9094,60.0,902.0,99.0,431.15555827421224,36.31
1602839695.9114,60.0,902.0,96.0,431.1112586986236,36.31
1602839695.9134,60.0,902.0,104.0,431.0668134774025,36.31
1602839695.9154,60.0,902.0,123.0,431.02228086880183,36.31
1602839696.3419,61.0,888.0,142.0,430.9777191310747,36.31
1602839696.3427,61.0,888.0,147.0,430.93318652247405,36.31
1602839696.3451,61.0,888.0,145.0,430.8887413012529,36.31
1602839696.3477,61.0,888.0,152.0,430.8444417256643,36.31
1602839696.3498,61.0,888.0,162.0,430.8003460539612,36.31
1602839696.3517,61.0,888.0,159.0,430.7565125443966,36.31
1602839696.3538,61.0,888.0,159.0,430.71299945522367,36.31
1602839696.3558,61.0,888.0,169.0,430.66986504469526,36.31
1602839696.3577,61.0,888.0,162.0,430.62716757106443,36.31
1602839696.3598,61.0,888.0,157.0,430.58496529258423,36.31
1602839696.3617,61.0,888.0,179.0,430.54331646750745,36.31
1602839696.3637,61.0,888.0,188.0,430.50227935408736,36.31
1602839696.3657,61.0,888.0,167.0,430.461912210577,36.31
1602839696.3677,61.0,888.0,162.0,430.42227329522916,36.31
1602839696.3697,61.0,888.0,179.0,430.3834208662969,36.31
1602839696.3717,61.0,888.0,179.0,430.3454131820333,36.31
1602839696.3737,61.0,888.0,167.0,430.3083085006914,36.31
1602839696.3757,61.0,888.0,152.0,430.27216508052425,36.31
1602839696.3776,61.0,888.0,142.0,430.23704117978457,36.31
1602839696.3797,61.0,888.0,133.0,430.20299505672574,36.31
1602839696.3817,61.0,888.0,123.0,430.17008496960045,36.31
1602839696.3837,61.0,888.0,111.0,430.13836917666197,36.31
1602839696.3856,61.0,888.0,87.0,430.1079059361632,36.31
1602839696.3877,61.0,888.0,62.0,430.0787535063571,36.31
1602839696.3896,61.0,888.0,48.0,430.05097014549676,36.31
1602839696.3917,61.0,888.0,38.0,430.02461411183515,36.31
1602839696.3937,61.0,888.0,16.0,429.9997436636253,36.31
1602839696.3957,61.0,888.0,9.0,429.9764170591202,36.31
1602839696.3976,61.0,888.0,38.0,429.9546925565728,36.31
1602839696.3996,61.0,888.0,58.0,429.9346284142363,36.31
1602839696.4017,61.0,888.0,41.0,429.9162828903635,36.31
1602839696.4037,61.0,888.0,36.0,429.89971424320754,36.31
1602839696.4057,61.0,888.0,65.0,429.8849807310213,36.31
1602839696.4078,61.0,888.0,82.0,429.87214061205793,36.31
1602839696.4097,61.0,888.0,72.0,429.86125214457047,36.31
1602839696.4117,61.0,888.0,72.0,429.8523735868117,36.31
1602839696.4137,61.0,888.0,79.0,429.84556319703495,36.31
1602839696.4157,61.0,888.0,82.0,429.84087923349296,36.31
1602839696.4176,61.0,888.0,82.0,429.8383799544388,36.31
1602839696.4197,61.0,888.0,82.0,429.83812361812556,36.31
1602839696.4217,61.0,888.0,87.0,429.84016848280623,36.31
1602839696.4237,61.0,888.0,101.0,429.8445728067337,36.31
1602839696.4257,61.0,888.0,101.0,429.85139484816114,36.31
1602839696.4277,61.0,888.0,84.0,429.86069286534155,36.31
1602839696.4297,61.0,888.0,77.0,429.87252511652787,36.31
1602839696.4317,61.0,888.0,82.0,429.886949859973,36.31
1602839696.4337,61.0,888.0,82.0,429.90402535393025,36.31
1602839696.4357,61.0,888.0,82.0,429.92380985665227,36.31
1602839696.4377,61.0,888.0,87.0,429.94636162639245,36.31
1602839696.4397,61.0,888.0,89.0,429.97173892140347,36.31
1602839696.4417,61.0,888.0,94.0,429.9999999999385,36.31
1602839696.4437,61.0,888.0,92.0,429.9999999999385,36.31
1602839696.4457,61.0,888.0,87.0,429.9999999999385,36.31
1602839696.4477,61.0,888.0,92.0,429.9999999999385,36.31
1602839696.4497,61.0,888.0,99.0,429.9999999999385,36.31
1602839696.4517,61.0,888.0,75.0,429.9999999999385,36.31
1602839696.4537,61.0,888.0,62.0,429.9999999999385,36.31
1602839696.4557,61.0,888.0,87.0,429.9999999999385,36.31
1602839696.4577,61.0,888.0,104.0,429.9999999999385,36.31
1602839696.4597,61.0,888.0,94.0,429.9999999999385,36.31
1602839696.4617,61.0,888.0,77.0,429.9999999999385,36.31
1602839696.4637,61.0,888.0,77.0,429.9999999999385,36.31
1602839696.4658,61.0,888.0,89.0,429.9999999999385,36.31
1602839696.4677,61.0,888.0,89.0,429.9999999999385,36.31
1602839696.4697,61.0,888.0,87.0,429.9999999999385,36.31
1602839696.4717,61.0,888.0,96.0,429.9999999999385,36.31
1602839696.4737,61.0,888.0,94.0,429.9999999999385,36.31
1602839696.4757,61.0,888.0,84.0,429.9999999999385,36.31
1602839696.4776,61.0,888.0,84.0,429.9999999999385,36.31
1602839696.4797,61.0,888.0,87.0,429.9999999999385,36.31
1602839696.4816,61.0,888.0,87.0,429.9999999999385,36.31
1602839696.4837,61.0,888.0,92.0,429.9999999999385,36.31
1602839696.4857,61.0,888.0,104.0,429.9999999999385,36.31
1602839696.9424,62.0,907.0,128.0,429.9999999999385,36.31
1602839696.9432,62.0,907.0,147.0,429.9999999999385,36.31
1602839696.9445,62.0,907.0,116.0,429.9999999999385,36.31
1602839696.9466,62.0,907.0,79.0,429.9999999999385,36.31
1602839696.9486,62.0,907.0,92.0,429.9999999999385,36.31
1602839696.9506,62.0,907.0,101.0,429.9999999999385,36.31
1602839696.9526,62.0,907.0,77.0,429.9999999999385,36.31
1602839696.9545,62.0,907.0,62.0,429.9999999999385,36.31
1602839696.9565,62.0,907.0,75.0,429.9999999999385,36.31
1602839696.9585,62.0,907.0,79.0,429.9999999999385,36.31
1602839696.9605,62.0,907.0,70.0,429.9999999999385,36.31
1602839696.9627,62.0,907.0,70.0,429.9999999999385,36.31
1602839696.9645,62.0,907.0,75.0,429.9999999999385,36.31
1602839696.9665,62.0,907.0,70.0,429.9999999999385,36.31
1602839696.9685,62.0,907.0,70.0,429.9999999999385,36.31
1602839696.9705,62.0,907.0,72.0,429.9999999999385,36.31
1602839696.9725,62.0,907.0,82.0,429.9999999999385,36.31
1602839696.9745,62.0,907.0,205.0,429.9999999999385,36.31
1602839696.9764,62.0,907.0,474.0,429.9999999999385,36.31
1602839696.9785,62.0,907.0,556.0,429.9999999999385,36.31
1602839696.9805,62.0,907.0,87.0,429.9999999999385,36.31
1602839696.9826,62.0,907.0,-438.0,429.9999999999385,36.31
1602839696.9844,62.0,907.0,-285.0,429.9999999999385,36.31
1602839696.9865,62.0,907.0,82.0,430.04239161774103,36.31
1602839696.9885,62.0,907.0,67.0,430.0804575602576,36.31
1602839696.9905,62.0,907.0,21.0,430.1142852148678,36.31
1602839696.9925,62.0,907.0,108.0,430.14396196895086,36.31
1602839696.9945,62.0,907.0,108.0,430.1695752098866,36.31
1602839696.9965,62.0,907.0,75.0,430.1912123250545,36.31
1602839696.9985,62.0,907.0,96.0,430.2089607018339,36.31
1602839697.0004,62.0,907.0,101.0,430.2229077276045,36.31
1602839697.0025,62.0,907.0,92.0,430.23314078974556,36.31
1602839697.0045,62.0,907.0,94.0,430.2397472756369,36.31
1602839697.0065,62.0,907.0,106.0,430.24281457265784,36.31
1602839697.0084,62.0,907.0,118.0,430.242430068188,36.31
1602839697.0105,62.0,907.0,121.0,430.2386811496068,36.31
1602839697.0125,62.0,907.0,123.0,430.2316552042938,36.31
1602839697.0145,62.0,907.0,123.0,430.22143961962854,36.31
1602839697.0164,62.0,907.0,116.0,430.2081217829906,36.31
1602839697.0184,62.0,907.0,111.0,430.1917890817592,36.31
1602839697.0204,62.0,907.0,118.0,430.1725289033143,36.31
1602839697.0225,62.0,907.0,138.0,430.15042863503504,36.31
1602839697.0245,62.0,907.0,133.0,430.125575664301,36.31
1602839697.0265,62.0,907.0,118.0,430.09805737849183,36.31
1602839697.0285,62.0,907.0,135.0,430.06796116498697,36.31
1602839697.0305,62.0,907.0,159.0,430.035374411166,36.31
1602839697.0325,62.0,907.0,167.0,430.0003845044083,36.31
1602839697.0345,62.0,907.0,152.0,429.9630788320935,36.31
1602839697.0365,62.0,907.0,138.0,429.9235447816011,36.31
1602839697.0384,62.0,907.0,152.0,429.88186974031055,36.31
1602839697.0404,62.0,907.0,176.0,429.8381410956015,36.31
1602839697.0425,62.0,907.0,181.0,429.7924462348533,36.31
1602839697.0445,62.0,907.0,196.0,429.74487254544545,36.31
1602839697.0464,62.0,907.0,198.0,429.6955074147577,36.31
1602839697.0485,62.0,907.0,174.0,429.6444382301694,36.31
1602839697.0504,62.0,907.0,162.0,429.5917523790599,36.31
1602839697.0526,62.0,907.0,157.0,429.53753724880903,36.31
1602839697.0544,62.0,907.0,145.0,429.4818802267962,36.31
1602839697.0564,62.0,907.0,147.0,429.4248687004008,36.31
1602839697.0584,62.0,907.0,150.0,429.36659005700255,36.31
1602839697.0604,62.0,907.0,125.0,429.30713168398074,36.31
1602839697.0625,62.0,907.0,99.0,429.2465809687151,36.31
1602839697.0646,62.0,907.0,82.0,429.18502529858495,36.31
1602839697.0665,62.0,907.0,70.0,429.12255206096995,36.31
1602839697.0685,62.0,907.0,65.0,429.0592486432496,36.31
1602839697.0705,62.0,907.0,58.0,428.99520243280324,36.31
1602839697.0725,62.0,907.0,46.0,428.9305008170106,36.31
1602839697.0744,62.0,907.0,36.0,428.8652311832511,36.31
1602839697.0765,62.0,907.0,31.0,428.79948091890435,36.31
1602839697.0785,62.0,907.0,36.0,428.7333374113497,36.31
1602839697.0804,62.0,907.0,55.0,428.6668880479667,36.31
1602839697.0825,62.0,907.0,70.0,428.60022021613497,36.31
1602839697.0844,62.0,907.0,72.0,428.533421303234,36.31
1602839697.4823,62.0,907.0,55.0,428.46657869664324,36.31
1602839697.4832,62.0,907.0,43.0,428.39977978374225,36.31
1602839697.4856,62.0,907.0,65.0,428.33311195191055,36.31
1602839697.4883,62.0,907.0,89.0,428.26666258852765,36.31
1602839697.4903,62.0,907.0,77.0,428.20051908097304,36.31
1602839697.4923,62.0,907.0,62.0,428.13476881662626,36.31
1602839697.4944,62.0,907.0,70.0,428.06949918286676,36.31
1602839697.4962,62.0,907.0,77.0,428.00479756707415,36.31
1602839697.4982,62.0,907.0,82.0,427.9407513566278,36.31
1602839697.5003,62.0,907.0,94.0,427.87744793890744,36.31
1602839697.5024,62.0,907.0,92.0,427.81497470129244,36.31
1602839697.5042,62.0,907.0,67.0,427.7534190311623,36.31
1602839697.5062,62.0,907.0,62.0,427.69286831589665,36.31
1602839697.5082,62.0,907.0,70.0,427.63340994287483,36.31
1602839697.5102,62.0,907.0,65.0,427.5751312994766,36.31
1602839697.5123,62.0,907.0,62.0,427.5181197730812,36.31
1602839697.5142,62.0,907.0,72.0,427.46246275106836,36.31
1602839697.5162,62.0,907.0,77.0,427.40824762081746,36.31
1602839697.5182,62.0,907.0,79.0,427.3555617697081,36.31
1602839697.5202,62.0,907.0,77.0,427.3044925851197,36.31
1602839697.5223,62.0,907.0,65.0,427.25512745443194,36.31
1602839697.5242,62.0,907.0,60.0,427.2075537650242,36.31
1602839697.5262,62.0,907.0,65.0,427.161858904276,36.31
1602839697.5282,62.0,907.0,70.0,427.1605218773694,36.31
1602839697.5302,62.0,907.0,77.0,427.1569127785954,36.31
1602839697.5323,62.0,907.0,75.0,427.15120638271316,36.31
1602839697.5342,62.0,907.0,67.0,427.14357746448155,36.31
1602839697.5362,62.0,907.0,72.0,427.1342007986596,36.31
1602839697.5382,62.0,907.0,89.0,427.1232511600064,36.31
1602839697.5402,62.0,907.0,89.0,427.110903323281,36.31
1602839697.5423,62.0,907.0,70.0,427.0973320632424,36.31
1602839697.5442,62.0,907.0,62.0,427.0827121546495,36.31
1602839697.5462,62.0,907.0,77.0,427.0672183722616,36.31
1602839697.5482,62.0,907.0,92.0,427.0510254908375,36.31
1602839697.5503,62.0,907.0,94.0,427.03430828513643,36.31
1602839697.5523,62.0,907.0,82.0,427.01724152991716,36.31
1602839697.5543,62.0,907.0,70.0,426.9999999999389,36.31
1602839697.5562,62.0,907.0,84.0,426.98275846996074,36.31
1602839697.5582,62.0,907.0,104.0,426.96569171474147,36.31
1602839697.5602,62.0,907.0,99.0,426.9489745090404,36.31
1602839697.5625,62.0,907.0,77.0,426.9327816276163,36.31
1602839697.5642,62.0,907.0,60.0,426.9172878452284,36.31
1602839697.5663,62.0,907.0,62.0,426.9026679366355,36.31
1602839697.5683,62.0,907.0,72.0,426.8890966765969,36.31
1602839697.5702,62.0,907.0,89.0,426.8767488398715,36.31
1602839697.5722,62.0,907.0,113.0,426.8657992012183,36.31
1602839697.5742,62.0,907.0,118.0,426.85642253539646,36.31
1602839697.5762,62.0,907.0,101.0,426.84879361716474,36.31
1602839697.5782,62.0,907.0,89.0,426.8430872212825,36.31
1602839697.5802,62.0,907.0,94.0,426.8394781225085,36.31
1602839697.5822,62.0,907.0,92.0,426.838141095602,36.31
1602839697.5828,62.0,907.0,70.0,426.7924462348537,36.31
1602839697.5842,62.0,907.0,55.0,426.74487254544596,36.31
1602839697.5862,62.0,907.0,62.0,426.6955074147582,36.31
1602839697.5882,62.0,907.0,70.0,426.6444382301698,36.31
1602839697.5902,62.0,907.0,72.0,426.59175237906044,36.31
1602839697.5923,62.0,907.0,58.0,426.53753724880954,36.31
1602839697.5942,62.0,907.0,55.0,426.4818802267967,36.31
1602839697.5962,62.0,907.0,79.0,426.4248687004013,36.31
1602839697.5983,62.0,907.0,82.0,426.36659005700295,36.31
1602839697.6002,62.0,907.0,75.0,426.30713168398125,36.31
1602839697.6023,62.0,907.0,198.0,426.2465809687155,36.31
1602839697.6042,62.0,907.0,467.0,426.18502529858546,36.31
1602839697.6062,62.0,907.0,544.0,426.12255206097035,36.31
1602839697.6082,62.0,907.0,104.0,426.05924864325,36.31
1602839697.6102,62.0,907.0,-389.0,425.99520243280364,36.31
1602839697.6123,62.0,907.0,-249.0,425.930500817011,36.31
1602839697.6129,62.0,907.0,106.0,425.8652311832515,36.31
1602839697.6142,62.0,907.0,101.0,425.79948091890475,36.31
1602839697.6162,62.0,907.0,33.0,425.73333741135013,36.31
1602839697.6182,62.0,907.0,89.0,425.6668880479672,36.31
1602839697.6202,62.0,907.0,94.0,425.6002202161355,36.31
1602839697.6223,62.0,907.0,82.0,425.5334213032345,36.31
1602839698.0525,63.0,943.0,118.0,425.46657869664375,36.31
1602839698.0534,63.0,943.0,111.0,425.39977978374276,36.31
1602839698.0557,63.0,943.0,87.0,425.333111951911,36.31
1602839698.0575,63.0,943.0,101.0,425.2666625885281,36.31
1602839698.0594,63.0,943.0,113.0,425.20051908097344,36.31
1602839698.0601,63.0,943.0,113.0,425.1347688166266,36.31
1602839698.0623,63.0,943.0,108.0,425.0694991828671,36.31
1602839698.0644,63.0,943.0,94.0,425.00479756707443,36.31
1602839698.0664,63.0,943.0,84.0,424.9407513566282,36.31
1602839698.0683,63.0,943.0,96.0,424.8774479389078,36.31
1602839698.0703,63.0,943.0,111.0,424.8149747012928,36.31
1602839698.0723,63.0,943.0,108.0,424.75341903116265,36.31
1602839698.0744,63.0,943.0,99.0,424.692868315897,36.31
1602839698.0763,63.0,943.0,108.0,424.63340994287523,36.31
1602839698.0783,63.0,943.0,125.0,424.57513129947694,36.31
1602839698.0803,63.0,943.0,128.0,424.5181197730816,36.31
1602839698.0824,63.0,943.0,125.0,424.4624627510687,36.31
1602839698.0843,63.0,943.0,138.0,424.4082476208178,36.31
1602839698.0865,63.0,943.0,147.0,424.35556176970846,36.31
1602839698.0883,63.0,943.0,150.0,424.3044925851201,36.31
1602839698.089,63.0,943.0,152.0,424.2551274544323,36.31
1602839698.0904,63.0,943.0,159.0,424.2075537650245,36.31
1602839698.0923,63.0,943.0,176.0,424.1618589042763,36.31
1602839698.0943,63.0,943.0,184.0,424.1181302595672,36.31
1602839698.0963,63.0,943.0,169.0,424.07645521827664,36.31
1602839698.0983,63.0,943.0,159.0,424.0369211677842,36.31
1602839698.1004,63.0,943.0,164.0,423.9996154954694,36.31
1602839698.1024,63.0,943.0,159.0,423.9646255887117,36.31
1602839698.1043,63.0,943.0,164.0,423.93203883489076,36.31
1602839698.1063,63.0,943.0,159.0,423.9019426213859,36.31
1602839698.1083,63.0,943.0,138.0,423.87442433557675,36.31
1602839698.1103,63.0,943.0,116.0,423.84957136484275,36.31
1602839698.1124,63.0,943.0,96.0,423.8274710965635,36.31
1602839698.1144,63.0,943.0,79.0,423.8082109181185,36.31
1602839698.1165,63.0,943.0,77.0,423.7918782168872,36.31
1602839698.1184,63.0,943.0,65.0,423.7785603802492,36.31
1602839698.1191,63.0,943.0,31.0,423.7683447955839,36.31
1602839698.1204,63.0,943.0,24.0,423.7613188502709,36.31
1602839698.1224,63.0,943.0,38.0,423.7575699316898,36.31
1602839698.1244,63.0,943.0,46.0,423.7571854272199,36.31
1602839698.1264,63.0,943.0,48.0,423.76025272424084,36.31
1602839698.1283,63.0,943.0,33.0,423.76685921013217,36.31
1602839698.1303,63.0,943.0,21.0,423.7770922722733,36.31
1602839698.1324,63.0,943.0,41.0,423.79103929804387,36.31
1602839698.1343,63.0,943.0,65.0,423.8087876748233,36.31
1602839698.1363,63.0,943.0,77.0,423.8304247899911,36.31
1602839698.1383,63.0,943.0,77.0,423.85603803092687,36.31
1602839698.1403,63.0,943.0,67.0,423.88571478501,36.31
1602839698.1423,63.0,943.0,58.0,423.91954243962016,36.31
1602839698.1443,63.0,943.0,62.0,423.9576083821367,36.31
1602839698.1463,63.0,943.0,72.0,423.9999999999393,36.31
1602839698.1483,63.0,943.0,75.0,423.9999999999393,36.31
1602839698.149,63.0,943.0,62.0,423.9999999999393,36.31
1602839698.1504,63.0,943.0,58.0,423.9999999999393,36.31
1602839698.1524,63.0,943.0,82.0,423.9999999999393,36.31
1602839698.1543,63.0,943.0,96.0,423.9999999999393,36.31
1602839698.1563,63.0,943.0,84.0,423.9999999999393,36.31
1602839698.1583,63.0,943.0,77.0,423.9999999999393,36.31
1602839698.1603,63.0,943.0,75.0,423.9999999999393,36.31
1602839698.1624,63.0,943.0,67.0,423.9999999999393,36.31
1602839698.1643,63.0,943.0,70.0,423.9999999999393,36.31
1602839698.1663,63.0,943.0,82.0,423.9999999999393,36.31
1602839698.1683,63.0,943.0,84.0,423.9999999999393,36.31
1602839698.1704,63.0,943.0,82.0,423.9999999999393,36.31
1602839698.1723,63.0,943.0,82.0,423.9999999999393,36.31
1602839698.1743,63.0,943.0,77.0,423.9999999999393,36.31
1602839698.1763,63.0,943.0,77.0,423.9999999999393,36.31
1602839698.1783,63.0,943.0,87.0,423.9999999999393,36.31
1602839698.179,63.0,943.0,96.0,423.9999999999393,36.31
1602839698.1805,63.0,943.0,89.0,423.9999999999393,36.31
1602839698.1824,63.0,943.0,79.0,423.9999999999393,36.31
1602839698.1843,63.0,943.0,82.0,423.9999999999393,36.31
1602839698.1863,63.0,943.0,84.0,423.9999999999393,36.31
1602839698.5924,63.0,943.0,67.0,423.9999999999393,36.31
1602839698.5935,63.0,943.0,62.0,423.9999999999393,36.31
1602839698.5959,63.0,943.0,82.0,423.9999999999393,36.31
1602839698.5986,63.0,943.0,94.0,423.9999999999393,36.31
1602839698.6006,63.0,943.0,96.0,423.9999999999393,36.31
1602839698.6026,63.0,943.0,87.0,423.9999999999393,36.31
1602839698.6047,63.0,943.0,67.0,423.9999999999393,36.31
1602839698.6065,63.0,943.0,77.0,423.9999999999393,36.31
1602839698.6085,63.0,943.0,92.0,423.9999999999393,36.31
1602839698.6105,63.0,943.0,67.0,423.9999999999393,36.31
1602839698.6126,63.0,943.0,53.0,423.9999999999393,36.31
1602839698.6132,63.0,943.0,75.0,423.9999999999393,36.31
1602839698.6145,63.0,943.0,79.0,423.9999999999393,36.31
1602839698.6165,63.0,943.0,65.0,423.9999999999393,36.31
1602839698.6185,63.0,943.0,53.0,423.9999999999393,36.31
1602839698.6205,63.0,943.0,58.0,423.9999999999393,36.31
1602839698.6225,63.0,943.0,82.0,423.9999999999393,36.31
1602839698.6244,63.0,943.0,108.0,423.9999999999393,36.31
1602839698.6265,63.0,943.0,121.0,423.9999999999393,36.31
1602839698.6285,63.0,943.0,101.0,423.9999999999393,36.31
1602839698.6304,63.0,943.0,72.0,423.9999999999393,36.31
1602839698.6326,63.0,943.0,75.0,423.9999999999393,36.31
1602839698.6344,63.0,943.0,92.0,423.9999999999393,36.31
1602839698.6364,63.0,943.0,79.0,424.0141305392068,36.31
1602839698.6384,63.0,943.0,48.0,424.0268191867123,36.31
1602839698.6405,63.0,943.0,33.0,424.03809507158235,36.31
1602839698.6425,63.0,943.0,41.0,424.0479873229434,36.31
1602839698.6431,63.0,943.0,53.0,424.056525069922,36.31
1602839698.6444,63.0,943.0,62.0,424.0637374416446,36.31
1602839698.6464,63.0,943.0,62.0,424.0696535672377,36.31
1602839698.6484,63.0,943.0,48.0,424.0743025758279,36.31
1602839698.6505,63.0,943.0,48.0,424.0777135965416,36.31
1602839698.6525,63.0,943.0,55.0,424.07991575850536,36.31
1602839698.6545,63.0,943.0,77.0,424.0809381908457,36.31
1602839698.6564,63.0,943.0,227.0,424.0808100226891,36.31
1602839698.6584,63.0,943.0,486.0,424.079560383162,36.31
1602839698.6604,63.0,943.0,493.0,424.07721840139106,36.31
1602839698.6625,63.0,943.0,-7.0,424.0738132065026,36.31
1602839698.6645,63.0,943.0,-416.0,424.0693739276233,36.31
1602839698.6664,63.0,943.0,-174.0,424.0639296938795,36.31
1602839698.6685,63.0,943.0,123.0,424.05750963439783,36.31
1602839698.6705,63.0,943.0,55.0,424.05014287830477,36.31
1602839698.6725,63.0,943.0,29.0,424.0418585547268,36.31
1602839698.6732,63.0,943.0,111.0,424.0326857927904,36.31
1602839698.6744,63.0,943.0,96.0,424.02265372162213,36.31
1602839698.6764,63.0,943.0,67.0,424.01179147034844,36.31
1602839698.6785,63.0,943.0,94.0,424.0001281680959,36.31
1602839698.6806,63.0,943.0,111.0,423.98769294399096,36.31
1602839698.6826,63.0,943.0,108.0,423.97451492716016,36.31
1602839698.6845,63.0,943.0,101.0,423.96062324673,36.31
1602839698.6864,63.0,943.0,92.0,423.94604703182694,36.31
1602839698.6885,63.0,943.0,99.0,423.9308154115775,36.31
1602839698.6904,63.0,943.0,116.0,423.91495751510826,36.31
1602839698.6924,63.0,943.0,121.0,423.89850247154567,36.31
1602839698.6945,63.0,943.0,113.0,423.8814794100162,36.31
1602839698.6964,63.0,943.0,111.0,423.8639174596464,36.31
1602839698.6985,63.0,943.0,125.0,423.8458457495628,36.31
1602839698.7005,63.0,943.0,147.0,423.8272934088918,36.31
1602839698.7025,63.0,943.0,150.0,423.80828956676004,36.31
1602839698.7031,63.0,943.0,133.0,423.78886335229396,36.31
1602839698.7045,63.0,943.0,133.0,423.76904389462004,36.31
1602839698.7064,63.0,943.0,140.0,423.7488603228648,36.31
1602839698.7084,63.0,943.0,140.0,423.72834176615476,36.31
1602839698.7104,63.0,943.0,145.0,423.7075173536164,36.31
1602839698.7125,63.0,943.0,142.0,423.6864162143763,36.31
1602839698.7144,63.0,943.0,142.0,423.66506747756085,36.31
1602839698.7164,63.0,943.0,162.0,423.64350027229665,36.31
1602839698.7184,63.0,943.0,184.0,423.62174372771017,36.31
1602839698.7204,63.0,943.0,188.0,423.59982697292793,36.31
1602839698.7225,63.0,943.0,181.0,423.5777791370764,36.31
1602839698.7245,63.0,943.0,179.0,423.55562934928207,36.31
1602839698.7264,63.0,943.0,176.0,423.5334067386715,36.31
1602839698.7285,63.0,943.0,162.0,423.51114043437116,36.31
1602839699.1319,63.0,901.0,152.0,423.48885956550754,36.31
1602839699.1329,63.0,901.0,162.0,423.4665932612072,36.31
1602839699.1347,63.0,901.0,167.0,423.4443706505967,36.31
1602839699.1367,63.0,901.0,147.0,423.42222086280236,36.31
1602839699.1387,63.0,901.0,123.0,423.4001730269508,36.31
1602839699.1407,63.0,901.0,101.0,423.3782562721685,36.31
1602839699.1426,63.0,901.0,82.0,423.35649972758205,36.31
1602839699.1446,63.0,901.0,67.0,423.33493252231784,36.31
1602839699.1466,63.0,901.0,53.0,423.31358378550243,36.31
1602839699.1486,63.0,901.0,36.0,423.2924826462623,36.31
1602839699.1506,63.0,901.0,29.0,423.27165823372394,36.31
1602839699.1526,63.0,901.0,31.0,423.2511396770139,36.31
1602839699.1546,63.0,901.0,41.0,423.23095610525866,36.31
1602839699.1566,63.0,901.0,43.0,423.21113664758474,36.31
1602839699.1573,63.0,901.0,41.0,423.19171043311866,36.31
1602839699.1596,63.0,901.0,48.0,423.1727065909869,36.31
1602839699.1616,63.0,901.0,58.0,423.1541542503159,36.31
1602839699.1636,63.0,901.0,55.0,423.1360825402323,36.31
1602839699.1656,63.0,901.0,53.0,423.1185205898625,36.31
1602839699.1677,63.0,901.0,53.0,423.101497528333,36.31
1602839699.1696,63.0,901.0,46.0,423.08504248477044,36.31
1602839699.1716,63.0,901.0,38.0,423.0691845883012,36.31
1602839699.1736,63.0,901.0,43.0,423.05395296805176,36.31
1602839699.1756,63.0,901.0,58.0,423.05350729241627,36.31
1602839699.1776,63.0,901.0,72.0,423.0523042594916,36.31
1602839699.1798,63.0,901.0,82.0,423.05040212753084,36.31
1602839699.1816,63.0,901.0,70.0,423.047859154787,36.31
1602839699.1836,63.0,901.0,60.0,423.044733599513,36.31
1602839699.1856,63.0,901.0,65.0,423.04108371996193,36.31
1602839699.1876,63.0,901.0,67.0,423.0369677743868,36.31
1602839699.1883,63.0,901.0,72.0,423.0324440210406,36.31
1602839699.1906,63.0,901.0,82.0,423.0275707181763,36.31
1602839699.1926,63.0,901.0,72.0,423.022406124047,36.31
1602839699.1946,63.0,901.0,65.0,423.01700849690565,36.31
1602839699.1966,63.0,901.0,70.0,423.01143609500525,36.31
1602839699.1986,63.0,901.0,67.0,423.00574717659885,36.31
1602839699.2006,63.0,901.0,70.0,422.99999999993946,36.31
1602839699.2026,63.0,901.0,75.0,422.99425282328,36.31
1602839699.2046,63.0,901.0,82.0,422.9885639048736,36.31
1602839699.2066,63.0,901.0,84.0,422.9829915029732,36.31
1602839699.2086,63.0,901.0,77.0,422.9775938758319,36.31
1602839699.2106,63.0,901.0,72.0,422.9724292817026,36.31
1602839699.2127,63.0,901.0,77.0,422.96755597883833,36.31
1602839699.2146,63.0,901.0,79.0,422.9630322254921,36.31
1602839699.2166,63.0,901.0,87.0,422.958916279917,36.31
1602839699.2186,63.0,901.0,92.0,422.95526640036593,36.31
1602839699.2206,63.0,901.0,87.0,422.95214084509195,36.31
1602839699.2227,63.0,901.0,70.0,422.9495978723481,36.31
1602839699.2246,63.0,901.0,70.0,422.9476957403873,36.31
1602839699.2266,63.0,901.0,84.0,422.94649270746265,36.31
1602839699.2286,63.0,901.0,87.0,422.9460470318271,36.31
1602839699.2307,63.0,901.0,82.0,422.9308154115777,36.31
1602839699.2327,63.0,901.0,75.0,422.9149575151084,36.31
1602839699.2346,63.0,901.0,72.0,422.89850247154584,36.31
1602839699.2366,63.0,901.0,79.0,422.88147941001637,36.31
1602839699.2386,63.0,901.0,79.0,422.8639174596466,36.31
1602839699.2406,63.0,901.0,70.0,422.84584574956295,36.31
1602839699.2426,63.0,901.0,70.0,422.827293408892,36.31
1602839699.2446,63.0,901.0,70.0,422.8082895667602,36.31
1602839699.2466,63.0,901.0,75.0,422.78886335229413,36.31
1602839699.2486,63.0,901.0,79.0,422.7690438946202,36.31
1602839699.2506,63.0,901.0,84.0,422.74886032286497,36.31
1602839699.2526,63.0,901.0,87.0,422.7283417661549,36.31
1602839699.2546,63.0,901.0,89.0,422.7075173536166,36.31
1602839699.2566,63.0,901.0,82.0,422.68641621437644,36.31
1602839699.2586,63.0,901.0,82.0,422.665067477561,36.31
1602839699.2606,63.0,901.0,99.0,422.6435002722968,36.31
1602839699.2627,63.0,901.0,106.0,422.6217437277103,36.31
1602839699.2646,63.0,901.0,89.0,422.59982697292804,36.31
1602839699.2666,63.0,901.0,75.0,422.5777791370765,36.31
1602839699.2686,63.0,901.0,82.0,422.5556293492822,36.31
1602839699.2706,63.0,901.0,92.0,422.5334067386716,36.31
1602839699.2726,63.0,901.0,77.0,422.51114043437127,36.31
1602839699.7024,63.0,901.0,55.0,422.48885956550765,36.31
1602839699.7032,63.0,901.0,55.0,422.4665932612073,36.31
1602839699.7057,63.0,901.0,62.0,422.44437065059674,36.31
1602839699.7085,63.0,901.0,58.0,422.4222208628024,36.31
1602839699.7104,63.0,901.0,41.0,422.4001730269509,36.31
1602839699.7124,63.0,901.0,38.0,422.3782562721686,36.31
1602839699.7145,63.0,901.0,65.0,422.3564997275821,36.31
1602839699.7163,63.0,901.0,77.0,422.3349325223179,36.31
1602839699.7183,63.0,901.0,53.0,422.3135837855025,36.31
1602839699.7203,63.0,901.0,111.0,422.2924826462624,36.31
1602839699.7223,63.0,901.0,336.0,422.27165823372405,36.31
1602839699.7242,63.0,901.0,520.0,422.251139677014,36.31
1602839699.7263,63.0,901.0,251.0,422.2309561052588,36.31
1602839699.7282,63.0,901.0,-309.0,422.2111366475849,36.31
1602839699.7302,63.0,901.0,-382.0,422.1917104331188,36.31
1602839699.7323,63.0,901.0,-7.0,422.17270659098705,36.31
1602839699.7342,63.0,901.0,94.0,422.1541542503161,36.31
1602839699.7362,63.0,901.0,7.0,422.13608254023245,36.31
1602839699.7382,63.0,901.0,72.0,422.11852058986267,36.31
1602839699.7402,63.0,901.0,111.0,422.10149752833325,36.31
1602839699.7423,63.0,901.0,55.0,422.0850424847706,36.31
1602839699.7442,63.0,901.0,65.0,422.06918458830137,36.31
1602839699.7462,63.0,901.0,108.0,422.053952968052,36.31
1602839699.7482,63.0,901.0,84.0,422.03937675314893,36.31
1602839699.7503,63.0,901.0,60.0,422.02548507271877,36.31
1602839699.7523,63.0,901.0,89.0,422.01230705588796,36.31
1602839699.7542,63.0,901.0,111.0,421.999871831783,36.31
1602839699.7562,63.0,901.0,99.0,421.9882085295304,36.31
1602839699.7582,63.0,901.0,94.0,421.9773462782568,36.31
1602839699.7602,63.0,901.0,106.0,421.9673142070885,36.31
1602839699.7623,63.0,901.0,108.0,421.95814144515214,36.31
1602839699.7642,63.0,901.0,108.0,421.9498571215741,36.31
1602839699.7662,63.0,901.0,121.0,421.94249036548104,36.31
1602839699.7682,63.0,901.0,123.0,421.93607030599935,36.31
1602839699.7702,63.0,901.0,125.0,421.9306260722556,36.31
1602839699.7723,63.0,901.0,145.0,421.92618679337625,36.31
1602839699.7742,63.0,901.0,147.0,421.92278159848786,36.31
1602839699.7762,63.0,901.0,121.0,421.92043961671686,36.31
1602839699.7783,63.0,901.0,118.0,421.9191899771898,36.31
1602839699.7802,63.0,901.0,145.0,421.91906180903317,36.31
1602839699.7823,63.0,901.0,171.0,421.9200842413735,36.31
1602839699.7842,63.0,901.0,176.0,421.92228640333724,36.31
1602839699.7862,63.0,901.0,159.0,421.925697424051,36.31
1602839699.7882,63.0,901.0,157.0,421.93034643264116,36.31
1602839699.7902,63.0,901.0,167.0,421.9362625582343,36.31
1602839699.7923,63.0,901.0,167.0,421.9434749299569,36.31
1602839699.7942,63.0,901.0,164.0,421.9520126769355,36.31
1602839699.7962,63.0,901.0,171.0,421.9619049282966,36.31
1602839699.7982,63.0,901.0,169.0,421.9731808131666,36.31
1602839699.8002,63.0,901.0,157.0,421.9858694606721,36.31
1602839699.8022,63.0,901.0,157.0,421.99999999993963,36.31
1602839699.8042,63.0,901.0,152.0,421.99999999993963,36.31
1602839699.8062,63.0,901.0,123.0,421.99999999993963,36.31
1602839699.8082,63.0,901.0,113.0,421.99999999993963,36.31
1602839699.8104,63.0,901.0,99.0,421.99999999993963,36.31
1602839699.8123,63.0,901.0,55.0,421.99999999993963,36.31
1602839699.8142,63.0,901.0,43.0,421.99999999993963,36.31
1602839699.8162,63.0,901.0,58.0,421.99999999993963,36.31
1602839699.8182,63.0,901.0,43.0,421.99999999993963,36.31
1602839699.8202,63.0,901.0,29.0,421.99999999993963,36.31
1602839699.8222,63.0,901.0,38.0,421.99999999993963,36.31
1602839699.8242,63.0,901.0,53.0,421.99999999993963,36.31
1602839699.8262,63.0,901.0,58.0,421.99999999993963,36.31
1602839699.8282,63.0,901.0,50.0,421.99999999993963,36.31
1602839699.8302,63.0,901.0,46.0,421.99999999993963,36.31
1602839699.8323,63.0,901.0,53.0,421.99999999993963,36.31
1602839699.8344,63.0,901.0,67.0,421.99999999993963,36.31
1602839699.8362,63.0,901.0,77.0,421.99999999993963,36.31
1602839699.8382,63.0,901.0,72.0,421.99999999993963,36.31
1602839699.8402,63.0,901.0,62.0,421.99999999993963,36.31
1602839699.8422,63.0,901.0,77.0,421.99999999993963,36.31
1602839699.8442,63.0,901.0,89.0,421.99999999993963,36.31
1602839699.8462,63.0,901.0,75.0,421.99999999993963,36.31
1602839700.3024,64.0,921.0,70.0,421.99999999993963,36.31
1602839700.3033,64.0,921.0,82.0,421.99999999993963,36.31
1602839700.3057,64.0,921.0,70.0,421.99999999993963,36.31
1602839700.3084,64.0,921.0,58.0,421.99999999993963,36.31
1602839700.3104,64.0,921.0,67.0,421.99999999993963,36.31
1602839700.3124,64.0,921.0,55.0,421.99999999993963,36.31
1602839700.3145,64.0,921.0,41.0,421.99999999993963,36.31
1602839700.3163,64.0,921.0,53.0,421.99999999993963,36.31
1602839700.3183,64.0,921.0,50.0,421.99999999993963,36.31
1602839700.3203,64.0,921.0,41.0,421.99999999993963,36.31
1602839700.3224,64.0,921.0,62.0,421.99999999993963,36.31
1602839700.3244,64.0,921.0,72.0,421.99999999993963,36.31
1602839700.3263,64.0,921.0,55.0,421.99999999993963,36.31
1602839700.3283,64.0,921.0,50.0,421.99999999993963,36.31
1602839700.3303,64.0,921.0,60.0,421.99999999993963,36.31
1602839700.3324,64.0,921.0,62.0,421.99999999993963,36.31
1602839700.3343,64.0,921.0,60.0,421.99999999993963,36.31
1602839700.3363,64.0,921.0,60.0,421.99999999993963,36.31
1602839700.3383,64.0,921.0,72.0,421.99999999993963,36.31
1602839700.3403,64.0,921.0,79.0,421.99999999993963,36.31
1602839700.3424,64.0,921.0,72.0,421.99999999993963,36.31
1602839700.3443,64.0,921.0,62.0,421.99999999993963,36.31
1602839700.3463,64.0,921.0,65.0,421.99999999993963,36.31
1602839700.3483,64.0,921.0,70.0,422.01413053920714,36.31
1602839700.3503,64.0,921.0,58.0,422.02681918671266,36.31
1602839700.3523,64.0,921.0,58.0,422.0380950715827,36.31
1602839700.3543,64.0,921.0,75.0,422.04798732294375,36.31
1602839700.3563,64.0,921.0,77.0,422.0565250699224,36.31
1602839700.3583,64.0,921.0,67.0,422.06373744164495,36.31
1602839700.3603,64.0,921.0,65.0,422.0696535672381,36.31
1602839700.3623,64.0,921.0,65.0,422.07430257582826,36.31
1602839700.3643,64.0,921.0,72.0,422.077713596542,36.31
1602839700.3665,64.0,921.0,89.0,422.07991575850576,36.31
1602839700.3683,64.0,921.0,84.0,422.0809381908461,36.31
1602839700.3703,64.0,921.0,55.0,422.0808100226895,36.31
1602839700.3723,64.0,921.0,36.0,422.0795603831624,36.31
1602839700.3743,64.0,921.0,50.0,422.0772184013914,36.31
1602839700.3762,64.0,921.0,72.0,422.073813206503,36.31
1602839700.3782,64.0,921.0,79.0,422.06937392762364,36.31
1602839700.3802,64.0,921.0,79.0,422.06392969387986,36.31
1602839700.3823,64.0,921.0,82.0,422.05750963439823,36.31
1602839700.3843,64.0,921.0,77.0,422.0501428783051,36.31
1602839700.3863,64.0,921.0,72.0,422.0418585547271,36.31
1602839700.3882,64.0,921.0,75.0,422.03268579279074,36.31
1602839700.3903,64.0,921.0,77.0,422.0226537216225,36.31
1602839700.3923,64.0,921.0,58.0,422.0117914703488,36.31
1602839700.3943,64.0,921.0,41.0,422.00012816809624,36.31
1602839700.3962,64.0,921.0,50.0,421.9876929439913,36.31
1602839700.3983,64.0,921.0,60.0,421.9745149271605,36.31
1602839700.4002,64.0,921.0,53.0,421.96062324673034,36.31
1602839700.4023,64.0,921.0,50.0,421.9460470318273,36.31
1602839700.4043,64.0,921.0,60.0,421.9308154115779,36.31
1602839700.4063,64.0,921.0,60.0,421.9149575151086,36.31
1602839700.4082,64.0,921.0,53.0,421.898502471546,36.31
1602839700.4103,64.0,921.0,84.0,421.88147941001654,36.31
1602839700.4123,64.0,921.0,251.0,421.86391745964676,36.31
1602839700.4143,64.0,921.0,515.0,421.8458457495631,36.31
1602839700.4163,64.0,921.0,467.0,421.82729340889216,36.31
1602839700.4182,64.0,921.0,-101.0,421.8082895667604,36.31
1602839700.4203,64.0,921.0,-493.0,421.7888633522943,36.31
1602839700.4223,64.0,921.0,-200.0,421.7690438946204,36.31
1602839700.4243,64.0,921.0,99.0,421.74886032286514,36.31
1602839700.4262,64.0,921.0,41.0,421.7283417661551,36.31
1602839700.4283,64.0,921.0,41.0,421.70751735361677,36.31
1602839700.4303,64.0,921.0,125.0,421.68641621437666,36.31
1602839700.4323,64.0,921.0,104.0,421.6650674775612,36.31
1602839700.4343,64.0,921.0,70.0,421.643500272297,36.31
1602839700.4363,64.0,921.0,101.0,421.6217437277105,36.31
1602839700.4383,64.0,921.0,101.0,421.5998269729282,36.31
1602839700.4403,64.0,921.0,72.0,421.5777791370767,36.31
1602839700.4423,64.0,921.0,94.0,421.5556293492824,36.31
1602839700.4443,64.0,921.0,118.0,421.53340673867183,36.31
1602839700.4463,64.0,921.0,87.0,421.5111404343715,36.31
1602839700.8418,64.0,921.0,70.0,421.4888595655079,36.31
1602839700.8427,64.0,921.0,96.0,421.46659326120755,36.31
1602839700.8452,64.0,921.0,116.0,421.44437065059697,36.31
1602839700.8478,64.0,921.0,113.0,421.42222086280265,36.31
1602839700.8498,64.0,921.0,113.0,421.4001730269511,36.31
1602839700.8518,64.0,921.0,108.0,421.37825627216887,36.31
1602839700.8538,64.0,921.0,111.0,421.3564997275824,36.31
1602839700.8557,64.0,921.0,128.0,421.3349325223181,36.31
1602839700.8577,64.0,921.0,138.0,421.3135837855027,36.31
1602839700.8597,64.0,921.0,138.0,421.29248264626267,36.31
1602839700.8619,64.0,921.0,135.0,421.2716582337242,36.31
1602839700.8637,64.0,921.0,128.0,421.2511396770142,36.31
1602839700.8658,64.0,921.0,123.0,421.230956105259,36.31
1602839700.8677,64.0,921.0,125.0,421.211136647585,36.31
1602839700.8697,64.0,921.0,138.0,421.19171043311894,36.31
1602839700.8717,64.0,921.0,157.0,421.1727065909872,36.31
1602839700.8737,64.0,921.0,171.0,421.1541542503162,36.31
1602839700.8757,64.0,921.0,164.0,421.13608254023256,36.31
1602839700.8777,64.0,921.0,145.0,421.1185205898628,36.31
1602839700.8797,64.0,921.0,142.0,421.1014975283333,36.31
1602839700.8817,64.0,921.0,162.0,421.0850424847707,36.31
1602839700.8837,64.0,921.0,171.0,421.0691845883015,36.31
1602839700.8857,64.0,921.0,152.0,421.05395296805204,36.31
1602839700.8877,64.0,921.0,130.0,421.0535072924165,36.31
1602839700.8897,64.0,921.0,113.0,421.05230425949185,36.31
1602839700.8917,64.0,921.0,94.0,421.05040212753113,36.31
1602839700.8937,64.0,921.0,84.0,421.04785915478726,36.31
1602839700.8957,64.0,921.0,67.0,421.0447335995133,36.31
1602839700.8978,64.0,921.0,36.0,421.0410837199622,36.31
1602839700.8997,64.0,921.0,19.0,421.0369677743871,36.31
1602839700.9017,64.0,921.0,26.0,421.0324440210409,36.31
1602839700.9037,64.0,921.0,36.0,421.02757071817655,36.31
1602839700.9056,64.0,921.0,36.0,421.0224061240473,36.31
1602839700.9076,64.0,921.0,26.0,421.0170084969059,36.31
1602839700.9096,64.0,921.0,19.0,421.0114360950056,36.31
1602839700.9117,64.0,921.0,26.0,421.00574717659913,36.31
1602839700.9137,64.0,921.0,43.0,420.99999999993975,36.31
1602839700.9157,64.0,921.0,41.0,420.99425282328036,36.31
1602839700.9176,64.0,921.0,33.0,420.9885639048739,36.31
1602839700.9197,64.0,921.0,53.0,420.9829915029735,36.31
1602839700.9216,64.0,921.0,62.0,420.9775938758322,36.31
1602839700.9237,64.0,921.0,53.0,420.97242928170283,36.31
1602839700.9257,64.0,921.0,62.0,420.9675559788386,36.31
1602839700.9276,64.0,921.0,72.0,420.9630322254924,36.31
1602839700.9297,64.0,921.0,60.0,420.9589162799173,36.31
1602839700.9317,64.0,921.0,60.0,420.9552664003662,36.31
1602839700.9336,64.0,921.0,75.0,420.95214084509223,36.31
1602839700.9357,64.0,921.0,67.0,420.94959787234836,36.31
1602839700.9377,64.0,921.0,60.0,420.94769574038753,36.31
1602839700.9396,64.0,921.0,65.0,420.9464927074629,36.31
1602839700.9417,64.0,921.0,60.0,420.94604703182733,36.31
1602839700.9437,64.0,921.0,65.0,420.930815411578,36.31
1602839700.9456,64.0,921.0,82.0,420.91495751510877,36.31
1602839700.9477,64.0,921.0,77.0,420.89850247154607,36.31
1602839700.9497,64.0,921.0,60.0,420.8814794100167,36.31
1602839700.9516,64.0,921.0,62.0,420.8639174596469,36.31
1602839700.9537,64.0,921.0,75.0,420.8458457495633,36.31
1602839700.9557,64.0,921.0,75.0,420.8272934088923,36.31
1602839700.9577,64.0,921.0,65.0,420.80828956676055,36.31
1602839700.9597,64.0,921.0,60.0,420.78886335229436,36.31
1602839700.9617,64.0,921.0,58.0,420.7690438946205,36.31
1602839700.9639,64.0,921.0,58.0,420.7488603228653,36.31
1602839700.9657,64.0,921.0,55.0,420.72834176615527,36.31
1602839700.9677,64.0,921.0,60.0,420.70751735361694,36.31
1602839700.9696,64.0,921.0,65.0,420.6864162143768,36.31
1602839700.9717,64.0,921.0,62.0,420.66506747756137,36.31
1602839700.9737,64.0,921.0,65.0,420.6435002722971,36.31
1602839700.9757,64.0,921.0,62.0,420.62174372771057,36.31
1602839700.9776,64.0,921.0,58.0,420.59982697292827,36.31
1602839700.9797,64.0,921.0,58.0,420.57777913707673,36.31
1602839700.9817,64.0,921.0,62.0,420.5556293492824,36.31
1602839700.9837,64.0,921.0,58.0,420.5334067386719,36.31
1602839700.9857,64.0,921.0,62.0,420.51114043437155,36.31
1602839701.4122,64.0,935.0,67.0,420.488859565508,36.31
1602839701.413,64.0,935.0,65.0,420.46659326120766,36.31
1602839701.4155,64.0,935.0,70.0,420.4443706505971,36.31
1602839701.4181,64.0,935.0,75.0,420.42222086280276,36.31
1602839701.4201,64.0,935.0,65.0,420.4001730269512,36.31
1602839701.4222,64.0,935.0,50.0,420.378256272169,36.31
1602839701.4241,64.0,935.0,55.0,420.3564997275825,36.31
1602839701.4261,64.0,935.0,53.0,420.3349325223183,36.31
1602839701.4281,64.0,935.0,43.0,420.3135837855029,36.31
1602839701.4301,64.0,935.0,60.0,420.2924826462628,36.31
1602839701.4321,64.0,935.0,87.0,420.27165823372445,36.31
1602839701.434,64.0,935.0,79.0,420.2511396770144,36.31
1602839701.436,64.0,935.0,60.0,420.23095610525917,36.31
1602839701.438,64.0,935.0,58.0,420.21113664758525,36.31
1602839701.4401,64.0,935.0,65.0,420.19171043311917,36.31
1602839701.4421,64.0,935.0,58.0,420.1727065909874,36.31
1602839701.444,64.0,935.0,38.0,420.1541542503164,36.31
1602839701.446,64.0,935.0,31.0,420.1360825402328,36.31
1602839701.448,64.0,935.0,31.0,420.118520589863,36.31
1602839701.45,64.0,935.0,29.0,420.10149752833354,36.31
1602839701.4521,64.0,935.0,36.0,420.08504248477095,36.31
1602839701.454,64.0,935.0,60.0,420.0691845883017,36.31
1602839701.456,64.0,935.0,70.0,420.0539529680523,36.31
1602839701.458,64.0,935.0,48.0,420.03937675314927,36.31
1602839701.46,64.0,935.0,21.0,420.02548507271905,36.31
1602839701.462,64.0,935.0,84.0,420.01230705588824,36.31
1602839701.464,64.0,935.0,305.0,419.9998718317833,36.31
1602839701.466,64.0,935.0,530.0,419.98820852953077,36.31
1602839701.468,64.0,935.0,360.0,419.97734627825713,36.31
1602839701.47,64.0,935.0,-225.0,419.9673142070888,36.31
1602839701.4721,64.0,935.0,-455.0,419.9581414451524,36.31
1602839701.474,64.0,935.0,-84.0,419.94985712157444,36.31
1602839701.476,64.0,935.0,128.0,419.9424903654814,36.31
1602839701.478,64.0,935.0,36.0,419.9360703059997,36.31
1602839701.48,64.0,935.0,60.0,419.9306260722559,36.31
1602839701.4821,64.0,935.0,118.0,419.9261867933766,36.31
1602839701.484,64.0,935.0,77.0,419.92278159848814,36.31
1602839701.486,64.0,935.0,60.0,419.92043961671715,36.31
1602839701.488,64.0,935.0,89.0,419.9191899771901,36.31
1602839701.4901,64.0,935.0,92.0,419.9190618090335,36.31
1602839701.4922,64.0,935.0,92.0,419.9200842413738,36.31
1602839701.494,64.0,935.0,101.0,419.9222864033376,36.31
1602839701.496,64.0,935.0,106.0,419.9256974240513,36.31
1602839701.498,64.0,935.0,106.0,419.9303464326415,36.31
1602839701.5,64.0,935.0,104.0,419.9362625582346,36.31
1602839701.502,64.0,935.0,104.0,419.94347492995723,36.31
1602839701.504,64.0,935.0,108.0,419.9520126769358,36.31
1602839701.506,64.0,935.0,113.0,419.96190492829686,36.31
1602839701.508,64.0,935.0,116.0,419.9731808131669,36.31
1602839701.51,64.0,935.0,108.0,419.9858694606724,36.31
1602839701.512,64.0,935.0,108.0,419.9999999999399,36.31
1602839701.514,64.0,935.0,130.0,419.9999999999399,36.31
1602839701.516,64.0,935.0,130.0,419.9999999999399,36.31
1602839701.518,64.0,935.0,116.0,419.9999999999399,36.31
1602839701.52,64.0,935.0,125.0,419.9999999999399,36.31
1602839701.5221,64.0,935.0,138.0,419.9999999999399,36.31
1602839701.524,64.0,935.0,133.0,419.9999999999399,36.31
1602839701.526,64.0,935.0,138.0,419.9999999999399,36.31
1602839701.528,64.0,935.0,152.0,419.9999999999399,36.31
1602839701.53,64.0,935.0,164.0,419.9999999999399,36.31
1602839701.5321,64.0,935.0,164.0,419.9999999999399,36.31
1602839701.534,64.0,935.0,150.0,419.9999999999399,36.31
1602839701.536,64.0,935.0,152.0,419.9999999999399,36.31
1602839701.538,64.0,935.0,164.0,419.9999999999399,36.31
1602839701.54,64.0,935.0,164.0,419.9999999999399,36.31
1602839701.5421,64.0,935.0,154.0,419.9999999999399,36.31
1602839701.544,64.0,935.0,138.0,419.9999999999399,36.31
1602839701.546,64.0,935.0,128.0,419.9999999999399,36.31
1602839701.548,64.0,935.0,118.0,419.9999999999399,36.31
1602839701.55,64.0,935.0,92.0,419.9999999999399,36.31
1602839701.5521,64.0,935.0,75.0,419.9999999999399,36.31
1602839701.554,64.0,935.0,67.0,419.9999999999399,36.31
1602839701.556,64.0,935.0,50.0,419.9999999999399,36.31
1602839701.9818,64.0,957.0,43.0,419.9999999999399,36.31
1602839701.9826,64.0,957.0,38.0,419.9999999999399,36.31
1602839701.9845,64.0,957.0,33.0,419.9999999999399,36.31
1602839701.9865,64.0,957.0,31.0,419.9999999999399,36.31
1602839701.9885,64.0,957.0,26.0,419.9999999999399,36.31
1602839701.9905,64.0,957.0,33.0,419.9999999999399,36.31
1602839701.9926,64.0,957.0,50.0,419.9999999999399,36.31
1602839701.9945,64.0,957.0,36.0,419.9999999999399,36.31
1602839701.9964,64.0,957.0,12.0,419.9999999999399,36.31
1602839701.9984,64.0,957.0,26.0,419.9999999999399,36.31
1602839702.0005,64.0,957.0,53.0,419.9999999999399,36.31
1602839702.0025,64.0,957.0,53.0,419.9999999999399,36.31
1602839702.0044,64.0,957.0,46.0,419.9999999999399,36.31
1602839702.0064,64.0,957.0,43.0,419.9999999999399,36.31
1602839702.0084,64.0,957.0,38.0,419.9999999999399,36.31
1602839702.0104,64.0,957.0,46.0,419.9999999999399,36.31
1602839702.0125,64.0,957.0,72.0,419.9999999999399,36.31
1602839702.0146,64.0,957.0,70.0,419.9999999999399,36.31
1602839702.0165,64.0,957.0,43.0,419.9999999999399,36.31
1602839702.0186,64.0,957.0,46.0,419.9999999999399,36.31
1602839702.0204,64.0,957.0,67.0,419.9999999999399,36.31
1602839702.0226,64.0,957.0,67.0,419.9999999999399,36.31
1602839702.0244,64.0,957.0,65.0,419.9999999999399,36.31
1602839702.0264,64.0,957.0,65.0,419.9999999999399,36.31
1602839702.0284,64.0,957.0,60.0,419.9999999999399,36.31
1602839702.0305,64.0,957.0,55.0,419.9999999999399,36.31
1602839702.0325,64.0,957.0,58.0,419.9999999999399,36.31
1602839702.0344,64.0,957.0,62.0,419.9999999999399,36.31
1602839702.0364,64.0,957.0,70.0,419.9999999999399,36.31
1602839702.0385,64.0,957.0,70.0,419.9999999999399,36.31
1602839702.0404,64.0,957.0,60.0,419.9999999999399,36.31
1602839702.0425,64.0,957.0,62.0,419.9999999999399,36.31
1602839702.0444,64.0,957.0,72.0,419.9999999999399,36.31
1602839702.0464,64.0,957.0,77.0,419.9999999999399,36.31
1602839702.0484,64.0,957.0,84.0,419.9999999999399,36.31
1602839702.0504,64.0,957.0,82.0,419.9999999999399,36.31
1602839702.0524,64.0,957.0,67.0,419.9999999999399,36.31
1602839702.0544,64.0,957.0,62.0,419.9999999999399,36.31
1602839702.0564,64.0,957.0,67.0,419.9999999999399,36.31
1602839702.0584,64.0,957.0,72.0,419.9999999999399,36.31
1602839702.0604,64.0,957.0,72.0,419.9999999999399,36.31
1602839702.0624,64.0,957.0,70.0,419.9999999999399,36.31
1602839702.0644,64.0,957.0,65.0,419.9999999999399,36.31
1602839702.0664,64.0,957.0,58.0,419.9999999999399,36.31
1602839702.0684,64.0,957.0,62.0,419.9999999999399,36.31
1602839702.0704,64.0,957.0,72.0,419.9999999999399,36.31
1602839702.0724,64.0,957.0,72.0,419.9999999999399,36.31
1602839702.0744,64.0,957.0,53.0,419.9999999999399,36.31
1602839702.0764,64.0,957.0,46.0,419.9999999999399,36.31
1602839702.0784,64.0,957.0,67.0,419.9999999999399,36.31
1602839702.0804,64.0,957.0,75.0,419.9999999999399,36.31
1602839702.0824,64.0,957.0,50.0,419.9999999999399,36.31
1602839702.0844,64.0,957.0,48.0,419.9999999999399,36.31
1602839702.0864,64.0,957.0,72.0,419.9999999999399,36.31
1602839702.0884,64.0,957.0,87.0,419.9999999999399,36.31
1602839702.0904,64.0,957.0,87.0,419.9999999999399,36.31
1602839702.0924,64.0,957.0,77.0,419.9999999999399,36.31
1602839702.0944,64.0,957.0,67.0,419.9999999999399,36.31
1602839702.0964,64.0,957.0,70.0,419.9999999999399,36.31
1602839702.0984,64.0,957.0,72.0,419.9999999999399,36.31
1602839702.1005,64.0,957.0,62.0,419.9999999999399,36.31
1602839702.1024,64.0,957.0,50.0,419.9999999999399,36.31
1602839702.1044,64.0,957.0,46.0,419.9999999999399,36.31
1602839702.1064,64.0,957.0,48.0,419.9999999999399,36.31
1602839702.1084,64.0,957.0,58.0,419.9999999999399,36.31
1602839702.1104,64.0,957.0,58.0,419.9999999999399,36.31
1602839702.1124,64.0,957.0,50.0,419.9999999999399,36.31
1602839702.1144,64.0,957.0,55.0,419.9999999999399,36.31
1602839702.1165,64.0,957.0,58.0,419.9999999999399,36.31
1602839702.1184,64.0,957.0,55.0,419.9999999999399,36.31
1602839702.1204,64.0,957.0,157.0,419.9999999999399,36.31
1602839702.1225,64.0,957.0,421.0,419.9999999999399,36.31
1602839702.1244,64.0,957.0,561.0,419.9999999999399,36.31
1602839702.5221,64.0,957.0,174.0,419.9999999999399,36.31
1602839702.523,64.0,957.0,-384.0,419.9999999999399,36.31
1602839702.5255,64.0,957.0,-324.0,419.9999999999399,36.31
1602839702.5281,64.0,957.0,65.0,419.9999999999399,36.31
1602839702.5301,64.0,957.0,94.0,419.9999999999399,36.31
1602839702.5321,64.0,957.0,9.0,419.9999999999399,36.31
1602839702.5341,64.0,957.0,75.0,419.9999999999399,36.31
1602839702.5361,64.0,957.0,92.0,419.9999999999399,36.31
1602839702.5381,64.0,957.0,58.0,419.9999999999399,36.31
1602839702.5401,64.0,957.0,65.0,419.9999999999399,36.31
1602839702.5422,64.0,957.0,72.0,419.9999999999399,36.31
1602839702.544,64.0,957.0,65.0,419.9999999999399,36.31
1602839702.5461,64.0,957.0,70.0,419.9999999999399,36.31
1602839702.548,64.0,957.0,65.0,419.9999999999399,36.31
1602839702.55,64.0,957.0,70.0,419.9999999999399,36.31
1602839702.5521,64.0,957.0,94.0,419.9999999999399,36.31
1602839702.554,64.0,957.0,92.0,419.9999999999399,36.31
1602839702.556,64.0,957.0,82.0,419.9999999999399,36.31
1602839702.5581,64.0,957.0,94.0,419.9999999999399,36.31
1602839702.56,64.0,957.0,99.0,419.9999999999399,36.31
1602839702.5621,64.0,957.0,99.0,419.9999999999399,36.31
1602839702.564,64.0,957.0,106.0,419.9999999999399,36.31
1602839702.5662,64.0,957.0,116.0,419.9999999999399,36.31
1602839702.568,64.0,957.0,116.0,419.9858694606724,36.31
1602839702.5701,64.0,957.0,125.0,419.9731808131669,36.31
1602839702.5721,64.0,957.0,135.0,419.96190492829686,36.31
1602839702.5741,64.0,957.0,135.0,419.9520126769358,36.31
1602839702.576,64.0,957.0,142.0,419.94347492995723,36.31
1602839702.578,64.0,957.0,150.0,419.9362625582346,36.31
1602839702.5801,64.0,957.0,152.0,419.9303464326415,36.31
1602839702.5821,64.0,957.0,154.0,419.9256974240513,36.31
1602839702.584,64.0,957.0,164.0,419.9222864033376,36.31
1602839702.586,64.0,957.0,167.0,419.9200842413738,36.31
1602839702.588,64.0,957.0,162.0,419.9190618090335,36.31
1602839702.59,64.0,957.0,157.0,419.9191899771901,36.31
1602839702.5921,64.0,957.0,159.0,419.92043961671715,36.31
1602839702.594,64.0,957.0,164.0,419.92278159848814,36.31
1602839702.596,64.0,957.0,145.0,419.9261867933766,36.31
1602839702.598,64.0,957.0,123.0,419.9306260722559,36.31
1602839702.6,64.0,957.0,118.0,419.9360703059997,36.31
1602839702.6021,64.0,957.0,111.0,419.9424903654814,36.31
1602839702.604,64.0,957.0,94.0,419.94985712157444,36.31
1602839702.6061,64.0,957.0,72.0,419.9581414451524,36.31
1602839702.608,64.0,957.0,50.0,419.9673142070888,36.31
1602839702.61,64.0,957.0,43.0,419.97734627825713,36.31
1602839702.6121,64.0,957.0,38.0,419.98820852953077,36.31
1602839702.6143,64.0,957.0,14.0,419.9998718317833,36.31
1602839702.6216,64.0,957.0,7.0,420.01230705588824,36.31
