Time,ECG
1607090391.8759,4056
1607090391.8788,4667
1607090391.8814,5331
1607090391.8840,5795
1607090391.8861,6204
1607090391.8883,6637
1607090391.8906,6993
1607090391.8921,7305
1607090391.8937,7623
1607090391.8957,7906
1607090391.8978,8149
1607090391.9057,8387
1607090391.9084,8613
1607090391.9108,8808
1607090391.9122,8979
1607090391.9137,9130
1607090391.9158,9258
1607090391.9178,9361
1607090391.9197,9458
1607090391.9217,9561
1607090391.9238,9664
1607090391.9257,9758
1607090391.9277,9845
1607090391.9298,9943
1607090391.9317,10035
1607090391.9337,10116
1607090391.9358,10193
1607090391.9377,10258
1607090391.9397,10321
1607090391.9417,10383
1607090391.9437,10436
1607090391.9456,10484
1607090391.9477,10537
1607090391.9497,10573
1607090391.9517,10595
1607090391.9537,10629
1607090391.9557,10667
1607090391.9576,10686
1607090391.9597,10691
1607090391.9617,10701
1607090391.9637,10713
1607090391.9657,10710
1607090391.9677,10706
1607090391.9696,10706
1607090391.9717,10701
1607090391.9737,10679
1607090391.9757,10658
1607090391.9777,10645
1607090391.9797,10621
1607090391.9816,10595
1607090391.9839,10585
1607090391.9857,10552
1607090391.9876,10492
1607090391.9896,10453
1607090391.9917,10429
1607090391.9936,10391
1607090391.9956,10347
1607090391.9976,10302
1607090391.9996,10251
1607090392.0016,10210
1607090392.0036,10160
1607090392.0056,10104
1607090392.0076,10056
1607090392.0096,10008
1607090392.0116,9946
1607090392.0137,9886
1607090392.0156,9835
1607090392.0176,9782
1607090392.0196,9722
1607090392.0216,9657
1607090392.0236,9585
1607090392.0256,9520
1607090392.0276,9458
1607090392.4143,9388
1607090392.4153,9325
1607090392.4178,9263
1607090392.4204,9188
1607090392.4224,9116
1607090392.4244,9056
1607090392.4264,8989
1607090392.4284,8914
1607090392.4304,8844
1607090392.4324,8784
1607090392.4344,8722
1607090392.4364,8625
1607090392.4384,8536
1607090392.4404,8486
1607090392.4425,8416
1607090392.4444,8327
1607090392.4464,8258
1607090392.4484,8195
1607090392.4504,8120
1607090392.4524,8046
1607090392.4544,7976
1607090392.4564,7902
1607090392.4583,7827
1607090392.4604,7750
1607090392.4623,7683
1607090392.4643,7620
1607090392.4663,7543
1607090392.4683,7466
1607090392.4705,7397
1607090392.4724,7320
1607090392.4743,7245
1607090392.4763,7175
1607090392.4783,7103
1607090392.4803,7029
1607090392.4823,6954
1607090392.4844,6884
1607090392.4863,6824
1607090392.4883,6776
1607090392.4903,6721
1607090392.4923,6644
1607090392.4943,6574
1607090392.4963,6502
1607090392.4983,6425
1607090392.5003,6346
1607090392.5023,6269
1607090392.5043,6201
1607090392.5063,6137
1607090392.5083,6072
1607090392.5103,6011
1607090392.5123,5947
1607090392.5143,5870
1607090392.5163,5790
1607090392.5183,5766
1607090392.5203,5896
1607090392.5223,6177
1607090392.5243,6401
1607090392.5263,6204
1607090392.5284,5571
1607090392.5303,5175
1607090392.5323,5273
1607090392.5343,5292
1607090392.5363,5107
1607090392.5383,5052
1607090392.5403,5047
1607090392.5423,4970
1607090392.5443,4905
1607090392.5463,4872
1607090392.5483,4823
1607090392.5503,4771
1607090392.5523,4718
1607090392.5544,4662
1607090392.5563,4614
1607090392.5583,4571
1607090392.9845,4523
1607090392.9854,4472
1607090392.9879,4424
1607090392.9906,4379
1607090392.9925,4335
1607090392.9945,4292
1607090392.9969,4256
1607090392.9986,4215
1607090393.0006,4160
1607090393.0026,4109
1607090393.0046,4083
1607090393.0065,4054
1607090393.0085,4015
1607090393.0105,3982
1607090393.0125,3953
1607090393.0145,3922
1607090393.0165,3888
1607090393.0185,3854
1607090393.0205,3823
1607090393.0225,3775
1607090393.0245,3710
1607090393.0265,3640
1607090393.0285,3568
1607090393.0305,3491
1607090393.0325,3414
1607090393.0344,3345
1607090393.0364,3284
1607090393.0384,3232
1607090393.0405,3186
1607090393.0424,3147
1607090393.0445,3111
1607090393.0464,3075
1607090393.0484,3037
1607090393.0505,3005
1607090393.0524,2974
1607090393.0544,2941
1607090393.0564,2904
1607090393.0584,2866
1607090393.0605,2837
1607090393.0624,2811
1607090393.0644,2777
1607090393.0664,2751
1607090393.0684,2722
1607090393.0705,2686
1607090393.0724,2654
1607090393.0744,2630
1607090393.0764,2606
1607090393.0786,2575
1607090393.0806,2544
1607090393.0825,2513
1607090393.0844,2486
1607090393.0864,2457
1607090393.0884,2426
1607090393.0905,2395
1607090393.0924,2368
1607090393.0944,2342
1607090393.0964,2318
1607090393.0986,2296
1607090393.1006,2265
1607090393.1024,2236
1607090393.1045,2212
1607090393.1065,2188
1607090393.1084,2161
1607090393.1105,2135
1607090393.1124,2116
1607090393.1144,2094
1607090393.1164,2070
1607090393.1184,2044
1607090393.1206,2020
1607090393.1224,2000
1607090393.1244,1981
1607090393.1264,1955
1607090393.1284,1933
1607090393.5239,1916
1607090393.5248,1892
1607090393.5273,1870
1607090393.5299,1849
1607090393.5319,1830
1607090393.5339,1808
1607090393.5360,1786
1607090393.5379,1769
1607090393.5399,1750
1607090393.5419,1719
1607090393.5439,1690
1607090393.5458,1673
1607090393.5478,1654
1607090393.5498,1635
1607090393.5518,1618
1607090393.5538,1601
1607090393.5558,1582
1607090393.5578,1563
1607090393.5598,1548
1607090393.5619,1534
1607090393.5639,1517
1607090393.5658,1500
1607090393.5678,1483
1607090393.5698,1466
1607090393.5718,1447
1607090393.5738,1433
1607090393.5758,1418
1607090393.5778,1404
1607090393.5798,1387
1607090393.5818,1370
1607090393.5838,1351
1607090393.5858,1337
1607090393.5878,1322
1607090393.5898,1308
1607090393.5918,1296
1607090393.5940,1284
1607090393.5959,1267
1607090393.5978,1250
1607090393.5998,1238
1607090393.6018,1226
1607090393.6038,1214
1607090393.6058,1202
1607090393.6078,1187
1607090393.6098,1173
1607090393.6118,1156
1607090393.6138,1147
1607090393.6158,1139
1607090393.6178,1127
1607090393.6199,1113
1607090393.6218,1103
1607090393.6238,1091
1607090393.6257,1077
1607090393.6278,1062
1607090393.6298,1050
1607090393.6318,1041
1607090393.6338,1036
1607090393.6358,1041
1607090393.6378,1043
1607090393.6398,1034
1607090393.6418,1014
1607090393.6438,990
1607090393.6458,966
1607090393.6478,952
1607090393.6498,945
1607090393.6518,935
1607090393.6538,928
1607090393.6558,916
1607090393.6578,906
1607090393.6598,896
1607090393.6618,880
1607090393.6638,856
1607090393.6658,904
1607090393.6678,1113
1607090394.0947,1459
1607090394.0958,1673
1607090394.0984,1399
1607090394.1009,808
1607090394.1029,603
1607090394.1048,786
1607090394.1069,776
1607090394.1089,654
1607090394.1108,687
1607090394.1128,716
1607090394.1147,673
1607090394.1167,668
1607090394.1187,687
1607090394.1210,680
1607090394.1228,670
1607090394.1247,675
1607090394.1267,678
1607090394.1287,670
1607090394.1308,668
1607090394.1327,670
1607090394.1347,670
1607090394.1367,668
1607090394.1387,663
1607090394.1407,663
1607090394.1427,666
1607090394.1447,666
1607090394.1467,668
1607090394.1488,675
1607090394.1508,675
1607090394.1527,675
1607090394.1547,685
1607090394.1567,697
1607090394.1587,707
1607090394.1607,714
1607090394.1628,721
1607090394.1648,728
1607090394.1667,733
1607090394.1687,731
1607090394.1707,723
1607090394.1727,707
1607090394.1747,675
1607090394.1767,634
1607090394.1787,591
1607090394.1807,555
1607090394.1827,524
1607090394.1847,497
1607090394.1867,480
1607090394.1887,468
1607090394.1907,461
1607090394.1927,459
1607090394.1947,456
1607090394.1967,454
1607090394.1987,452
1607090394.2007,449
1607090394.2027,444
1607090394.2047,447
1607090394.2067,449
1607090394.2087,449
1607090394.2107,447
1607090394.2127,447
1607090394.2147,447
1607090394.2167,444
1607090394.2187,444
1607090394.2207,444
1607090394.2229,442
1607090394.2247,437
1607090394.2267,435
1607090394.2287,432
1607090394.2307,428
1607090394.2327,425
1607090394.2347,423
1607090394.2367,420
1607090394.2387,416
1607090394.6343,413
1607090394.6352,408
1607090394.6376,408
1607090394.6403,406
1607090394.6422,401
1607090394.6442,396
1607090394.6463,396
1607090394.6482,387
1607090394.6502,379
1607090394.6522,377
1607090394.6542,377
1607090394.6562,372
1607090394.6582,375
1607090394.6602,370
1607090394.6622,360
1607090394.6642,358
1607090394.6662,360
1607090394.6682,360
1607090394.6702,355
1607090394.6722,358
1607090394.6742,358
1607090394.6762,358
1607090394.6782,355
1607090394.6802,351
1607090394.6822,348
1607090394.6842,348
1607090394.6862,346
1607090394.6882,346
1607090394.6902,343
1607090394.6931,341
1607090394.6942,341
1607090394.6962,339
1607090394.6982,339
1607090394.7002,336
1607090394.7022,334
1607090394.7042,331
1607090394.7062,331
1607090394.7082,331
1607090394.7102,327
1607090394.7123,322
1607090394.7142,324
1607090394.7162,324
1607090394.7184,322
1607090394.7202,315
1607090394.7222,315
1607090394.7242,315
1607090394.7262,310
1607090394.7282,307
1607090394.7302,310
1607090394.7322,307
1607090394.7342,305
1607090394.7362,300
1607090394.7382,300
1607090394.7402,300
1607090394.7422,298
1607090394.7442,295
1607090394.7462,293
1607090394.7482,288
1607090394.7502,283
1607090394.7522,283
1607090394.7542,283
1607090394.7562,281
1607090394.7582,278
1607090394.7602,276
1607090394.7621,269
1607090394.7642,264
1607090394.7662,264
1607090394.7682,276
1607090394.7702,290
1607090394.7722,293
1607090394.7742,286
1607090394.7762,278
1607090394.7782,266
1607090395.2347,252
1607090395.2357,250
1607090395.2381,250
1607090395.2408,247
1607090395.2428,240
1607090395.2448,233
1607090395.2468,230
1607090395.2488,228
1607090395.2507,209
1607090395.2526,199
1607090395.2546,288
1607090395.2566,553
1607090395.2586,906
1607090395.2606,1041
1607090395.2626,654
1607090395.2646,98
1607090395.2666,40
1607090395.2686,238
1607090395.2707,182
1607090395.2726,103
1607090395.2748,163
1607090395.2767,173
1607090395.2787,144
1607090395.2807,163
1607090395.2827,177
1607090395.2846,170
1607090395.2866,177
1607090395.2886,189
1607090395.2907,189
1607090395.2926,192
1607090395.2946,199
1607090395.2966,204
1607090395.2986,209
1607090395.3007,214
1607090395.3026,221
1607090395.3046,226
1607090395.3066,228
1607090395.3086,235
1607090395.3106,247
1607090395.3126,252
1607090395.3146,262
1607090395.3166,274
1607090395.3186,288
1607090395.3206,300
1607090395.3226,315
1607090395.3246,329
1607090395.3266,343
1607090395.3287,355
1607090395.3307,355
1607090395.3326,355
1607090395.3346,351
1607090395.3366,334
1607090395.3386,300
1607090395.3406,264
1607090395.3426,223
1607090395.3446,187
1607090395.3467,161
1607090395.3486,141
1607090395.3506,129
1607090395.3526,122
1607090395.3546,120
1607090395.3566,122
1607090395.3586,122
1607090395.3606,122
1607090395.3627,125
1607090395.3646,129
1607090395.3666,132
1607090395.3686,134
1607090395.3706,139
1607090395.3726,141
1607090395.3746,144
1607090395.3768,146
1607090395.3787,146
1607090395.8042,144
1607090395.8052,149
1607090395.8077,153
1607090395.8103,153
1607090395.8124,156
1607090395.8144,158
1607090395.8165,158
1607090395.8183,153
1607090395.8204,153
1607090395.8222,151
1607090395.8242,141
1607090395.8262,139
1607090395.8282,146
1607090395.8302,146
1607090395.8322,144
1607090395.8342,144
1607090395.8362,149
1607090395.8382,151
1607090395.8402,151
1607090395.8423,151
1607090395.8442,151
1607090395.8462,149
1607090395.8482,151
1607090395.8502,153
1607090395.8522,153
1607090395.8542,151
1607090395.8562,153
1607090395.8582,156
1607090395.8602,156
1607090395.8622,153
1607090395.8642,156
1607090395.8661,156
1607090395.8682,153
1607090395.8702,156
1607090395.8722,158
1607090395.8742,158
1607090395.8762,158
1607090395.8782,156
1607090395.8802,153
1607090395.8822,153
1607090395.8842,153
1607090395.8862,153
1607090395.8882,153
1607090395.8902,151
1607090395.8922,149
1607090395.8943,144
1607090395.8962,144
1607090395.8982,146
1607090395.9002,149
1607090395.9023,146
1607090395.9042,144
1607090395.9062,146
1607090395.9082,146
1607090395.9102,146
1607090395.9122,146
1607090395.9142,149
1607090395.9162,149
1607090395.9182,149
1607090395.9202,149
1607090395.9222,151
1607090395.9242,149
1607090395.9262,149
1607090395.9282,151
1607090395.9302,149
1607090395.9322,144
1607090395.9342,141
1607090395.9361,146
1607090395.9382,146
1607090395.9402,139
1607090395.9422,139
1607090395.9442,144
1607090395.9462,141
1607090395.9482,137
1607090396.3445,134
1607090396.3455,134
1607090396.3481,132
1607090396.3507,134
1607090396.3526,149
1607090396.3547,170
1607090396.3566,177
1607090396.3586,170
1607090396.3607,161
1607090396.3625,151
1607090396.3645,139
1607090396.3665,127
1607090396.3685,125
1607090396.3706,129
1607090396.3727,129
1607090396.3745,129
1607090396.3765,134
1607090396.3785,132
1607090396.3806,115
1607090396.3812,113
1607090396.3835,223
1607090396.3855,509
1607090396.3876,858
1607090396.3895,933
1607090396.3916,478
1607090396.3935,-40
1607090396.3955,-24
1607090396.3977,163
1607090396.3996,79
1607090396.4016,16
1607090396.4035,81
1607090396.4056,79
1607090396.4075,55
1607090396.4095,79
1607090396.4115,91
1607090396.4122,84
1607090396.4146,93
1607090396.4166,101
1607090396.4185,101
1607090396.4206,108
1607090396.4226,117
1607090396.4245,122
1607090396.4265,125
1607090396.4285,129
1607090396.4306,137
1607090396.4325,141
1607090396.4345,146
1607090396.4365,156
1607090396.4386,165
1607090396.4406,170
1607090396.4425,177
1607090396.4432,189
1607090396.4455,204
1607090396.4475,218
1607090396.4495,233
1607090396.4515,247
1607090396.4537,262
1607090396.4556,269
1607090396.4575,271
1607090396.4595,276
1607090396.4616,274
1607090396.4635,252
1607090396.4655,218
1607090396.4675,177
1607090396.4695,141
1607090396.4716,105
1607090396.4735,79
1607090396.4742,64
1607090396.4765,57
1607090396.4786,50
1607090396.4806,48
1607090396.4825,48
1607090396.4845,50
1607090396.8843,52
1607090396.8852,57
1607090396.8877,62
1607090396.8904,64
1607090396.8923,67
1607090396.8946,72
1607090396.8964,74
1607090396.8983,76
1607090396.9003,72
1607090396.9009,72
1607090396.9032,79
1607090396.9053,81
1607090396.9072,81
1607090396.9093,86
1607090396.9113,91
1607090396.9132,91
1607090396.9152,91
1607090396.9172,93
1607090396.9192,96
1607090396.9213,96
1607090396.9232,93
1607090396.9252,91
1607090396.9272,88
1607090396.9292,91
1607090396.9313,93
1607090396.9319,93
1607090396.9342,91
1607090396.9362,93
1607090396.9383,96
1607090396.9402,93
1607090396.9422,93
1607090396.9442,98
1607090396.9463,101
1607090396.9482,103
1607090396.9502,103
1607090396.9523,103
1607090396.9543,103
1607090396.9562,105
1607090396.9582,108
1607090396.9602,105
1607090396.9622,108
1607090396.9629,110
1607090396.9652,110
1607090396.9672,110
1607090396.9692,110
1607090396.9712,110
1607090396.9732,115
1607090396.9752,115
1607090396.9772,108
1607090396.9792,105
1607090396.9812,103
1607090396.9832,98
1607090396.9852,93
1607090396.9872,96
1607090396.9892,96
1607090396.9912,93
1607090396.9934,96
1607090396.9939,101
1607090396.9962,101
1607090396.9982,98
1607090397.0003,98
1607090397.0022,103
1607090397.0043,105
1607090397.0062,101
1607090397.0082,101
1607090397.0102,105
1607090397.0122,103
1607090397.0142,103
1607090397.0162,105
1607090397.0182,108
1607090397.0202,110
1607090397.0222,110
1607090397.0242,108
1607090397.4548,108
1607090397.4558,110
1607090397.4582,113
1607090397.4608,110
1607090397.4628,108
1607090397.4648,105
1607090397.4668,101
1607090397.4689,101
1607090397.4707,105
1607090397.4728,103
1607090397.4747,103
1607090397.4767,105
1607090397.4788,101
1607090397.4795,91
1607090397.4818,93
1607090397.4837,101
1607090397.4857,110
1607090397.4878,127
1607090397.4897,137
1607090397.4918,134
1607090397.4937,127
1607090397.4957,117
1607090397.4977,103
1607090397.4997,101
1607090397.5017,103
1607090397.5038,101
1607090397.5058,103
1607090397.5077,108
1607090397.5097,108
1607090397.5105,103
1607090397.5127,93
1607090397.5147,86
1607090397.5168,161
1607090397.5187,416
1607090397.5209,776
1607090397.5228,930
1607090397.5247,567
1607090397.5267,-2
1607090397.5287,-91
1607090397.5308,120
1607090397.5327,81
1607090397.5347,-14
1607090397.5367,43
1607090397.5388,60
1607090397.5408,21
1607090397.5414,36
1607090397.5437,55
1607090397.5457,50
1607090397.5477,55
1607090397.5497,67
1607090397.5518,69
1607090397.5538,74
1607090397.5558,81
1607090397.5578,86
1607090397.5597,91
1607090397.5617,93
1607090397.5637,98
1607090397.5657,105
1607090397.5677,117
1607090397.5697,122
1607090397.5705,127
1607090397.5728,134
1607090397.5747,146
1607090397.5767,156
1607090397.5788,168
1607090397.5808,182
1607090397.5827,197
1607090397.5847,211
1607090397.5867,226
1607090397.5888,238
1607090397.5908,250
1607090397.5927,250
1607090397.5947,242
1607090397.9950,228
1607090397.9960,204
1607090397.9970,165
1607090397.9993,122
1607090398.0014,88
1607090398.0033,62
1607090398.0052,33
1607090398.0071,14
1607090398.0091,14
1607090398.0113,14
1607090398.0131,9
1607090398.0152,9
1607090398.0173,16
1607090398.0191,19
1607090398.0212,21
1607090398.0231,28
1607090398.0252,36
1607090398.0271,38
1607090398.0291,38
1607090398.0311,43
1607090398.0331,52
1607090398.0351,55
1607090398.0371,55
1607090398.0392,60
1607090398.0412,64
1607090398.0431,64
1607090398.0451,64
1607090398.0471,67
1607090398.0491,69
1607090398.0511,69
1607090398.0532,69
1607090398.0552,69
1607090398.0571,74
1607090398.0591,72
1607090398.0612,69
1607090398.0631,64
1607090398.0651,64
1607090398.0671,69
1607090398.0691,69
1607090398.0712,69
1607090398.0731,69
1607090398.0752,72
1607090398.0771,72
1607090398.0791,74
1607090398.0812,74
1607090398.0831,74
1607090398.0851,72
1607090398.0872,74
1607090398.0891,76
1607090398.0912,76
1607090398.0931,79
1607090398.0951,79
1607090398.0971,76
1607090398.0991,79
1607090398.1011,81
1607090398.1031,86
1607090398.1052,86
1607090398.1071,84
1607090398.1091,84
1607090398.1112,86
1607090398.1131,88
1607090398.1151,88
1607090398.1171,91
1607090398.1193,91
1607090398.1212,88
1607090398.1231,88
1607090398.1251,88
1607090398.1271,86
1607090398.1291,84
1607090398.1311,79
1607090398.1331,76
1607090398.1351,79
1607090398.1372,81
1607090398.5944,79
1607090398.5955,79
1607090398.5968,79
1607090398.5987,74
1607090398.6007,64
1607090398.6026,64
1607090398.6046,72
1607090398.6067,72
1607090398.6086,72
1607090398.6107,74
1607090398.6126,76
1607090398.6146,74
1607090398.6166,74
1607090398.6186,76
1607090398.6206,76
1607090398.6226,76
1607090398.6246,79
1607090398.6266,84
1607090398.6286,84
1607090398.6307,81
1607090398.6325,81
1607090398.6345,81
1607090398.6365,84
1607090398.6385,81
1607090398.6406,81
1607090398.6426,79
1607090398.6445,74
1607090398.6465,72
1607090398.6485,81
1607090398.6506,98
1607090398.6525,108
1607090398.6546,105
1607090398.6565,96
1607090398.6585,84
1607090398.6606,76
1607090398.6625,74
1607090398.6645,76
1607090398.6665,79
1607090398.6685,79
1607090398.6705,76
1607090398.6725,79
1607090398.6747,76
1607090398.6765,60
1607090398.6785,60
1607090398.6806,173
1607090398.6825,459
1607090398.6845,805
1607090398.6865,875
1607090398.6885,418
1607090398.6905,-96
1607090398.6925,-74
1607090398.6945,108
1607090398.6965,24
1607090398.6985,-33
1607090398.7006,36
1607090398.7025,33
1607090398.7045,7
1607090398.7065,33
1607090398.7085,43
1607090398.7106,31
1607090398.7125,40
1607090398.7145,52
1607090398.7165,50
1607090398.7185,55
1607090398.7205,64
1607090398.7225,67
1607090398.7245,69
1607090398.7265,79
1607090398.7285,86
1607090398.7306,84
1607090398.7325,91
1607090398.7345,101
1607090398.7365,110
1607090399.1637,117
1607090399.1646,127
1607090399.1670,139
1607090399.1697,153
1607090399.1717,168
1607090399.1737,182
1607090399.1757,199
1607090399.1777,209
1607090399.1797,214
1607090399.1818,214
1607090399.1837,216
1607090399.1857,216
1607090399.1877,197
1607090399.1897,165
1607090399.1917,127
1607090399.1936,91
1607090399.1956,62
1607090399.1976,33
1607090399.1996,12
1607090399.2018,2
1607090399.2037,-4
1607090399.2056,-9
1607090399.2076,-12
1607090399.2096,-7
1607090399.2116,-4
1607090399.2136,-4
1607090399.2156,2
1607090399.2176,7
1607090399.2196,7
1607090399.2216,12
1607090399.2236,21
1607090399.2256,26
1607090399.2276,28
1607090399.2296,31
1607090399.2316,36
1607090399.2336,38
1607090399.2356,38
1607090399.2376,40
1607090399.2396,45
1607090399.2416,48
1607090399.2436,48
1607090399.2455,50
1607090399.2476,55
1607090399.2496,55
1607090399.2516,52
1607090399.2536,52
1607090399.2555,55
1607090399.2576,52
1607090399.2596,55
1607090399.2616,55
1607090399.2635,50
1607090399.2656,52
1607090399.2676,52
1607090399.2695,52
1607090399.2716,57
1607090399.2736,60
1607090399.2756,57
1607090399.2776,57
1607090399.2796,60
1607090399.2817,60
1607090399.2836,60
1607090399.2856,62
1607090399.2876,64
1607090399.2896,62
1607090399.2916,62
1607090399.2936,64
1607090399.2955,64
1607090399.2976,64
1607090399.2995,64
1607090399.3016,67
1607090399.3037,69
1607090399.3056,69
1607090399.3076,67
1607090399.7038,69
1607090399.7048,69
1607090399.7072,69
1607090399.7099,72
1607090399.7118,72
1607090399.7138,69
1607090399.7158,64
1607090399.7178,62
1607090399.7198,60
1607090399.7218,55
1607090399.7239,50
1607090399.7258,48
1607090399.7278,50
1607090399.7298,45
1607090399.7318,43
1607090399.7338,45
1607090399.7358,48
1607090399.7378,48
1607090399.7398,48
1607090399.7418,50
1607090399.7438,50
1607090399.7458,52
1607090399.7478,52
1607090399.7498,52
1607090399.7518,55
1607090399.7538,57
1607090399.7558,60
1607090399.7578,60
1607090399.7598,60
1607090399.7618,62
1607090399.7638,60
1607090399.7657,60
1607090399.7677,57
1607090399.7698,55
1607090399.7718,57
1607090399.7738,67
1607090399.7758,84
1607090399.7778,101
1607090399.7798,101
1607090399.7818,93
1607090399.7838,79
1607090399.7857,62
1607090399.7878,55
1607090399.7898,60
1607090399.7919,62
1607090399.7938,62
1607090399.7958,62
1607090399.7978,67
1607090399.7999,67
1607090399.8018,55
1607090399.8038,40
1607090399.8057,93
1607090399.8078,312
1607090399.8098,663
1607090399.8118,894
1607090399.8138,644
1607090399.8158,50
1607090399.8178,-168
1607090399.8198,43
1607090399.8218,72
1607090399.8238,-43
1607090399.8258,-9
1607090399.8278,31
1607090399.8298,2
1607090399.8318,7
1607090399.8338,31
1607090399.8358,26
1607090399.8378,26
1607090399.8397,38
1607090399.8419,43
1607090399.8438,48
1607090399.8457,52
1607090399.8478,55
1607090400.2742,60
1607090400.2751,64
1607090400.2775,72
1607090400.2802,76
1607090400.2822,81
1607090400.2842,86
1607090400.2863,88
1607090400.2882,88
1607090400.2902,91
1607090400.2921,105
1607090400.2941,122
1607090400.2961,134
1607090400.2981,146
1607090400.3001,168
1607090400.3021,185
1607090400.3041,192
1607090400.3061,202
1607090400.3081,209
1607090400.3101,206
1607090400.3121,194
1607090400.3141,173
1607090400.3161,137
1607090400.3181,98
1607090400.3201,62
1607090400.3221,36
1607090400.3241,16
1607090400.3262,0
1607090400.3281,-9
1607090400.3301,-12
1607090400.3321,-9
1607090400.3341,-7
1607090400.3361,-4
1607090400.3381,-2
1607090400.3402,2
1607090400.3421,9
1607090400.3441,9
1607090400.3461,12
1607090400.3481,16
1607090400.3501,24
1607090400.3521,28
1607090400.3541,33
1607090400.3561,36
1607090400.3581,36
1607090400.3601,36
1607090400.3621,43
1607090400.3641,45
1607090400.3661,45
1607090400.3681,45
1607090400.3701,48
1607090400.3722,45
1607090400.3742,45
1607090400.3762,50
1607090400.3781,52
1607090400.3801,48
1607090400.3822,45
1607090400.3841,50
1607090400.3861,52
1607090400.3881,52
1607090400.3901,52
1607090400.3921,52
1607090400.3941,52
1607090400.3961,55
1607090400.3981,55
1607090400.4001,57
1607090400.4021,55
1607090400.4041,52
1607090400.4061,52
1607090400.4081,50
1607090400.4101,50
1607090400.4121,52
1607090400.4141,50
1607090400.4161,48
1607090400.4181,43
1607090400.8142,45
1607090400.8151,45
1607090400.8176,50
1607090400.8203,52
1607090400.8223,52
1607090400.8242,50
1607090400.8261,52
1607090400.8281,52
1607090400.8301,48
1607090400.8321,43
1607090400.8341,45
1607090400.8362,50
1607090400.8382,48
1607090400.8401,50
1607090400.8421,50
1607090400.8441,50
1607090400.8461,45
1607090400.8481,45
1607090400.8501,45
1607090400.8521,48
1607090400.8541,48
1607090400.8561,45
1607090400.8581,45
1607090400.8601,43
1607090400.8621,40
1607090400.8641,43
1607090400.8661,48
1607090400.8681,48
1607090400.8701,48
1607090400.8721,50
1607090400.8741,52
1607090400.8761,55
1607090400.8781,57
1607090400.8801,60
1607090400.8821,60
1607090400.8841,60
1607090400.8861,60
1607090400.8881,62
1607090400.8901,64
1607090400.8921,62
1607090400.8941,64
1607090400.8961,64
1607090400.8981,67
1607090400.9001,67
1607090400.9021,64
1607090400.9041,64
1607090400.9061,62
1607090400.9081,64
1607090400.9101,81
1607090400.9121,103
1607090400.9141,108
1607090400.9161,101
1607090400.9181,91
1607090400.9201,76
1607090400.9221,67
1607090400.9242,64
1607090400.9261,64
1607090400.9281,67
1607090400.9301,72
1607090400.9321,72
1607090400.9341,69
1607090400.9361,67
1607090400.9381,55
1607090400.9401,64
1607090400.9421,199
1607090400.9441,512
1607090400.9461,839
1607090400.9481,810
1607090400.9507,283
1607090400.9521,-153
1607090400.9541,-48
1607090400.9561,93
1607090400.9581,-16
1607090401.3540,-38
1607090401.3547,28
1607090401.3571,12
1607090401.3598,-7
1607090401.3617,19
1607090401.3637,21
1607090401.3658,9
1607090401.3677,21
1607090401.3697,33
1607090401.3717,33
1607090401.3737,38
1607090401.3757,45
1607090401.3777,52
1607090401.3797,57
1607090401.3817,60
1607090401.3837,67
1607090401.3857,74
1607090401.3877,81
1607090401.3897,91
1607090401.3917,101
1607090401.3937,108
1607090401.3957,117
1607090401.3977,127
1607090401.3997,141
1607090401.4017,158
1607090401.4038,175
1607090401.4057,189
1607090401.4077,202
1607090401.4097,211
1607090401.4117,216
1607090401.4137,221
1607090401.4157,216
1607090401.4177,197
1607090401.4198,163
1607090401.4217,125
1607090401.4237,86
1607090401.4257,52
1607090401.4277,28
1607090401.4297,12
1607090401.4317,2
1607090401.4337,-4
1607090401.4357,-9
1607090401.4377,-7
1607090401.4397,-2
1607090401.4417,0
1607090401.4437,0
1607090401.4457,0
1607090401.4477,2
1607090401.4497,7
1607090401.4518,12
1607090401.4538,16
1607090401.4556,19
1607090401.4577,21
1607090401.4597,26
1607090401.4617,33
1607090401.4637,38
1607090401.4657,33
1607090401.4677,31
1607090401.4697,33
1607090401.4717,36
1607090401.4737,38
1607090401.4757,40
1607090401.4777,40
1607090401.4797,38
1607090401.4817,40
1607090401.4837,40
1607090401.4857,43
1607090401.4877,43
1607090401.4897,45
1607090401.4917,48
1607090401.4937,48
1607090401.4957,50
1607090401.4977,50
1607090401.9543,50
1607090401.9553,50
1607090401.9578,48
1607090401.9605,40
1607090401.9625,36
1607090401.9644,36
1607090401.9666,36
1607090401.9684,33
1607090401.9705,33
1607090401.9723,36
1607090401.9743,36
1607090401.9765,36
1607090401.9784,40
1607090401.9803,43
1607090401.9823,43
1607090401.9842,40
1607090401.9863,43
1607090401.9884,50
1607090401.9904,48
1607090401.9922,48
1607090401.9943,52
1607090401.9963,52
1607090401.9982,50
1607090402.0003,52
1607090402.0023,55
1607090402.0042,57
1607090402.0063,57
1607090402.0083,52
1607090402.0103,52
1607090402.0123,55
1607090402.0143,50
1607090402.0162,50
1607090402.0183,52
1607090402.0203,52
1607090402.0223,52
1607090402.0242,52
1607090402.0263,52
1607090402.0283,52
1607090402.0303,50
1607090402.0323,48
1607090402.0343,50
1607090402.0362,52
1607090402.0383,50
1607090402.0403,52
1607090402.0423,52
1607090402.0443,52
1607090402.0463,52
1607090402.0482,50
1607090402.0503,52
1607090402.0522,50
1607090402.0542,48
1607090402.0562,45
1607090402.0582,45
1607090402.0603,45
1607090402.0623,45
1607090402.0643,48
1607090402.0662,45
1607090402.0682,40
1607090402.0703,36
1607090402.0723,38
1607090402.0743,38
1607090402.0762,43
1607090402.0784,62
1607090402.0804,79
1607090402.0822,76
1607090402.0842,69
1607090402.0863,57
1607090402.0883,45
1607090402.0903,38
1607090402.0922,36
1607090402.0942,38
1607090402.0963,40
1607090402.0983,40
1607090402.5241,40
1607090402.5250,43
1607090402.5275,36
1607090402.5302,19
1607090402.5321,69
1607090402.5341,286
1607090402.5361,637
1607090402.5381,868
1607090402.5401,613
1607090402.5421,12
1607090402.5440,-204
1607090402.5460,9
1607090402.5480,38
1607090402.5500,-79
1607090402.5520,-40
1607090402.5540,2
1607090402.5560,-28
1607090402.5581,-24
1607090402.5600,4
1607090402.5620,0
1607090402.5640,-2
1607090402.5660,14
1607090402.5680,21
1607090402.5700,21
1607090402.5720,28
1607090402.5740,36
1607090402.5760,40
1607090402.5780,48
1607090402.5800,50
1607090402.5820,55
1607090402.5840,62
1607090402.5860,67
1607090402.5880,74
1607090402.5900,86
1607090402.5920,96
1607090402.5940,103
1607090402.5960,115
1607090402.5980,129
1607090402.6000,141
1607090402.6020,156
1607090402.6042,173
1607090402.6061,187
1607090402.6080,192
1607090402.6100,192
1607090402.6120,189
1607090402.6140,182
1607090402.6160,161
1607090402.6180,125
1607090402.6200,86
1607090402.6220,50
1607090402.6240,21
1607090402.6260,-2
1607090402.6280,-16
1607090402.6300,-21
1607090402.6320,-24
1607090402.6340,-26
1607090402.6360,-28
1607090402.6380,-24
1607090402.6400,-19
1607090402.6421,-16
1607090402.6440,-16
1607090402.6460,-12
1607090402.6486,-7
1607090402.6500,-2
1607090402.6520,2
1607090402.6540,9
1607090402.6560,12
1607090402.6580,14
1607090402.6600,19
1607090402.6620,21
1607090402.6640,21
1607090402.6660,21
1607090402.6680,28
1607090403.0636,33
1607090403.0645,36
1607090403.0670,38
1607090403.0697,33
1607090403.0715,26
1607090403.0735,28
1607090403.0756,31
1607090403.0775,33
1607090403.0795,33
1607090403.0815,28
1607090403.0835,21
1607090403.0855,26
1607090403.0875,31
1607090403.0895,28
1607090403.0915,31
1607090403.0922,36
1607090403.0945,33
1607090403.0965,33
1607090403.0987,33
1607090403.1006,33
1607090403.1025,33
1607090403.1045,33
1607090403.1065,33
1607090403.1085,33
1607090403.1105,36
1607090403.1125,36
1607090403.1145,38
1607090403.1165,43
1607090403.1185,43
1607090403.1205,43
1607090403.1225,43
1607090403.1232,43
1607090403.1245,43
1607090403.1265,45
1607090403.1285,48
1607090403.1305,45
1607090403.1325,38
1607090403.1345,33
1607090403.1365,36
1607090403.1385,36
1607090403.1405,33
1607090403.1425,31
1607090403.1445,31
1607090403.1465,28
1607090403.1485,28
1607090403.1505,28
1607090403.1525,31
1607090403.1532,31
1607090403.1555,31
1607090403.1575,31
1607090403.1595,31
1607090403.1615,31
1607090403.1635,31
1607090403.1655,31
1607090403.1675,31
1607090403.1695,31
1607090403.1715,33
1607090403.1735,33
1607090403.1755,36
1607090403.1775,38
1607090403.1795,38
1607090403.1815,38
1607090403.1835,40
1607090403.1842,43
1607090403.1865,43
1607090403.1885,43
1607090403.1905,40
1607090403.1925,36
1607090403.1945,36
1607090403.1966,40
1607090403.1986,55
1607090403.2005,76
1607090403.2025,81
1607090403.6338,72
1607090403.6348,67
1607090403.6372,55
1607090403.6399,45
1607090403.6419,43
1607090403.6439,43
1607090403.6446,38
1607090403.6469,28
1607090403.6489,31
1607090403.6509,36
1607090403.6528,31
1607090403.6548,12
1607090403.6568,28
1607090403.6588,177
1607090403.6608,490
1607090403.6628,805
1607090403.6647,764
1607090403.6667,238
1607090403.6687,-182
1607090403.6708,-74
1607090403.6728,67
1607090403.6747,-40
1607090403.6754,-67
1607090403.6777,0
1607090403.6797,-14
1607090403.6818,-36
1607090403.6837,-12
1607090403.6857,-2
1607090403.6877,-7
1607090403.6897,0
1607090403.6917,2
1607090403.6937,7
1607090403.6958,16
1607090403.6977,21
1607090403.6997,24
1607090403.7018,36
1607090403.7038,43
1607090403.7057,45
1607090403.7065,50
1607090403.7088,60
1607090403.7108,67
1607090403.7127,74
1607090403.7147,81
1607090403.7167,88
1607090403.7187,105
1607090403.7208,122
1607090403.7229,137
1607090403.7249,153
1607090403.7268,170
1607090403.7288,182
1607090403.7308,194
1607090403.7327,199
1607090403.7347,199
1607090403.7354,199
1607090403.7377,180
1607090403.7397,141
1607090403.7417,98
1607090403.7438,67
1607090403.7458,40
1607090403.7477,16
1607090403.7497,0
1607090403.7518,-12
1607090403.7537,-19
1607090403.7557,-16
1607090403.7577,-12
1607090403.7598,-16
1607090403.7618,-14
1607090403.7637,-2
1607090403.7657,2
1607090403.7664,0
1607090403.7688,2
1607090403.7707,9
1607090403.7727,14
1607090404.1741,14
1607090404.1750,14
1607090404.1775,16
1607090404.1801,24
1607090404.1820,28
1607090404.1840,31
1607090404.1860,33
1607090404.1880,28
1607090404.1900,19
1607090404.1907,26
1607090404.1929,33
1607090404.1949,31
1607090404.1969,28
1607090404.1990,33
1607090404.2010,38
1607090404.2029,38
1607090404.2049,38
1607090404.2069,38
1607090404.2089,43
1607090404.2110,45
1607090404.2129,40
1607090404.2149,40
1607090404.2169,40
1607090404.2189,33
1607090404.2209,31
1607090404.2218,36
1607090404.2241,40
1607090404.2259,43
1607090404.2279,43
1607090404.2299,40
1607090404.2319,38
1607090404.2339,40
1607090404.2359,45
1607090404.2379,48
1607090404.2399,43
1607090404.2419,40
1607090404.2439,45
1607090404.2459,48
1607090404.2479,48
1607090404.2499,48
1607090404.2519,45
1607090404.2526,45
1607090404.2550,50
1607090404.2569,52
1607090404.2589,50
1607090404.2610,48
1607090404.2629,45
1607090404.2649,43
1607090404.2669,43
1607090404.2689,45
1607090404.2711,45
1607090404.2729,45
1607090404.2749,48
1607090404.2769,45
1607090404.2789,40
1607090404.2810,40
1607090404.2829,40
1607090404.2836,43
1607090404.2860,43
1607090404.2879,45
1607090404.2899,43
1607090404.2919,38
1607090404.2940,33
1607090404.2959,36
1607090404.2979,36
1607090404.2999,36
1607090404.3019,52
1607090404.3039,74
1607090404.3059,69
1607090404.3079,62
1607090404.3099,52
1607090404.3120,40
1607090404.3139,36
1607090404.7442,38
1607090404.7450,38
1607090404.7475,40
1607090404.7503,40
1607090404.7522,36
1607090404.7541,24
1607090404.7562,12
1607090404.7581,16
1607090404.7601,141
1607090404.7621,452
1607090404.7641,812
1607090404.7660,832
1607090404.7681,281
1607090404.7701,-250
1607090404.7721,-158
1607090404.7741,52
1607090404.7761,-40
1607090404.7781,-84
1607090404.7801,-12
1607090404.7820,-16
1607090404.7840,-40
1607090404.7860,-16
1607090404.7880,-4
1607090404.7900,-7
1607090404.7920,4
1607090404.7940,12
1607090404.7960,9
1607090404.7980,16
1607090404.8000,24
1607090404.8020,26
1607090404.8040,31
1607090404.8060,38
1607090404.8080,43
1607090404.8100,48
1607090404.8120,55
1607090404.8140,62
1607090404.8160,72
1607090404.8180,84
1607090404.8200,93
1607090404.8220,105
1607090404.8240,117
1607090404.8260,137
1607090404.8280,158
1607090404.8300,175
1607090404.8320,189
1607090404.8340,199
1607090404.8360,206
1607090404.8380,206
1607090404.8400,197
1607090404.8421,173
1607090404.8441,137
1607090404.8460,91
1607090404.8480,48
1607090404.8500,14
1607090404.8522,-9
1607090404.8541,-28
1607090404.8560,-45
1607090404.8580,-50
1607090404.8600,-50
1607090404.8620,-50
1607090404.8640,-50
1607090404.8660,-45
1607090404.8680,-40
1607090404.8700,-40
1607090404.8720,-38
1607090404.8740,-33
1607090404.8760,-28
1607090404.8780,-26
1607090404.8800,-21
1607090404.8820,-12
1607090404.8840,-7
1607090404.8860,-4
1607090404.8880,-2
1607090405.3441,0
1607090405.3450,4
1607090405.3475,4
1607090405.3501,4
1607090405.3520,9
1607090405.3540,12
1607090405.3560,2
1607090405.3580,-4
1607090405.3601,-4
1607090405.3620,-4
1607090405.3640,-7
1607090405.3660,-4
1607090405.3681,0
1607090405.3700,0
1607090405.3720,2
1607090405.3740,0
1607090405.3760,-2
1607090405.3780,0
1607090405.3800,4
1607090405.3820,9
1607090405.3840,12
1607090405.3860,12
1607090405.3880,9
1607090405.3900,12
1607090405.3920,16
1607090405.3940,19
1607090405.3960,19
1607090405.3980,19
1607090405.4000,24
1607090405.4020,24
1607090405.4040,26
1607090405.4060,28
1607090405.4081,31
1607090405.4100,31
1607090405.4119,31
1607090405.4140,31
1607090405.4160,31
1607090405.4179,28
1607090405.4199,24
1607090405.4219,19
1607090405.4239,16
1607090405.4260,16
1607090405.4280,19
1607090405.4299,21
1607090405.4319,21
1607090405.4339,19
1607090405.4359,19
1607090405.4379,21
1607090405.4400,21
1607090405.4420,19
1607090405.4439,19
1607090405.4459,21
1607090405.4480,26
1607090405.4500,28
1607090405.4520,31
1607090405.4540,31
1607090405.4561,31
1607090405.4581,31
1607090405.4601,31
1607090405.4621,28
1607090405.4641,24
1607090405.4661,16
1607090405.4680,14
1607090405.4700,28
1607090405.4720,50
1607090405.4739,62
1607090405.4760,57
1607090405.4779,52
1607090405.4799,43
1607090405.4820,31
1607090405.4839,28
1607090405.4859,33
1607090405.4880,31
1607090405.8842,28
1607090405.8850,28
1607090405.8875,28
1607090405.8901,24
1607090405.8922,9
1607090405.8941,28
1607090405.8962,197
1607090405.8981,545
1607090405.9001,877
1607090405.9021,805
1607090405.9043,216
1607090405.9061,-230
1607090405.9081,-93
1607090405.9100,48
1607090405.9120,-74
1607090405.9140,-91
1607090405.9160,-19
1607090405.9181,-36
1607090405.9201,-48
1607090405.9220,-19
1607090405.9240,-16
1607090405.9261,-21
1607090405.9280,-7
1607090405.9300,2
1607090405.9320,2
1607090405.9340,9
1607090405.9360,16
1607090405.9380,21
1607090405.9400,28
1607090405.9420,36
1607090405.9440,43
1607090405.9460,48
1607090405.9480,57
1607090405.9501,64
1607090405.9520,74
1607090405.9540,84
1607090405.9560,93
1607090405.9580,108
1607090405.9600,120
1607090405.9620,132
1607090405.9640,151
1607090405.9660,168
1607090405.9680,177
1607090405.9700,185
1607090405.9720,189
1607090405.9740,192
1607090405.9760,182
1607090405.9780,161
1607090405.9800,132
1607090405.9820,93
1607090405.9840,50
1607090405.9860,19
1607090405.9881,-2
1607090405.9900,-19
1607090405.9920,-28
1607090405.9940,-31
1607090405.9960,-33
1607090405.9980,-31
1607090406.0001,-31
1607090406.0020,-26
1607090406.0040,-24
1607090406.0061,-24
1607090406.0081,-21
1607090406.0100,-16
1607090406.0120,-9
1607090406.0140,-7
1607090406.0160,-7
1607090406.0180,-4
1607090406.0200,2
1607090406.0220,7
1607090406.0240,7
1607090406.0260,7
1607090406.0280,9
1607090406.4540,14
1607090406.4549,14
1607090406.4574,14
1607090406.4600,16
1607090406.4620,21
1607090406.4640,21
1607090406.4660,19
1607090406.4680,19
1607090406.4700,14
1607090406.4719,9
1607090406.4739,12
1607090406.4760,16
1607090406.4779,16
1607090406.4799,16
1607090406.4819,21
1607090406.4839,24
1607090406.4859,21
1607090406.4879,24
1607090406.4899,26
1607090406.4919,26
1607090406.4939,28
1607090406.4959,31
1607090406.4979,33
1607090406.5000,31
1607090406.5019,33
1607090406.5039,36
1607090406.5059,36
1607090406.5079,33
1607090406.5099,33
1607090406.5119,36
1607090406.5139,33
1607090406.5159,33
1607090406.5179,33
1607090406.5199,33
1607090406.5219,38
1607090406.5239,38
1607090406.5259,36
1607090406.5279,36
1607090406.5299,40
1607090406.5321,43
1607090406.5340,40
1607090406.5359,43
1607090406.5379,43
1607090406.5399,40
1607090406.5419,40
1607090406.5439,43
1607090406.5459,43
1607090406.5479,43
1607090406.5500,45
1607090406.5519,43
1607090406.5539,38
1607090406.5559,36
1607090406.5579,40
1607090406.5599,40
1607090406.5619,40
1607090406.5639,38
1607090406.5659,40
1607090406.5679,40
1607090406.5699,36
1607090406.5719,33
1607090406.5739,36
1607090406.5759,33
1607090406.5779,31
1607090406.5799,31
1607090406.5819,33
1607090406.5839,36
1607090406.5859,38
1607090406.5879,36
1607090406.5899,36
1607090406.5919,40
1607090406.5939,40
1607090406.5959,38
1607090406.5979,36
1607090406.9938,31
1607090406.9947,24
1607090406.9972,21
1607090406.9998,24
1607090407.0017,36
1607090407.0038,57
1607090407.0058,67
1607090407.0077,64
1607090407.0097,57
1607090407.0118,38
1607090407.0137,19
1607090407.0157,16
1607090407.0177,21
1607090407.0197,21
1607090407.0217,21
1607090407.0237,26
1607090407.0257,28
1607090407.0279,24
1607090407.0298,7
1607090407.0317,12
1607090407.0337,137
1607090407.0357,440
1607090407.0377,791
1607090407.0397,836
1607090407.0417,348
1607090407.0437,-163
1607090407.0457,-120
1607090407.0477,60
1607090407.0497,-33
1607090407.0517,-86
1607090407.0537,-19
1607090407.0557,-24
1607090407.0577,-48
1607090407.0597,-21
1607090407.0617,-9
1607090407.0637,-14
1607090407.0657,-7
1607090407.0733,0
1607090407.0747,2
1607090407.0767,9
1607090407.0788,19
1607090407.0807,21
1607090407.0827,26
1607090407.0847,33
1607090407.0867,38
1607090407.0887,45
1607090407.0907,50
1607090407.0927,57
1607090407.0947,62
1607090407.0967,72
1607090407.0986,81
1607090407.1007,88
1607090407.1027,96
1607090407.1046,110
1607090407.1067,125
1607090407.1087,139
1607090407.1107,153
1607090407.1126,163
1607090407.1147,173
1607090407.1167,175
1607090407.1187,168
1607090407.1207,153
1607090407.1227,129
1607090407.1247,91
1607090407.1267,55
1607090407.1287,21
1607090407.1307,-4
1607090407.1327,-24
1607090407.1348,-36
1607090407.1367,-40
1607090407.1387,-43
1607090407.1407,-43
1607090407.1427,-40
1607090407.5335,-38
1607090407.5344,-33
1607090407.5369,-28
1607090407.5395,-24
1607090407.5413,-21
1607090407.5434,-19
1607090407.5455,-19
1607090407.5474,-21
1607090407.5494,-24
1607090407.5514,-14
1607090407.5534,-9
1607090407.5554,-9
1607090407.5574,-9
1607090407.5594,-7
1607090407.5614,-4
1607090407.5633,0
1607090407.5653,2
1607090407.5673,2
1607090407.5693,2
1607090407.5714,4
1607090407.5733,4
1607090407.5753,7
1607090407.5773,7
1607090407.5793,7
1607090407.5814,7
1607090407.5833,9
1607090407.5853,12
1607090407.5874,14
1607090407.5893,14
1607090407.5913,16
1607090407.5933,16
1607090407.5953,19
1607090407.5973,19
1607090407.5993,21
1607090407.6014,24
1607090407.6033,24
1607090407.6054,28
1607090407.6073,31
1607090407.6093,26
1607090407.6114,28
1607090407.6135,31
1607090407.6153,33
1607090407.6173,31
1607090407.6193,31
1607090407.6213,28
1607090407.6233,24
1607090407.6256,26
1607090407.6274,26
1607090407.6294,28
1607090407.6314,28
1607090407.6333,28
1607090407.6353,31
1607090407.6373,31
1607090407.6393,28
1607090407.6414,31
1607090407.6433,31
1607090407.6453,33
1607090407.6473,33
1607090407.6493,31
1607090407.6514,31
1607090407.6534,31
1607090407.6553,31
1607090407.6573,28
1607090407.6593,31
1607090407.6614,33
1607090407.6633,31
1607090407.6653,31
1607090407.6673,31
1607090407.6693,31
1607090407.6714,31
1607090407.6733,33
1607090407.6753,33
1607090407.6774,33
1607090408.1041,33
1607090408.1049,33
1607090408.1074,33
1607090408.1100,28
1607090408.1119,19
1607090408.1139,14
1607090408.1159,16
1607090408.1179,21
1607090408.1199,16
1607090408.1219,14
1607090408.1239,14
1607090408.1259,14
1607090408.1279,14
1607090408.1300,16
1607090408.1319,16
1607090408.1339,14
1607090408.1359,12
1607090408.1379,12
1607090408.1399,21
1607090408.1419,40
1607090408.1439,57
1607090408.1459,57
1607090408.1479,50
1607090408.1499,40
1607090408.1520,26
1607090408.1539,24
1607090408.1558,26
1607090408.1579,24
1607090408.1599,24
1607090408.1619,26
1607090408.1639,28
1607090408.1659,28
1607090408.1679,19
1607090408.1699,4
1607090408.1719,48
1607090408.1739,252
1607090408.1759,598
1607090408.1779,848
1607090408.1799,637
1607090408.1819,50
1607090408.1839,-206
1607090408.1859,-14
1607090408.1879,33
1607090408.1900,-86
1607090408.1919,-60
1607090408.1939,-14
1607090408.1959,-45
1607090408.1979,-45
1607090408.1999,-16
1607090408.2019,-16
1607090408.2039,-16
1607090408.2059,-7
1607090408.2079,-2
1607090408.2099,2
1607090408.2119,9
1607090408.2139,14
1607090408.2159,19
1607090408.2179,26
1607090408.2199,31
1607090408.2219,36
1607090408.2239,43
1607090408.2259,50
1607090408.2279,57
1607090408.2299,64
1607090408.2319,72
1607090408.2339,84
1607090408.2359,96
1607090408.2379,108
1607090408.2399,120
1607090408.2419,137
1607090408.2439,151
1607090408.2459,161
1607090408.2479,173
1607090408.7039,180
1607090408.7048,180
1607090408.7075,170
1607090408.7099,149
1607090408.7118,115
1607090408.7138,69
1607090408.7160,28
1607090408.7178,2
1607090408.7198,-19
1607090408.7218,-36
1607090408.7238,-45
1607090408.7258,-45
1607090408.7278,-45
1607090408.7298,-45
1607090408.7318,-43
1607090408.7339,-36
1607090408.7357,-31
1607090408.7377,-31
1607090408.7397,-24
1607090408.7417,-16
1607090408.7437,-14
1607090408.7458,-12
1607090408.7477,-7
1607090408.7497,-2
1607090408.7518,2
1607090408.7537,2
1607090408.7557,2
1607090408.7577,4
1607090408.7598,7
1607090408.7618,7
1607090408.7637,7
1607090408.7657,9
1607090408.7678,9
1607090408.7698,7
1607090408.7717,9
1607090408.7737,14
1607090408.7757,14
1607090408.7777,14
1607090408.7797,16
1607090408.7818,19
1607090408.7837,19
1607090408.7857,21
1607090408.7877,26
1607090408.7898,26
1607090408.7917,26
1607090408.7937,26
1607090408.7957,28
1607090408.7977,31
1607090408.7997,31
1607090408.8018,31
1607090408.8037,33
1607090408.8057,36
1607090408.8077,36
1607090408.8099,33
1607090408.8118,36
1607090408.8137,36
1607090408.8157,36
1607090408.8177,33
1607090408.8197,36
1607090408.8217,33
1607090408.8238,33
1607090408.8257,36
1607090408.8277,38
1607090408.8297,36
1607090408.8318,38
1607090408.8337,38
1607090408.8358,38
1607090408.8377,40
1607090408.8397,40
1607090408.8417,38
1607090408.8437,40
1607090408.8457,43
1607090408.8477,43
1607090409.2741,45
1607090409.2750,48
1607090409.2774,45
1607090409.2801,40
1607090409.2820,43
1607090409.2840,43
1607090409.2860,40
1607090409.2880,40
1607090409.2900,40
1607090409.2919,38
1607090409.2939,31
1607090409.2959,26
1607090409.2979,31
1607090409.2999,33
1607090409.3019,31
1607090409.3039,31
1607090409.3059,33
1607090409.3079,33
1607090409.3100,28
1607090409.3119,28
1607090409.3139,31
1607090409.3159,28
1607090409.3179,24
1607090409.3199,24
1607090409.3220,26
1607090409.3240,24
1607090409.3259,21
1607090409.3281,21
1607090409.3299,24
1607090409.3319,36
1607090409.3339,57
1607090409.3361,72
1607090409.3380,67
1607090409.3399,57
1607090409.3419,45
1607090409.3439,36
1607090409.3459,36
1607090409.3479,38
1607090409.3499,36
1607090409.3519,33
1607090409.3539,36
1607090409.3559,38
1607090409.3580,38
1607090409.3599,26
1607090409.3619,16
1607090409.3639,84
1607090409.3659,322
1607090409.3679,678
1607090409.3699,863
1607090409.3719,541
1607090409.3739,-43
1607090409.3759,-175
1607090409.3779,40
1607090409.3799,24
1607090409.3820,-81
1607090409.3839,-31
1607090409.3860,0
1607090409.3867,-33
1607090409.3889,-24
1607090409.3910,0
1607090409.3929,-2
1607090409.3949,-2
1607090409.3969,7
1607090409.3989,12
1607090409.4010,16
1607090409.4029,24
1607090409.4050,26
1607090409.4069,31
1607090409.4090,38
1607090409.4109,43
1607090409.4129,48
1607090409.4149,52
1607090409.4169,60
1607090409.8134,67
1607090409.8142,72
1607090409.8166,84
1607090409.8193,93
1607090409.8213,105
1607090409.8232,117
1607090409.8253,132
1607090409.8272,146
1607090409.8292,158
1607090409.8314,168
1607090409.8332,177
1607090409.8352,177
1607090409.8372,165
1607090409.8392,151
1607090409.8412,127
1607090409.8432,84
1607090409.8439,48
1607090409.8461,19
1607090409.8482,-7
1607090409.8502,-31
1607090409.8522,-43
1607090409.8542,-45
1607090409.8562,-48
1607090409.8581,-48
1607090409.8603,-43
1607090409.8622,-43
1607090409.8642,-38
1607090409.8661,-31
1607090409.8681,-26
1607090409.8702,-24
1607090409.8722,-19
1607090409.8742,-14
1607090409.8749,-12
1607090409.8772,-7
1607090409.8791,-2
1607090409.8812,0
1607090409.8832,0
1607090409.8852,2
1607090409.8872,7
1607090409.8892,9
1607090409.8912,7
1607090409.8931,7
1607090409.8952,7
1607090409.8972,7
1607090409.8992,9
1607090409.9012,12
1607090409.9032,12
1607090409.9051,9
1607090409.9059,12
1607090409.9082,16
1607090409.9103,16
1607090409.9122,14
1607090409.9142,14
1607090409.9161,19
1607090409.9182,16
1607090409.9202,16
1607090409.9222,21
1607090409.9241,24
1607090409.9261,24
1607090409.9282,24
1607090409.9304,26
1607090409.9322,26
1607090409.9341,26
1607090409.9362,28
1607090409.9369,31
1607090409.9392,33
1607090409.9412,33
1607090409.9432,31
1607090409.9452,33
1607090409.9472,36
1607090409.9492,36
1607090409.9512,36
1607090409.9532,36
1607090410.3539,31
1607090410.3546,24
1607090410.3570,26
1607090410.3597,28
1607090410.3605,26
1607090410.3627,24
1607090410.3646,21
1607090410.3666,19
1607090410.3686,16
1607090410.3707,9
1607090410.3726,7
1607090410.3746,9
1607090410.3766,12
1607090410.3786,14
1607090410.3807,16
1607090410.3826,16
1607090410.3846,16
1607090410.3866,19
1607090410.3886,21
1607090410.3907,24
1607090410.3913,26
1607090410.3936,28
1607090410.3956,28
1607090410.3976,31
1607090410.3996,31
1607090410.4017,31
1607090410.4036,36
1607090410.4056,38
1607090410.4076,36
1607090410.4096,36
1607090410.4117,38
1607090410.4136,31
1607090410.4156,21
1607090410.4177,21
1607090410.4196,31
1607090410.4217,40
1607090410.4223,52
1607090410.4246,69
1607090410.4268,74
1607090410.4287,67
1607090410.4307,52
1607090410.4326,40
1607090410.4346,38
1607090410.4366,38
1607090410.4386,40
1607090410.4406,40
1607090410.4426,43
1607090410.4446,45
1607090410.4466,40
1607090410.4486,31
1607090410.4507,19
1607090410.4526,74
1607090410.4533,293
1607090410.4556,646
1607090410.4577,872
1607090410.4596,606
1607090410.4617,7
1607090410.4637,-192
1607090410.4658,26
1607090410.4677,45
1607090410.4698,-72
1607090410.4717,-31
1607090410.4738,12
1607090410.4757,-24
1607090410.4776,-24
1607090410.4796,0
1607090410.4817,-2
1607090410.4836,-2
1607090410.4843,9
1607090410.4866,14
1607090410.4886,16
1607090410.4906,21
1607090410.4926,24
1607090410.9242,24
1607090410.9252,31
1607090410.9276,36
1607090410.9303,43
1607090410.9322,48
1607090410.9342,52
1607090410.9363,52
1607090410.9383,57
1607090410.9403,69
1607090410.9422,81
1607090410.9429,91
1607090410.9452,103
1607090410.9472,122
1607090410.9491,139
1607090410.9511,151
1607090410.9531,165
1607090410.9553,177
1607090410.9572,180
1607090410.9591,180
1607090410.9612,173
1607090410.9631,149
1607090410.9651,113
1607090410.9671,72
1607090410.9691,33
1607090410.9712,2
1607090410.9731,-19
1607090410.9738,-33
1607090410.9761,-38
1607090410.9781,-43
1607090410.9802,-48
1607090410.9822,-45
1607090410.9842,-40
1607090410.9861,-33
1607090410.9881,-31
1607090410.9902,-31
1607090410.9921,-26
1607090410.9947,-19
1607090410.9962,-14
1607090410.9981,-12
1607090411.0002,-4
1607090411.0021,0
1607090411.0041,0
1607090411.0061,0
1607090411.0081,4
1607090411.0102,7
1607090411.0121,9
1607090411.0141,12
1607090411.0161,12
1607090411.0181,12
1607090411.0202,12
1607090411.0221,12
1607090411.0241,14
1607090411.0261,16
1607090411.0281,14
1607090411.0302,12
1607090411.0321,12
1607090411.0341,12
1607090411.0361,12
1607090411.0381,14
1607090411.0401,16
1607090411.0421,16
1607090411.0441,19
1607090411.0461,21
1607090411.0481,19
1607090411.0502,14
1607090411.0521,12
1607090411.0542,9
1607090411.0563,14
1607090411.0582,16
1607090411.0602,16
1607090411.0621,19
1607090411.0641,19
1607090411.0661,19
1607090411.4942,19
1607090411.4950,21
1607090411.4975,24
1607090411.5002,24
1607090411.5021,24
1607090411.5041,24
1607090411.5061,24
1607090411.5081,19
1607090411.5101,12
1607090411.5121,16
1607090411.5141,19
1607090411.5161,16
1607090411.5181,16
1607090411.5201,16
1607090411.5221,14
1607090411.5241,12
1607090411.5261,12
1607090411.5281,9
1607090411.5303,9
1607090411.5321,9
1607090411.5341,9
1607090411.5360,12
1607090411.5381,12
1607090411.5401,14
1607090411.5421,14
1607090411.5441,16
1607090411.5461,16
1607090411.5481,16
1607090411.5501,16
1607090411.5520,21
1607090411.5540,19
1607090411.5560,14
1607090411.5580,14
1607090411.5600,14
1607090411.5620,21
1607090411.5640,43
1607090411.5661,60
1607090411.5680,60
1607090411.5700,52
1607090411.5720,40
1607090411.5740,26
1607090411.5760,24
1607090411.5780,28
1607090411.5800,26
1607090411.5820,24
1607090411.5842,26
1607090411.5861,24
1607090411.5880,21
1607090411.5901,14
1607090411.5920,4
1607090411.5940,81
1607090411.5961,339
1607090411.5980,702
1607090411.6000,853
1607090411.6020,476
1607090411.6040,-101
1607090411.6060,-180
1607090411.6080,33
1607090411.6100,-12
1607090411.6120,-101
1607090411.6142,-36
1607090411.6161,-16
1607090411.6180,-52
1607090411.6201,-33
1607090411.6220,-16
1607090411.6240,-24
1607090411.6261,-16
1607090411.6280,-2
1607090411.6301,0
1607090411.6320,2
1607090411.6340,7
1607090411.6360,12
1607090411.6381,21
1607090412.0634,26
1607090412.0643,28
1607090412.0667,33
1607090412.0695,40
1607090412.0714,50
1607090412.0733,57
1607090412.0754,64
1607090412.0773,72
1607090412.0793,76
1607090412.0814,81
1607090412.0833,98
1607090412.0853,115
1607090412.0873,127
1607090412.0893,139
1607090412.0914,153
1607090412.0933,161
1607090412.0953,165
1607090412.0973,163
1607090412.0993,151
1607090412.1013,127
1607090412.1033,88
1607090412.1053,48
1607090412.1073,14
1607090412.1094,-12
1607090412.1113,-31
1607090412.1133,-40
1607090412.1153,-45
1607090412.1173,-48
1607090412.1193,-50
1607090412.1213,-48
1607090412.1233,-43
1607090412.1253,-40
1607090412.1273,-38
1607090412.1292,-33
1607090412.1313,-28
1607090412.1333,-21
1607090412.1353,-19
1607090412.1373,-14
1607090412.1392,-12
1607090412.1413,-9
1607090412.1432,-7
1607090412.1453,-2
1607090412.1473,2
1607090412.1493,4
1607090412.1513,2
1607090412.1533,4
1607090412.1553,7
1607090412.1573,9
1607090412.1593,9
1607090412.1613,9
1607090412.1633,7
1607090412.1653,2
1607090412.1673,2
1607090412.1693,7
1607090412.1713,9
1607090412.1733,9
1607090412.1753,12
1607090412.1773,14
1607090412.1793,16
1607090412.1813,16
1607090412.1833,21
1607090412.1853,24
1607090412.1873,24
1607090412.1892,24
1607090412.1913,26
1607090412.1932,31
1607090412.1953,31
1607090412.1973,28
1607090412.1992,31
1607090412.2013,33
1607090412.2033,31
1607090412.2053,31
1607090412.2073,36
1607090412.6042,38
1607090412.6054,36
1607090412.6076,33
1607090412.6102,38
1607090412.6122,40
1607090412.6142,40
1607090412.6162,38
1607090412.6182,38
1607090412.6202,36
1607090412.6222,28
1607090412.6242,19
1607090412.6261,21
1607090412.6282,31
1607090412.6302,33
1607090412.6321,31
1607090412.6341,33
1607090412.6361,38
1607090412.6381,36
1607090412.6402,36
1607090412.6421,38
1607090412.6441,38
1607090412.6461,36
1607090412.6481,40
1607090412.6501,45
1607090412.6521,45
1607090412.6541,45
1607090412.6561,45
1607090412.6581,43
1607090412.6601,45
1607090412.6621,45
1607090412.6641,45
1607090412.6662,43
1607090412.6681,38
1607090412.6701,38
1607090412.6721,38
1607090412.6741,40
1607090412.6761,38
1607090412.6781,31
1607090412.6802,28
1607090412.6821,33
1607090412.6841,38
1607090412.6861,52
1607090412.6881,69
1607090412.6902,69
1607090412.6921,60
1607090412.6941,50
1607090412.6961,40
1607090412.6981,31
1607090412.7002,33
1607090412.7021,38
1607090412.7041,36
1607090412.7061,36
1607090412.7082,38
1607090412.7102,38
1607090412.7121,31
1607090412.7141,14
1607090412.7161,50
1607090412.7181,250
1607090412.7201,613
1607090412.7221,884
1607090412.7241,663
1607090412.7261,31
1607090412.7281,-252
1607090412.7301,-21
1607090412.7321,55
1607090412.7341,-74
1607090412.7361,-48
1607090412.7381,7
1607090412.7401,-28
1607090412.7421,-31
1607090412.7441,0
1607090412.7461,0
1607090412.7481,-4
1607090413.1741,7
1607090413.1750,14
1607090413.1777,19
1607090413.1801,24
1607090413.1821,26
1607090413.1841,28
1607090413.1862,33
1607090413.1881,31
1607090413.1901,33
1607090413.1920,43
1607090413.1940,50
1607090413.1960,52
1607090413.1980,60
1607090413.2000,69
1607090413.2020,81
1607090413.2040,96
1607090413.2060,110
1607090413.2080,127
1607090413.2100,144
1607090413.2120,156
1607090413.2140,168
1607090413.2160,182
1607090413.2180,192
1607090413.2200,189
1607090413.2220,177
1607090413.2240,153
1607090413.2260,115
1607090413.2280,74
1607090413.2300,38
1607090413.2320,7
1607090413.2341,-16
1607090413.2360,-33
1607090413.2380,-40
1607090413.2400,-43
1607090413.2420,-43
1607090413.2440,-45
1607090413.2460,-50
1607090413.2480,-48
1607090413.2500,-40
1607090413.2520,-38
1607090413.2540,-31
1607090413.2560,-24
1607090413.2580,-24
1607090413.2600,-21
1607090413.2620,-14
1607090413.2640,-7
1607090413.2660,-7
1607090413.2680,-4
1607090413.2700,0
1607090413.2720,0
1607090413.2740,0
1607090413.2760,2
1607090413.2780,4
1607090413.2800,7
1607090413.2820,4
1607090413.2840,4
1607090413.2860,7
1607090413.2880,4
1607090413.2900,2
1607090413.2920,7
1607090413.2940,12
1607090413.2960,12
1607090413.2980,12
1607090413.3000,14
1607090413.3020,16
1607090413.3040,19
1607090413.3060,16
1607090413.3080,16
1607090413.3100,19
1607090413.3120,19
1607090413.3140,21
1607090413.3160,24
1607090413.3180,24
1607090413.7139,24
1607090413.7145,26
1607090413.7169,28
1607090413.7197,28
1607090413.7216,28
1607090413.7236,28
1607090413.7256,28
1607090413.7276,28
1607090413.7298,26
1607090413.7316,21
1607090413.7336,19
1607090413.7356,19
1607090413.7376,19
1607090413.7396,21
1607090413.7416,24
1607090413.7436,24
1607090413.7456,26
1607090413.7476,28
1607090413.7496,26
1607090413.7515,24
1607090413.7535,26
1607090413.7555,28
1607090413.7575,28
1607090413.7595,31
1607090413.7616,31
1607090413.7636,28
1607090413.7655,28
1607090413.7675,31
1607090413.7695,31
1607090413.7716,24
1607090413.7735,24
1607090413.7755,28
1607090413.7777,28
1607090413.7796,26
1607090413.7816,28
1607090413.7835,31
1607090413.7855,31
1607090413.7875,33
1607090413.7895,33
1607090413.7915,31
1607090413.7935,26
1607090413.7955,21
1607090413.7976,14
1607090413.7995,16
1607090413.8016,38
1607090413.8035,57
1607090413.8055,57
1607090413.8075,48
1607090413.8096,38
1607090413.8116,26
1607090413.8135,21
1607090413.8155,21
1607090413.8175,24
1607090413.8196,21
1607090413.8216,24
1607090413.8236,26
1607090413.8255,24
1607090413.8275,12
1607090413.8296,-2
1607090413.8317,64
1607090413.8336,307
1607090413.8355,675
1607090413.8375,884
1607090413.8396,589
1607090413.8415,-14
1607090413.8435,-197
1607090413.8456,12
1607090413.8476,9
1607090413.8495,-98
1607090413.8516,-48
1607090413.8536,-19
1607090413.8555,-55
1607090413.8576,-43
1607090414.2838,-16
1607090414.2845,-26
1607090414.2869,-26
1607090414.2895,-12
1607090414.2916,-12
1607090414.2935,-16
1607090414.2956,-12
1607090414.2975,-4
1607090414.2996,2
1607090414.3016,7
1607090414.3035,12
1607090414.3055,19
1607090414.3076,26
1607090414.3095,33
1607090414.3116,40
1607090414.3135,50
1607090414.3155,60
1607090414.3175,69
1607090414.3195,84
1607090414.3215,98
1607090414.3235,113
1607090414.3255,125
1607090414.3275,132
1607090414.3295,146
1607090414.3316,158
1607090414.3335,163
1607090414.3356,163
1607090414.3375,151
1607090414.3395,127
1607090414.3415,91
1607090414.3435,52
1607090414.3455,21
1607090414.3475,-4
1607090414.3495,-26
1607090414.3515,-43
1607090414.3535,-50
1607090414.3555,-52
1607090414.3577,-52
1607090414.3595,-50
1607090414.3616,-45
1607090414.3635,-43
1607090414.3655,-40
1607090414.3675,-36
1607090414.3695,-28
1607090414.3715,-26
1607090414.3735,-24
1607090414.3755,-21
1607090414.3775,-16
1607090414.3795,-12
1607090414.3815,-9
1607090414.3835,-4
1607090414.3855,0
1607090414.3875,2
1607090414.3895,2
1607090414.3915,7
1607090414.3935,12
1607090414.3955,14
1607090414.3975,14
1607090414.3995,16
1607090414.4015,16
1607090414.4035,14
1607090414.4055,14
1607090414.4075,19
1607090414.4095,21
1607090414.4115,19
1607090414.4135,16
1607090414.4155,14
1607090414.4175,16
1607090414.4195,21
1607090414.4215,24
1607090414.4235,24
1607090414.4255,21
1607090414.4275,16
1607090414.8240,21
1607090414.8249,31
1607090414.8274,31
1607090414.8300,24
1607090414.8319,28
1607090414.8339,33
1607090414.8360,28
1607090414.8379,16
1607090414.8399,19
1607090414.8419,26
1607090414.8439,26
1607090414.8459,28
1607090414.8479,33
1607090414.8499,36
1607090414.8518,28
1607090414.8540,24
1607090414.8559,26
1607090414.8578,33
1607090414.8598,36
1607090414.8619,36
1607090414.8639,36
1607090414.8658,36
1607090414.8678,33
1607090414.8698,31
1607090414.8718,33
1607090414.8738,36
1607090414.8759,36
1607090414.8779,36
1607090414.8798,36
1607090414.8818,36
1607090414.8838,38
1607090414.8858,40
1607090414.8878,43
1607090414.8898,38
1607090414.8918,40
1607090414.8938,45
1607090414.8958,48
1607090414.8978,45
1607090414.8998,48
1607090414.9018,48
1607090414.9039,48
1607090414.9058,52
1607090414.9078,48
1607090414.9099,48
1607090414.9118,50
1607090414.9138,48
1607090414.9158,45
1607090414.9178,43
1607090414.9198,40
1607090414.9218,33
1607090414.9238,33
1607090414.9259,36
1607090414.9278,38
1607090414.9298,52
1607090414.9318,72
1607090414.9339,72
1607090414.9359,64
1607090414.9378,50
1607090414.9399,33
1607090414.9418,31
1607090414.9438,36
1607090414.9459,33
1607090414.9478,33
1607090414.9498,38
1607090414.9518,38
1607090414.9538,33
1607090414.9560,21
1607090414.9579,12
1607090414.9598,64
1607090414.9618,286
1607090414.9638,656
1607090414.9658,901
1607090414.9678,620
1607090415.4241,-31
1607090415.4250,-250
1607090415.4275,-2
1607090415.4301,36
1607090415.4321,-93
1607090415.4343,-52
1607090415.4361,-7
1607090415.4381,-52
1607090415.4401,-50
1607090415.4420,-19
1607090415.4440,-21
1607090415.4460,-24
1607090415.4480,-9
1607090415.4500,-2
1607090415.4520,0
1607090415.4540,2
1607090415.4560,2
1607090415.4580,9
1607090415.4600,21
1607090415.4620,26
1607090415.4640,31
1607090415.4659,36
1607090415.4679,43
1607090415.4700,50
1607090415.4721,64
1607090415.4741,74
1607090415.4760,84
1607090415.4781,96
1607090415.4800,110
1607090415.4821,132
1607090415.4840,151
1607090415.4860,165
1607090415.4880,175
1607090415.4900,185
1607090415.4920,192
1607090415.4939,192
1607090415.4960,177
1607090415.4980,149
1607090415.5000,108
1607090415.5020,64
1607090415.5039,28
1607090415.5059,-2
1607090415.5080,-26
1607090415.5100,-38
1607090415.5121,-48
1607090415.5140,-52
1607090415.5160,-52
1607090415.5179,-55
1607090415.5202,-55
1607090415.5219,-50
1607090415.5240,-43
1607090415.5260,-40
1607090415.5279,-36
1607090415.5300,-28
1607090415.5320,-24
1607090415.5340,-21
1607090415.5360,-19
1607090415.5380,-16
1607090415.5400,-12
1607090415.5420,-9
1607090415.5440,-4
1607090415.5459,0
1607090415.5480,4
1607090415.5500,4
1607090415.5520,9
1607090415.5540,12
1607090415.5560,7
1607090415.5580,4
1607090415.5600,7
1607090415.5619,7
1607090415.5640,7
1607090415.5659,7
1607090415.5680,4
1607090415.9936,0
1607090415.9945,2
1607090415.9970,4
1607090415.9997,7
1607090416.0016,9
1607090416.0036,9
1607090416.0057,9
1607090416.0076,7
1607090416.0095,4
1607090416.0116,-2
1607090416.0135,-2
1607090416.0155,2
1607090416.0175,4
1607090416.0195,4
1607090416.0216,4
1607090416.0235,7
1607090416.0255,7
1607090416.0275,9
1607090416.0295,12
1607090416.0315,12
1607090416.0335,12
1607090416.0356,12
1607090416.0377,14
1607090416.0395,12
1607090416.0415,9
1607090416.0435,12
1607090416.0442,12
1607090416.0465,12
1607090416.0485,14
1607090416.0505,14
1607090416.0525,16
1607090416.0545,19
1607090416.0565,19
1607090416.0585,16
1607090416.0605,21
1607090416.0625,21
1607090416.0645,19
1607090416.0665,19
1607090416.0685,19
1607090416.0705,14
1607090416.0725,14
1607090416.0745,16
1607090416.0752,19
1607090416.0765,19
1607090416.0785,16
1607090416.0805,14
1607090416.0825,16
1607090416.0845,16
1607090416.0865,14
1607090416.0885,16
1607090416.0905,14
1607090416.0927,12
1607090416.0945,14
1607090416.0965,16
1607090416.0985,12
1607090416.1005,7
1607090416.1025,4
1607090416.1045,7
1607090416.1052,14
1607090416.1066,31
1607090416.1085,50
1607090416.1105,55
1607090416.1125,48
1607090416.1145,38
1607090416.1165,21
1607090416.1185,9
1607090416.1205,7
1607090416.1225,9
1607090416.1245,9
1607090416.1265,9
1607090416.1285,12
1607090416.1305,9
1607090416.1325,4
1607090416.5337,-9
1607090416.5345,9
1607090416.5369,165
1607090416.5396,502
1607090416.5416,832
1607090416.5436,783
1607090416.5456,230
1607090416.5475,-209
1607090416.5495,-93
1607090416.5515,40
1607090416.5534,-81
1607090416.5554,-108
1607090416.5574,-36
1607090416.5594,-55
1607090416.5603,-74
1607090416.5624,-43
1607090416.5644,-33
1607090416.5664,-40
1607090416.5684,-28
1607090416.5704,-19
1607090416.5725,-14
1607090416.5744,-9
1607090416.5764,-2
1607090416.5784,0
1607090416.5805,7
1607090416.5825,14
1607090416.5845,19
1607090416.5864,28
1607090416.5884,38
1607090416.5905,45
1607090416.5911,48
1607090416.5924,55
1607090416.5945,69
1607090416.5964,79
1607090416.5984,93
1607090416.6005,108
1607090416.6024,125
1607090416.6044,139
1607090416.6065,156
1607090416.6084,168
1607090416.6106,175
1607090416.6125,173
1607090416.6145,168
1607090416.6164,149
1607090416.6184,115
1607090416.6205,74
1607090416.6212,38
1607090416.6234,12
1607090416.6254,-12
1607090416.6274,-28
1607090416.6295,-36
1607090416.6317,-38
1607090416.6335,-40
1607090416.6354,-40
1607090416.6374,-40
1607090416.6394,-38
1607090416.6414,-38
1607090416.6435,-38
1607090416.6454,-36
1607090416.6474,-28
1607090416.6494,-21
1607090416.6514,-16
1607090416.6521,-16
1607090416.6535,-16
1607090416.6555,-12
1607090416.6575,-7
1607090416.6595,-7
1607090416.6614,-2
1607090416.6635,2
1607090416.6655,7
1607090416.6676,12
1607090416.6695,14
1607090416.6715,16
1607090417.1034,14
1607090417.1041,16
1607090417.1057,16
1607090417.1082,19
1607090417.1102,19
1607090417.1121,16
1607090417.1141,14
1607090417.1162,12
1607090417.1181,9
1607090417.1202,14
1607090417.1221,19
1607090417.1242,12
1607090417.1261,12
1607090417.1281,21
1607090417.1302,24
1607090417.1321,21
1607090417.1341,24
1607090417.1361,31
1607090417.1368,31
1607090417.1392,28
1607090417.1411,26
1607090417.1431,28
1607090417.1451,28
1607090417.1471,26
1607090417.1491,26
1607090417.1511,31
1607090417.1531,33
1607090417.1551,31
1607090417.1572,33
1607090417.1592,36
1607090417.1613,36
1607090417.1631,33
1607090417.1651,31
1607090417.1672,33
1607090417.1678,36
1607090417.1691,31
1607090417.1711,31
1607090417.1731,38
1607090417.1752,38
1607090417.1771,36
1607090417.1791,36
1607090417.1812,36
1607090417.1831,38
1607090417.1851,38
1607090417.1871,40
1607090417.1891,43
1607090417.1911,40
1607090417.1931,38
1607090417.1951,43
1607090417.1958,40
1607090417.1981,36
1607090417.2002,31
1607090417.2023,28
1607090417.2041,26
1607090417.2061,24
1607090417.2081,24
1607090417.2101,24
1607090417.2121,26
1607090417.2141,26
1607090417.2161,28
1607090417.2181,26
1607090417.2202,24
1607090417.2221,26
1607090417.2241,28
1607090417.2261,31
1607090417.2268,31
1607090417.2291,28
1607090417.2311,26
1607090417.2331,28
1607090417.2351,28
1607090417.2371,24
1607090417.2391,24
1607090417.2411,36
1607090417.6439,55
1607090417.6446,62
1607090417.6470,57
1607090417.6497,50
1607090417.6516,38
1607090417.6536,26
1607090417.6556,28
1607090417.6578,33
1607090417.6585,28
1607090417.6606,21
1607090417.6626,24
1607090417.6646,26
1607090417.6666,14
1607090417.6686,-4
1607090417.6706,7
1607090417.6726,149
1607090417.6746,473
1607090417.6766,822
1607090417.6786,808
1607090417.6807,250
1607090417.6826,-238
1607090417.6845,-122
1607090417.6866,60
1607090417.6886,-52
1607090417.6906,-91
1607090417.6926,-16
1607090417.6946,-28
1607090417.6966,-48
1607090417.6986,-21
1607090417.7006,-14
1607090417.7026,-19
1607090417.7046,-4
1607090417.7066,2
1607090417.7086,2
1607090417.7106,9
1607090417.7126,14
1607090417.7146,14
1607090417.7166,21
1607090417.7186,28
1607090417.7206,33
1607090417.7226,36
1607090417.7246,40
1607090417.7266,45
1607090417.7286,52
1607090417.7306,57
1607090417.7326,69
1607090417.7346,84
1607090417.7366,91
1607090417.7386,103
1607090417.7406,125
1607090417.7426,146
1607090417.7446,161
1607090417.7466,170
1607090417.7486,177
1607090417.7506,180
1607090417.7526,175
1607090417.7546,156
1607090417.7566,125
1607090417.7587,84
1607090417.7607,40
1607090417.7626,7
1607090417.7646,-14
1607090417.7666,-36
1607090417.7686,-50
1607090417.7706,-55
1607090417.7726,-52
1607090417.7746,-55
1607090417.7766,-52
1607090417.7786,-48
1607090417.7806,-45
1607090417.7826,-43
1607090417.7846,-40
1607090417.7866,-38
1607090418.1838,-31
1607090418.1845,-26
1607090418.1869,-24
1607090418.1895,-21
1607090418.1916,-19
1607090418.1935,-19
1607090418.1956,-21
1607090418.1975,-19
1607090418.1995,-12
1607090418.2016,-9
1607090418.2035,-12
1607090418.2055,-9
1607090418.2075,-7
1607090418.2095,-9
1607090418.2116,-7
1607090418.2135,-2
1607090418.2155,-2
1607090418.2175,-4
1607090418.2195,-4
1607090418.2215,0
1607090418.2235,2
1607090418.2255,2
1607090418.2275,2
1607090418.2295,4
1607090418.2315,12
1607090418.2335,12
1607090418.2355,12
1607090418.2375,14
1607090418.2395,14
1607090418.2416,12
1607090418.2435,14
1607090418.2455,14
1607090418.2475,12
1607090418.2495,12
1607090418.2515,12
1607090418.2535,12
1607090418.2557,4
1607090418.2575,2
1607090418.2595,4
1607090418.2615,7
1607090418.2635,7
1607090418.2655,4
1607090418.2675,7
1607090418.2695,9
1607090418.2715,12
1607090418.2735,12
1607090418.2755,14
1607090418.2775,16
1607090418.2795,14
1607090418.2815,16
1607090418.2835,16
1607090418.2855,16
1607090418.2875,14
1607090418.2895,14
1607090418.2915,14
1607090418.2935,16
1607090418.2955,14
1607090418.2975,12
1607090418.2995,12
1607090418.3015,12
1607090418.3035,12
1607090418.3055,12
1607090418.3075,16
1607090418.3095,14
1607090418.3115,12
1607090418.3135,14
1607090418.3155,16
1607090418.3175,14
1607090418.3195,12
1607090418.3215,12
1607090418.3235,12
1607090418.3255,14
1607090418.3275,14
1607090418.7841,14
1607090418.7849,16
1607090418.7873,16
1607090418.7901,9
1607090418.7920,2
1607090418.7940,7
1607090418.7960,12
1607090418.7980,9
1607090418.8000,4
1607090418.8019,4
1607090418.8039,2
1607090418.8059,12
1607090418.8079,33
1607090418.8099,52
1607090418.8121,50
1607090418.8139,43
1607090418.8159,33
1607090418.8179,24
1607090418.8201,19
1607090418.8219,21
1607090418.8239,21
1607090418.8259,19
1607090418.8279,16
1607090418.8299,16
1607090418.8319,21
1607090418.8339,12
1607090418.8359,-4
1607090418.8379,45
1607090418.8399,271
1607090418.8419,637
1607090418.8439,882
1607090418.8459,642
1607090418.8479,28
1607090418.8499,-221
1607090418.8519,-16
1607090418.8539,16
1607090418.8559,-103
1607090418.8579,-69
1607090418.8599,-21
1607090418.8619,-57
1607090418.8639,-55
1607090418.8659,-24
1607090418.8679,-26
1607090418.8699,-28
1607090418.8719,-12
1607090418.8739,-7
1607090418.8759,-9
1607090418.8779,0
1607090418.8799,7
1607090418.8819,9
1607090418.8839,12
1607090418.8859,19
1607090418.8879,24
1607090418.8899,28
1607090418.8919,36
1607090418.8939,43
1607090418.8959,52
1607090418.8979,57
1607090418.8999,64
1607090418.9018,76
1607090418.9039,91
1607090418.9059,103
1607090418.9079,117
1607090418.9099,134
1607090418.9119,149
1607090418.9140,156
1607090418.9159,161
1607090418.9179,163
1607090418.9199,153
1607090418.9219,132
1607090418.9238,98
1607090418.9258,60
1607090418.9279,26
1607090419.3541,-7
1607090419.3550,-33
1607090419.3574,-45
1607090419.3600,-52
1607090419.3620,-60
1607090419.3640,-60
1607090419.3661,-57
1607090419.3680,-57
1607090419.3701,-62
1607090419.3720,-64
1607090419.3741,-57
1607090419.3760,-52
1607090419.3780,-52
1607090419.3801,-45
1607090419.3820,-38
1607090419.3840,-38
1607090419.3860,-33
1607090419.3880,-31
1607090419.3900,-28
1607090419.3919,-24
1607090419.3940,-24
1607090419.3959,-28
1607090419.3966,-26
1607090419.3980,-19
1607090419.4000,-16
1607090419.4019,-16
1607090419.4039,-16
1607090419.4059,-14
1607090419.4080,-14
1607090419.4099,-12
1607090419.4119,-7
1607090419.4140,-7
1607090419.4159,-7
1607090419.4179,-4
1607090419.4200,-2
1607090419.4219,0
1607090419.4239,2
1607090419.4259,4
1607090419.4266,9
1607090419.4279,7
1607090419.4300,9
1607090419.4319,12
1607090419.4340,12
1607090419.4361,12
1607090419.4380,12
1607090419.4400,14
1607090419.4419,16
1607090419.4439,16
1607090419.4459,19
1607090419.4479,16
1607090419.4500,16
1607090419.4519,16
1607090419.4540,19
1607090419.4559,21
1607090419.4566,24
1607090419.4579,21
1607090419.4600,21
1607090419.4619,21
1607090419.4639,21
1607090419.4659,24
1607090419.4679,26
1607090419.4700,26
1607090419.4720,24
1607090419.4740,19
1607090419.4759,21
1607090419.4779,24
1607090419.4800,21
1607090419.4819,21
1607090419.4839,21
1607090419.4859,24
1607090419.4866,24
1607090419.4879,21
1607090419.4899,24
1607090419.9237,24
1607090419.9246,19
1607090419.9270,19
1607090419.9297,19
1607090419.9317,21
1607090419.9338,21
1607090419.9357,21
1607090419.9376,19
1607090419.9396,19
1607090419.9416,12
1607090419.9437,4
1607090419.9457,7
1607090419.9463,9
1607090419.9476,4
1607090419.9496,2
1607090419.9516,2
1607090419.9536,7
1607090419.9556,7
1607090419.9576,7
1607090419.9596,7
1607090419.9616,7
1607090419.9638,7
1607090419.9657,7
1607090419.9677,4
1607090419.9697,4
1607090419.9716,16
1607090419.9736,38
1607090419.9757,48
1607090419.9763,45
1607090419.9776,38
1607090419.9796,26
1607090419.9816,14
1607090419.9837,14
1607090419.9856,14
1607090419.9876,14
1607090419.9896,16
1607090419.9916,14
1607090419.9936,14
1607090419.9956,16
1607090419.9976,7
1607090419.9996,-4
1607090420.0016,81
1607090420.0036,346
1607090420.0056,704
1607090420.0063,851
1607090420.0076,480
1607090420.0096,-84
1607090420.0116,-170
1607090420.0136,33
1607090420.0156,-7
1607090420.0176,-96
1607090420.0196,-38
1607090420.0217,-21
1607090420.0237,-50
1607090420.0256,-33
1607090420.0276,-16
1607090420.0296,-24
1607090420.0316,-16
1607090420.0336,-4
1607090420.0356,-2
1607090420.0363,-2
1607090420.0376,4
1607090420.0396,12
1607090420.0416,14
1607090420.0436,14
1607090420.0456,19
1607090420.0476,26
1607090420.0496,31
1607090420.0516,38
1607090420.0536,43
1607090420.0556,52
1607090420.0576,62
1607090420.0598,72
1607090420.4634,81
1607090420.4641,93
1607090420.4664,110
1607090420.4691,125
1607090420.4712,141
1607090420.4731,153
1607090420.4753,158
1607090420.4771,158
1607090420.4792,158
1607090420.4812,151
1607090420.4832,122
1607090420.4851,79
1607090420.4872,38
1607090420.4891,7
1607090420.4911,-21
1607090420.4931,-40
1607090420.4938,-52
1607090420.4950,-62
1607090420.4970,-67
1607090420.4991,-67
1607090420.5011,-62
1607090420.5031,-60
1607090420.5050,-55
1607090420.5070,-50
1607090420.5090,-45
1607090420.5111,-43
1607090420.5130,-38
1607090420.5150,-31
1607090420.5171,-26
1607090420.5190,-24
1607090420.5211,-21
1607090420.5231,-19
1607090420.5237,-16
1607090420.5251,-14
1607090420.5270,-9
1607090420.5291,-7
1607090420.5311,-4
1607090420.5331,-2
1607090420.5350,-2
1607090420.5370,0
1607090420.5390,4
1607090420.5411,4
1607090420.5430,2
1607090420.5450,2
1607090420.5471,7
1607090420.5490,4
1607090420.5511,7
1607090420.5530,7
1607090420.5538,4
1607090420.5560,4
1607090420.5583,7
1607090420.5602,9
1607090420.5620,9
1607090420.5640,9
1607090420.5660,9
1607090420.5680,14
1607090420.5701,19
1607090420.5720,21
1607090420.5740,21
1607090420.5760,21
1607090420.5780,26
1607090420.5801,26
1607090420.5821,24
1607090420.5827,24
1607090420.5841,21
1607090420.5860,19
1607090420.5880,19
1607090420.5901,21
1607090420.5920,21
1607090420.5942,21
1607090420.5961,24
1607090420.5980,24
1607090420.6002,16
1607090421.0331,12
1607090421.0336,12
1607090421.0347,14
1607090421.0367,14
1607090421.0387,14
1607090421.0407,14
1607090421.0427,19
1607090421.0447,19
1607090421.0467,12
1607090421.0487,9
1607090421.0494,12
1607090421.0507,12
1607090421.0527,9
1607090421.0547,14
1607090421.0567,16
1607090421.0587,19
1607090421.0607,16
1607090421.0627,14
1607090421.0647,14
1607090421.0667,16
1607090421.0687,16
1607090421.0707,16
1607090421.0727,16
1607090421.0747,14
1607090421.0767,14
1607090421.0787,14
1607090421.0793,16
1607090421.0807,16
1607090421.0828,14
1607090421.0847,14
1607090421.0867,16
1607090421.0887,19
1607090421.0907,38
1607090421.0927,57
1607090421.0947,57
1607090421.0967,45
1607090421.0986,40
1607090421.1007,31
1607090421.1027,19
1607090421.1047,19
1607090421.1067,24
1607090421.1087,26
1607090421.1094,26
1607090421.1107,31
1607090421.1127,33
1607090421.1146,26
1607090421.1167,12
1607090421.1186,64
1607090421.1207,293
1607090421.1227,666
1607090421.1247,889
1607090421.1267,579
1607090421.1287,-48
1607090421.1307,-223
1607090421.1327,16
1607090421.1347,36
1607090421.1366,-76
1607090421.1386,-26
1607090421.1393,9
1607090421.1407,-33
1607090421.1427,-26
1607090421.1447,0
1607090421.1467,-2
1607090421.1488,0
1607090421.1507,12
1607090421.1527,4
1607090421.1547,7
1607090421.1567,19
1607090421.1587,24
1607090421.1607,28
1607090421.1627,33
1607090421.1647,36
1607090421.1667,40
1607090421.5740,48
1607090421.5751,57
1607090421.5775,67
1607090421.5801,74
1607090421.5821,79
1607090421.5841,81
1607090421.5864,91
1607090421.5881,110
1607090421.5901,125
1607090421.5920,129
1607090421.5940,141
1607090421.5960,165
1607090421.5980,180
1607090421.6001,185
1607090421.6020,182
1607090421.6040,170
1607090421.6060,141
1607090421.6067,101
1607090421.6080,60
1607090421.6101,21
1607090421.6121,-12
1607090421.6140,-40
1607090421.6160,-55
1607090421.6180,-60
1607090421.6200,-62
1607090421.6220,-64
1607090421.6240,-60
1607090421.6260,-55
1607090421.6280,-55
1607090421.6300,-48
1607090421.6320,-43
1607090421.6340,-40
1607090421.6360,-33
1607090421.6367,-26
1607090421.6380,-21
1607090421.6400,-21
1607090421.6421,-16
1607090421.6440,-9
1607090421.6460,-2
1607090421.6480,-4
1607090421.6500,-7
1607090421.6520,-2
1607090421.6540,2
1607090421.6560,2
1607090421.6580,-2
1607090421.6600,-2
1607090421.6620,-2
1607090421.6641,-2
1607090421.6660,0
1607090421.6667,0
1607090421.6680,-2
1607090421.6701,0
1607090421.6720,0
1607090421.6740,2
1607090421.6761,4
1607090421.6780,4
1607090421.6800,2
1607090421.6822,0
1607090421.6840,-2
1607090421.6860,0
1607090421.6880,2
1607090421.6901,0
1607090421.6920,2
1607090421.6940,4
1607090421.6960,2
1607090421.6966,7
1607090421.6980,14
1607090421.7001,12
1607090421.7020,9
1607090421.7040,12
1607090421.7060,14
1607090421.7080,9
1607090421.7100,12
1607090422.1740,16
1607090422.1749,16
1607090422.1773,19
1607090422.1801,19
1607090422.1820,19
1607090422.1904,16
1607090422.1920,9
1607090422.1940,4
1607090422.1959,7
1607090422.1979,7
1607090422.2000,4
1607090422.2019,2
1607090422.2039,4
1607090422.2059,2
1607090422.2079,2
1607090422.2100,4
1607090422.2119,7
1607090422.2139,9
1607090422.2159,9
1607090422.2179,2
1607090422.2186,0
1607090422.2198,0
1607090422.2219,9
1607090422.2239,28
1607090422.2259,48
1607090422.2279,48
1607090422.2300,40
1607090422.2319,31
1607090422.2339,21
1607090422.2359,14
1607090422.2379,16
1607090422.2399,19
1607090422.2419,19
1607090422.2439,21
1607090422.2459,21
1607090422.2480,19
1607090422.2487,7
1607090422.2499,-2
1607090422.2519,81
1607090422.2539,351
1607090422.2559,728
1607090422.2579,877
1607090422.2599,473
1607090422.2619,-129
1607090422.2639,-202
1607090422.2659,31
1607090422.2679,-9
1607090422.2699,-101
1607090422.2719,-36
1607090422.2739,-19
1607090422.2759,-60
1607090422.2779,-45
1607090422.2786,-26
1607090422.2809,-28
1607090422.2829,-24
1607090422.2849,-12
1607090422.2869,-12
1607090422.2889,-7
1607090422.2909,2
1607090422.2929,9
1607090422.2949,12
1607090422.2969,14
1607090422.2989,19
1607090422.3009,24
1607090422.3029,31
1607090422.3049,40
1607090422.3069,45
1607090422.3089,55
1607090422.3096,67
1607090422.3119,74
1607090422.3139,86
1607090422.3159,108
1607090422.3179,125
1607090422.7140,134
1607090422.7149,149
1607090422.7173,163
1607090422.7201,173
1607090422.7220,177
1607090422.7239,175
1607090422.7261,158
1607090422.7280,127
1607090422.7300,86
1607090422.7319,45
1607090422.7339,12
1607090422.7346,-24
1607090422.7369,-50
1607090422.7392,-60
1607090422.7410,-64
1607090422.7429,-69
1607090422.7449,-69
1607090422.7469,-64
1607090422.7489,-62
1607090422.7509,-60
1607090422.7529,-55
1607090422.7549,-50
1607090422.7569,-48
1607090422.7589,-45
1607090422.7609,-40
1607090422.7629,-33
1607090422.7649,-24
1607090422.7656,-21
1607090422.7679,-24
1607090422.7700,-21
1607090422.7719,-16
1607090422.7740,-12
1607090422.7759,-9
1607090422.7779,-7
1607090422.7800,-7
1607090422.7819,-7
1607090422.7839,-4
1607090422.7859,-4
1607090422.7879,-4
1607090422.7900,-4
1607090422.7919,0
1607090422.7939,2
1607090422.7959,2
1607090422.7967,0
1607090422.7991,-4
1607090422.8009,0
1607090422.8029,4
1607090422.8049,2
1607090422.8069,2
1607090422.8089,4
1607090422.8109,7
1607090422.8129,4
1607090422.8149,9
1607090422.8169,12
1607090422.8189,12
1607090422.8209,12
1607090422.8229,16
1607090422.8249,19
1607090422.8269,16
1607090422.8276,16
1607090422.8299,16
1607090422.8319,16
1607090422.8340,14
1607090422.8359,16
1607090422.8380,16
1607090422.8401,14
1607090422.8419,14
1607090422.8439,19
1607090422.8459,21
1607090422.8479,21
1607090422.8499,21
1607090422.8519,24
1607090422.8539,21
1607090423.2541,16
1607090423.2549,16
1607090423.2573,21
1607090423.2600,21
1607090423.2620,19
1607090423.2640,21
1607090423.2661,21
1607090423.2680,21
1607090423.2700,12
1607090423.2719,0
1607090423.2739,-2
1607090423.2760,2
1607090423.2779,7
1607090423.2800,26
1607090423.2819,48
1607090423.2839,48
1607090423.2846,40
1607090423.2859,33
1607090423.2879,19
1607090423.2899,7
1607090423.2919,9
1607090423.2939,12
1607090423.2959,9
1607090423.2979,7
1607090423.3000,9
1607090423.3019,4
1607090423.3039,-4
1607090423.3059,-14
1607090423.3079,55
1607090423.3099,305
1607090423.3119,675
1607090423.3139,872
1607090423.3146,536
1607090423.3159,-81
1607090423.3179,-228
1607090423.3199,2
1607090423.3219,-9
1607090423.3239,-120
1607090423.3259,-64
1607090423.3279,-33
1607090423.3300,-72
1607090423.3319,-57
1607090423.3340,-36
1607090423.3359,-40
1607090423.3379,-38
1607090423.3399,-24
1607090423.3419,-21
1607090423.3439,-16
1607090423.3446,-9
1607090423.3459,-7
1607090423.3479,0
1607090423.3499,4
1607090423.3519,9
1607090423.3539,16
1607090423.3559,26
1607090423.3579,31
1607090423.3599,38
1607090423.3619,48
1607090423.3639,60
1607090423.3659,69
1607090423.3679,81
1607090423.3699,93
1607090423.3719,110
1607090423.3739,127
1607090423.3745,139
1607090423.3759,151
1607090423.3779,161
1607090423.3799,165
1607090423.3819,161
1607090423.3839,153
1607090423.3859,129
1607090423.3879,86
1607090423.3899,45
1607090423.8240,14
1607090423.8248,-12
1607090423.8272,-33
1607090423.8301,-45
1607090423.8319,-50
1607090423.8339,-55
1607090423.8346,-67
1607090423.8360,-67
1607090423.8379,-55
1607090423.8399,-52
1607090423.8419,-55
1607090423.8439,-50
1607090423.8458,-48
1607090423.8479,-40
1607090423.8498,-33
1607090423.8518,-28
1607090423.8538,-26
1607090423.8560,-21
1607090423.8578,-19
1607090423.8599,-14
1607090423.8620,-12
1607090423.8639,-9
1607090423.8645,-7
1607090423.8658,-4
1607090423.8678,-4
1607090423.8698,-4
1607090423.8718,-2
1607090423.8738,0
1607090423.8758,-2
1607090423.8778,-9
1607090423.8798,-9
1607090423.8818,-4
1607090423.8838,-2
1607090423.8858,-2
1607090423.8878,-2
1607090423.8898,0
1607090423.8918,0
1607090423.8938,2
1607090423.8945,4
1607090423.8960,7
1607090423.8978,9
1607090423.8998,7
1607090423.9018,4
1607090423.9038,4
1607090423.9058,9
1607090423.9078,12
1607090423.9098,9
1607090423.9118,12
1607090423.9138,14
1607090423.9158,14
1607090423.9178,14
1607090423.9198,19
1607090423.9218,21
1607090423.9225,16
1607090423.9238,16
1607090423.9258,19
1607090423.9278,21
1607090423.9299,21
1607090423.9318,24
1607090423.9338,24
1607090423.9358,24
1607090423.9378,24
1607090423.9398,24
1607090423.9419,28
1607090423.9439,31
1607090423.9458,28
1607090423.9478,28
1607090423.9498,28
1607090423.9518,28
1607090423.9531,31
1607090423.9548,33
1607090423.9569,31
1607090423.9588,28
1607090424.3638,31
1607090424.3646,31
1607090424.3670,26
1607090424.3688,26
1607090424.3708,28
1607090424.3727,28
1607090424.3747,26
1607090424.3768,21
1607090424.3774,19
1607090424.3787,21
1607090424.3807,21
1607090424.3827,19
1607090424.3847,16
1607090424.3867,12
1607090424.3887,7
1607090424.3907,9
1607090424.3927,24
1607090424.3947,45
1607090424.3967,55
1607090424.3987,52
1607090424.4007,43
1607090424.4027,24
1607090424.4046,9
1607090424.4066,12
1607090424.4073,14
1607090424.4087,12
1607090424.4107,12
1607090424.4127,14
1607090424.4146,14
1607090424.4166,12
1607090424.4186,-2
1607090424.4207,-9
1607090424.4226,79
1607090424.4246,343
1607090424.4266,707
1607090424.4286,865
1607090424.4306,488
1607090424.4326,-105
1607090424.4346,-202
1607090424.4366,12
1607090424.4372,-28
1607090424.4386,-122
1607090424.4406,-62
1607090424.4426,-43
1607090424.4446,-72
1607090424.4466,-55
1607090424.4486,-40
1607090424.4507,-45
1607090424.4526,-40
1607090424.4548,-28
1607090424.4567,-26
1607090424.4586,-19
1607090424.4607,-9
1607090424.4626,-7
1607090424.4646,-4
1607090424.4666,4
1607090424.4672,9
1607090424.4686,14
1607090424.4706,19
1607090424.4726,28
1607090424.4746,38
1607090424.4766,43
1607090424.4786,55
1607090424.4806,67
1607090424.4826,79
1607090424.4846,91
1607090424.4866,103
1607090424.4886,117
1607090424.4906,134
1607090424.4926,146
1607090424.4946,151
1607090424.4966,156
1607090424.4972,156
1607090424.9337,144
1607090424.9346,122
1607090424.9370,93
1607090424.9397,52
1607090424.9417,7
1607090424.9437,-24
1607090424.9458,-43
1607090424.9477,-55
1607090424.9497,-62
1607090424.9517,-64
1607090424.9537,-64
1607090424.9558,-62
1607090424.9577,-60
1607090424.9597,-57
1607090424.9616,-57
1607090424.9622,-55
1607090424.9636,-52
1607090424.9656,-45
1607090424.9676,-40
1607090424.9696,-33
1607090424.9716,-31
1607090424.9736,-28
1607090424.9756,-24
1607090424.9776,-19
1607090424.9796,-16
1607090424.9816,-16
1607090424.9836,-14
1607090424.9859,-12
1607090424.9876,-12
1607090424.9896,-9
1607090424.9916,-4
1607090424.9922,-4
1607090424.9936,-7
1607090424.9956,-2
1607090424.9976,0
1607090424.9996,-2
1607090425.0016,0
1607090425.0036,2
1607090425.0056,2
1607090425.0076,2
1607090425.0096,4
1607090425.0116,7
1607090425.0136,7
1607090425.0156,7
1607090425.0176,12
1607090425.0196,14
1607090425.0216,12
1607090425.0222,14
1607090425.0236,16
1607090425.0256,16
1607090425.0276,16
1607090425.0296,19
1607090425.0316,21
1607090425.0336,19
1607090425.0356,19
1607090425.0376,21
1607090425.0396,21
1607090425.0416,19
1607090425.0436,16
1607090425.0456,16
1607090425.0476,19
1607090425.0496,21
1607090425.0516,24
1607090425.0523,21
1607090425.0536,21
1607090425.0556,24
1607090425.0576,26
1607090425.0596,26
1607090425.0616,24
1607090425.0636,26
1607090425.0656,24
1607090425.0676,21
1607090425.0696,24
1607090425.5338,26
1607090425.5347,26
1607090425.5371,28
1607090425.5383,28
1607090425.5398,28
1607090425.5421,24
1607090425.5437,14
1607090425.5459,12
1607090425.5479,12
1607090425.5497,12
1607090425.5517,12
1607090425.5537,14
1607090425.5557,16
1607090425.5577,14
1607090425.5597,14
1607090425.5617,14
1607090425.5637,14
1607090425.5657,12
1607090425.5677,14
1607090425.5683,14
1607090425.5697,7
1607090425.5717,0
1607090425.5737,2
1607090425.5757,9
1607090425.5777,26
1607090425.5796,45
1607090425.5817,48
1607090425.5836,40
1607090425.5857,33
1607090425.5877,19
1607090425.5897,9
1607090425.5917,12
1607090425.5937,16
1607090425.5957,14
1607090425.5977,12
1607090425.5983,16
1607090425.5996,19
1607090425.6016,12
1607090425.6036,-7
1607090425.6056,14
1607090425.6076,189
1607090425.6096,531
1607090425.6116,841
1607090425.6136,740
1607090425.6156,158
1607090425.6177,-228
1607090425.6196,-74
1607090425.6216,33
1607090425.6236,-96
1607090425.6256,-98
1607090425.6276,-36
1607090425.6283,-62
1607090425.6296,-74
1607090425.6316,-45
1607090425.6336,-40
1607090425.6356,-43
1607090425.6378,-33
1607090425.6397,-26
1607090425.6416,-24
1607090425.6436,-16
1607090425.6456,-9
1607090425.6476,-4
1607090425.6496,0
1607090425.6516,4
1607090425.6536,12
1607090425.6556,19
1607090425.6576,24
1607090425.6582,31
1607090425.6596,40
1607090425.6617,48
1607090425.6637,57
1607090425.6656,72
1607090425.6676,81
1607090426.0741,91
1607090426.0749,105
1607090426.0774,120
1607090426.0800,132
1607090426.0820,144
1607090426.0840,153
1607090426.0861,151
1607090426.0880,141
1607090426.0886,125
1607090426.0900,96
1607090426.0919,55
1607090426.0939,14
1607090426.0959,-16
1607090426.0979,-38
1607090426.1000,-57
1607090426.1019,-64
1607090426.1040,-67
1607090426.1059,-67
1607090426.1079,-67
1607090426.1100,-67
1607090426.1119,-62
1607090426.1139,-55
1607090426.1159,-52
1607090426.1179,-48
1607090426.1185,-43
1607090426.1200,-38
1607090426.1219,-31
1607090426.1239,-26
1607090426.1259,-21
1607090426.1279,-19
1607090426.1300,-16
1607090426.1319,-14
1607090426.1339,-9
1607090426.1359,-7
1607090426.1380,-7
1607090426.1400,-7
1607090426.1419,-2
1607090426.1439,0
1607090426.1459,-2
1607090426.1479,-2
1607090426.1485,0
1607090426.1500,0
1607090426.1519,-2
1607090426.1539,-2
1607090426.1559,0
1607090426.1579,2
1607090426.1599,2
1607090426.1619,2
1607090426.1639,4
1607090426.1659,7
1607090426.1679,4
1607090426.1700,9
1607090426.1719,12
1607090426.1739,12
1607090426.1759,12
1607090426.1779,14
1607090426.1785,14
1607090426.1800,14
1607090426.1819,16
1607090426.1839,19
1607090426.1859,19
1607090426.1879,19
1607090426.1899,19
1607090426.1919,19
1607090426.1939,24
1607090426.1959,21
1607090426.1979,16
1607090426.2000,19
1607090426.2019,21
1607090426.2039,19
1607090426.2059,16
1607090426.2079,19
1607090426.2085,19
1607090426.6441,14
1607090426.6450,14
1607090426.6474,16
1607090426.6491,19
1607090426.6511,19
1607090426.6532,21
1607090426.6551,21
1607090426.6572,16
1607090426.6591,9
1607090426.6611,12
1607090426.6631,14
1607090426.6651,9
1607090426.6675,7
1607090426.6691,7
1607090426.6699,9
1607090426.6710,9
1607090426.6730,9
1607090426.6751,14
1607090426.6771,16
1607090426.6791,12
1607090426.6811,12
1607090426.6830,14
1607090426.6850,12
1607090426.6871,9
1607090426.6890,7
1607090426.6911,7
1607090426.6930,19
1607090426.6950,40
1607090426.6970,52
1607090426.6990,48
1607090426.6996,33
1607090426.7010,21
1607090426.7030,14
1607090426.7050,9
1607090426.7070,7
1607090426.7090,7
1607090426.7110,4
1607090426.7130,2
1607090426.7151,4
1607090426.7170,2
1607090426.7190,-12
1607090426.7210,-14
1607090426.7230,86
1607090426.7250,365
1607090426.7270,728
1607090426.7290,824
1607090426.7296,365
1607090426.7310,-194
1607090426.7330,-189
1607090426.7350,31
1607090426.7370,-38
1607090426.7390,-113
1607090426.7410,-40
1607090426.7430,-33
1607090426.7450,-69
1607090426.7470,-50
1607090426.7490,-28
1607090426.7510,-33
1607090426.7530,-36
1607090426.7550,-28
1607090426.7570,-24
1607090426.7590,-16
1607090426.7595,-14
1607090426.7611,-14
1607090426.7630,-7
1607090426.7650,2
1607090426.7670,4
1607090426.7690,12
1607090426.7710,21
1607090426.7730,28
1607090426.7750,36
1607090426.7770,45
1607090426.7790,60
1607090427.1841,69
1607090427.1850,79
1607090427.1867,96
1607090427.1891,115
1607090427.1911,132
1607090427.1930,149
1607090427.1950,156
1607090427.1970,163
1607090427.1990,173
1607090427.2011,165
1607090427.2030,139
1607090427.2051,108
1607090427.2070,69
1607090427.2091,31
1607090427.2110,0
1607090427.2130,-26
1607090427.2150,-45
1607090427.2170,-57
1607090427.2176,-64
1607090427.2190,-67
1607090427.2210,-64
1607090427.2230,-67
1607090427.2250,-64
1607090427.2270,-60
1607090427.2290,-55
1607090427.2310,-52
1607090427.2330,-48
1607090427.2350,-43
1607090427.2370,-33
1607090427.2390,-26
1607090427.2410,-26
1607090427.2430,-24
1607090427.2450,-21
1607090427.2470,-16
1607090427.2476,-14
1607090427.2491,-12
1607090427.2510,-12
1607090427.2530,-12
1607090427.2550,-7
1607090427.2570,-7
1607090427.2589,-9
1607090427.2612,-7
1607090427.2630,-7
1607090427.2650,-4
1607090427.2670,-7
1607090427.2691,-7
1607090427.2710,-4
1607090427.2730,-4
1607090427.2750,-2
1607090427.2770,0
1607090427.2776,2
1607090427.2790,0
1607090427.2810,-2
1607090427.2831,-7
1607090427.2850,-9
1607090427.2870,-7
1607090427.2892,-4
1607090427.2910,-2
1607090427.2930,0
1607090427.2950,-2
1607090427.2970,-2
1607090427.2990,0
1607090427.3010,4
1607090427.3030,7
1607090427.3050,7
1607090427.3056,4
1607090427.3070,4
1607090427.3090,4
1607090427.3111,2
1607090427.3130,4
1607090427.3150,9
1607090427.3170,12
1607090427.3190,7
1607090427.7541,4
1607090427.7550,2
1607090427.7575,2
1607090427.7602,4
1607090427.7621,4
1607090427.7642,2
1607090427.7661,-2
1607090427.7681,-7
1607090427.7687,-4
1607090427.7701,0
1607090427.7721,-2
1607090427.7741,-4
1607090427.7761,-7
1607090427.7781,-9
1607090427.7801,-12
1607090427.7820,-14
1607090427.7840,-12
1607090427.7860,-7
1607090427.7880,9
1607090427.7904,28
1607090427.7921,31
1607090427.7941,24
1607090427.7960,12
1607090427.7980,-2
1607090427.7986,-7
1607090427.8001,-7
1607090427.8020,-9
1607090427.8040,-12
1607090427.8060,-9
1607090427.8080,-9
1607090427.8101,-12
1607090427.8120,-19
1607090427.8140,-33
1607090427.8160,21
1607090427.8180,252
1607090427.8200,618
1607090427.8220,841
1607090427.8240,545
1607090427.8260,-79
1607090427.8280,-266
1607090427.8286,-28
1607090427.8300,-12
1607090427.8320,-129
1607090427.8340,-84
1607090427.8360,-48
1607090427.8380,-91
1607090427.8400,-81
1607090427.8420,-52
1607090427.8440,-57
1607090427.8460,-57
1607090427.8480,-45
1607090427.8500,-38
1607090427.8520,-36
1607090427.8540,-31
1607090427.8560,-24
1607090427.8580,-16
1607090427.8586,-9
1607090427.8601,-9
1607090427.8620,-4
1607090427.8640,2
1607090427.8660,12
1607090427.8680,19
1607090427.8700,28
1607090427.8720,40
1607090427.8740,52
1607090427.8761,60
1607090427.8780,72
1607090427.8800,88
1607090427.8820,103
1607090427.8840,115
1607090427.8861,134
1607090427.8880,149
1607090427.8886,149
1607090428.2941,144
1607090428.2950,134
1607090428.2974,105
1607090428.3002,64
1607090428.3021,24
1607090428.3041,-7
1607090428.3061,-33
1607090428.3081,-62
1607090428.3102,-81
1607090428.3122,-84
1607090428.3141,-84
1607090428.3161,-86
1607090428.3181,-84
1607090428.3187,-74
1607090428.3201,-69
1607090428.3221,-69
1607090428.3241,-64
1607090428.3261,-57
1607090428.3281,-52
1607090428.3302,-50
1607090428.3321,-43
1607090428.3341,-38
1607090428.3361,-36
1607090428.3380,-33
1607090428.3401,-28
1607090428.3420,-24
1607090428.3441,-24
1607090428.3460,-21
1607090428.3480,-16
1607090428.3486,-14
1607090428.3501,-16
1607090428.3520,-16
1607090428.3540,-14
1607090428.3560,-9
1607090428.3580,-9
1607090428.3601,-16
1607090428.3620,-21
1607090428.3640,-21
1607090428.3660,-19
1607090428.3680,-16
1607090428.3701,-14
1607090428.3720,-19
1607090428.3740,-26
1607090428.3760,-33
1607090428.3781,-48
1607090428.3786,-33
1607090428.3801,-9
1607090428.3820,-26
1607090428.3842,-28
1607090428.3861,28
1607090428.3880,52
1607090428.3901,16
1607090428.3920,0
1607090428.3941,-14
1607090428.3960,-4
1607090428.3980,48
1607090428.4001,55
1607090428.4020,19
1607090428.4040,9
1607090428.4060,14
1607090428.4080,14
1607090428.4086,16
1607090428.4101,12
1607090428.4120,4
1607090428.4141,4
1607090428.4160,9
1607090428.4180,7
1607090428.4201,4
1607090428.4220,9
1607090428.4240,16
1607090428.4261,14
1607090428.4281,14
1607090428.4301,24
1607090428.8942,28
1607090428.8950,26
1607090428.8974,28
1607090428.8986,28
1607090428.9002,21
1607090428.9021,12
1607090428.9041,21
1607090428.9062,33
1607090428.9082,33
1607090428.9101,26
1607090428.9121,19
1607090428.9141,19
1607090428.9160,40
1607090428.9181,64
1607090428.9201,74
1607090428.9220,62
1607090428.9240,43
1607090428.9262,55
1607090428.9281,81
1607090428.9286,69
1607090428.9301,43
1607090428.9320,38
1607090428.9340,50
1607090428.9360,43
1607090428.9380,31
1607090428.9401,55
1607090428.9423,81
1607090428.9441,45
1607090428.9460,2
1607090428.9480,108
1607090428.9501,442
1607090428.9520,817
1607090428.9540,853
1607090428.9560,367
1607090428.9580,-127
1607090428.9586,-91
1607090428.9601,76
1607090428.9620,-28
1607090428.9640,-105
1607090428.9660,-19
1607090428.9680,16
1607090428.9701,-21
1607090428.9720,-16
1607090428.9740,-4
1607090428.9762,-19
1607090428.9780,-14
1607090428.9801,7
1607090428.9820,14
1607090428.9840,19
1607090428.9860,21
1607090428.9880,19
1607090428.9886,28
1607090428.9900,38
1607090428.9920,48
1607090428.9941,62
1607090428.9960,69
1607090428.9980,67
1607090429.0001,74
1607090429.0020,76
1607090429.0040,79
1607090429.0060,98
1607090429.0080,125
1607090429.0101,122
1607090429.0121,122
1607090429.0140,158
1607090429.0160,187
1607090429.0180,182
1607090429.0186,180
1607090429.0200,192
1607090429.0220,189
1607090429.0240,168
1607090429.0260,134
1607090429.0280,103
1607090429.4336,69
1607090429.4345,21
1607090429.4370,-12
1607090429.4397,-33
1607090429.4419,-40
1607090429.4437,-19
1607090429.4458,0
1607090429.4476,-16
1607090429.4483,-38
1607090429.4496,-40
1607090429.4516,-40
1607090429.4536,-36
1607090429.4556,-31
1607090429.4576,-31
1607090429.4596,-28
1607090429.4616,-26
1607090429.4636,-24
1607090429.4656,-16
1607090429.4676,-2
1607090429.4696,-2
1607090429.4715,-16
1607090429.4735,-24
1607090429.4755,-7
1607090429.4776,9
1607090429.4782,2
1607090429.4795,-4
1607090429.4816,-7
1607090429.4835,2
1607090429.4855,9
1607090429.4875,7
1607090429.4895,14
1607090429.4915,16
1607090429.4936,7
1607090429.4955,9
1607090429.4975,21
1607090429.4996,24
1607090429.5015,19
1607090429.5035,14
1607090429.5055,19
1607090429.5075,33
1607090429.5081,38
1607090429.5095,31
1607090429.5116,28
1607090429.5135,26
1607090429.5155,24
1607090429.5176,31
1607090429.5195,36
1607090429.5215,33
1607090429.5236,33
1607090429.5255,33
1607090429.5276,33
1607090429.5295,33
1607090429.5315,38
1607090429.5335,43
1607090429.5355,43
1607090429.5377,40
1607090429.5381,43
1607090429.5395,45
1607090429.5415,48
1607090429.5436,48
1607090429.5455,45
1607090429.5475,52
1607090429.5495,72
1607090429.5515,91
1607090429.5535,101
1607090429.5555,96
1607090429.5575,86
1607090429.5595,76
1607090429.5616,67
1607090429.5635,64
1607090429.5655,69
1607090429.5675,69
1607090429.5681,67
1607090430.0337,67
1607090430.0349,67
1607090430.0365,62
1607090430.0383,48
1607090430.0403,103
1607090430.0423,348
1607090430.0443,728
1607090430.0463,923
1607090430.0485,545
1607090430.0509,-129
1607090430.0523,-276
1607090430.0544,4
1607090430.0564,24
1607090430.0586,-84
1607090430.0603,-19
1607090430.0610,16
1607090430.0621,-36
1607090430.0638,-28
1607090430.0652,2
1607090430.0671,-4
1607090430.0694,-9
1607090430.0712,9
1607090430.0732,19
1607090430.0752,16
1607090430.0772,21
1607090430.0792,26
1607090430.0811,28
1607090430.0834,38
1607090430.0852,45
1607090430.0871,50
1607090430.0877,52
1607090430.0891,60
1607090430.0911,72
1607090430.0933,81
1607090430.0951,93
1607090430.0976,108
1607090430.0992,122
1607090430.1013,132
1607090430.1031,149
1607090430.1052,168
1607090430.1072,185
1607090430.1092,194
1607090430.1112,204
1607090430.1132,211
1607090430.1152,202
1607090430.1171,175
1607090430.1178,134
1607090430.1192,84
1607090430.1212,36
1607090430.1232,0
1607090430.1251,-31
1607090430.1261,-50
1607090430.1282,-57
1607090430.1302,-62
1607090430.1321,-64
1607090430.1342,-62
1607090430.1362,-60
1607090430.1381,-57
1607090430.1402,-52
1607090430.1422,-48
1607090430.1442,-43
1607090430.1448,-38
1607090430.1462,-33
1607090430.1482,-31
1607090430.1502,-28
1607090430.1522,-24
1607090430.1541,-21
1607090430.1562,-21
1607090430.1582,-16
1607090430.1602,-12
1607090430.1622,-4
1607090430.1642,-4
1607090430.1662,-7
1607090430.5436,-7
1607090430.5453,-9
1607090430.5475,-7
1607090430.5491,-7
1607090430.5511,-7
1607090430.5530,-4
1607090430.5550,-2
1607090430.5571,-4
1607090430.5590,-9
1607090430.5611,-16
1607090430.5630,-16
1607090430.5653,-16
1607090430.5672,-24
1607090430.5691,-26
1607090430.5711,-16
1607090430.5731,-14
1607090430.5737,-21
1607090430.5750,-21
1607090430.5771,-16
1607090430.5790,-12
1607090430.5812,-9
1607090430.5832,4
1607090430.5851,31
1607090430.5871,45
1607090430.5890,36
1607090430.5911,26
1607090430.5931,16
1607090430.5951,12
1607090430.5973,7
1607090430.5991,7
1607090430.6011,9
1607090430.6030,9
1607090430.6037,9
1607090430.6051,12
1607090430.6070,14
1607090430.6090,2
1607090430.6111,-14
1607090430.6130,62
1607090430.6152,341
1607090430.6171,738
1607090430.6190,913
1607090430.6210,497
1607090430.6231,-177
1607090430.6237,-278
1607090430.6259,2
1607090430.6270,-4
1607090430.6323,-101
1607090430.6331,-31
1607090430.6342,-7
1607090430.6362,-40
1607090430.6382,-21
1607090430.6402,-4
1607090430.6422,-14
1607090430.6460,-2
1607090430.6487,12
1607090430.6501,4
1607090430.6521,7
1607090430.6542,21
1607090430.6561,28
1607090430.6581,24
1607090430.6602,24
1607090430.6621,36
1607090430.6628,43
1607090430.6642,48
1607090430.6661,52
1607090430.6681,60
1607090430.6701,69
1607090430.6721,84
1607090430.6741,96
1607090430.6761,105
1607090430.6781,125
1607090430.6801,146
1607090430.6822,158
1607090431.1440,170
1607090431.1473,187
1607090431.1544,194
1607090431.1556,189
1607090431.1577,173
1607090431.1665,137
1607090431.1676,84
1607090431.1696,38
1607090431.1716,7
1607090431.1736,-21
1607090431.1756,-48
1607090431.1777,-67
1607090431.1796,-74
1607090431.1835,-74
1607090431.1847,-76
1607090431.1855,-81
1607090431.1866,-76
1607090431.1886,-69
1607090431.1907,-67
1607090431.1926,-62
1607090431.1946,-52
1607090431.1966,-52
1607090431.1993,-50
1607090431.2007,-45
1607090431.2026,-40
1607090431.2052,-36
1607090431.2072,-26
1607090431.2087,-21
1607090431.2107,-21
1607090431.2126,-19
1607090431.2148,-12
1607090431.2156,-9
1607090431.2194,-7
1607090431.2202,-7
1607090431.2217,-7
1607090431.2237,-7
1607090431.2256,-9
1607090431.2276,-12
1607090431.2297,-12
1607090431.2317,-12
1607090431.2339,-14
1607090431.2361,-16
1607090431.2377,-14
1607090431.2396,-12
1607090431.2417,-16
1607090431.2436,-24
1607090431.2457,-26
1607090431.2463,-21
1607090431.2480,-14
1607090431.2497,2
1607090431.2517,28
1607090431.2536,38
1607090431.2557,24
1607090431.2578,7
1607090431.2602,-4
1607090431.2616,-14
1607090431.2637,-14
1607090431.2656,-9
1607090431.2676,-7
1607090431.2696,-9
1607090431.2716,-9
1607090431.2736,-7
1607090431.4122,-7
1607090431.4545,-21
1607090431.4593,-28
1607090431.4613,91
1607090431.4665,425
1607090431.4685,822
1607090431.4704,870
1607090431.4723,293
1607090431.4743,-315
1607090431.4763,-245
1607090431.4783,12
1607090431.6838,-64
1607090431.6845,-117
1607090431.6874,-38
1607090431.6894,-43
1607090431.6900,-72
1607090431.6924,-43
1607090431.6931,-28
1607090431.6944,-43
1607090431.6950,-33
1607090431.6960,-19
1607090431.6981,-26
1607090431.6995,-33
1607090431.7015,-26
1607090431.7035,-19
1607090431.7054,-12
1607090431.7059,-2
1607090431.7074,4
1607090431.7093,7
1607090431.7114,12
1607090431.7133,21
1607090431.7155,38
1607090431.7175,48
1607090431.7193,52
1607090431.7213,64
1607090431.7234,88
1607090431.7254,113
1607090431.7273,132
1607090431.7293,144
1607090431.7315,158
1607090431.7334,170
1607090431.7354,175
1607090431.7359,173
1607090431.7373,153
1607090431.7393,115
1607090431.7413,69
1607090431.7434,28
1607090431.7453,-4
1607090431.7475,-33
1607090431.7494,-48
1607090431.7514,-55
1607090431.7533,-60
1607090431.7554,-62
1607090431.7573,-62
1607090431.7593,-57
1607090431.7613,-52
1607090431.7633,-52
1607090431.7654,-50
1607090431.7660,-48
1607090431.7674,-48
1607090431.7694,-40
1607090431.7714,-36
1607090431.7734,-33
1607090431.7753,-28
1607090431.7773,-24
1607090431.7793,-21
1607090431.7815,-14
1607090431.7834,-9
1607090431.7859,-12
1607090431.7874,-9
1607090431.7894,-2
1607090431.7913,-2
1607090431.7933,-7
1607090431.7953,-4
1607090431.7959,-2
1607090431.7975,-4
1607090431.7994,-9
1607090431.8014,-4
1607090431.8039,-2
1607090431.8054,-4
1607090431.8075,-7
1607090431.8094,-4
1607090431.8113,0
1607090431.8133,2
1607090432.2551,4
1607090432.2576,9
1607090432.2610,4
1607090432.2634,-4
1607090432.2661,-2
1607090432.2682,-4
1607090432.2705,0
1607090432.2722,19
1607090432.2878,31
1607090432.2938,26
1607090432.3457,21
1607090432.3468,12
1607090432.3481,0
1607090432.3500,-4
1607090432.3520,-2
1607090432.3541,-2
1607090432.3560,-2
1607090432.3581,2
1607090432.3606,4
1607090432.3731,4
1607090432.3750,0
1607090432.3770,-12
1607090432.3790,-28
1607090432.3810,48
1607090432.3818,334
1607090432.3850,747
1607090432.3870,937
1607090432.3890,514
1607090432.3910,-180
1607090432.3939,-295
1607090432.3950,-16
1607090432.3973,-26
1607090432.3990,-132
1607090432.4010,-67
1607090432.4030,-38
1607090432.4072,-76
1607090432.5103,-62
1607090432.5199,-38
1607090432.5204,-45
1607090432.5216,-45
1607090432.5239,-33
1607090432.5264,-31
1607090432.5283,-26
1607090432.5296,-19
1607090432.5317,-14
1607090432.5335,-9
1607090432.5355,-2
1607090432.5378,0
1607090432.5396,4
1607090432.5415,14
1607090432.5435,24
1607090432.5456,31
1607090432.5475,38
1607090432.5495,50
1607090432.5501,60
1607090432.5515,72
1607090432.5535,88
1607090432.5556,105
1607090432.5576,120
1607090432.5595,134
1607090432.5616,149
1607090432.5636,158
1607090432.5656,156
1607090432.5675,139
1607090432.5695,110
1607090432.5715,72
1607090432.5735,28
1607090432.5755,-4
1607090432.5775,-31
1607090432.5795,-55
1607090432.5802,-69
1607090432.5815,-69
1607090432.5835,-67
1607090432.8255,-67
1607090432.8288,-67
1607090432.8311,-62
1607090432.8328,-60
1607090432.8349,-55
1607090432.8368,-52
1607090432.8388,-48
1607090432.8411,-43
1607090432.8452,-40
1607090432.8478,-43
1607090432.8501,-43
1607090432.8520,-33
1607090432.8538,-28
1607090432.8551,-31
1607090432.8568,-28
1607090432.8588,-21
1607090432.8614,-19
1607090432.8628,-19
1607090432.8649,-14
1607090432.8668,-12
1607090432.8689,-12
1607090432.8709,-12
1607090432.8728,-9
1607090432.8748,-7
1607090432.8776,-4
1607090432.8792,-4
1607090432.8811,-2
1607090432.8828,0
1607090432.8848,0
1607090432.8860,0
1607090432.8878,2
1607090432.8902,4
1607090432.8919,4
1607090432.8940,7
1607090432.8958,12
1607090432.8978,14
1607090432.8998,14
1607090432.9019,14
1607090432.9038,14
1607090432.9058,14
1607090432.9078,16
1607090432.9099,16
1607090432.9119,21
1607090432.9140,24
1607090432.9158,24
1607090432.9171,21
1607090432.9188,21
1607090432.9211,16
1607090432.9238,12
1607090432.9283,16
1607090432.9309,21
1607090432.9321,24
1607090432.9338,24
1607090432.9358,24
1607090432.9379,26
1607090432.9405,28
1607090432.9419,24
1607090432.9440,24
1607090432.9458,26
1607090432.9478,28
1607090432.9499,26
1607090432.9511,28
1607090432.9529,31
1607090432.9549,28
1607090432.9568,24
1607090432.9589,26
1607090432.9608,31
1607090432.9628,28
1607090432.9649,26
1607090432.9669,28
1607090432.9689,31
1607090432.9708,28
1607090432.9728,28
1607090433.3636,26
1607090433.3643,21
1607090433.3661,19
1607090433.3684,33
1607090433.3702,57
1607090433.3722,67
1607090433.3742,57
1607090433.3763,48
1607090433.3782,38
1607090433.3803,31
1607090433.3822,19
1607090433.3842,12
1607090433.3848,16
1607090433.3862,19
1607090433.3882,14
1607090433.3902,16
1607090433.3922,21
1607090433.3942,19
1607090433.3962,-2
1607090433.3982,-12
1607090433.4002,103
1607090433.4022,420
1607090433.4041,812
1607090433.4061,918
1607090433.4081,435
1607090433.4103,-180
1607090433.4123,-204
1607090433.4142,24
1607090433.4148,-45
1607090433.4162,-122
1607090433.4182,-50
1607090433.4202,-45
1607090433.4222,-74
1607090433.4242,-48
1607090433.4269,-33
1607090433.4283,-40
1607090433.4302,-33
1607090433.4322,-24
1607090433.4341,-21
1607090433.4361,-16
1607090433.4382,-14
1607090433.4402,-12
1607090433.4422,-7
1607090433.4442,-2
1607090433.4447,2
1607090433.4461,9
1607090433.4482,19
1607090433.4502,26
1607090433.4521,31
1607090433.4541,40
1607090433.4561,50
1607090433.4581,60
1607090433.4603,69
1607090433.4622,84
1607090433.4644,98
1607090433.4663,113
1607090433.4682,129
1607090433.4702,139
1607090433.4722,146
1607090433.4728,153
1607090433.4741,151
1607090433.4765,129
1607090433.4782,101
1607090433.4802,67
1607090433.4822,28
1607090433.4842,-2
1607090433.4862,-24
1607090433.4881,-40
1607090433.4901,-52
1607090433.4922,-57
1607090433.4943,-57
1607090433.4962,-55
1607090433.4982,-52
1607090433.9349,-50
1607090433.9376,-45
1607090433.9410,-40
1607090433.9443,-38
1607090433.9465,-36
1607090433.9491,-31
1607090433.9511,-28
1607090433.9527,-31
1607090433.9547,-33
1607090433.9567,-31
1607090433.9587,-26
1607090433.9612,-28
1607090433.9634,-28
1607090433.9657,-24
1607090433.9679,-19
1607090433.9699,-19
1607090433.9716,-16
1607090433.9728,-14
1607090433.9746,-14
1607090433.9768,-12
1607090433.9787,-9
1607090433.9808,-7
1607090433.9826,-4
1607090433.9847,-4
1607090433.9866,-4
1607090433.9887,-2
1607090433.9907,-2
1607090433.9938,-2
1607090433.9951,0
1607090433.9967,4
1607090433.9986,9
1607090434.0007,7
1607090434.0030,9
1607090434.0044,9
1607090434.0057,4
1607090434.0077,4
1607090434.0100,12
1607090434.0117,9
1607090434.0137,9
1607090434.0158,9
1607090434.0177,14
1607090434.0197,16
1607090434.0219,14
1607090434.0240,14
1607090434.0262,16
1607090434.0292,16
1607090434.0313,16
1607090434.0326,19
1607090434.0347,19
1607090434.0359,19
1607090434.0377,19
1607090434.0397,16
1607090434.0417,19
1607090434.0440,19
1607090434.0457,19
1607090434.0476,21
1607090434.0497,21
1607090434.0516,24
1607090434.0537,21
1607090434.0557,21
1607090434.0577,21
1607090434.0598,24
1607090434.0621,24
1607090434.0645,24
1607090434.0667,28
1607090434.0687,28
1607090434.0710,26
1607090434.0726,26
1607090434.0747,28
1607090434.0770,31
1607090434.0787,28
1607090434.0809,28
1607090434.0827,28
1607090434.4751,28
1607090434.4786,26
1607090434.4811,21
1607090434.4838,21
1607090434.4860,21
1607090434.4881,19
1607090434.4904,19
1607090434.4916,19
1607090434.4935,9
1607090434.4955,2
1607090434.4979,4
1607090434.4996,21
1607090434.5016,40
1607090434.5035,50
1607090434.5055,48
1607090434.5075,36
1607090434.5096,21
1607090434.5127,12
1607090434.5151,9
1607090434.5172,12
1607090434.5193,12
1607090434.5211,12
1607090434.5222,12
1607090434.5235,14
1607090434.5255,14
1607090434.5282,4
1607090434.5295,-14
1607090434.5315,19
1607090434.5335,216
1607090434.5355,574
1607090434.5375,865
1607090434.5395,699
1607090434.5415,96
1607090434.5437,-235
1607090434.5455,-57
1607090434.5476,14
1607090434.5495,-105
1607090434.5517,-86
1607090434.5538,-31
1607090434.5559,-60
1607090434.5579,-62
1607090434.5607,-33
1607090434.5625,-33
1607090434.5646,-33
1607090434.5665,-24
1607090434.5686,-16
1607090434.5706,-12
1607090434.5725,-7
1607090434.5745,0
1607090434.5766,7
1607090434.5785,14
1607090434.5807,19
1607090434.5825,21
1607090434.5845,28
1607090434.5858,38
1607090434.5876,45
1607090434.5896,52
1607090434.5919,62
1607090434.5949,72
1607090434.5970,81
1607090434.5993,93
1607090434.6016,108
1607090434.6029,122
1607090434.6045,137
1607090434.6065,146
1607090434.6085,151
1607090434.6106,156
1607090434.6126,156
1607090434.6146,149
1607090434.6165,127
1607090434.6177,96
1607090434.6196,57
1607090434.6217,26
1607090435.0443,0
1607090435.0450,-19
1607090435.0464,-36
1607090435.0484,-43
1607090435.0504,-48
1607090435.0524,-50
1607090435.0544,-55
1607090435.0564,-55
1607090435.0584,-45
1607090435.0608,-43
1607090435.0625,-45
1607090435.0631,-43
1607090435.0644,-36
1607090435.0667,-31
1607090435.0684,-28
1607090435.0704,-26
1607090435.0724,-21
1607090435.0744,-19
1607090435.0767,-19
1607090435.0855,-21
1607090435.0874,-19
1607090435.0895,-16
1607090435.0914,-16
1607090435.0941,-14
1607090435.0954,-14
1607090435.0975,-16
1607090435.0994,-16
1607090435.1004,-12
1607090435.1014,-9
1607090435.1034,-9
1607090435.1054,-7
1607090435.1074,-4
1607090435.1099,-4
1607090435.1114,-7
1607090435.1134,-7
1607090435.1154,-4
1607090435.1174,-2
1607090435.1194,-2
1607090435.1213,0
1607090435.1236,2
1607090435.1254,7
1607090435.1280,7
1607090435.1294,7
1607090435.1299,12
1607090435.1314,12
1607090435.1334,12
1607090435.1354,12
1607090435.1374,14
1607090435.1394,16
1607090435.1415,16
1607090435.1440,16
1607090435.1485,19
1607090435.1504,19
1607090435.1524,19
1607090435.1543,21
1607090435.1564,24
1607090435.1583,21
1607090435.1608,21
1607090435.1624,24
1607090435.1628,26
1607090435.1644,26
1607090435.1663,28
1607090435.1715,28
1607090435.1779,28
1607090435.1785,28
1607090435.1804,31
1607090435.1825,31
1607090435.1844,33
1607090435.1863,33
1607090435.1883,33
1607090435.1904,33
1607090435.1923,36
1607090435.1943,36
1607090435.6148,36
1607090435.6159,38
1607090435.6216,33
1607090435.6234,26
1607090435.6253,21
1607090435.6273,24
1607090435.6293,24
1607090435.6439,16
1607090435.6456,12
1607090435.6504,16
1607090435.6577,21
1607090435.6596,21
1607090435.6615,16
1607090435.6679,12
1607090435.6695,12
1607090435.6715,9
1607090435.6737,12
1607090435.6750,31
1607090435.6764,55
1607090435.6785,57
1607090435.6809,48
1607090435.6965,38
1607090435.6986,26
1607090435.7006,19
1607090435.7027,21
1607090435.7045,26
1607090435.7065,24
1607090435.7085,24
1607090435.7106,26
1607090435.7126,28
1607090435.7159,24
1607090435.7176,7
1607090435.7196,28
1607090435.7200,202
1607090435.7215,541
1607090435.7234,841
1607090435.7254,731
1607090435.7274,163
1607090435.7294,-202
1607090435.7315,-52
1607090435.7335,45
1607090435.7354,-72
1607090435.7379,-72
1607090435.7437,-14
1607090435.7454,-38
1607090435.7476,-48
1607090435.7495,-21
1607090435.7501,-21
1607090435.7535,-26
1607090435.7555,-14
1607090435.7574,-7
1607090435.7594,-7
1607090435.7616,-2
1607090435.7622,7
1607090435.7645,14
1607090435.7665,16
1607090435.7685,24
1607090435.7693,28
1607090435.7714,31
1607090435.7734,38
1607090435.7754,43
1607090435.7775,50
1607090435.7795,55
1607090435.7815,64
1607090435.7835,79
1607090435.7841,88
1607090435.7855,101
1607090435.7875,117
1607090435.7897,129
1607090435.7915,141
1607090435.7935,151
1607090435.7955,158
1607090435.7975,158
1607090436.1855,151
1607090436.1881,129
1607090436.1910,98
1607090436.1933,62
1607090436.1957,24
1607090436.1980,-9
1607090436.2003,-33
1607090436.2022,-48
1607090436.2042,-64
1607090436.2062,-74
1607090436.2082,-72
1607090436.2104,-64
1607090436.2128,-64
1607090436.2151,-62
1607090436.2173,-55
1607090436.2195,-48
1607090436.2212,-43
1607090436.2232,-38
1607090436.2252,-33
1607090436.2272,-28
1607090436.2291,-28
1607090436.2314,-24
1607090436.2337,-19
1607090436.2358,-19
1607090436.2388,-14
1607090436.2409,-12
1607090436.2422,-12
1607090436.2442,-12
1607090436.2462,-9
1607090436.2482,-9
1607090436.2502,-7
1607090436.2522,-4
1607090436.2542,-4
1607090436.2562,-2
1607090436.2582,0
1607090436.2602,2
1607090436.2622,2
1607090436.2643,2
1607090436.2654,2
1607090436.2672,2
1607090436.2692,2
1607090436.2715,7
1607090436.2743,12
1607090436.2767,9
1607090436.2788,9
1607090436.2810,12
1607090436.2825,16
1607090436.2842,19
1607090436.2862,19
1607090436.2882,21
1607090436.2907,21
1607090436.2930,21
1607090436.2951,21
1607090436.2974,24
1607090436.3056,24
1607090436.3078,24
1607090436.3102,21
1607090436.3123,26
1607090436.3146,31
1607090436.3170,28
1607090436.3192,28
1607090436.3211,31
1607090436.3232,33
1607090436.3252,33
1607090436.3274,31
1607090436.3292,33
1607090436.3316,36
1607090436.3337,36
1607090436.3358,33
1607090436.3379,31
1607090436.3403,24
1607090436.3422,19
1607090436.3442,21
1607090436.7241,21
1607090436.7250,21
1607090436.7262,24
1607090436.7281,26
1607090436.7301,26
1607090436.7321,28
1607090436.7342,26
1607090436.7419,26
1607090436.7436,26
1607090436.7452,24
1607090436.7472,16
1607090436.7492,14
1607090436.7501,12
1607090436.7512,9
1607090436.7532,9
1607090436.7552,16
1607090436.7572,24
1607090436.7599,40
1607090436.7612,52
1607090436.7632,50
1607090436.7652,43
1607090436.7672,31
1607090436.7695,21
1607090436.7712,16
1607090436.7734,16
1607090436.7752,12
1607090436.7777,12
1607090436.7792,16
1607090436.7800,19
1607090436.7812,16
1607090436.7832,2
1607090436.7854,-7
1607090436.7872,79
1607090436.7892,348
1607090436.7913,714
1607090436.7932,853
1607090436.7952,435
1607090436.7972,-156
1607090436.7992,-197
1607090436.8013,36
1607090436.8032,-14
1607090436.8051,-103
1607090436.8072,-31
1607090436.8092,-16
1607090436.8101,-52
1607090436.8112,-31
1607090436.8132,-9
1607090436.8152,-16
1607090436.8172,-12
1607090436.8192,-2
1607090436.8212,0
1607090436.8232,4
1607090436.8252,12
1607090436.8272,14
1607090436.8292,19
1607090436.8312,24
1607090436.8332,28
1607090436.8352,38
1607090436.8371,45
1607090436.8392,52
1607090436.8402,55
1607090436.8423,62
1607090436.8443,64
1607090436.8463,69
1607090436.8484,81
1607090436.8507,96
1607090436.8569,113
1607090436.8583,129
1607090436.8603,141
1607090436.8654,156
1607090436.8673,168
1607090436.8692,173
1607090436.8713,168
1607090437.2939,151
1607090437.2963,120
1607090437.3034,81
1607090437.3047,43
1607090437.3067,9
1607090437.3087,-19
1607090437.3107,-45
1607090437.3127,-64
1607090437.3148,-67
1607090437.3168,-64
1607090437.3188,-67
1607090437.3213,-64
1607090437.3228,-60
1607090437.3248,-52
1607090437.3260,-50
1607090437.3278,-48
1607090437.3289,-40
1607090437.3312,-36
1607090437.3328,-33
1607090437.3348,-28
1607090437.3375,-24
1607090437.3387,-24
1607090437.3408,-24
1607090437.3429,-21
1607090437.3448,-19
1607090437.3468,-14
1607090437.3489,-14
1607090437.3508,-14
1607090437.3533,-9
1607090437.3547,-7
1607090437.3568,-12
1607090437.3587,-12
1607090437.3600,-7
1607090437.3617,-7
1607090437.3637,-4
1607090437.3658,-2
1607090437.3680,-2
1607090437.3699,0
1607090437.3717,0
1607090437.3738,2
1607090437.3757,4
1607090437.3780,4
1607090437.3798,4
1607090437.3877,9
1607090437.3889,12
1607090437.3916,12
1607090437.3929,12
1607090437.3947,12
1607090437.3955,12
1607090437.3967,12
1607090437.3988,16
1607090437.4010,19
1607090437.4027,16
1607090437.4049,9
1607090437.4067,9
1607090437.4087,12
1607090437.4107,9
1607090437.4127,7
1607090437.4148,9
1607090437.4168,9
1607090437.4187,12
1607090437.4207,12
1607090437.4227,14
1607090437.4247,14
1607090437.4255,14
1607090437.4267,12
1607090437.4287,9
1607090437.4313,14
1607090437.4329,16
1607090437.4349,14
1607090437.4372,14
1607090437.4388,16
1607090437.4409,14
1607090437.8342,14
1607090437.8358,16
1607090437.8383,14
1607090437.8412,9
1607090437.8433,9
1607090437.8455,12
1607090437.8483,21
1607090437.8508,40
1607090437.8525,43
1607090437.8539,38
1607090437.8559,36
1607090437.8579,24
1607090437.8601,9
1607090437.8623,7
1607090437.8649,12
1607090437.8671,7
1607090437.8692,2
1607090437.8712,4
1607090437.8729,7
1607090437.8749,2
1607090437.8769,-16
1607090437.8789,-4
1607090437.8805,149
1607090437.8819,478
1607090437.8839,810
1607090437.8859,755
1607090437.8879,182
1607090437.8900,-259
1607090437.8919,-117
1607090437.8939,40
1607090437.8979,-74
1607090437.8997,-96
1607090437.9015,-28
1607090437.9029,-45
1607090437.9049,-62
1607090437.9069,-38
1607090437.9098,-31
1607090437.9110,-33
1607090437.9122,-21
1607090437.9139,-14
1607090437.9159,-14
1607090437.9179,-9
1607090437.9201,-2
1607090437.9219,2
1607090437.9239,4
1607090437.9260,9
1607090437.9279,14
1607090437.9300,16
1607090437.9319,21
1607090437.9339,26
1607090437.9359,33
1607090437.9381,43
1607090437.9400,55
1607090437.9419,67
1607090437.9433,81
1607090437.9449,93
1607090437.9469,108
1607090437.9490,125
1607090437.9509,134
1607090437.9529,144
1607090437.9549,153
1607090437.9569,158
1607090437.9589,151
1607090437.9612,125
1607090437.9633,91
1607090437.9661,52
1607090437.9682,12
1607090437.9703,-16
1607090437.9719,-36
1607090437.9739,-52
1607090437.9751,-64
1607090437.9769,-69
1607090437.9789,-64
1607090438.4038,-62
1607090438.4043,-62
1607090438.4059,-57
1607090438.4119,-60
1607090438.4140,-60
1607090438.4159,-60
1607090438.4179,-57
1607090438.4199,-50
1607090438.4220,-43
1607090438.4241,-45
1607090438.4264,-43
1607090438.4280,-36
1607090438.4299,-31
1607090438.4360,-28
1607090438.4380,-24
1607090438.4439,-19
1607090438.4446,-19
1607090438.4590,-21
1607090438.4610,-19
1607090438.4670,-19
1607090438.4730,-16
1607090438.4749,-14
1607090438.4815,-12
1607090438.4899,-9
1607090438.4907,-12
1607090438.4930,-14
1607090438.4949,-9
1607090438.5001,-4
1607090438.5019,-4
1607090438.5050,-4
1607090438.5139,-2
1607090438.5160,0
1607090438.5179,0
1607090438.5199,2
1607090438.5220,4
1607090438.5284,2
1607090438.5289,0
1607090438.5320,2
1607090438.5340,4
1607090438.5359,4
1607090438.5365,4
1607090438.5379,2
1607090438.5399,0
1607090438.5420,0
1607090438.5439,0
1607090438.5459,2
1607090438.5480,4
1607090438.5503,7
1607090438.5519,7
1607090438.5539,9
1607090438.5559,12
1607090438.5579,12
1607090438.5599,7
1607090438.5619,7
1607090438.5639,9
1607090438.5659,12
1607090438.5666,12
1607090438.5679,12
1607090438.5699,12
1607090438.5719,14
1607090438.5740,14
1607090438.5759,16
1607090438.5779,16
1607090438.5799,16
1607090438.5820,16
1607090438.5840,16
1607090438.5859,14
1607090438.5879,9
1607090438.5899,7
1607090438.5919,14
1607090438.5939,36
1607090438.5959,55
1607090438.5965,55
1607090439.0055,45
1607090439.0071,33
1607090439.0096,19
1607090439.0122,12
1607090439.0143,14
1607090439.0162,14
1607090439.0182,4
1607090439.0203,0
1607090439.0225,4
1607090439.0246,4
1607090439.0269,-9
1607090439.0290,-16
1607090439.0312,74
1607090439.0332,348
1607090439.0352,711
1607090439.0372,834
1607090439.0392,416
1607090439.0414,-158
1607090439.0443,-199
1607090439.0466,21
1607090439.0491,-31
1607090439.0509,-117
1607090439.0521,-52
1607090439.0542,-40
1607090439.0573,-72
1607090439.0592,-52
1607090439.0607,-43
1607090439.0673,-52
1607090439.0693,-45
1607090439.0725,-33
1607090439.0748,-33
1607090439.0773,-26
1607090439.0795,-19
1607090439.0817,-16
1607090439.0832,-14
1607090439.0852,-9
1607090439.0872,0
1607090439.0893,4
1607090439.0916,7
1607090439.0960,16
1607090439.0973,26
1607090439.0992,33
1607090439.1012,40
1607090439.1054,52
1607090439.1072,67
1607090439.1091,81
1607090439.1115,96
1607090439.1138,110
1607090439.1162,125
1607090439.1184,137
1607090439.1206,146
1607090439.1219,151
1607090439.1232,146
1607090439.1252,127
1607090439.1272,93
1607090439.1292,57
1607090439.1312,21
1607090439.1332,-12
1607090439.1352,-38
1607090439.1372,-55
1607090439.1392,-67
1607090439.1414,-74
1607090439.1437,-76
1607090439.1459,-74
1607090439.1483,-74
1607090439.1504,-69
1607090439.1522,-64
1607090439.1533,-60
1607090439.1552,-55
