,ecg
1607090724.0728,4203.0
1607090724.0754,4811.0
1607090724.0778,5521.0
1607090724.0805,6004.0
1607090724.0825,6391.0
1607090724.0844,6812.0
1607090724.0865,7154.0
1607090724.0884,7442.0
1607090724.0904,7741.0
1607090724.0924,8003.0
1607090724.0944,8221.0
1607090724.0968,8445.0
1607090724.0993,8659.0
1607090724.1015,8842.0
1607090724.1036,9005.0
1607090724.1056,9152.0
1607090724.1074,9344.0
1607090724.1095,9681.0
1607090724.1114,10133.0
1607090724.1134,10487.0
1607090724.1154,10417.0
1607090724.1174,9982.0
1607090724.1194,9823.0
1607090724.1214,10085.0
1607090724.1234,10222.0
1607090724.1253,10191.0
1607090724.1273,10280.0
1607090724.1293,10388.0
1607090724.1313,10419.0
1607090724.1333,10470.0
1607090724.1354,10535.0
1607090724.1373,10578.0
1607090724.1393,10621.0
1607090724.1413,10660.0
1607090724.1433,10682.0
1607090724.1454,10708.0
1607090724.1473,10742.0
1607090724.1493,10766.0
1607090724.1513,10783.0
1607090724.1533,10780.0
1607090724.1554,10780.0
1607090724.1573,10780.0
1607090724.1594,10775.0
1607090724.1614,10778.0
1607090724.1634,10780.0
1607090724.1654,10766.0
1607090724.1673,10746.0
1607090724.1693,10744.0
1607090724.1713,10737.0
1607090724.1733,10718.0
1607090724.1756,10703.0
1607090724.1774,10691.0
1607090724.1793,10665.0
1607090724.1813,10633.0
1607090724.1833,10605.0
1607090724.1854,10576.0
1607090724.1873,10532.0
1607090724.1893,10465.0
1607090724.1913,10386.0
1607090724.1933,10309.0
1607090724.1954,10225.0
1607090724.1972,10133.0
1607090724.1993,10059.0
1607090724.2012,9991.0
1607090724.2033,9917.0
1607090724.2053,9847.0
1607090724.2073,9789.0
1607090724.2093,9734.0
1607090724.2114,9672.0
1607090724.2133,9604.0
1607090724.2153,9542.0
1607090724.2173,9489.0
1607090724.2193,9431.0
1607090724.6112,9359.0
1607090724.6123,9294.0
1607090724.6147,9239.0
1607090724.6173,9164.0
1607090724.6193,9090.0
1607090724.6213,9032.0
1607090724.6234,8969.0
1607090724.6253,8895.0
1607090724.6274,8823.0
1607090724.6294,8763.0
1607090724.6313,8705.0
1607090724.6333,8613.0
1607090724.6354,8517.0
1607090724.6373,8460.0
1607090724.6393,8395.0
1607090724.6414,8303.0
1607090724.6433,8233.0
1607090724.6453,8171.0
1607090724.6474,8099.0
1607090724.6493,8019.0
1607090724.6513,7947.0
1607090724.6533,7875.0
1607090724.6553,7803.0
1607090724.6573,7731.0
1607090724.6593,7661.0
1607090724.6613,7596.0
1607090724.6633,7524.0
1607090724.6653,7442.0
1607090724.6674,7373.0
1607090724.6693,7310.0
1607090724.6713,7243.0
1607090724.6733,7173.0
1607090724.6753,7091.0
1607090724.6773,7012.0
1607090724.6793,6947.0
1607090724.6812,6880.0
1607090724.6833,6815.0
1607090724.6853,6747.0
1607090724.6872,6673.0
1607090724.6892,6598.0
1607090724.6912,6536.0
1607090724.6933,6473.0
1607090724.6955,6401.0
1607090724.6977,6334.0
1607090724.6994,6276.0
1607090724.7012,6209.0
1607090724.7032,6139.0
1607090724.7053,6074.0
1607090724.7072,6014.0
1607090724.7092,5951.0
1607090724.7113,5882.0
1607090724.7132,5819.0
1607090724.7153,5761.0
1607090724.7172,5701.0
1607090724.7192,5636.0
1607090724.7212,5576.0
1607090724.7232,5518.0
1607090724.7253,5456.0
1607090724.7273,5396.0
1607090724.7293,5338.0
1607090724.7312,5280.0
1607090724.7332,5223.0
1607090724.7353,5160.0
1607090724.7372,5098.0
1607090724.7392,5040.0
1607090724.7413,4980.0
1607090724.7433,4920.0
1607090724.7453,4869.0
1607090724.7472,4814.0
1607090724.7492,4754.0
1607090724.7512,4696.0
1607090724.7532,4643.0
1607090724.7553,4593.0
1607090725.1812,4545.0
1607090725.182,4504.0
1607090725.1844,4465.0
1607090725.1871,4422.0
1607090725.189,4364.0
1607090725.1911,4302.0
1607090725.1933,4246.0
1607090725.1952,4196.0
1607090725.1971,4136.0
1607090725.199,4076.0
1607090725.201,4037.0
1607090725.203,3994.0
1607090725.205,3946.0
1607090725.207,3898.0
1607090725.209,3845.0
1607090725.2111,3789.0
1607090725.213,3813.0
1607090725.2151,4001.0
1607090725.217,4287.0
1607090725.219,4410.0
1607090725.221,4064.0
1607090725.223,3486.0
1607090725.225,3323.0
1607090725.227,3472.0
1607090725.2291,3414.0
1607090725.231,3277.0
1607090725.233,3284.0
1607090725.2351,3272.0
1607090725.237,3205.0
1607090725.239,3176.0
1607090725.241,3162.0
1607090725.243,3121.0
1607090725.2451,3085.0
1607090725.247,3061.0
1607090725.249,3030.0
1607090725.251,2996.0
1607090725.253,2967.0
1607090725.2551,2938.0
1607090725.2572,2907.0
1607090725.259,2878.0
1607090725.2611,2849.0
1607090725.263,2825.0
1607090725.265,2801.0
1607090725.267,2770.0
1607090725.269,2741.0
1607090725.271,2722.0
1607090725.273,2702.0
1607090725.2751,2683.0
1607090725.2771,2664.0
1607090725.279,2647.0
1607090725.281,2630.0
1607090725.283,2616.0
1607090725.2851,2601.0
1607090725.287,2585.0
1607090725.289,2565.0
1607090725.291,2534.0
1607090725.293,2498.0
1607090725.2953,2455.0
1607090725.297,2399.0
1607090725.299,2332.0
1607090725.301,2270.0
1607090725.303,2214.0
1607090725.3051,2164.0
1607090725.307,2123.0
1607090725.309,2087.0
1607090725.3111,2058.0
1607090725.3131,2032.0
1607090725.3151,2003.0
1607090725.317,1981.0
1607090725.319,1964.0
1607090725.321,1943.0
1607090725.323,1919.0
1607090725.325,1899.0
1607090725.7204,1882.0
1607090725.7211,1863.0
1607090725.7235,1846.0
1607090725.7262,1830.0
1607090725.7283,1813.0
1607090725.7302,1793.0
1607090725.7322,1769.0
1607090725.7342,1750.0
1607090725.7362,1733.0
1607090725.7382,1709.0
1607090725.7402,1680.0
1607090725.7422,1666.0
1607090725.7443,1649.0
1607090725.7462,1628.0
1607090725.7482,1606.0
1607090725.7501,1589.0
1607090725.7522,1575.0
1607090725.7541,1558.0
1607090725.7562,1534.0
1607090725.7581,1512.0
1607090725.7602,1498.0
1607090725.7622,1481.0
1607090725.7641,1462.0
1607090725.7662,1447.0
1607090725.7681,1433.0
1607090725.7701,1416.0
1607090725.7721,1404.0
1607090725.7741,1392.0
1607090725.7762,1377.0
1607090725.7782,1361.0
1607090725.7801,1346.0
1607090725.7821,1334.0
1607090725.7841,1320.0
1607090725.7862,1305.0
1607090725.7881,1291.0
1607090725.7903,1276.0
1607090725.7922,1262.0
1607090725.7942,1250.0
1607090725.7962,1236.0
1607090725.7982,1221.0
1607090725.8001,1207.0
1607090725.8021,1192.0
1607090725.8042,1180.0
1607090725.8062,1168.0
1607090725.8081,1156.0
1607090725.8102,1142.0
1607090725.8122,1127.0
1607090725.8141,1113.0
1607090725.8162,1101.0
1607090725.8181,1089.0
1607090725.8201,1079.0
1607090725.8221,1070.0
1607090725.8241,1058.0
1607090725.8263,1046.0
1607090725.8282,1036.0
1607090725.8301,1024.0
1607090725.8321,1012.0
1607090725.8341,1005.0
1607090725.8362,995.0
1607090725.8382,983.0
1607090725.8401,969.0
1607090725.8421,957.0
1607090725.8442,947.0
1607090725.8461,935.0
1607090725.8481,921.0
1607090725.8501,909.0
1607090725.8521,899.0
1607090725.8541,887.0
1607090725.8561,884.0
1607090725.8581,894.0
1607090725.8602,899.0
1607090725.8622,889.0
1607090725.8642,872.0
1607090726.2916,851.0
1607090726.2925,832.0
1607090726.295,817.0
1607090726.2976,808.0
1607090726.2995,803.0
1607090726.3016,793.0
1607090726.3037,776.0
1607090726.3056,764.0
1607090726.3075,757.0
1607090726.3096,735.0
1607090726.3116,728.0
1607090726.3135,844.0
1607090726.3155,1127.0
1607090726.3177,1435.0
1607090726.3195,1435.0
1607090726.3215,954.0
1607090726.3235,492.0
1607090726.3256,560.0
1607090726.3276,716.0
1607090726.3295,620.0
1607090726.3315,581.0
1607090726.3335,642.0
1607090726.3355,625.0
1607090726.3375,593.0
1607090726.3395,615.0
1607090726.3415,620.0
1607090726.3435,606.0
1607090726.3455,608.0
1607090726.3475,613.0
1607090726.3495,608.0
1607090726.3515,603.0
1607090726.3535,606.0
1607090726.3555,608.0
1607090726.3575,608.0
1607090726.3596,608.0
1607090726.3616,608.0
1607090726.3635,608.0
1607090726.3655,603.0
1607090726.3675,606.0
1607090726.3695,610.0
1607090726.3715,613.0
1607090726.3735,615.0
1607090726.3755,625.0
1607090726.3777,634.0
1607090726.3795,644.0
1607090726.3815,654.0
1607090726.3835,666.0
1607090726.3855,675.0
1607090726.3875,680.0
1607090726.3895,680.0
1607090726.3915,678.0
1607090726.3935,661.0
1607090726.3956,630.0
1607090726.3975,586.0
1607090726.3995,541.0
1607090726.4015,505.0
1607090726.4035,473.0
1607090726.4055,449.0
1607090726.4075,430.0
1607090726.4095,420.0
1607090726.4116,413.0
1607090726.4135,408.0
1607090726.4155,406.0
1607090726.4175,406.0
1607090726.4196,404.0
1607090726.4215,401.0
1607090726.4235,401.0
1607090726.4255,404.0
1607090726.4276,401.0
1607090726.4295,401.0
1607090726.4315,401.0
1607090726.4335,401.0
1607090726.4355,401.0
1607090726.831,399.0
1607090726.832,399.0
1607090726.8344,394.0
1607090726.837,384.0
1607090726.839,384.0
1607090726.841,384.0
1607090726.843,382.0
1607090726.8451,372.0
1607090726.847,363.0
1607090726.849,360.0
1607090726.851,360.0
1607090726.8529,355.0
1607090726.855,353.0
1607090726.857,355.0
1607090726.859,353.0
1607090726.861,351.0
1607090726.863,348.0
1607090726.8651,348.0
1607090726.867,346.0
1607090726.8689,343.0
1607090726.8709,341.0
1607090726.8729,339.0
1607090726.875,339.0
1607090726.877,339.0
1607090726.879,339.0
1607090726.8809,336.0
1607090726.8829,336.0
1607090726.885,334.0
1607090726.8869,329.0
1607090726.889,327.0
1607090726.891,329.0
1607090726.8929,327.0
1607090726.8951,324.0
1607090726.8969,324.0
1607090726.8989,322.0
1607090726.9009,319.0
1607090726.9029,319.0
1607090726.905,319.0
1607090726.9069,317.0
1607090726.909,315.0
1607090726.911,312.0
1607090726.9129,310.0
1607090726.9152,310.0
1607090726.917,310.0
1607090726.9189,310.0
1607090726.921,307.0
1607090726.9229,305.0
1607090726.925,303.0
1607090726.927,300.0
1607090726.929,300.0
1607090726.9309,298.0
1607090726.933,295.0
1607090726.935,295.0
1607090726.9369,290.0
1607090726.9389,288.0
1607090726.941,288.0
1607090726.9429,288.0
1607090726.9451,286.0
1607090726.9469,283.0
1607090726.949,276.0
1607090726.9509,274.0
1607090726.9529,276.0
1607090726.955,276.0
1607090726.9569,271.0
1607090726.9589,269.0
1607090726.961,266.0
1607090726.9629,259.0
1607090726.965,252.0
1607090726.9669,247.0
1607090726.9689,254.0
1607090726.9709,271.0
1607090726.9729,283.0
1607090726.975,283.0
1607090727.4611,276.0
1607090727.4623,262.0
1607090727.4647,245.0
1607090727.4673,238.0
1607090727.4693,235.0
1607090727.4713,226.0
1607090727.4734,221.0
1607090727.4753,226.0
1607090727.4773,223.0
1607090727.4793,221.0
1607090727.4813,211.0
1607090727.4832,199.0
1607090727.4852,262.0
1607090727.4872,490.0
1607090727.4892,820.0
1607090727.4913,997.0
1607090727.4932,721.0
1607090727.4953,177.0
1607090727.4972,16.0
1607090727.4992,202.0
1607090727.5014,199.0
1607090727.5033,105.0
1607090727.5052,151.0
1607090727.5072,177.0
1607090727.5092,146.0
1607090727.5113,153.0
1607090727.5132,175.0
1607090727.5153,170.0
1607090727.5172,173.0
1607090727.5192,185.0
1607090727.5212,187.0
1607090727.5232,189.0
1607090727.5253,194.0
1607090727.5273,199.0
1607090727.5292,204.0
1607090727.5312,209.0
1607090727.5332,214.0
1607090727.5353,218.0
1607090727.5372,228.0
1607090727.5392,228.0
1607090727.5413,233.0
1607090727.5432,242.0
1607090727.5453,252.0
1607090727.5472,262.0
1607090727.5492,274.0
1607090727.5512,286.0
1607090727.5532,298.0
1607090727.5552,312.0
1607090727.5572,324.0
1607090727.5592,334.0
1607090727.5613,341.0
1607090727.5632,341.0
1607090727.5653,336.0
1607090727.5672,319.0
1607090727.5692,286.0
1607090727.5712,245.0
1607090727.5732,206.0
1607090727.5753,177.0
1607090727.5773,156.0
1607090727.5792,137.0
1607090727.5812,120.0
1607090727.5832,115.0
1607090727.5852,113.0
1607090727.5872,110.0
1607090727.5892,113.0
1607090727.5912,117.0
1607090727.5933,120.0
1607090727.5952,120.0
1607090727.5972,122.0
1607090727.5992,127.0
1607090727.6012,129.0
1607090727.6034,134.0
1607090727.6053,141.0
1607090727.971,144.0
1607090727.9719,144.0
1607090727.9745,144.0
1607090727.977,149.0
1607090727.9791,153.0
1607090727.981,156.0
1607090727.9832,156.0
1607090727.985,156.0
1607090727.9869,156.0
1607090727.989,153.0
1607090727.9909,153.0
1607090727.9929,153.0
1607090727.9951,151.0
1607090727.9969,149.0
1607090727.999,139.0
1607090728.0009,137.0
1607090728.0029,144.0
1607090728.005,141.0
1607090728.0069,139.0
1607090728.0089,141.0
1607090728.011,141.0
1607090728.0129,144.0
1607090728.015,144.0
1607090728.0169,146.0
1607090728.0189,149.0
1607090728.0209,149.0
1607090728.0229,146.0
1607090728.0249,146.0
1607090728.027,151.0
1607090728.0289,151.0
1607090728.0309,151.0
1607090728.0329,153.0
1607090728.035,153.0
1607090728.0369,151.0
1607090728.0389,153.0
1607090728.0409,156.0
1607090728.0429,153.0
1607090728.0451,151.0
1607090728.0469,153.0
1607090728.0489,156.0
1607090728.0509,153.0
1607090728.0529,153.0
1607090728.0549,151.0
1607090728.0569,151.0
1607090728.0589,151.0
1607090728.061,151.0
1607090728.063,151.0
1607090728.065,153.0
1607090728.0669,151.0
1607090728.0691,149.0
1607090728.0709,149.0
1607090728.0729,151.0
1607090728.0749,146.0
1607090728.077,141.0
1607090728.079,144.0
1607090728.081,146.0
1607090728.0829,141.0
1607090728.085,141.0
1607090728.0869,146.0
1607090728.0889,146.0
1607090728.0909,144.0
1607090728.093,141.0
1607090728.0951,141.0
1607090728.0969,141.0
1607090728.0989,139.0
1607090728.1009,139.0
1607090728.1029,141.0
1607090728.105,141.0
1607090728.1069,139.0
1607090728.1089,139.0
1607090728.111,141.0
1607090728.1129,141.0
1607090728.115,144.0
1607090728.5414,141.0
1607090728.5423,137.0
1607090728.5448,134.0
1607090728.5474,132.0
1607090728.5494,132.0
1607090728.5514,132.0
1607090728.5534,132.0
1607090728.5554,134.0
1607090728.5573,146.0
1607090728.5593,153.0
1607090728.5614,149.0
1607090728.5633,134.0
1607090728.5654,120.0
1607090728.5673,113.0
1607090728.5694,110.0
1607090728.5713,110.0
1607090728.5733,113.0
1607090728.5752,113.0
1607090728.5773,110.0
1607090728.5793,113.0
1607090728.5813,110.0
1607090728.5832,93.0
1607090728.5853,117.0
1607090728.5872,283.0
1607090728.5892,593.0
1607090728.5899,865.0
1607090728.5914,762.0
1607090728.5935,242.0
1607090728.5953,-96.0
1607090728.5972,38.0
1607090728.5992,134.0
1607090728.6013,26.0
1607090728.6032,26.0
1607090728.6053,79.0
1607090728.6073,52.0
1607090728.6093,45.0
1607090728.6113,74.0
1607090728.6133,74.0
1607090728.6153,69.0
1607090728.6172,84.0
1607090728.6192,93.0
1607090728.62,93.0
1607090728.6212,98.0
1607090728.6232,105.0
1607090728.6253,108.0
1607090728.6273,108.0
1607090728.6293,108.0
1607090728.6312,117.0
1607090728.6333,122.0
1607090728.6353,125.0
1607090728.6373,134.0
1607090728.6392,144.0
1607090728.6413,153.0
1607090728.6433,163.0
1607090728.6453,175.0
1607090728.6472,187.0
1607090728.6492,204.0
1607090728.6499,221.0
1607090728.6512,233.0
1607090728.6532,245.0
1607090728.6553,257.0
1607090728.6572,262.0
1607090728.6592,257.0
1607090728.6614,245.0
1607090728.6632,221.0
1607090728.6653,185.0
1607090728.6672,144.0
1607090728.6692,108.0
1607090728.6712,84.0
1607090728.6733,64.0
1607090728.6753,50.0
1607090728.6773,45.0
1607090728.6793,43.0
1607090729.0809,40.0
1607090729.0816,40.0
1607090729.084,45.0
1607090729.0867,48.0
1607090729.0886,48.0
1607090729.0909,52.0
1607090729.0929,57.0
1607090729.0947,60.0
1607090729.0966,57.0
1607090729.0986,55.0
1607090729.1006,62.0
1607090729.1026,67.0
1607090729.1046,67.0
1607090729.1053,72.0
1607090729.1066,76.0
1607090729.1086,76.0
1607090729.1107,79.0
1607090729.1126,84.0
1607090729.1146,86.0
1607090729.1166,86.0
1607090729.1186,86.0
1607090729.1206,86.0
1607090729.1226,88.0
1607090729.1247,91.0
1607090729.1267,88.0
1607090729.1287,88.0
1607090729.1306,91.0
1607090729.1326,91.0
1607090729.1346,91.0
1607090729.1353,93.0
1607090729.1366,96.0
1607090729.1386,96.0
1607090729.1406,96.0
1607090729.1426,98.0
1607090729.1447,101.0
1607090729.1466,101.0
1607090729.1486,98.0
1607090729.1506,101.0
1607090729.1526,98.0
1607090729.1546,93.0
1607090729.1566,96.0
1607090729.1586,101.0
1607090729.1607,98.0
1607090729.1626,101.0
1607090729.1646,103.0
1607090729.1653,103.0
1607090729.1666,103.0
1607090729.1687,103.0
1607090729.1706,101.0
1607090729.1726,103.0
1607090729.1748,108.0
1607090729.1766,108.0
1607090729.1787,110.0
1607090729.1806,113.0
1607090729.1826,108.0
1607090729.1846,105.0
1607090729.1868,105.0
1607090729.1887,105.0
1607090729.1906,103.0
1607090729.1926,108.0
1607090729.1947,110.0
1607090729.1953,108.0
1607090729.1966,103.0
1607090729.1986,103.0
1607090729.2006,105.0
1607090729.2026,105.0
1607090729.2046,105.0
1607090729.2066,103.0
1607090729.2086,105.0
1607090729.2107,105.0
1607090729.2126,105.0
1607090729.2146,105.0
1607090729.2166,108.0
1607090729.6813,108.0
1607090729.6823,103.0
1607090729.6847,108.0
1607090729.6874,113.0
1607090729.688,113.0
1607090729.6903,105.0
1607090729.6923,101.0
1607090729.6944,101.0
1607090729.6964,103.0
1607090729.6983,103.0
1607090729.7003,103.0
1607090729.7023,101.0
1607090729.7043,93.0
1607090729.7063,88.0
1607090729.7083,88.0
1607090729.7103,98.0
1607090729.7123,113.0
1607090729.7143,122.0
1607090729.7163,125.0
1607090729.7183,120.0
1607090729.7189,108.0
1607090729.7203,96.0
1607090729.7222,96.0
1607090729.7242,96.0
1607090729.7263,93.0
1607090729.7284,93.0
1607090729.7303,96.0
1607090729.7323,101.0
1607090729.7343,101.0
1607090729.7362,88.0
1607090729.7383,81.0
1607090729.7402,163.0
1607090729.7423,411.0
1607090729.7443,745.0
1607090729.7464,868.0
1607090729.7483,480.0
1607090729.7489,-64.0
1607090729.7502,-108.0
1607090729.7522,110.0
1607090729.7543,69.0
1607090729.7563,-12.0
1607090729.7583,48.0
1607090729.7603,69.0
1607090729.7623,43.0
1607090729.7643,57.0
1607090729.7663,74.0
1607090729.7682,67.0
1607090729.7702,67.0
1607090729.7723,72.0
1607090729.7742,76.0
1607090729.7763,84.0
1607090729.7784,91.0
1607090729.779,93.0
1607090729.7803,96.0
1607090729.7823,103.0
1607090729.7842,110.0
1607090729.7863,115.0
1607090729.7882,120.0
1607090729.7902,127.0
1607090729.7923,134.0
1607090729.7943,141.0
1607090729.7963,151.0
1607090729.7982,165.0
1607090729.8002,180.0
1607090729.8023,189.0
1607090729.8042,206.0
1607090729.8063,226.0
1607090729.8083,238.0
1607090729.8089,250.0
1607090729.8103,259.0
1607090729.8123,262.0
1607090729.8143,252.0
1607090729.8163,230.0
1607090730.1909,197.0
1607090730.1917,153.0
1607090730.1941,115.0
1607090730.1967,81.0
1607090730.1988,55.0
1607090730.2008,33.0
1607090730.2027,21.0
1607090730.2047,14.0
1607090730.2067,12.0
1607090730.2087,16.0
1607090730.2107,9.0
1607090730.2128,0.0
1607090730.2149,7.0
1607090730.2167,16.0
1607090730.2187,16.0
1607090730.2207,21.0
1607090730.2227,28.0
1607090730.2247,33.0
1607090730.2267,38.0
1607090730.2287,43.0
1607090730.2306,45.0
1607090730.2326,52.0
1607090730.2347,55.0
1607090730.2366,52.0
1607090730.2387,52.0
1607090730.2407,52.0
1607090730.2427,52.0
1607090730.2448,55.0
1607090730.2466,57.0
1607090730.2486,57.0
1607090730.2507,57.0
1607090730.2526,57.0
1607090730.2546,62.0
1607090730.2566,64.0
1607090730.2586,62.0
1607090730.2607,62.0
1607090730.2627,64.0
1607090730.2647,67.0
1607090730.2667,67.0
1607090730.2686,64.0
1607090730.2706,62.0
1607090730.2726,67.0
1607090730.2747,72.0
1607090730.2767,74.0
1607090730.2787,74.0
1607090730.2806,74.0
1607090730.2826,72.0
1607090730.2847,74.0
1607090730.2867,76.0
1607090730.2886,74.0
1607090730.2906,74.0
1607090730.2927,79.0
1607090730.2948,79.0
1607090730.2967,79.0
1607090730.2987,79.0
1607090730.3006,81.0
1607090730.3026,81.0
1607090730.3047,79.0
1607090730.3066,76.0
1607090730.3087,79.0
1607090730.3107,81.0
1607090730.3127,81.0
1607090730.3147,79.0
1607090730.3168,81.0
1607090730.3187,81.0
1607090730.3206,81.0
1607090730.3227,84.0
1607090730.3247,84.0
1607090730.3267,84.0
1607090730.3287,84.0
1607090730.3306,81.0
1607090730.3326,79.0
1607090730.3348,81.0
1607090730.8208,81.0
1607090730.8217,81.0
1607090730.8241,84.0
1607090730.8269,79.0
1607090730.8288,72.0
1607090730.8308,69.0
1607090730.8329,72.0
1607090730.8349,72.0
1607090730.8368,69.0
1607090730.8388,69.0
1607090730.8408,69.0
1607090730.8429,69.0
1607090730.8448,67.0
1607090730.8468,72.0
1607090730.8487,72.0
1607090730.8507,67.0
1607090730.8527,60.0
1607090730.8548,60.0
1607090730.8567,72.0
1607090730.8587,88.0
1607090730.8608,98.0
1607090730.8628,98.0
1607090730.8648,91.0
1607090730.8667,81.0
1607090730.8687,72.0
1607090730.8707,69.0
1607090730.8727,72.0
1607090730.8748,69.0
1607090730.8767,69.0
1607090730.8788,69.0
1607090730.8807,69.0
1607090730.8827,67.0
1607090730.8848,55.0
1607090730.8867,50.0
1607090730.8887,153.0
1607090730.8907,423.0
1607090730.8927,750.0
1607090730.8948,851.0
1607090730.8967,466.0
1607090730.8987,-60.0
1607090730.9007,-101.0
1607090730.9028,91.0
1607090730.9048,36.0
1607090730.9067,-36.0
1607090730.9087,24.0
1607090730.9108,36.0
1607090730.9127,9.0
1607090730.9147,28.0
1607090730.9167,40.0
1607090730.9187,38.0
1607090730.9207,43.0
1607090730.9228,52.0
1607090730.9248,52.0
1607090730.9267,60.0
1607090730.9288,64.0
1607090730.9307,67.0
1607090730.9327,72.0
1607090730.9347,79.0
1607090730.9367,81.0
1607090730.9387,86.0
1607090730.9407,96.0
1607090730.9427,101.0
1607090730.9448,101.0
1607090730.9467,108.0
1607090730.9487,122.0
1607090730.9507,134.0
1607090730.9527,144.0
1607090730.9547,161.0
1607090730.9567,175.0
1607090730.9587,189.0
1607090730.9608,204.0
1607090730.9627,214.0
1607090730.9647,223.0
1607090731.3611,226.0
1607090731.3622,218.0
1607090731.3647,199.0
1607090731.3672,165.0
1607090731.3692,125.0
1607090731.3712,88.0
1607090731.3733,60.0
1607090731.3752,36.0
1607090731.3773,16.0
1607090731.3793,4.0
1607090731.3812,0.0
1607090731.3832,-2.0
1607090731.3853,-4.0
1607090731.3872,-12.0
1607090731.3892,-14.0
1607090731.3912,-7.0
1607090731.3932,-2.0
1607090731.3953,2.0
1607090731.3972,7.0
1607090731.3993,12.0
1607090731.4012,14.0
1607090731.4032,16.0
1607090731.4052,24.0
1607090731.4071,31.0
1607090731.4092,33.0
1607090731.4112,36.0
1607090731.4131,40.0
1607090731.4151,45.0
1607090731.4171,45.0
1607090731.4191,45.0
1607090731.4211,50.0
1607090731.4231,55.0
1607090731.4251,52.0
1607090731.4272,52.0
1607090731.4292,57.0
1607090731.4311,57.0
1607090731.4331,55.0
1607090731.4352,55.0
1607090731.4371,55.0
1607090731.4391,55.0
1607090731.4411,57.0
1607090731.4431,57.0
1607090731.4452,60.0
1607090731.4471,60.0
1607090731.4491,60.0
1607090731.4511,64.0
1607090731.4531,67.0
1607090731.4552,64.0
1607090731.4571,64.0
1607090731.4591,72.0
1607090731.4612,72.0
1607090731.4631,69.0
1607090731.4652,72.0
1607090731.4671,72.0
1607090731.4691,72.0
1607090731.4711,72.0
1607090731.4731,69.0
1607090731.4751,69.0
1607090731.4772,69.0
1607090731.4792,69.0
1607090731.4811,67.0
1607090731.4831,67.0
1607090731.4852,67.0
1607090731.4871,69.0
1607090731.4891,72.0
1607090731.4911,72.0
1607090731.4932,72.0
1607090731.4952,72.0
1607090731.4971,74.0
1607090731.4991,74.0
1607090731.5013,76.0
1607090731.5032,76.0
1607090731.5052,74.0
1607090731.9012,76.0
1607090731.9021,72.0
1607090731.9045,67.0
1607090731.9062,64.0
1607090731.9083,69.0
1607090731.9102,69.0
1607090731.9122,67.0
1607090731.9142,67.0
1607090731.9161,64.0
1607090731.9181,62.0
1607090731.9201,52.0
1607090731.9221,48.0
1607090731.9241,45.0
1607090731.9262,48.0
1607090731.9282,50.0
1607090731.9301,48.0
1607090731.9321,50.0
1607090731.9341,55.0
1607090731.9361,52.0
1607090731.9381,52.0
1607090731.9402,55.0
1607090731.9421,57.0
1607090731.9442,57.0
1607090731.9461,60.0
1607090731.9481,57.0
1607090731.9501,55.0
1607090731.9521,57.0
1607090731.9541,62.0
1607090731.9561,72.0
1607090731.9582,86.0
1607090731.9601,96.0
1607090731.9622,96.0
1607090731.9641,86.0
1607090731.9661,74.0
1607090731.9681,67.0
1607090731.9701,67.0
1607090731.9721,67.0
1607090731.9741,64.0
1607090731.9761,64.0
1607090731.9782,69.0
1607090731.9801,72.0
1607090731.9821,64.0
1607090731.9841,50.0
1607090731.9861,50.0
1607090731.9881,168.0
1607090731.9901,449.0
1607090731.9921,759.0
1607090731.9942,808.0
1607090731.9963,382.0
1607090731.9981,-88.0
1607090732.0001,-74.0
1607090732.0021,86.0
1607090732.0041,9.0
1607090732.0061,-43.0
1607090732.0081,19.0
1607090732.0102,19.0
1607090732.0121,-2.0
1607090732.0141,19.0
1607090732.0161,31.0
1607090732.0181,26.0
1607090732.0201,33.0
1607090732.0221,40.0
1607090732.0241,40.0
1607090732.0261,43.0
1607090732.0282,50.0
1607090732.0301,55.0
1607090732.0321,62.0
1607090732.0341,64.0
1607090732.0361,60.0
1607090732.0381,67.0
1607090732.0401,79.0
1607090732.0421,84.0
1607090732.0442,88.0
1607090732.4709,98.0
1607090732.4716,108.0
1607090732.474,117.0
1607090732.4767,125.0
1607090732.4787,139.0
1607090732.4807,153.0
1607090732.4828,168.0
1607090732.4847,175.0
1607090732.4867,177.0
1607090732.4887,185.0
1607090732.4907,192.0
1607090732.4927,185.0
1607090732.4948,168.0
1607090732.4967,139.0
1607090732.4986,101.0
1607090732.5006,62.0
1607090732.5026,33.0
1607090732.5046,12.0
1607090732.5066,-4.0
1607090732.5086,-14.0
1607090732.5107,-19.0
1607090732.5127,-19.0
1607090732.5146,-19.0
1607090732.5166,-16.0
1607090732.5186,-16.0
1607090732.5206,-9.0
1607090732.5228,-7.0
1607090732.5247,-4.0
1607090732.5267,0.0
1607090732.5287,7.0
1607090732.5306,9.0
1607090732.5326,12.0
1607090732.5346,16.0
1607090732.5366,21.0
1607090732.5386,28.0
1607090732.5406,28.0
1607090732.5427,26.0
1607090732.5449,31.0
1607090732.5466,38.0
1607090732.5486,38.0
1607090732.5506,40.0
1607090732.5526,43.0
1607090732.5546,43.0
1607090732.5566,43.0
1607090732.5586,45.0
1607090732.5607,48.0
1607090732.5626,50.0
1607090732.5646,48.0
1607090732.5666,50.0
1607090732.5686,52.0
1607090732.5706,52.0
1607090732.5726,52.0
1607090732.5746,57.0
1607090732.5767,55.0
1607090732.5787,52.0
1607090732.5806,60.0
1607090732.5826,62.0
1607090732.5846,62.0
1607090732.5866,62.0
1607090732.5886,62.0
1607090732.5907,60.0
1607090732.5927,55.0
1607090732.5947,57.0
1607090732.5966,62.0
1607090732.5986,62.0
1607090732.6006,62.0
1607090732.6026,60.0
1607090732.6046,57.0
1607090732.6066,55.0
1607090732.6086,57.0
1607090732.6107,57.0
1607090732.6126,60.0
1607090732.6146,60.0
1607090733.0113,60.0
1607090733.0123,60.0
1607090733.0134,62.0
1607090733.0154,64.0
1607090733.0176,62.0
1607090733.0194,62.0
1607090733.0214,64.0
1607090733.0235,69.0
1607090733.0253,62.0
1607090733.0274,52.0
1607090733.0294,55.0
1607090733.0313,60.0
1607090733.0333,57.0
1607090733.0354,57.0
1607090733.0373,64.0
1607090733.0393,64.0
1607090733.0413,64.0
1607090733.0434,64.0
1607090733.0454,64.0
1607090733.0473,62.0
1607090733.0493,57.0
1607090733.0513,57.0
1607090733.0533,57.0
1607090733.0554,57.0
1607090733.0573,57.0
1607090733.0594,57.0
1607090733.0614,57.0
1607090733.0633,57.0
1607090733.0654,57.0
1607090733.0673,60.0
1607090733.0693,60.0
1607090733.0713,60.0
1607090733.0733,57.0
1607090733.0753,60.0
1607090733.0774,60.0
1607090733.0793,55.0
1607090733.0813,50.0
1607090733.0833,55.0
1607090733.0853,62.0
1607090733.0873,72.0
1607090733.0893,88.0
1607090733.0913,96.0
1607090733.0933,93.0
1607090733.0954,84.0
1607090733.0973,69.0
1607090733.0993,64.0
1607090733.1013,64.0
1607090733.1033,64.0
1607090733.1053,64.0
1607090733.1073,67.0
1607090733.1094,72.0
1607090733.1114,69.0
1607090733.1133,60.0
1607090733.1153,43.0
1607090733.1173,79.0
1607090733.1195,269.0
1607090733.1213,591.0
1607090733.1233,834.0
1607090733.1253,658.0
1607090733.1274,96.0
1607090733.1293,-185.0
1607090733.1313,4.0
1607090733.1333,74.0
1607090733.1353,-40.0
1607090733.1373,-19.0
1607090733.1393,33.0
1607090733.1414,4.0
1607090733.1434,2.0
1607090733.1455,31.0
1607090733.1473,31.0
1607090733.1493,28.0
1607090733.1513,38.0
1607090733.1533,45.0
1607090733.5511,50.0
1607090733.552,52.0
1607090733.5545,52.0
1607090733.5571,57.0
1607090733.5591,62.0
1607090733.5612,62.0
1607090733.5632,60.0
1607090733.5651,62.0
1607090733.567,74.0
1607090733.569,84.0
1607090733.571,88.0
1607090733.573,98.0
1607090733.5751,110.0
1607090733.5771,125.0
1607090733.5791,141.0
1607090733.581,156.0
1607090733.583,170.0
1607090733.5851,180.0
1607090733.587,192.0
1607090733.589,206.0
1607090733.591,218.0
1607090733.593,214.0
1607090733.5952,202.0
1607090733.597,177.0
1607090733.599,141.0
1607090733.601,101.0
1607090733.603,64.0
1607090733.605,38.0
1607090733.607,16.0
1607090733.609,-2.0
1607090733.6111,-12.0
1607090733.613,-12.0
1607090733.615,-12.0
1607090733.6172,-14.0
1607090733.619,-14.0
1607090733.621,-7.0
1607090733.623,-2.0
1607090733.625,-2.0
1607090733.6271,4.0
1607090733.629,9.0
1607090733.631,12.0
1607090733.633,14.0
1607090733.635,21.0
1607090733.637,26.0
1607090733.639,28.0
1607090733.641,26.0
1607090733.643,26.0
1607090733.6451,33.0
1607090733.647,36.0
1607090733.649,33.0
1607090733.651,36.0
1607090733.6529,40.0
1607090733.655,40.0
1607090733.657,40.0
1607090733.659,43.0
1607090733.6611,48.0
1607090733.663,45.0
1607090733.665,43.0
1607090733.667,43.0
1607090733.669,43.0
1607090733.671,45.0
1607090733.673,48.0
1607090733.6749,50.0
1607090733.6771,48.0
1607090733.679,48.0
1607090733.681,52.0
1607090733.683,55.0
1607090733.685,55.0
1607090733.687,52.0
1607090733.6891,52.0
1607090733.691,57.0
1607090733.693,60.0
1607090733.6952,57.0
1607090734.1512,57.0
1607090734.1521,57.0
1607090734.1546,55.0
1607090734.1572,43.0
1607090734.1593,38.0
1607090734.1613,48.0
1607090734.1634,50.0
1607090734.1653,43.0
1607090734.1672,40.0
1607090734.1692,43.0
1607090734.1712,40.0
1607090734.1734,38.0
1607090734.1752,40.0
1607090734.1772,48.0
1607090734.1792,50.0
1607090734.1812,48.0
1607090734.1832,50.0
1607090734.1852,50.0
1607090734.1872,48.0
1607090734.1891,48.0
1607090734.1911,45.0
1607090734.1932,48.0
1607090734.1953,52.0
1607090734.1971,52.0
1607090734.1991,52.0
1607090734.2011,52.0
1607090734.2031,48.0
1607090734.2052,48.0
1607090734.2071,48.0
1607090734.2091,45.0
1607090734.2112,45.0
1607090734.2132,48.0
1607090734.2152,48.0
1607090734.2171,45.0
1607090734.2191,45.0
1607090734.2211,45.0
1607090734.2231,45.0
1607090734.2251,43.0
1607090734.2272,33.0
1607090734.2291,28.0
1607090734.2311,36.0
1607090734.2332,52.0
1607090734.2352,67.0
1607090734.2371,69.0
1607090734.2391,64.0
1607090734.2411,57.0
1607090734.2432,45.0
1607090734.2453,40.0
1607090734.2471,43.0
1607090734.2491,43.0
1607090734.2511,43.0
1607090734.2531,40.0
1607090734.2552,40.0
1607090734.2571,43.0
1607090734.2591,36.0
1607090734.2612,24.0
1607090734.2631,84.0
1607090734.2652,310.0
1607090734.2671,651.0
1607090734.2691,853.0
1607090734.2711,581.0
1607090734.2731,-2.0
1607090734.2753,-189.0
1607090734.2772,21.0
1607090734.2791,40.0
1607090734.2811,-64.0
1607090734.2831,-21.0
1607090734.2851,14.0
1607090734.2871,-19.0
1607090734.2891,-9.0
1607090734.2911,16.0
1607090734.2932,12.0
1607090734.2953,9.0
1607090734.7207,19.0
1607090734.7217,24.0
1607090734.7241,26.0
1607090734.7258,31.0
1607090734.7278,36.0
1607090734.7298,40.0
1607090734.7317,48.0
1607090734.7337,50.0
1607090734.7359,43.0
1607090734.7377,45.0
1607090734.7397,60.0
1607090734.7417,67.0
1607090734.7437,72.0
1607090734.7458,84.0
1607090734.7477,96.0
1607090734.7497,108.0
1607090734.7517,122.0
1607090734.7537,139.0
1607090734.7557,156.0
1607090734.7577,170.0
1607090734.7597,182.0
1607090734.7618,189.0
1607090734.7637,194.0
1607090734.7656,192.0
1607090734.7677,180.0
1607090734.7697,153.0
1607090734.7716,113.0
1607090734.7737,69.0
1607090734.7757,38.0
1607090734.7777,9.0
1607090734.7797,-14.0
1607090734.7817,-31.0
1607090734.7837,-38.0
1607090734.7857,-38.0
1607090734.7876,-36.0
1607090734.7896,-36.0
1607090734.7916,-36.0
1607090734.7937,-33.0
1607090734.7957,-28.0
1607090734.7976,-24.0
1607090734.7998,-16.0
1607090734.8017,-12.0
1607090734.8036,-9.0
1607090734.8056,-7.0
1607090734.8076,-2.0
1607090734.8096,4.0
1607090734.8117,9.0
1607090734.8136,12.0
1607090734.8157,14.0
1607090734.8176,19.0
1607090734.8196,16.0
1607090734.8217,16.0
1607090734.8236,21.0
1607090734.8256,28.0
1607090734.8277,28.0
1607090734.8297,26.0
1607090734.8316,28.0
1607090734.8337,33.0
1607090734.8358,31.0
1607090734.8376,28.0
1607090734.8396,31.0
1607090734.8416,33.0
1607090734.8438,33.0
1607090734.8457,33.0
1607090734.8476,33.0
1607090734.8496,33.0
1607090734.8516,36.0
1607090734.8536,36.0
1607090734.8543,36.0
1607090734.8557,38.0
1607090734.8576,40.0
1607090734.8596,40.0
1607090734.8617,43.0
1607090735.261,45.0
1607090735.2619,43.0
1607090735.2643,43.0
1607090735.266,48.0
1607090735.268,50.0
1607090735.27,45.0
1607090735.272,40.0
1607090735.274,43.0
1607090735.276,43.0
1607090735.2767,36.0
1607090735.278,31.0
1607090735.28,36.0
1607090735.282,40.0
1607090735.284,33.0
1607090735.2859,36.0
1607090735.2879,40.0
1607090735.2899,40.0
1607090735.2919,38.0
1607090735.2941,40.0
1607090735.296,43.0
1607090735.2979,40.0
1607090735.2999,40.0
1607090735.3019,38.0
1607090735.3039,33.0
1607090735.306,33.0
1607090735.3065,40.0
1607090735.3079,40.0
1607090735.3099,38.0
1607090735.312,36.0
1607090735.3139,36.0
1607090735.316,40.0
1607090735.3179,36.0
1607090735.3199,33.0
1607090735.3219,36.0
1607090735.3239,40.0
1607090735.3259,38.0
1607090735.3279,36.0
1607090735.3299,38.0
1607090735.3319,40.0
1607090735.3339,40.0
1607090735.3359,38.0
1607090735.3365,40.0
1607090735.3379,43.0
1607090735.3399,43.0
1607090735.3419,43.0
1607090735.3439,43.0
1607090735.3459,45.0
1607090735.3479,45.0
1607090735.3499,43.0
1607090735.3519,43.0
1607090735.3539,45.0
1607090735.3559,45.0
1607090735.3579,43.0
1607090735.3599,40.0
1607090735.3619,38.0
1607090735.3639,38.0
1607090735.3659,55.0
1607090735.3666,72.0
1607090735.3679,76.0
1607090735.3699,74.0
1607090735.3719,64.0
1607090735.3739,50.0
1607090735.3759,45.0
1607090735.378,45.0
1607090735.3799,45.0
1607090735.3819,50.0
1607090735.3839,50.0
1607090735.3859,48.0
1607090735.3879,48.0
1607090735.39,43.0
1607090735.392,31.0
1607090735.394,60.0
1607090735.3959,238.0
1607090735.8605,550.0
1607090735.8614,810.0
1607090735.8639,694.0
1607090735.8666,177.0
1607090735.8685,-149.0
1607090735.8706,-19.0
1607090735.8726,52.0
1607090735.8745,-57.0
1607090735.8765,-50.0
1607090735.8786,0.0
1607090735.8805,-26.0
1607090735.8825,-31.0
1607090735.8845,-2.0
1607090735.8864,-2.0
1607090735.8885,-9.0
1607090735.8968,-2.0
1607090735.8985,2.0
1607090735.9005,7.0
1607090735.9024,14.0
1607090735.9045,16.0
1607090735.9065,21.0
1607090735.9085,31.0
1607090735.9105,38.0
1607090735.9125,45.0
1607090735.9145,48.0
1607090735.9164,52.0
1607090735.9184,62.0
1607090735.9204,69.0
1607090735.9224,79.0
1607090735.9244,88.0
1607090735.9251,96.0
1607090735.9264,110.0
1607090735.9285,129.0
1607090735.9304,141.0
1607090735.9324,153.0
1607090735.9344,170.0
1607090735.9364,180.0
1607090735.9384,185.0
1607090735.9404,187.0
1607090735.9424,180.0
1607090735.9445,158.0
1607090735.9464,127.0
1607090735.9484,93.0
1607090735.9504,55.0
1607090735.9524,26.0
1607090735.9544,4.0
1607090735.955,-14.0
1607090735.9566,-21.0
1607090735.9584,-24.0
1607090735.9605,-26.0
1607090735.9624,-28.0
1607090735.9644,-24.0
1607090735.9664,-21.0
1607090735.9684,-19.0
1607090735.9704,-16.0
1607090735.9724,-12.0
1607090735.9744,-7.0
1607090735.9765,0.0
1607090735.9785,4.0
1607090735.9804,4.0
1607090735.9824,7.0
1607090735.9844,9.0
1607090735.9851,12.0
1607090735.9864,16.0
1607090735.9884,19.0
1607090735.9904,21.0
1607090735.9925,21.0
1607090735.9945,26.0
1607090735.9965,28.0
1607090735.9984,26.0
1607090736.0004,28.0
1607090736.0025,31.0
1607090736.0045,28.0
1607090736.3711,31.0
1607090736.372,36.0
1607090736.3744,33.0
1607090736.3756,33.0
1607090736.377,33.0
1607090736.3792,33.0
1607090736.3811,36.0
1607090736.3831,33.0
1607090736.3851,28.0
1607090736.387,28.0
1607090736.389,33.0
1607090736.391,31.0
1607090736.3931,24.0
1607090736.3951,24.0
1607090736.397,31.0
1607090736.399,31.0
1607090736.401,26.0
1607090736.403,26.0
1607090736.405,31.0
1607090736.4056,33.0
1607090736.407,31.0
1607090736.409,31.0
1607090736.4111,33.0
1607090736.413,36.0
1607090736.415,38.0
1607090736.4172,40.0
1607090736.419,40.0
1607090736.421,40.0
1607090736.423,43.0
1607090736.425,43.0
1607090736.427,43.0
1607090736.4289,43.0
1607090736.431,43.0
1607090736.4329,43.0
1607090736.435,43.0
1607090736.4356,45.0
1607090736.4369,45.0
1607090736.439,45.0
1607090736.441,43.0
1607090736.4431,40.0
1607090736.445,38.0
1607090736.447,38.0
1607090736.4489,36.0
1607090736.4509,38.0
1607090736.4529,40.0
1607090736.455,43.0
1607090736.457,45.0
1607090736.459,43.0
1607090736.461,40.0
1607090736.463,43.0
1607090736.465,43.0
1607090736.4656,40.0
1607090736.4669,45.0
1607090736.4689,45.0
1607090736.4709,45.0
1607090736.473,48.0
1607090736.4751,52.0
1607090736.4771,52.0
1607090736.4791,50.0
1607090736.481,50.0
1607090736.483,50.0
1607090736.485,52.0
1607090736.487,55.0
1607090736.489,52.0
1607090736.491,52.0
1607090736.493,55.0
1607090736.4951,52.0
1607090736.497,50.0
1607090736.499,50.0
1607090736.501,48.0
1607090736.503,52.0
1607090736.5049,69.0
1607090736.507,84.0
1607090736.9411,79.0
1607090736.942,64.0
1607090736.9445,55.0
1607090736.9474,48.0
1607090736.9492,43.0
1607090736.9511,38.0
1607090736.9532,36.0
1607090736.9552,40.0
1607090736.9571,43.0
1607090736.9591,38.0
1607090736.9612,36.0
1607090736.9632,28.0
1607090736.9652,24.0
1607090736.9671,88.0
1607090736.9691,319.0
1607090736.9711,658.0
1607090736.9732,836.0
1607090736.9751,533.0
1607090736.9772,-31.0
1607090736.9791,-173.0
1607090736.9811,38.0
1607090736.9831,36.0
1607090736.9851,-60.0
1607090736.9871,-7.0
1607090736.9891,24.0
1607090736.9911,-12.0
1607090736.9932,-2.0
1607090736.9952,16.0
1607090736.9972,9.0
1607090736.9991,12.0
1607090737.0011,26.0
1607090737.003,28.0
1607090737.0051,31.0
1607090737.007,38.0
1607090737.0091,43.0
1607090737.0111,45.0
1607090737.0131,50.0
1607090737.0151,57.0
1607090737.017,67.0
1607090737.019,69.0
1607090737.0211,72.0
1607090737.023,79.0
1607090737.0251,91.0
1607090737.0271,103.0
1607090737.0291,113.0
1607090737.031,125.0
1607090737.033,141.0
1607090737.0351,158.0
1607090737.037,170.0
1607090737.039,185.0
1607090737.041,199.0
1607090737.0431,214.0
1607090737.045,221.0
1607090737.047,216.0
1607090737.0492,202.0
1607090737.0511,173.0
1607090737.053,134.0
1607090737.0551,96.0
1607090737.057,57.0
1607090737.0591,24.0
1607090737.0611,0.0
1607090737.063,-12.0
1607090737.0651,-19.0
1607090737.067,-26.0
1607090737.069,-28.0
1607090737.071,-26.0
1607090737.073,-28.0
1607090737.075,-28.0
1607090737.0771,-24.0
1607090737.0791,-21.0
1607090737.081,-16.0
1607090737.083,-12.0
1607090737.0851,-4.0
1607090737.5411,2.0
1607090737.5424,7.0
1607090737.5449,9.0
1607090737.5475,9.0
1607090737.5494,14.0
1607090737.5514,16.0
1607090737.5535,12.0
1607090737.5555,9.0
1607090737.5574,16.0
1607090737.5595,24.0
1607090737.5615,21.0
1607090737.5635,21.0
1607090737.5654,26.0
1607090737.5674,26.0
1607090737.5694,26.0
1607090737.5714,26.0
1607090737.5734,28.0
1607090737.5754,31.0
1607090737.5775,28.0
1607090737.5794,28.0
1607090737.5814,28.0
1607090737.5834,31.0
1607090737.5854,31.0
1607090737.5874,31.0
1607090737.5894,36.0
1607090737.5914,38.0
1607090737.5934,36.0
1607090737.5955,33.0
1607090737.5973,33.0
1607090737.5993,36.0
1607090737.6014,38.0
1607090737.6033,38.0
1607090737.6056,38.0
1607090737.6074,40.0
1607090737.6094,40.0
1607090737.6114,40.0
1607090737.6133,45.0
1607090737.6154,48.0
1607090737.6173,45.0
1607090737.6193,43.0
1607090737.6213,45.0
1607090737.6233,48.0
1607090737.6253,43.0
1607090737.6274,45.0
1607090737.6293,50.0
1607090737.6313,48.0
1607090737.6333,43.0
1607090737.6354,48.0
1607090737.6373,50.0
1607090737.6393,43.0
1607090737.6413,38.0
1607090737.6434,38.0
1607090737.6454,36.0
1607090737.6473,33.0
1607090737.6493,36.0
1607090737.6513,38.0
1607090737.6533,38.0
1607090737.6553,33.0
1607090737.6573,31.0
1607090737.6594,31.0
1607090737.6614,33.0
1607090737.6633,36.0
1607090737.6654,36.0
1607090737.6673,31.0
1607090737.6693,28.0
1607090737.6713,33.0
1607090737.6733,36.0
1607090737.6753,36.0
1607090737.6774,33.0
1607090737.6793,28.0
1607090737.6813,28.0
1607090737.6833,38.0
1607090737.6854,57.0
1607090738.0809,69.0
1607090738.0816,69.0
1607090738.0841,62.0
1607090738.0867,50.0
1607090738.0887,40.0
1607090738.0907,38.0
1607090738.0928,40.0
1607090738.0948,38.0
1607090738.0967,38.0
1607090738.0986,43.0
1607090738.1009,38.0
1607090738.1027,26.0
1607090738.1048,7.0
1607090738.1067,7.0
1607090738.1086,120.0
1607090738.1107,406.0
1607090738.1127,745.0
1607090738.1147,820.0
1607090738.1167,377.0
1607090738.1187,-158.0
1607090738.1207,-156.0
1607090738.1227,48.0
1607090738.1248,-19.0
1607090738.1267,-81.0
1607090738.1288,-12.0
1607090738.1307,-9.0
1607090738.1327,-36.0
1607090738.1347,-14.0
1607090738.1366,0.0
1607090738.1386,-4.0
1607090738.1407,2.0
1607090738.1428,9.0
1607090738.1448,9.0
1607090738.1466,14.0
1607090738.1486,21.0
1607090738.1506,28.0
1607090738.1526,38.0
1607090738.1547,38.0
1607090738.1566,40.0
1607090738.1586,48.0
1607090738.1607,57.0
1607090738.1626,62.0
1607090738.1647,64.0
1607090738.1666,72.0
1607090738.1686,81.0
1607090738.1706,93.0
1607090738.1726,105.0
1607090738.1747,120.0
1607090738.1767,141.0
1607090738.1788,156.0
1607090738.1806,165.0
1607090738.1826,175.0
1607090738.1848,182.0
1607090738.1866,185.0
1607090738.1886,180.0
1607090738.1906,163.0
1607090738.1927,129.0
1607090738.1947,86.0
1607090738.1966,48.0
1607090738.1986,16.0
1607090738.2006,-9.0
1607090738.2028,-28.0
1607090738.2048,-40.0
1607090738.2066,-45.0
1607090738.2086,-45.0
1607090738.2107,-45.0
1607090738.2127,-43.0
1607090738.2147,-43.0
1607090738.2166,-43.0
1607090738.2186,-38.0
1607090738.2206,-33.0
1607090738.2226,-28.0
1607090738.2248,-21.0
1607090738.6205,-19.0
1607090738.6214,-19.0
1607090738.624,-16.0
1607090738.6266,-9.0
1607090738.6286,-7.0
1607090738.6305,-4.0
1607090738.6326,0.0
1607090738.6345,4.0
1607090738.6365,2.0
1607090738.6385,-2.0
1607090738.6405,0.0
1607090738.6425,2.0
1607090738.6446,0.0
1607090738.6465,0.0
1607090738.6485,4.0
1607090738.6505,9.0
1607090738.6525,7.0
1607090738.6545,7.0
1607090738.6565,12.0
1607090738.6586,12.0
1607090738.6606,9.0
1607090738.6625,12.0
1607090738.6645,16.0
1607090738.6664,16.0
1607090738.6685,14.0
1607090738.6705,16.0
1607090738.6725,19.0
1607090738.6744,19.0
1607090738.6765,19.0
1607090738.6785,21.0
1607090738.6805,21.0
1607090738.6824,21.0
1607090738.6844,21.0
1607090738.6865,24.0
1607090738.6884,21.0
1607090738.6904,21.0
1607090738.6924,21.0
1607090738.6945,24.0
1607090738.6966,26.0
1607090738.6988,26.0
1607090738.7006,26.0
1607090738.7026,28.0
1607090738.7045,26.0
1607090738.7066,24.0
1607090738.7086,26.0
1607090738.7105,26.0
1607090738.7126,26.0
1607090738.7145,26.0
1607090738.7165,24.0
1607090738.7184,26.0
1607090738.7204,26.0
1607090738.7224,24.0
1607090738.7244,24.0
1607090738.7265,24.0
1607090738.7285,21.0
1607090738.7304,21.0
1607090738.7324,21.0
1607090738.7344,24.0
1607090738.7364,24.0
1607090738.7384,24.0
1607090738.7404,28.0
1607090738.7425,26.0
1607090738.7445,26.0
1607090738.7464,28.0
1607090738.7484,28.0
1607090738.7504,26.0
1607090738.7524,24.0
1607090738.7544,24.0
1607090738.7564,26.0
1607090738.7585,26.0
1607090738.7605,28.0
1607090738.7624,28.0
1607090738.7644,31.0
1607090739.1912,28.0
1607090739.1921,28.0
1607090739.1946,31.0
1607090739.1972,36.0
1607090739.1992,33.0
1607090739.2012,24.0
1607090739.2032,14.0
1607090739.2052,14.0
1607090739.2071,26.0
1607090739.2091,43.0
1607090739.2112,55.0
1607090739.2131,57.0
1607090739.2152,48.0
1607090739.2171,36.0
1607090739.2191,31.0
1607090739.2211,28.0
1607090739.2231,28.0
1607090739.2253,33.0
1607090739.2272,31.0
1607090739.2291,31.0
1607090739.2311,36.0
1607090739.2331,33.0
1607090739.2351,21.0
1607090739.2371,9.0
1607090739.2391,74.0
1607090739.2411,298.0
1607090739.2431,627.0
1607090739.2452,822.0
1607090739.2471,577.0
1607090739.2491,33.0
1607090739.2511,-161.0
1607090739.2531,12.0
1607090739.2551,21.0
1607090739.2571,-76.0
1607090739.2591,-40.0
1607090739.2612,-9.0
1607090739.2631,-38.0
1607090739.2651,-36.0
1607090739.2671,-16.0
1607090739.2691,-14.0
1607090739.2711,-12.0
1607090739.2731,-4.0
1607090739.2751,-2.0
1607090739.2771,2.0
1607090739.2791,12.0
1607090739.2811,19.0
1607090739.2831,21.0
1607090739.2851,28.0
1607090739.2871,36.0
1607090739.2891,38.0
1607090739.2911,43.0
1607090739.2932,50.0
1607090739.2951,57.0
1607090739.2971,60.0
1607090739.2991,69.0
1607090739.3011,81.0
1607090739.3031,88.0
1607090739.3051,98.0
1607090739.3071,117.0
1607090739.3091,137.0
1607090739.3112,146.0
1607090739.3131,156.0
1607090739.3151,170.0
1607090739.3171,177.0
1607090739.3191,177.0
1607090739.3211,165.0
1607090739.3231,141.0
1607090739.3251,108.0
1607090739.3273,69.0
1607090739.3291,36.0
1607090739.3311,7.0
1607090739.3331,-14.0
1607090739.3351,-24.0
1607090739.7307,-28.0
1607090739.7314,-33.0
1607090739.7339,-33.0
1607090739.7366,-33.0
1607090739.7385,-31.0
1607090739.7405,-31.0
1607090739.7426,-33.0
1607090739.7446,-36.0
1607090739.7465,-33.0
1607090739.7485,-26.0
1607090739.7505,-24.0
1607090739.7525,-24.0
1607090739.7545,-16.0
1607090739.7564,-7.0
1607090739.7585,-4.0
1607090739.7605,-4.0
1607090739.7624,-2.0
1607090739.7644,0.0
1607090739.7664,2.0
1607090739.7684,2.0
1607090739.7704,4.0
1607090739.7724,7.0
1607090739.7744,9.0
1607090739.7765,9.0
1607090739.7785,12.0
1607090739.7804,14.0
1607090739.7825,14.0
1607090739.7845,14.0
1607090739.7864,14.0
1607090739.7884,12.0
1607090739.7904,9.0
1607090739.7925,9.0
1607090739.7945,14.0
1607090739.7964,16.0
1607090739.7984,16.0
1607090739.8004,16.0
1607090739.8024,19.0
1607090739.8044,21.0
1607090739.8064,21.0
1607090739.8086,21.0
1607090739.8105,24.0
1607090739.8124,26.0
1607090739.8145,26.0
1607090739.8164,24.0
1607090739.8184,28.0
1607090739.8204,33.0
1607090739.8226,28.0
1607090739.8246,21.0
1607090739.8265,24.0
1607090739.8285,28.0
1607090739.8304,26.0
1607090739.8324,28.0
1607090739.8345,31.0
1607090739.8364,31.0
1607090739.8384,28.0
1607090739.8404,31.0
1607090739.8425,33.0
1607090739.8445,33.0
1607090739.8464,36.0
1607090739.8484,38.0
1607090739.8504,38.0
1607090739.8524,36.0
1607090739.8544,38.0
1607090739.8564,43.0
1607090739.8586,40.0
1607090739.8605,38.0
1607090739.8624,36.0
1607090739.8644,40.0
1607090739.8665,40.0
1607090739.8684,36.0
1607090739.8704,33.0
1607090739.8724,38.0
1607090739.8744,40.0
1607090740.3007,38.0
1607090740.3019,40.0
1607090740.3043,45.0
1607090740.3069,43.0
1607090740.3089,31.0
1607090740.3109,24.0
1607090740.313,28.0
1607090740.315,31.0
1607090740.3169,31.0
1607090740.3189,31.0
1607090740.3209,33.0
1607090740.3229,36.0
1607090740.3249,38.0
1607090740.327,36.0
1607090740.329,38.0
1607090740.331,40.0
1607090740.333,38.0
1607090740.3351,36.0
1607090740.3369,43.0
1607090740.3389,50.0
1607090740.3409,40.0
1607090740.3429,31.0
1607090740.345,31.0
1607090740.3469,36.0
1607090740.3491,40.0
1607090740.3509,52.0
1607090740.3529,72.0
1607090740.3549,72.0
1607090740.3569,64.0
1607090740.3589,62.0
1607090740.361,55.0
1607090740.3629,45.0
1607090740.3649,43.0
1607090740.3668,45.0
1607090740.3689,48.0
1607090740.3709,48.0
1607090740.3729,45.0
1607090740.3749,48.0
1607090740.3769,43.0
1607090740.3789,24.0
1607090740.3808,40.0
1607090740.3828,204.0
1607090740.3849,517.0
1607090740.3868,803.0
1607090740.3888,733.0
1607090740.3908,216.0
1607090740.393,-170.0
1607090740.395,-48.0
1607090740.3969,74.0
1607090740.3988,-31.0
1607090740.4008,-40.0
1607090740.4028,16.0
1607090740.4049,-4.0
1607090740.4068,-16.0
1607090740.4089,12.0
1607090740.4109,14.0
1607090740.4128,9.0
1607090740.4149,24.0
1607090740.4168,31.0
1607090740.4188,33.0
1607090740.4208,38.0
1607090740.4228,40.0
1607090740.4248,45.0
1607090740.4269,50.0
1607090740.4289,55.0
1607090740.4308,60.0
1607090740.4328,62.0
1607090740.4349,69.0
1607090740.4368,79.0
1607090740.4388,86.0
1607090740.4408,93.0
1607090740.4429,101.0
1607090740.4449,110.0
1607090740.9008,127.0
1607090740.9017,144.0
1607090740.9044,158.0
1607090740.9069,170.0
1607090740.9088,185.0
1607090740.9108,189.0
1607090740.9129,192.0
1607090740.9148,197.0
1607090740.9168,194.0
1607090740.9188,170.0
1607090740.9208,137.0
1607090740.9228,101.0
1607090740.9248,64.0
1607090740.9268,26.0
1607090740.9288,-2.0
1607090740.9307,-24.0
1607090740.9327,-31.0
1607090740.9348,-33.0
1607090740.9368,-36.0
1607090740.9387,-38.0
1607090740.9407,-36.0
1607090740.9428,-36.0
1607090740.9448,-33.0
1607090740.9467,-26.0
1607090740.9487,-19.0
1607090740.9507,-14.0
1607090740.9527,-12.0
1607090740.9548,-7.0
1607090740.9567,-2.0
1607090740.9587,2.0
1607090740.9608,2.0
1607090740.9627,4.0
1607090740.9648,9.0
1607090740.9667,14.0
1607090740.9687,14.0
1607090740.9707,19.0
1607090740.9727,21.0
1607090740.9748,24.0
1607090740.9768,24.0
1607090740.9788,26.0
1607090740.9807,28.0
1607090740.9827,31.0
1607090740.9847,28.0
1607090740.9867,28.0
1607090740.9887,31.0
1607090740.9907,31.0
1607090740.9928,28.0
1607090740.9949,28.0
1607090740.9967,28.0
1607090740.9987,31.0
1607090741.0007,33.0
1607090741.0027,36.0
1607090741.0047,33.0
1607090741.0069,36.0
1607090741.0087,36.0
1607090741.0108,38.0
1607090741.0127,40.0
1607090741.0148,36.0
1607090741.0168,33.0
1607090741.0188,36.0
1607090741.0208,38.0
1607090741.0228,36.0
1607090741.0248,31.0
1607090741.0267,33.0
1607090741.0288,36.0
1607090741.0307,36.0
1607090741.0327,38.0
1607090741.0348,36.0
1607090741.0367,33.0
1607090741.0387,33.0
1607090741.0407,36.0
1607090741.0427,38.0
1607090741.0448,38.0
1607090741.4408,38.0
1607090741.4416,38.0
1607090741.444,40.0
1607090741.4466,43.0
1607090741.4486,43.0
1607090741.4506,40.0
1607090741.4526,38.0
1607090741.4547,28.0
1607090741.4566,26.0
1607090741.4587,28.0
1607090741.4607,21.0
1607090741.4626,12.0
1607090741.4647,16.0
1607090741.4666,24.0
1607090741.4686,19.0
1607090741.4706,16.0
1607090741.4726,19.0
1607090741.4747,21.0
1607090741.4767,21.0
1607090741.4786,19.0
1607090741.4806,19.0
1607090741.4826,16.0
1607090741.4847,14.0
1607090741.4866,12.0
1607090741.4886,14.0
1607090741.4906,16.0
1607090741.4926,21.0
1607090741.4948,33.0
1607090741.4966,50.0
1607090741.4986,50.0
1607090741.5006,40.0
1607090741.5027,31.0
1607090741.5047,24.0
1607090741.5066,21.0
1607090741.5086,21.0
1607090741.5106,26.0
1607090741.5126,28.0
1607090741.5146,26.0
1607090741.5166,26.0
1607090741.5186,21.0
1607090741.5206,7.0
1607090741.5226,24.0
1607090741.5247,180.0
1607090741.5266,502.0
1607090741.5286,808.0
1607090741.5306,745.0
1607090741.5325,197.0
1607090741.5346,-228.0
1607090741.5366,-96.0
1607090741.5385,57.0
1607090741.5405,-52.0
1607090741.5426,-69.0
1607090741.5447,-2.0
1607090741.5466,-26.0
1607090741.5472,-43.0
1607090741.5486,-12.0
1607090741.5505,-7.0
1607090741.5525,-19.0
1607090741.5546,-4.0
1607090741.5565,7.0
1607090741.5586,4.0
1607090741.5607,9.0
1607090741.5626,14.0
1607090741.5646,21.0
1607090741.5665,26.0
1607090741.5685,28.0
1607090741.5705,33.0
1607090741.5725,45.0
1607090741.5746,48.0
1607090741.5766,50.0
1607090741.5772,62.0
1607090741.5786,76.0
1607090741.5805,79.0
1607090742.0108,84.0
1607090742.0117,101.0
1607090742.0135,117.0
1607090742.0155,132.0
1607090742.0175,146.0
1607090742.0195,158.0
1607090742.0215,170.0
1607090742.0235,177.0
1607090742.0254,175.0
1607090742.0277,163.0
1607090742.0283,144.0
1607090742.0295,113.0
1607090742.0314,67.0
1607090742.0334,24.0
1607090742.0354,-4.0
1607090742.0374,-28.0
1607090742.0394,-48.0
1607090742.0414,-57.0
1607090742.0435,-62.0
1607090742.0455,-64.0
1607090742.0474,-62.0
1607090742.0494,-57.0
1607090742.0514,-55.0
1607090742.0534,-55.0
1607090742.0554,-50.0
1607090742.0574,-45.0
1607090742.058,-38.0
1607090742.0595,-36.0
1607090742.0614,-28.0
1607090742.0634,-24.0
1607090742.0654,-24.0
1607090742.0674,-19.0
1607090742.0694,-12.0
1607090742.0714,-7.0
1607090742.0734,-7.0
1607090742.0754,-4.0
1607090742.0775,0.0
1607090742.0794,2.0
1607090742.0814,2.0
1607090742.0834,2.0
1607090742.0854,4.0
1607090742.0874,7.0
1607090742.088,9.0
1607090742.0894,4.0
1607090742.0914,0.0
1607090742.0935,2.0
1607090742.0954,7.0
1607090742.0974,7.0
1607090742.0994,7.0
1607090742.1014,9.0
1607090742.1034,9.0
1607090742.1054,9.0
1607090742.1074,14.0
1607090742.1095,16.0
1607090742.1115,14.0
1607090742.1134,16.0
1607090742.1154,21.0
1607090742.1174,24.0
1607090742.118,19.0
1607090742.1194,19.0
1607090742.1216,19.0
1607090742.1234,19.0
1607090742.1254,19.0
1607090742.1275,21.0
1607090742.1294,21.0
1607090742.1314,16.0
1607090742.1334,12.0
1607090742.1354,12.0
1607090742.1374,16.0
1607090742.1394,16.0
1607090742.1414,19.0
1607090742.1435,21.0
1607090742.1454,21.0
1607090742.5511,21.0
1607090742.552,21.0
1607090742.5544,21.0
1607090742.557,21.0
1607090742.559,19.0
1607090742.5611,19.0
1607090742.5631,19.0
1607090742.565,19.0
1607090742.567,12.0
1607090742.569,4.0
1607090742.571,7.0
1607090742.573,9.0
1607090742.575,4.0
1607090742.5771,0.0
1607090742.5777,2.0
1607090742.579,7.0
1607090742.581,7.0
1607090742.583,7.0
1607090742.585,9.0
1607090742.587,7.0
1607090742.589,9.0
1607090742.591,16.0
1607090742.593,19.0
1607090742.5951,16.0
1607090742.597,16.0
1607090742.599,19.0
1607090742.601,21.0
1607090742.603,19.0
1607090742.605,21.0
1607090742.6069,21.0
1607090742.6076,21.0
1607090742.6089,21.0
1607090742.611,21.0
1607090742.613,19.0
1607090742.615,21.0
1607090742.6169,24.0
1607090742.619,24.0
1607090742.621,33.0
1607090742.6231,50.0
1607090742.625,55.0
1607090742.627,50.0
1607090742.629,43.0
1607090742.6309,33.0
1607090742.6329,26.0
1607090742.635,24.0
1607090742.6369,26.0
1607090742.6376,31.0
1607090742.6389,33.0
1607090742.6409,28.0
1607090742.643,28.0
1607090742.645,19.0
1607090742.647,7.0
1607090742.6489,79.0
1607090742.6509,322.0
1607090742.6529,654.0
1607090742.655,829.0
1607090742.6569,560.0
1607090742.659,14.0
1607090742.661,-168.0
1607090742.6629,7.0
1607090742.665,9.0
1607090742.6669,-88.0
1607090742.6676,-45.0
1607090742.6689,-12.0
1607090742.671,-43.0
1607090742.6729,-33.0
1607090742.6749,-14.0
1607090742.677,-24.0
1607090742.679,-21.0
1607090742.6809,-4.0
1607090742.6829,-2.0
1607090742.685,-2.0
1607090742.6869,7.0
1607090743.1207,14.0
1607090743.1216,16.0
1607090743.124,24.0
1607090743.1251,28.0
1607090743.1268,33.0
1607090743.1288,36.0
1607090743.1307,36.0
1607090743.1328,38.0
1607090743.1347,48.0
1607090743.1366,62.0
1607090743.1386,69.0
1607090743.1406,81.0
1607090743.1427,98.0
1607090743.1448,113.0
1607090743.1466,125.0
1607090743.1486,141.0
1607090743.1509,153.0
1607090743.1527,163.0
1607090743.1547,168.0
1607090743.1552,170.0
1607090743.1566,161.0
1607090743.1588,141.0
1607090743.1607,108.0
1607090743.1627,67.0
1607090743.1648,36.0
1607090743.1666,9.0
1607090743.1686,-12.0
1607090743.1706,-26.0
1607090743.1726,-33.0
1607090743.1747,-38.0
1607090743.1766,-38.0
1607090743.1787,-38.0
1607090743.1806,-36.0
1607090743.1826,-33.0
1607090743.1847,-28.0
1607090743.1852,-26.0
1607090743.1872,-26.0
1607090743.1892,-21.0
1607090743.1906,-14.0
1607090743.1927,-9.0
1607090743.1948,-7.0
1607090743.1966,-2.0
1607090743.1986,0.0
1607090743.2006,2.0
1607090743.2026,2.0
1607090743.2047,7.0
1607090743.2066,9.0
1607090743.2087,9.0
1607090743.2107,14.0
1607090743.2126,16.0
1607090743.2147,14.0
1607090743.2166,9.0
1607090743.2186,9.0
1607090743.2206,12.0
1607090743.2226,14.0
1607090743.2247,16.0
1607090743.2267,16.0
1607090743.2287,16.0
1607090743.2306,14.0
1607090743.2326,14.0
1607090743.2347,16.0
1607090743.2366,16.0
1607090743.2386,16.0
1607090743.2406,19.0
1607090743.2427,21.0
1607090743.2448,19.0
1607090743.2466,19.0
1607090743.2488,24.0
1607090743.2507,26.0
1607090743.2526,24.0
1607090743.2547,24.0
1607090743.2567,24.0
1607090743.2588,24.0
1607090743.6608,24.0
1607090743.6614,26.0
1607090743.6632,28.0
1607090743.6652,26.0
1607090743.6672,26.0
1607090743.6692,28.0
1607090743.6712,31.0
1607090743.6732,26.0
1607090743.6752,19.0
1607090743.6773,21.0
1607090743.6793,24.0
1607090743.6812,21.0
1607090743.6832,24.0
1607090743.6853,33.0
1607090743.6872,33.0
1607090743.6892,28.0
1607090743.6912,26.0
1607090743.6933,26.0
1607090743.6953,24.0
1607090743.6972,21.0
1607090743.6992,21.0
1607090743.7012,24.0
1607090743.7032,24.0
1607090743.7052,21.0
1607090743.7072,21.0
1607090743.7093,24.0
1607090743.7113,26.0
1607090743.7132,26.0
1607090743.7152,24.0
1607090743.7172,26.0
1607090743.7192,31.0
1607090743.7212,31.0
1607090743.7232,28.0
1607090743.7252,31.0
1607090743.7273,31.0
1607090743.7292,31.0
1607090743.7312,31.0
1607090743.7332,33.0
1607090743.7352,36.0
1607090743.7372,36.0
1607090743.7392,36.0
1607090743.7412,40.0
1607090743.7433,43.0
1607090743.7453,38.0
1607090743.7472,33.0
1607090743.7494,33.0
1607090743.7512,38.0
1607090743.7532,38.0
1607090743.7552,40.0
1607090743.7572,38.0
1607090743.7592,38.0
1607090743.7613,36.0
1607090743.7632,31.0
1607090743.7652,31.0
1607090743.7672,36.0
1607090743.7693,43.0
1607090743.7712,55.0
1607090743.7732,69.0
1607090743.7752,72.0
1607090743.7773,64.0
1607090743.7792,55.0
1607090743.7812,45.0
1607090743.7832,40.0
1607090743.7852,40.0
1607090743.7872,45.0
1607090743.7892,43.0
1607090743.7912,43.0
1607090743.7933,45.0
1607090743.7953,45.0
1607090743.7972,33.0
1607090743.7992,24.0
1607090743.8012,96.0
1607090743.8032,331.0
1607090744.2611,666.0
1607090744.2621,839.0
1607090744.2646,543.0
1607090744.2672,-16.0
1607090744.2692,-173.0
1607090744.2712,24.0
1607090744.2733,24.0
1607090744.2753,-74.0
1607090744.2772,-28.0
1607090744.2792,-2.0
1607090744.2812,-28.0
1607090744.2831,-16.0
1607090744.2852,0.0
1607090744.2871,-4.0
1607090744.2891,2.0
1607090744.2911,14.0
1607090744.2932,14.0
1607090744.2953,16.0
1607090744.2972,24.0
1607090744.2991,28.0
1607090744.3011,36.0
1607090744.3031,43.0
1607090744.3052,45.0
1607090744.3073,48.0
1607090744.3092,57.0
1607090744.3112,64.0
1607090744.3131,72.0
1607090744.3152,76.0
1607090744.3172,84.0
1607090744.3191,93.0
1607090744.3211,113.0
1607090744.3231,127.0
1607090744.3251,137.0
1607090744.3272,151.0
1607090744.3291,168.0
1607090744.3311,177.0
1607090744.3331,182.0
1607090744.3351,192.0
1607090744.3371,197.0
1607090744.3391,185.0
1607090744.3411,158.0
1607090744.3432,127.0
1607090744.3452,91.0
1607090744.3471,52.0
1607090744.3491,19.0
1607090744.3511,-2.0
1607090744.3531,-21.0
1607090744.3551,-31.0
1607090744.3571,-36.0
1607090744.3591,-36.0
1607090744.3612,-36.0
1607090744.3631,-36.0
1607090744.3651,-36.0
1607090744.3671,-31.0
1607090744.3691,-21.0
1607090744.3711,-16.0
1607090744.3731,-14.0
1607090744.3751,-12.0
1607090744.3772,-4.0
1607090744.3791,0.0
1607090744.3811,7.0
1607090744.3831,14.0
1607090744.3851,14.0
1607090744.3871,14.0
1607090744.3891,16.0
1607090744.3911,21.0
1607090744.3932,26.0
1607090744.3952,26.0
1607090744.3971,26.0
1607090744.3991,26.0
1607090744.4011,28.0
1607090744.4031,33.0
1607090744.4051,33.0
1607090744.8008,28.0
1607090744.8018,31.0
1607090744.8034,31.0
1607090744.8054,31.0
1607090744.8074,33.0
1607090744.8094,36.0
1607090744.8114,36.0
1607090744.8133,33.0
1607090744.8154,33.0
1607090744.8174,33.0
1607090744.8194,28.0
1607090744.8214,28.0
1607090744.8234,33.0
1607090744.8254,28.0
1607090744.8275,24.0
1607090744.8294,26.0
1607090744.8314,31.0
1607090744.8334,31.0
1607090744.8354,33.0
1607090744.8374,38.0
1607090744.8393,38.0
1607090744.8414,36.0
1607090744.8434,36.0
1607090744.8454,38.0
1607090744.8474,38.0
1607090744.8493,38.0
1607090744.8514,36.0
1607090744.8534,36.0
1607090744.8554,31.0
1607090744.8574,28.0
1607090744.8594,28.0
1607090744.8616,28.0
1607090744.8634,26.0
1607090744.8653,28.0
1607090744.8674,33.0
1607090744.8693,28.0
1607090744.8714,28.0
1607090744.8734,28.0
1607090744.8818,26.0
1607090744.8834,24.0
1607090744.8854,26.0
1607090744.8874,28.0
1607090744.8894,28.0
1607090744.8914,28.0
1607090744.8934,28.0
1607090744.8954,28.0
1607090744.8974,31.0
1607090744.8994,31.0
1607090744.9014,31.0
1607090744.9034,31.0
1607090744.9054,31.0
1607090744.9073,31.0
1607090744.9096,31.0
1607090744.9114,28.0
1607090744.9134,28.0
1607090744.9154,26.0
1607090744.9174,26.0
1607090744.9194,28.0
1607090744.9214,38.0
1607090744.9234,55.0
1607090744.9254,62.0
1607090744.9275,60.0
1607090744.9294,50.0
1607090744.9314,36.0
1607090744.9334,24.0
1607090744.9354,21.0
1607090744.9374,24.0
1607090744.9394,26.0
1607090744.9414,26.0
1607090744.9435,26.0
1607090744.9454,28.0
1607090744.9474,24.0
1607090744.9494,4.0
1607090745.3702,28.0
1607090745.3708,199.0
1607090745.3732,521.0
1607090745.3759,812.0
1607090745.3779,731.0
1607090745.3798,185.0
1607090745.3818,-218.0
1607090745.3838,-88.0
1607090745.3858,38.0
1607090745.3878,-69.0
1607090745.3898,-79.0
1607090745.3918,-19.0
1607090745.3939,-36.0
1607090745.3958,-43.0
1607090745.3978,-19.0
1607090745.3998,-19.0
1607090745.4018,-19.0
1607090745.4038,-7.0
1607090745.4058,-2.0
1607090745.4078,-2.0
1607090745.4099,2.0
1607090745.4118,2.0
1607090745.4138,2.0
1607090745.4158,9.0
1607090745.4178,19.0
1607090745.4198,24.0
1607090745.4218,28.0
1607090745.4238,36.0
1607090745.4259,45.0
1607090745.4279,55.0
1607090745.43,60.0
1607090745.4318,67.0
1607090745.4337,81.0
1607090745.4358,98.0
1607090745.4378,110.0
1607090745.4398,127.0
1607090745.4418,144.0
1607090745.4439,156.0
1607090745.4458,165.0
1607090745.4478,173.0
1607090745.4498,177.0
1607090745.4518,175.0
1607090745.4538,156.0
1607090745.4558,120.0
1607090745.4578,81.0
1607090745.4599,45.0
1607090745.4618,14.0
1607090745.4638,-12.0
1607090745.4658,-33.0
1607090745.4678,-45.0
1607090745.4698,-50.0
1607090745.4718,-50.0
1607090745.4738,-50.0
1607090745.4759,-50.0
1607090745.4779,-50.0
1607090745.4798,-48.0
1607090745.4817,-45.0
1607090745.4838,-40.0
1607090745.4858,-36.0
1607090745.4878,-31.0
1607090745.4898,-28.0
1607090745.4918,-24.0
1607090745.4939,-16.0
1607090745.4958,-12.0
1607090745.4978,-9.0
1607090745.4998,-7.0
1607090745.5018,-7.0
1607090745.5039,-4.0
1607090745.5059,-2.0
1607090745.5078,0.0
1607090745.5099,2.0
1607090745.5118,4.0
1607090745.5138,4.0
1607090745.9411,4.0
1607090745.942,4.0
1607090745.9445,7.0
1607090745.9471,7.0
1607090745.9491,9.0
1607090745.9511,12.0
1607090745.9531,12.0
1607090745.9551,9.0
1607090745.9572,4.0
1607090745.9591,0.0
1607090745.9611,2.0
1607090745.963,7.0
1607090745.9652,4.0
1607090745.967,0.0
1607090745.969,-2.0
1607090745.9709,0.0
1607090745.973,0.0
1607090745.975,0.0
1607090745.9771,0.0
1607090745.979,4.0
1607090745.981,7.0
1607090745.983,9.0
1607090745.985,12.0
1607090745.987,14.0
1607090745.989,12.0
1607090745.991,14.0
1607090745.993,16.0
1607090745.9951,16.0
1607090745.997,14.0
1607090745.999,16.0
1607090746.001,19.0
1607090746.003,16.0
1607090746.005,14.0
1607090746.007,19.0
1607090746.009,24.0
1607090746.011,21.0
1607090746.013,14.0
1607090746.015,16.0
1607090746.017,19.0
1607090746.019,14.0
1607090746.0211,12.0
1607090746.0231,14.0
1607090746.0251,12.0
1607090746.027,12.0
1607090746.0291,14.0
1607090746.0311,12.0
1607090746.033,9.0
1607090746.035,12.0
1607090746.037,12.0
1607090746.039,12.0
1607090746.041,14.0
1607090746.043,14.0
1607090746.0451,14.0
1607090746.047,16.0
1607090746.049,19.0
1607090746.051,19.0
1607090746.053,19.0
1607090746.055,24.0
1607090746.057,24.0
1607090746.0591,19.0
1607090746.061,16.0
1607090746.063,19.0
1607090746.065,21.0
1607090746.067,21.0
1607090746.0689,28.0
1607090746.071,43.0
1607090746.073,55.0
1607090746.075,52.0
1607090746.0771,48.0
1607090746.079,38.0
1607090746.081,28.0
1607090746.083,26.0
1607090746.085,26.0
1607090746.481,26.0
1607090746.4819,26.0
1607090746.4843,28.0
1607090746.4869,31.0
1607090746.4889,26.0
1607090746.4909,4.0
1607090746.493,4.0
1607090746.4951,129.0
1607090746.497,416.0
1607090746.4989,721.0
1607090746.5009,767.0
1607090746.5029,353.0
1607090746.505,-127.0
1607090746.5069,-134.0
1607090746.5089,24.0
1607090746.511,-43.0
1607090746.5129,-98.0
1607090746.515,-40.0
1607090746.5169,-38.0
1607090746.5189,-60.0
1607090746.5209,-40.0
1607090746.5229,-26.0
1607090746.5249,-31.0
1607090746.527,-24.0
1607090746.5289,-14.0
1607090746.5309,-12.0
1607090746.533,-7.0
1607090746.5349,-2.0
1607090746.5369,4.0
1607090746.5389,7.0
1607090746.541,12.0
1607090746.5429,19.0
1607090746.545,26.0
1607090746.5469,33.0
1607090746.5489,38.0
1607090746.5509,45.0
1607090746.5529,50.0
1607090746.5551,60.0
1607090746.5569,69.0
1607090746.5589,84.0
1607090746.561,96.0
1607090746.5629,105.0
1607090746.565,120.0
1607090746.5669,139.0
1607090746.5689,153.0
1607090746.571,156.0
1607090746.573,158.0
1607090746.5749,158.0
1607090746.577,146.0
1607090746.5789,125.0
1607090746.5809,93.0
1607090746.5829,55.0
1607090746.5849,21.0
1607090746.5869,0.0
1607090746.5889,-21.0
1607090746.5909,-36.0
1607090746.5929,-40.0
1607090746.595,-38.0
1607090746.5969,-40.0
1607090746.5989,-40.0
1607090746.6009,-38.0
1607090746.6029,-36.0
1607090746.6049,-33.0
1607090746.6069,-28.0
1607090746.6089,-24.0
1607090746.611,-24.0
1607090746.6129,-19.0
1607090746.6149,-12.0
1607090746.6169,-9.0
1607090746.6189,-9.0
1607090746.6209,-7.0
1607090746.6229,-9.0
1607090746.6249,-12.0
1607090747.0204,-4.0
1607090747.0211,2.0
1607090747.0229,0.0
1607090747.0249,0.0
1607090747.027,2.0
1607090747.0289,2.0
1607090747.0309,0.0
1607090747.0329,-4.0
1607090747.0349,-4.0
1607090747.0368,0.0
1607090747.0388,0.0
1607090747.0409,-2.0
1607090747.0429,4.0
1607090747.045,7.0
1607090747.0468,4.0
1607090747.049,7.0
1607090747.0508,12.0
1607090747.0528,12.0
1607090747.0549,12.0
1607090747.0568,14.0
1607090747.0589,16.0
1607090747.0609,16.0
1607090747.0628,16.0
1607090747.0649,16.0
1607090747.0668,16.0
1607090747.0689,16.0
1607090747.0708,16.0
1607090747.0728,16.0
1607090747.0748,12.0
1607090747.0769,14.0
1607090747.0788,16.0
1607090747.0808,14.0
1607090747.0828,16.0
1607090747.0849,19.0
1607090747.0868,16.0
1607090747.0888,21.0
1607090747.0908,28.0
1607090747.0929,31.0
1607090747.0949,26.0
1607090747.0968,26.0
1607090747.0988,28.0
1607090747.1008,31.0
1607090747.1028,31.0
1607090747.1049,31.0
1607090747.1068,33.0
1607090747.1089,33.0
1607090747.1109,28.0
1607090747.1128,26.0
1607090747.1149,26.0
1607090747.1168,24.0
1607090747.1188,26.0
1607090747.1208,28.0
1607090747.1228,31.0
1607090747.1248,28.0
1607090747.1269,28.0
1607090747.1289,31.0
1607090747.1308,31.0
1607090747.1329,31.0
1607090747.1349,28.0
1607090747.1368,28.0
1607090747.1388,26.0
1607090747.1408,24.0
1607090747.1429,28.0
1607090747.1449,31.0
1607090747.1468,26.0
1607090747.1489,24.0
1607090747.151,26.0
1607090747.1529,31.0
1607090747.1549,33.0
1607090747.1568,31.0
1607090747.1589,26.0
1607090747.1609,24.0
1607090747.1628,26.0
1607090747.6513,31.0
1607090747.6523,36.0
1607090747.6548,50.0
1607090747.6573,60.0
1607090747.6594,55.0
1607090747.6614,43.0
1607090747.6635,36.0
1607090747.6654,26.0
1607090747.6673,24.0
1607090747.6693,24.0
1607090747.6713,24.0
1607090747.6733,28.0
1607090747.6752,31.0
1607090747.6773,33.0
1607090747.6792,36.0
1607090747.6812,24.0
1607090747.6832,21.0
1607090747.6853,115.0
1607090747.6872,375.0
1607090747.6892,704.0
1607090747.6912,808.0
1607090747.6933,418.0
1607090747.6954,-115.0
1607090747.6972,-158.0
1607090747.6992,45.0
1607090747.7012,0.0
1607090747.7032,-76.0
1607090747.7052,-19.0
1607090747.7072,-4.0
1607090747.7092,-33.0
1607090747.7113,-16.0
1607090747.7132,0.0
1607090747.7152,-4.0
1607090747.7172,0.0
1607090747.7192,12.0
1607090747.7212,14.0
1607090747.7232,16.0
1607090747.7252,24.0
1607090747.7273,31.0
1607090747.7292,31.0
1607090747.7312,33.0
1607090747.7332,43.0
1607090747.7353,50.0
1607090747.7372,50.0
1607090747.7394,52.0
1607090747.7413,62.0
1607090747.7433,74.0
1607090747.7453,86.0
1607090747.7472,98.0
1607090747.7492,110.0
1607090747.7512,122.0
1607090747.7532,132.0
1607090747.7553,144.0
1607090747.7573,163.0
1607090747.7594,177.0
1607090747.7613,185.0
1607090747.7632,192.0
1607090747.7653,185.0
1607090747.7672,168.0
1607090747.7692,144.0
1607090747.7712,113.0
1607090747.7732,74.0
1607090747.7752,38.0
1607090747.7773,9.0
1607090747.7792,-12.0
1607090747.7812,-26.0
1607090747.7832,-40.0
1607090747.7853,-48.0
1607090747.7872,-40.0
1607090747.7892,-36.0
1607090747.7912,-38.0
1607090747.7933,-38.0
1607090747.7953,-31.0
1607090748.1909,-26.0
1607090748.1917,-26.0
1607090748.1941,-21.0
1607090748.1967,-12.0
1607090748.1987,-7.0
1607090748.2007,-4.0
1607090748.2027,-2.0
1607090748.2048,2.0
1607090748.2067,2.0
1607090748.2087,2.0
1607090748.2107,4.0
1607090748.2126,12.0
1607090748.2147,12.0
1607090748.2166,0.0
1607090748.2186,-4.0
1607090748.2206,2.0
1607090748.2226,7.0
1607090748.2247,4.0
1607090748.2267,4.0
1607090748.2287,7.0
1607090748.2306,4.0
1607090748.2327,7.0
1607090748.2349,12.0
1607090748.2367,14.0
1607090748.2386,12.0
1607090748.2406,14.0
1607090748.2427,16.0
1607090748.2448,16.0
1607090748.2466,14.0
1607090748.2486,14.0
1607090748.2506,16.0
1607090748.2527,19.0
1607090748.2547,16.0
1607090748.2553,19.0
1607090748.2576,26.0
1607090748.2597,26.0
1607090748.2617,21.0
1607090748.2637,21.0
1607090748.2657,26.0
1607090748.2676,28.0
1607090748.2696,31.0
1607090748.2716,26.0
1607090748.2737,21.0
1607090748.2757,19.0
1607090748.2777,19.0
1607090748.2797,19.0
1607090748.2816,24.0
1607090748.2836,26.0
1607090748.2857,26.0
1607090748.2863,21.0
1607090748.2887,19.0
1607090748.2906,21.0
1607090748.2927,19.0
1607090748.2948,19.0
1607090748.2966,24.0
1607090748.2987,24.0
1607090748.3006,19.0
1607090748.3026,19.0
1607090748.3047,26.0
1607090748.3066,21.0
1607090748.3086,16.0
1607090748.3107,19.0
1607090748.3126,26.0
1607090748.3147,26.0
1607090748.3166,21.0
1607090748.3173,21.0
1607090748.3197,19.0
1607090748.3216,12.0
1607090748.3236,7.0
1607090748.3257,9.0
1607090748.3277,16.0
1607090748.3297,28.0
1607090748.3317,40.0
1607090748.7312,45.0
1607090748.7322,38.0
1607090748.7346,26.0
1607090748.7372,16.0
1607090748.7392,12.0
1607090748.7412,12.0
1607090748.7432,9.0
1607090748.7439,12.0
1607090748.7462,14.0
1607090748.7481,12.0
1607090748.7502,4.0
1607090748.7521,-9.0
1607090748.7542,-16.0
1607090748.7561,55.0
1607090748.7581,298.0
1607090748.7602,646.0
1607090748.7622,827.0
1607090748.7641,509.0
1607090748.7661,-81.0
1607090748.7681,-226.0
1607090748.7701,-4.0
1607090748.7721,-7.0
1607090748.7741,-108.0
1607090748.7748,-55.0
1607090748.7772,-21.0
1607090748.7793,-55.0
1607090748.7811,-45.0
1607090748.7831,-24.0
1607090748.7852,-28.0
1607090748.7871,-26.0
1607090748.7891,-14.0
1607090748.7912,-12.0
1607090748.7933,-9.0
1607090748.7953,-7.0
1607090748.7972,0.0
1607090748.7991,4.0
1607090748.8011,12.0
1607090748.8031,14.0
1607090748.8052,16.0
1607090748.8059,24.0
1607090748.8081,33.0
1607090748.8102,40.0
1607090748.8122,43.0
1607090748.8142,52.0
1607090748.8162,64.0
1607090748.8182,74.0
1607090748.8201,88.0
1607090748.8222,108.0
1607090748.8241,122.0
1607090748.8262,134.0
1607090748.8284,146.0
1607090748.8303,161.0
1607090748.8322,170.0
1607090748.8341,168.0
1607090748.8349,151.0
1607090748.8371,127.0
1607090748.8391,91.0
1607090748.8411,52.0
1607090748.8433,16.0
1607090748.8453,-9.0
1607090748.8471,-31.0
1607090748.8491,-45.0
1607090748.8511,-52.0
1607090748.8532,-55.0
1607090748.8552,-60.0
1607090748.8571,-60.0
1607090748.8592,-60.0
1607090748.8612,-55.0
1607090748.8631,-50.0
1607090748.8652,-48.0
1607090748.866,-45.0
1607090748.8671,-38.0
1607090748.8691,-33.0
1607090749.301,-31.0
1607090749.302,-26.0
1607090749.3045,-19.0
1607090749.307,-14.0
1607090749.3091,-14.0
1607090749.311,-12.0
1607090749.3131,-9.0
1607090749.315,-14.0
1607090749.317,-19.0
1607090749.319,-12.0
1607090749.321,-9.0
1607090749.3217,-12.0
1607090749.324,-12.0
1607090749.326,-9.0
1607090749.3279,-7.0
1607090749.33,-7.0
1607090749.3319,-7.0
1607090749.3339,-4.0
1607090749.336,-2.0
1607090749.3379,-2.0
1607090749.3399,-2.0
1607090749.3419,0.0
1607090749.3439,2.0
1607090749.346,2.0
1607090749.3479,0.0
1607090749.3499,0.0
1607090749.352,4.0
1607090749.3527,4.0
1607090749.355,2.0
1607090749.3571,4.0
1607090749.3591,7.0
1607090749.361,7.0
1607090749.3629,7.0
1607090749.365,12.0
1607090749.367,12.0
1607090749.3689,4.0
1607090749.371,4.0
1607090749.3729,7.0
1607090749.375,7.0
1607090749.3769,9.0
1607090749.3789,12.0
1607090749.3809,12.0
1607090749.3829,9.0
1607090749.3836,9.0
1607090749.3861,12.0
1607090749.3879,12.0
1607090749.3899,9.0
1607090749.3919,12.0
1607090749.3939,14.0
1607090749.396,14.0
1607090749.3979,12.0
1607090749.3999,12.0
1607090749.4019,16.0
1607090749.4039,14.0
1607090749.4059,14.0
1607090749.4079,14.0
1607090749.41,14.0
1607090749.4119,9.0
1607090749.4139,9.0
1607090749.4147,12.0
1607090749.4169,16.0
1607090749.4189,16.0
1607090749.421,16.0
1607090749.4229,16.0
1607090749.425,21.0
1607090749.4269,19.0
1607090749.4289,14.0
1607090749.4309,19.0
1607090749.4329,19.0
1607090749.435,14.0
1607090749.4369,14.0
1607090749.4389,14.0
1607090749.4409,12.0
1607090749.8711,7.0
1607090749.8721,9.0
1607090749.8736,16.0
1607090749.8757,26.0
1607090749.8775,36.0
1607090749.8795,43.0
1607090749.8815,43.0
1607090749.8837,33.0
1607090749.8855,16.0
1607090749.8876,4.0
1607090749.8894,4.0
1607090749.8914,4.0
1607090749.8934,2.0
1607090749.8954,4.0
1607090749.8974,7.0
1607090749.8994,7.0
1607090749.9014,0.0
1607090749.9022,-19.0
1607090749.9045,4.0
1607090749.9065,158.0
1607090749.9084,459.0
1607090749.9104,755.0
1607090749.9124,733.0
1607090749.9144,254.0
1607090749.9164,-170.0
1607090749.9184,-98.0
1607090749.9204,33.0
1607090749.9224,-69.0
1607090749.9244,-101.0
1607090749.9264,-40.0
1607090749.9284,-50.0
1607090749.9304,-64.0
1607090749.9324,-40.0
1607090749.9344,-33.0
1607090749.9364,-38.0
1607090749.9384,-26.0
1607090749.9405,-19.0
1607090749.9424,-16.0
1607090749.9444,-12.0
1607090749.9464,-4.0
1607090749.9484,2.0
1607090749.9504,9.0
1607090749.9524,16.0
1607090749.9545,19.0
1607090749.9564,24.0
1607090749.9584,33.0
1607090749.9604,38.0
1607090749.9624,40.0
1607090749.9644,50.0
1607090749.9664,62.0
1607090749.9684,69.0
1607090749.9704,81.0
1607090749.9724,96.0
1607090749.9745,108.0
1607090749.9764,122.0
1607090749.9784,134.0
1607090749.9804,149.0
1607090749.9824,158.0
1607090749.9846,161.0
1607090749.9864,153.0
1607090749.9884,139.0
1607090749.9904,117.0
1607090749.9924,84.0
1607090749.9944,48.0
1607090749.9964,14.0
1607090749.9984,-9.0
1607090750.0004,-26.0
1607090750.0024,-36.0
1607090750.0044,-43.0
1607090750.0064,-45.0
1607090750.0084,-45.0
1607090750.0104,-43.0
1607090750.0124,-43.0
1607090750.3809,-38.0
1607090750.3815,-33.0
1607090750.383,-31.0
1607090750.3848,-31.0
1607090750.3868,-26.0
1607090750.3943,-24.0
1607090750.3957,-21.0
1607090750.3977,-21.0
1607090750.3997,-16.0
1607090750.4017,-14.0
1607090750.4037,-19.0
1607090750.4057,-19.0
1607090750.4077,-12.0
1607090750.4097,-9.0
1607090750.4117,-9.0
1607090750.4137,-4.0
1607090750.4158,0.0
1607090750.4177,0.0
1607090750.4197,-2.0
1607090750.4217,0.0
1607090750.4237,-2.0
1607090750.4257,-7.0
1607090750.4277,-7.0
1607090750.4297,-2.0
1607090750.4317,2.0
1607090750.4337,2.0
1607090750.4357,4.0
1607090750.4377,4.0
1607090750.4397,4.0
1607090750.4417,2.0
1607090750.4437,4.0
1607090750.4457,12.0
1607090750.4477,16.0
1607090750.4497,16.0
1607090750.4517,16.0
1607090750.4537,19.0
1607090750.4559,24.0
1607090750.4577,24.0
1607090750.4597,19.0
1607090750.4617,19.0
1607090750.4637,21.0
1607090750.4657,26.0
1607090750.4677,26.0
1607090750.4697,24.0
1607090750.4717,26.0
1607090750.4737,26.0
1607090750.4757,28.0
1607090750.4777,31.0
1607090750.4797,31.0
1607090750.4817,28.0
1607090750.4837,33.0
1607090750.4857,38.0
1607090750.4877,36.0
1607090750.4897,31.0
1607090750.4917,31.0
1607090750.4937,31.0
1607090750.4957,31.0
1607090750.4977,31.0
1607090750.4997,33.0
1607090750.5017,33.0
1607090750.5037,36.0
1607090750.5057,38.0
1607090750.5077,38.0
1607090750.5097,36.0
1607090750.5117,36.0
1607090750.5137,36.0
1607090750.5157,38.0
1607090750.5177,40.0
1607090750.5197,43.0
1607090750.5217,40.0
1607090750.5237,38.0
1607090750.5257,38.0
1607090750.5277,36.0
1607090750.9803,33.0
1607090750.9808,36.0
1607090750.9824,38.0
1607090750.9844,26.0
1607090750.986,16.0
1607090750.988,24.0
1607090750.99,26.0
1607090750.992,21.0
1607090750.994,21.0
1607090750.996,24.0
1607090750.998,26.0
1607090751.0001,24.0
1607090751.0021,16.0
1607090751.004,14.0
1607090751.0063,19.0
1607090751.0081,31.0
1607090751.01,45.0
1607090751.012,50.0
1607090751.014,40.0
1607090751.016,31.0
1607090751.018,26.0
1607090751.02,26.0
1607090751.022,26.0
1607090751.024,26.0
1607090751.0261,26.0
1607090751.0282,28.0
1607090751.0301,31.0
1607090751.0321,31.0
1607090751.0341,19.0
1607090751.0362,9.0
1607090751.0381,86.0
1607090751.0401,334.0
1607090751.042,673.0
1607090751.044,824.0
1607090751.0461,488.0
1607090751.048,-79.0
1607090751.05,-189.0
1607090751.052,28.0
1607090751.054,12.0
1607090751.0561,-84.0
1607090751.058,-26.0
1607090751.06,0.0
1607090751.062,-33.0
1607090751.064,-16.0
1607090751.0661,0.0
1607090751.068,-9.0
1607090751.07,-4.0
1607090751.072,9.0
1607090751.074,14.0
1607090751.076,19.0
1607090751.078,21.0
1607090751.08,24.0
1607090751.082,33.0
1607090751.084,40.0
1607090751.0861,43.0
1607090751.088,45.0
1607090751.09,52.0
1607090751.092,57.0
1607090751.094,62.0
1607090751.096,69.0
1607090751.098,79.0
1607090751.1,88.0
1607090751.102,98.0
1607090751.104,113.0
1607090751.1061,132.0
1607090751.1082,146.0
1607090751.1101,158.0
1607090751.112,175.0
1607090751.114,187.0
1607090751.1161,185.0
1607090751.118,182.0
1607090751.12,180.0
1607090751.122,161.0
1607090751.5511,122.0
1607090751.552,84.0
1607090751.5545,48.0
1607090751.5572,14.0
1607090751.5591,-14.0
1607090751.5611,-31.0
1607090751.5632,-38.0
1607090751.5652,-45.0
1607090751.5671,-60.0
1607090751.5691,-67.0
1607090751.5713,-60.0
1607090751.5732,-52.0
1607090751.5751,-52.0
1607090751.5771,-48.0
1607090751.5791,-40.0
1607090751.5811,-36.0
1607090751.5831,-33.0
1607090751.5851,-26.0
1607090751.5871,-16.0
1607090751.589,-12.0
1607090751.5897,-14.0
1607090751.591,-14.0
1607090751.5928,-4.0
1607090751.5941,-2.0
1607090751.596,-4.0
1607090751.5981,-2.0
1607090751.6,0.0
1607090751.602,2.0
1607090751.604,4.0
1607090751.6061,4.0
1607090751.608,4.0
1607090751.61,4.0
1607090751.6121,9.0
1607090751.6141,7.0
1607090751.616,7.0
1607090751.618,7.0
1607090751.62,12.0
1607090751.622,14.0
1607090751.6227,14.0
1607090751.624,12.0
1607090751.6261,14.0
1607090751.628,16.0
1607090751.63,16.0
1607090751.6322,14.0
1607090751.6341,12.0
1607090751.6361,14.0
1607090751.638,21.0
1607090751.64,24.0
1607090751.642,24.0
1607090751.644,21.0
1607090751.646,21.0
1607090751.648,21.0
1607090751.65,24.0
1607090751.652,24.0
1607090751.6527,24.0
1607090751.654,21.0
1607090751.656,19.0
1607090751.658,21.0
1607090751.66,24.0
1607090751.6621,24.0
1607090751.6641,21.0
1607090751.6661,24.0
1607090751.668,21.0
1607090751.6702,19.0
1607090751.672,21.0
1607090751.674,26.0
1607090751.676,26.0
1607090751.678,24.0
1607090751.68,19.0
1607090751.682,19.0
1607090751.6827,19.0
1607090751.684,16.0
1607090751.686,16.0
1607090752.0906,19.0
1607090752.0913,16.0
1607090752.0936,14.0
1607090752.0963,19.0
1607090752.0983,19.0
1607090752.1003,16.0
1607090752.1024,16.0
1607090752.1043,16.0
1607090752.1063,12.0
1607090752.1083,4.0
1607090752.109,0.0
1607090752.1103,0.0
1607090752.1123,4.0
1607090752.1143,14.0
1607090752.1163,26.0
1607090752.1183,24.0
1607090752.1203,12.0
1607090752.1222,0.0
1607090752.1242,-4.0
1607090752.1263,-4.0
1607090752.1282,-4.0
1607090752.1304,-4.0
1607090752.1323,-2.0
1607090752.1342,0.0
1607090752.1362,0.0
1607090752.1384,-7.0
1607090752.1402,-24.0
1607090752.1422,4.0
1607090752.1443,175.0
1607090752.1463,497.0
1607090752.1482,788.0
1607090752.1503,714.0
1607090752.1522,177.0
1607090752.1543,-226.0
1607090752.1562,-103.0
1607090752.1582,26.0
1607090752.1602,-84.0
1607090752.1623,-98.0
1607090752.1643,-31.0
1607090752.1662,-48.0
1607090752.1682,-62.0
1607090752.1689,-36.0
1607090752.1702,-31.0
1607090752.1722,-38.0
1607090752.1742,-28.0
1607090752.1763,-21.0
1607090752.1783,-19.0
1607090752.1802,-14.0
1607090752.1822,-9.0
1607090752.1842,-4.0
1607090752.1863,0.0
1607090752.1882,7.0
1607090752.1902,12.0
1607090752.1922,14.0
1607090752.1943,24.0
1607090752.1963,31.0
1607090752.1983,38.0
1607090752.1989,45.0
1607090752.2002,55.0
1607090752.2022,67.0
1607090752.2043,81.0
1607090752.2062,93.0
1607090752.2082,108.0
1607090752.2103,115.0
1607090752.2122,125.0
1607090752.2142,141.0
1607090752.2162,151.0
1607090752.2182,149.0
1607090752.2202,141.0
1607090752.2222,127.0
1607090752.2242,101.0
1607090752.2262,64.0
1607090752.2284,24.0
1607090752.6912,-7.0
1607090752.692,-28.0
1607090752.6944,-45.0
1607090752.6971,-57.0
1607090752.6991,-64.0
1607090752.7011,-62.0
1607090752.7032,-69.0
1607090752.7051,-79.0
1607090752.707,-74.0
1607090752.7091,-64.0
1607090752.711,-62.0
1607090752.713,-62.0
1607090752.7151,-55.0
1607090752.717,-48.0
1607090752.7191,-45.0
1607090752.721,-40.0
1607090752.7217,-33.0
1607090752.7231,-31.0
1607090752.7251,-28.0
1607090752.727,-24.0
1607090752.729,-19.0
1607090752.731,-14.0
1607090752.733,-12.0
1607090752.735,-9.0
1607090752.737,-7.0
1607090752.739,-4.0
1607090752.741,-7.0
1607090752.743,-7.0
1607090752.7451,-2.0
1607090752.747,-2.0
1607090752.749,-4.0
1607090752.751,0.0
1607090752.7517,4.0
1607090752.753,0.0
1607090752.755,0.0
1607090752.757,0.0
1607090752.7591,0.0
1607090752.761,2.0
1607090752.763,2.0
1607090752.765,4.0
1607090752.767,7.0
1607090752.769,4.0
1607090752.7711,2.0
1607090752.773,9.0
1607090752.7751,12.0
1607090752.777,12.0
1607090752.779,14.0
1607090752.781,16.0
1607090752.7817,16.0
1607090752.783,14.0
1607090752.7852,16.0
1607090752.7871,16.0
1607090752.789,19.0
1607090752.791,19.0
1607090752.793,19.0
1607090752.795,19.0
1607090752.797,14.0
1607090752.799,9.0
1607090752.801,12.0
1607090752.803,14.0
1607090752.805,12.0
1607090752.807,9.0
1607090752.8091,14.0
1607090752.811,19.0
1607090752.8117,16.0
1607090752.813,12.0
1607090752.815,12.0
1607090752.817,9.0
1607090752.819,7.0
1607090752.821,12.0
1607090752.823,14.0
1607090752.8251,14.0
1607090752.827,16.0
1607090753.2009,19.0
1607090753.2016,19.0
1607090753.204,24.0
1607090753.2066,24.0
1607090753.2086,21.0
1607090753.2093,21.0
1607090753.2116,21.0
1607090753.2136,16.0
1607090753.2157,7.0
1607090753.2176,7.0
1607090753.2196,7.0
1607090753.2216,0.0
1607090753.2236,-4.0
1607090753.2255,-2.0
1607090753.2276,2.0
1607090753.2295,2.0
1607090753.2317,0.0
1607090753.2335,0.0
1607090753.2356,2.0
1607090753.2376,4.0
1607090753.2396,4.0
1607090753.2402,2.0
1607090753.2416,0.0
1607090753.2435,2.0
1607090753.2456,14.0
1607090753.2476,26.0
1607090753.2496,36.0
1607090753.2515,36.0
1607090753.2537,28.0
1607090753.2556,19.0
1607090753.2575,14.0
1607090753.2595,12.0
1607090753.2616,7.0
1607090753.2635,9.0
1607090753.2656,14.0
1607090753.2676,12.0
1607090753.2695,14.0
1607090753.2702,19.0
1607090753.2716,9.0
1607090753.2736,-4.0
1607090753.2757,69.0
1607090753.2775,305.0
1607090753.2796,625.0
1607090753.2815,795.0
1607090753.2836,533.0
1607090753.2856,7.0
1607090753.2875,-161.0
1607090753.2896,4.0
1607090753.2915,-2.0
1607090753.2936,-93.0
1607090753.2956,-57.0
1607090753.2976,-31.0
1607090753.2995,-60.0
1607090753.3002,-48.0
1607090753.3016,-26.0
1607090753.3036,-33.0
1607090753.3056,-28.0
1607090753.3075,-14.0
1607090753.3096,-14.0
1607090753.3116,-16.0
1607090753.3136,-9.0
1607090753.3156,0.0
1607090753.3175,4.0
1607090753.3196,12.0
1607090753.3216,16.0
1607090753.3235,19.0
1607090753.3257,26.0
1607090753.3276,33.0
1607090753.3295,43.0
1607090753.3302,52.0
1607090753.3316,57.0
1607090753.3336,64.0
1607090753.3356,76.0
1607090753.771,91.0
1607090753.7718,103.0
1607090753.7742,117.0
1607090753.7768,134.0
1607090753.7788,144.0
1607090753.7808,146.0
1607090753.783,149.0
1607090753.7849,153.0
1607090753.7868,146.0
1607090753.7888,125.0
1607090753.7908,93.0
1607090753.7915,62.0
1607090753.7928,28.0
1607090753.7948,0.0
1607090753.7968,-19.0
1607090753.7988,-31.0
1607090753.8008,-40.0
1607090753.8028,-48.0
1607090753.8048,-50.0
1607090753.8067,-48.0
1607090753.8087,-45.0
1607090753.8107,-43.0
1607090753.8128,-40.0
1607090753.8148,-36.0
1607090753.8167,-28.0
1607090753.8187,-28.0
1607090753.8207,-24.0
1607090753.8214,-16.0
1607090753.8227,-16.0
1607090753.8248,-14.0
1607090753.8268,-9.0
1607090753.8287,-4.0
1607090753.8307,-4.0
1607090753.8327,-4.0
1607090753.8348,0.0
1607090753.8367,2.0
1607090753.8387,7.0
1607090753.8407,9.0
1607090753.8427,9.0
1607090753.8448,9.0
1607090753.8467,9.0
1607090753.8487,9.0
1607090753.8507,7.0
1607090753.8514,4.0
1607090753.8528,4.0
1607090753.8548,7.0
1607090753.8568,7.0
1607090753.8587,12.0
1607090753.8607,16.0
1607090753.8628,14.0
1607090753.8647,14.0
1607090753.8667,16.0
1607090753.8688,16.0
1607090753.8707,16.0
1607090753.8727,19.0
1607090753.8748,24.0
1607090753.8767,24.0
1607090753.879,26.0
1607090753.881,26.0
1607090753.8827,24.0
1607090753.8848,21.0
1607090753.8867,28.0
1607090753.8887,36.0
1607090753.8907,31.0
1607090753.8928,26.0
1607090753.8948,28.0
1607090753.8967,31.0
1607090753.8987,31.0
1607090753.9008,31.0
1607090753.9027,31.0
1607090753.9048,31.0
1607090753.9067,33.0
1607090753.9087,33.0
1607090754.431,33.0
1607090754.432,33.0
1607090754.4344,31.0
1607090754.4371,31.0
1607090754.439,33.0
1607090754.441,33.0
1607090754.443,28.0
1607090754.445,28.0
1607090754.447,28.0
1607090754.449,26.0
1607090754.451,24.0
1607090754.453,24.0
1607090754.455,24.0
1607090754.457,21.0
1607090754.4591,21.0
1607090754.4597,21.0
1607090754.461,19.0
1607090754.463,19.0
1607090754.465,21.0
1607090754.4669,21.0
1607090754.4689,26.0
1607090754.4709,28.0
1607090754.4729,24.0
1607090754.475,21.0
1607090754.477,26.0
1607090754.479,31.0
1607090754.481,31.0
1607090754.4829,28.0
1607090754.485,31.0
1607090754.4869,31.0
1607090754.4889,28.0
1607090754.4896,26.0
1607090754.4909,26.0
1607090754.4929,24.0
1607090754.495,26.0
1607090754.4971,36.0
1607090754.499,55.0
1607090754.5009,62.0
1607090754.503,55.0
1607090754.505,45.0
1607090754.5069,33.0
1607090754.509,24.0
1607090754.5109,24.0
1607090754.5129,26.0
1607090754.515,26.0
1607090754.5169,26.0
1607090754.5189,28.0
1607090754.5196,31.0
1607090754.5209,31.0
1607090754.5229,19.0
1607090754.5249,26.0
1607090754.527,156.0
1607090754.5289,444.0
1607090754.5309,757.0
1607090754.5329,776.0
1607090754.5349,303.0
1607090754.5369,-177.0
1607090754.5389,-125.0
1607090754.5409,55.0
1607090754.5429,-26.0
1607090754.5449,-69.0
1607090754.5469,-2.0
1607090754.5489,-7.0
1607090754.5496,-28.0
1607090754.5509,-4.0
1607090754.5529,4.0
1607090754.5549,-2.0
1607090754.5569,7.0
1607090754.559,14.0
1607090754.5609,14.0
1607090754.5629,19.0
1607090754.5649,24.0
1607090754.5669,26.0
1607090754.9108,31.0
1607090754.9115,38.0
1607090754.9138,43.0
1607090754.9165,48.0
1607090754.9185,50.0
1607090754.9205,57.0
1607090754.9212,67.0
1607090754.9225,76.0
1607090754.9245,84.0
1607090754.9265,93.0
1607090754.9285,105.0
1607090754.9305,113.0
1607090754.9325,122.0
1607090754.9347,141.0
1607090754.9365,158.0
1607090754.9385,165.0
1607090754.9405,170.0
1607090754.9424,177.0
1607090754.9445,173.0
1607090754.9464,153.0
1607090754.9484,122.0
1607090754.9504,86.0
1607090754.9511,43.0
1607090754.9524,2.0
1607090754.9545,-19.0
1607090754.9564,-31.0
1607090754.9584,-52.0
1607090754.9604,-67.0
1607090754.9624,-64.0
1607090754.9645,-60.0
1607090754.9665,-60.0
1607090754.9684,-60.0
1607090754.9704,-57.0
1607090754.9724,-52.0
1607090754.9745,-50.0
1607090754.9764,-45.0
1607090754.9784,-38.0
1607090754.9804,-28.0
1607090754.9811,-24.0
1607090754.9824,-21.0
1607090754.9845,-19.0
1607090754.9864,-14.0
1607090754.9884,-12.0
1607090754.9905,-7.0
1607090754.9924,0.0
1607090754.9945,4.0
1607090754.9965,2.0
1607090754.9985,2.0
1607090755.0004,4.0
1607090755.0024,7.0
1607090755.0045,9.0
1607090755.0064,9.0
1607090755.0085,9.0
1607090755.0104,9.0
1607090755.0111,9.0
1607090755.0124,7.0
1607090755.0145,12.0
1607090755.0164,12.0
1607090755.0184,12.0
1607090755.0204,14.0
1607090755.0224,16.0
1607090755.0245,16.0
1607090755.0264,16.0
1607090755.0284,16.0
1607090755.0306,16.0
1607090755.0325,16.0
1607090755.0345,16.0
1607090755.0364,16.0
1607090755.0385,19.0
1607090755.0404,19.0
1607090755.0411,16.0
1607090755.0425,19.0
1607090755.0445,21.0
1607090755.4511,24.0
1607090755.4519,21.0
1607090755.4544,19.0
1607090755.457,19.0
1607090755.459,24.0
1607090755.4611,21.0
1607090755.463,16.0
1607090755.465,16.0
1607090755.467,14.0
1607090755.469,7.0
1607090755.4697,9.0
1607090755.471,14.0
1607090755.4729,12.0
1607090755.475,9.0
1607090755.477,12.0
1607090755.4789,14.0
1607090755.4809,16.0
1607090755.4829,14.0
1607090755.485,12.0
1607090755.4869,9.0
1607090755.489,7.0
1607090755.4909,7.0
1607090755.4929,7.0
1607090755.495,7.0
1607090755.4969,2.0
1607090755.4989,0.0
1607090755.4996,2.0
1607090755.5009,2.0
1607090755.5029,0.0
1607090755.505,0.0
1607090755.5069,-2.0
1607090755.509,-2.0
1607090755.5109,2.0
1607090755.5129,19.0
1607090755.515,36.0
1607090755.5169,40.0
1607090755.5189,28.0
1607090755.5209,14.0
1607090755.5229,12.0
1607090755.525,9.0
1607090755.5269,4.0
1607090755.5289,4.0
1607090755.5298,7.0
1607090755.5309,7.0
1607090755.5329,9.0
1607090755.5349,9.0
1607090755.5369,0.0
1607090755.539,-14.0
1607090755.5409,40.0
1607090755.5429,262.0
1607090755.545,603.0
1607090755.5469,822.0
1607090755.5489,593.0
1607090755.5509,14.0
1607090755.5529,-226.0
1607090755.555,-33.0
1607090755.5569,7.0
1607090755.559,-98.0
1607090755.5596,-64.0
1607090755.5609,-24.0
1607090755.5629,-57.0
1607090755.5649,-52.0
1607090755.5669,-26.0
1607090755.5689,-33.0
1607090755.5709,-33.0
1607090755.5729,-16.0
1607090755.5749,-12.0
1607090755.5769,-14.0
1607090755.5789,-4.0
1607090755.5809,4.0
1607090755.5829,7.0
1607090755.585,12.0
1607090755.5869,14.0
1607090756.0206,19.0
1607090756.0214,26.0
1607090756.0232,31.0
1607090756.0252,38.0
1607090756.0273,48.0
1607090756.0292,52.0
1607090756.0312,57.0
1607090756.0332,67.0
1607090756.0353,81.0
1607090756.0373,96.0
1607090756.0392,113.0
1607090756.0412,125.0
1607090756.0433,129.0
1607090756.0453,137.0
1607090756.0473,146.0
1607090756.0492,149.0
1607090756.0512,141.0
1607090756.0532,120.0
1607090756.0552,84.0
1607090756.0571,45.0
1607090756.0594,12.0
1607090756.0612,-19.0
1607090756.0631,-40.0
1607090756.0652,-48.0
1607090756.0672,-55.0
1607090756.0692,-67.0
1607090756.0711,-67.0
1607090756.0731,-62.0
1607090756.0752,-60.0
1607090756.0772,-57.0
1607090756.0778,-57.0
1607090756.0791,-52.0
1607090756.0811,-45.0
1607090756.0831,-45.0
1607090756.0852,-40.0
1607090756.0871,-36.0
1607090756.0891,-31.0
1607090756.0911,-26.0
1607090756.0932,-24.0
1607090756.0952,-19.0
1607090756.0971,-16.0
1607090756.0991,-14.0
1607090756.1011,-12.0
1607090756.1031,-7.0
1607090756.1051,-4.0
1607090756.1071,-7.0
1607090756.1078,-4.0
1607090756.1091,-2.0
1607090756.1111,-2.0
1607090756.1131,-4.0
1607090756.1152,0.0
1607090756.1171,2.0
1607090756.1191,0.0
1607090756.1211,-2.0
1607090756.1231,0.0
1607090756.1251,4.0
1607090756.1271,4.0
1607090756.1291,4.0
1607090756.1311,7.0
1607090756.1331,7.0
1607090756.1351,7.0
1607090756.1371,7.0
1607090756.1378,12.0
1607090756.1391,12.0
1607090756.1411,14.0
1607090756.1431,14.0
1607090756.1451,12.0
1607090756.1471,14.0
1607090756.1491,14.0
1607090756.1511,12.0
1607090756.1524,16.0
1607090756.1543,19.0
1607090756.1562,14.0
1607090756.5611,9.0
1607090756.5619,14.0
1607090756.5643,14.0
1607090756.566,12.0
1607090756.5666,7.0
1607090756.568,4.0
1607090756.57,0.0
1607090756.572,-2.0
1607090756.574,-4.0
1607090756.576,-2.0
1607090756.5779,-2.0
1607090756.5799,-2.0
1607090756.5819,0.0
1607090756.5839,4.0
1607090756.5859,2.0
1607090756.5879,2.0
1607090756.5899,4.0
1607090756.5919,7.0
1607090756.5939,9.0
1607090756.5959,9.0
1607090756.5965,9.0
1607090756.5979,12.0
1607090756.5999,7.0
1607090756.6019,2.0
1607090756.6039,4.0
1607090756.606,9.0
1607090756.608,12.0
1607090756.6099,7.0
1607090756.6119,7.0
1607090756.6139,9.0
1607090756.616,9.0
1607090756.6179,9.0
1607090756.6199,12.0
1607090756.622,12.0
1607090756.6239,9.0
1607090756.6259,9.0
1607090756.6265,9.0
1607090756.6279,7.0
1607090756.6299,7.0
1607090756.6319,9.0
1607090756.6339,16.0
1607090756.6359,14.0
1607090756.6379,12.0
1607090756.6399,14.0
1607090756.6419,14.0
1607090756.6439,9.0
1607090756.6459,9.0
1607090756.6479,14.0
1607090756.6499,26.0
1607090756.6522,43.0
1607090756.6539,48.0
1607090756.6559,45.0
1607090756.6565,36.0
1607090756.6579,24.0
1607090756.6599,21.0
1607090756.662,21.0
1607090756.664,19.0
1607090756.666,16.0
1607090756.6679,16.0
1607090756.67,21.0
1607090756.672,26.0
1607090756.6739,21.0
1607090756.6759,9.0
1607090756.6779,7.0
1607090756.6799,108.0
1607090756.6819,370.0
1607090756.6839,685.0
1607090756.6859,783.0
1607090756.6865,428.0
1607090756.6879,-76.0
1607090756.6899,-144.0
1607090756.6919,14.0
1607090756.6939,-33.0
1607090757.1307,-101.0
1607090757.1312,-45.0
1607090757.1336,-33.0
1607090757.1363,-57.0
1607090757.1383,-50.0
1607090757.1402,-40.0
1607090757.1423,-43.0
1607090757.1443,-33.0
1607090757.1462,-26.0
1607090757.1482,-24.0
1607090757.1502,-19.0
1607090757.1522,-9.0
1607090757.1529,-4.0
1607090757.1542,0.0
1607090757.1562,4.0
1607090757.1582,12.0
1607090757.1602,16.0
1607090757.1622,24.0
1607090757.1642,31.0
1607090757.1662,38.0
1607090757.1682,45.0
1607090757.1702,52.0
1607090757.1722,62.0
1607090757.1742,74.0
1607090757.1762,86.0
1607090757.1782,101.0
1607090757.1802,117.0
1607090757.1824,129.0
1607090757.1828,137.0
1607090757.1844,146.0
1607090757.1862,156.0
1607090757.1882,156.0
1607090757.1902,144.0
1607090757.1923,122.0
1607090757.1942,93.0
1607090757.1962,57.0
1607090757.1982,24.0
1607090757.2002,-2.0
1607090757.2022,-24.0
1607090757.2042,-40.0
1607090757.2062,-43.0
1607090757.2082,-43.0
1607090757.2102,-48.0
1607090757.2122,-48.0
1607090757.2128,-45.0
1607090757.2142,-38.0
1607090757.2162,-36.0
1607090757.2182,-36.0
1607090757.2202,-33.0
1607090757.2222,-26.0
1607090757.2242,-24.0
1607090757.2263,-24.0
1607090757.2283,-21.0
1607090757.2303,-14.0
1607090757.2323,-9.0
1607090757.2342,-9.0
1607090757.2362,-4.0
1607090757.2382,0.0
1607090757.2403,-2.0
1607090757.2423,-2.0
1607090757.2428,0.0
1607090757.2442,0.0
1607090757.2462,2.0
1607090757.2482,2.0
1607090757.2502,-2.0
1607090757.2522,0.0
1607090757.2542,4.0
1607090757.2562,4.0
1607090757.2582,0.0
1607090757.2602,2.0
1607090757.2622,7.0
1607090757.2642,9.0
1607090757.2662,9.0
1607090757.7311,9.0
1607090757.732,9.0
1607090757.7345,9.0
1607090757.7355,14.0
1607090757.7371,19.0
1607090757.7393,19.0
1607090757.7411,14.0
1607090757.7431,12.0
1607090757.7451,14.0
1607090757.7471,12.0
1607090757.7492,12.0
1607090757.7512,14.0
1607090757.7531,16.0
1607090757.7551,16.0
1607090757.7572,16.0
1607090757.7591,16.0
1607090757.7611,19.0
1607090757.7631,19.0
1607090757.7651,19.0
1607090757.7656,19.0
1607090757.7672,16.0
1607090757.7692,16.0
1607090757.7711,16.0
1607090757.7731,24.0
1607090757.7751,28.0
1607090757.7771,24.0
1607090757.7791,21.0
1607090757.7811,24.0
1607090757.7831,26.0
1607090757.7851,33.0
1607090757.7871,31.0
1607090757.789,28.0
1607090757.7911,31.0
1607090757.7931,33.0
1607090757.7952,31.0
1607090757.7957,31.0
1607090757.7971,31.0
1607090757.7992,28.0
1607090757.8011,28.0
1607090757.803,28.0
1607090757.8051,26.0
1607090757.807,26.0
1607090757.8091,31.0
1607090757.811,36.0
1607090757.813,38.0
1607090757.8151,36.0
1607090757.8171,36.0
1607090757.8191,38.0
1607090757.8211,36.0
1607090757.823,33.0
1607090757.8251,36.0
1607090757.8256,33.0
1607090757.8271,28.0
1607090757.8291,28.0
1607090757.8311,31.0
1607090757.8331,33.0
1607090757.8353,31.0
1607090757.8371,26.0
1607090757.8391,28.0
1607090757.8411,31.0
1607090757.8431,26.0
1607090757.8451,21.0
1607090757.847,26.0
1607090757.8491,43.0
1607090757.8511,60.0
1607090757.853,67.0
1607090757.855,60.0
1607090757.8557,50.0
1607090757.8571,38.0
1607090757.8591,31.0
1607090757.8611,33.0
1607090757.8631,40.0
1607090757.8651,38.0
1607090758.271,36.0
1607090758.2717,40.0
1607090758.2741,43.0
1607090758.2767,36.0
1607090758.2787,19.0
1607090758.2807,38.0
1607090758.2827,189.0
1607090758.2833,495.0
1607090758.2848,786.0
1607090758.2867,735.0
1607090758.2887,216.0
1607090758.2907,-209.0
1607090758.2927,-93.0
1607090758.2948,50.0
1607090758.2967,-60.0
1607090758.2987,-79.0
1607090758.3007,-7.0
1607090758.3027,-24.0
1607090758.3048,-43.0
1607090758.3065,-12.0
1607090758.3088,-4.0
1607090758.3107,-12.0
1607090758.3127,-2.0
1607090758.3133,4.0
1607090758.3147,7.0
1607090758.3167,14.0
1607090758.3187,21.0
1607090758.3207,24.0
1607090758.3227,31.0
1607090758.3247,36.0
1607090758.3267,36.0
1607090758.3287,40.0
1607090758.3307,45.0
1607090758.3327,55.0
1607090758.3349,64.0
1607090758.3367,74.0
1607090758.3387,84.0
1607090758.3407,93.0
1607090758.3427,103.0
1607090758.3433,115.0
1607090758.3447,132.0
1607090758.3467,149.0
1607090758.3487,163.0
1607090758.3507,177.0
1607090758.3527,185.0
1607090758.3547,187.0
1607090758.3567,182.0
1607090758.3587,170.0
1607090758.3607,141.0
1607090758.3627,96.0
1607090758.3647,55.0
1607090758.3668,24.0
1607090758.3687,-2.0
1607090758.3707,-24.0
1607090758.3726,-40.0
1607090758.3733,-48.0
1607090758.3747,-50.0
1607090758.3767,-50.0
1607090758.3787,-48.0
1607090758.3807,-45.0
1607090758.3827,-40.0
1607090758.3847,-43.0
1607090758.3867,-43.0
1607090758.3887,-33.0
1607090758.3907,-21.0
1607090758.3927,-16.0
1607090758.3947,-14.0
1607090758.3967,-14.0
1607090758.3987,-12.0
1607090758.4007,-2.0
1607090758.4027,2.0
1607090758.4033,2.0
1607090758.4047,2.0
1607090758.8409,4.0
1607090758.8416,4.0
1607090758.844,7.0
1607090758.8466,12.0
1607090758.8486,12.0
1607090758.8506,12.0
1607090758.8528,12.0
1607090758.8547,7.0
1607090758.8566,0.0
1607090758.8573,-4.0
1607090758.8586,-2.0
1607090758.8607,2.0
1607090758.8628,7.0
1607090758.8647,7.0
1607090758.8666,9.0
1607090758.8686,9.0
1607090758.8706,7.0
1607090758.8726,9.0
1607090758.8746,9.0
1607090758.8766,12.0
1607090758.8786,14.0
1607090758.8806,14.0
1607090758.8826,14.0
1607090758.8846,12.0
1607090758.8866,9.0
1607090758.8872,12.0
1607090758.8888,12.0
1607090758.8906,14.0
1607090758.8926,14.0
1607090758.8946,16.0
1607090758.8966,19.0
1607090758.8986,16.0
1607090758.9006,16.0
1607090758.9026,14.0
1607090758.9046,12.0
1607090758.9066,14.0
1607090758.9086,16.0
1607090758.9106,16.0
1607090758.9126,16.0
1607090758.9146,14.0
1607090758.9152,12.0
1607090758.9167,14.0
1607090758.9186,12.0
1607090758.9206,7.0
1607090758.9226,7.0
1607090758.9247,9.0
1607090758.9266,9.0
1607090758.9286,7.0
1607090758.9306,4.0
1607090758.9326,4.0
1607090758.9346,4.0
1607090758.9366,7.0
1607090758.9386,9.0
1607090758.9406,14.0
1607090758.9426,12.0
1607090758.9446,7.0
1607090758.9452,9.0
1607090758.9466,14.0
1607090758.9486,12.0
1607090758.9506,9.0
1607090758.9526,9.0
1607090758.9546,9.0
1607090758.9566,9.0
1607090758.9587,12.0
1607090758.9607,21.0
1607090758.9626,36.0
1607090758.9646,40.0
1607090758.9666,36.0
1607090758.9686,31.0
1607090758.9706,19.0
1607090758.9727,9.0
1607090758.9746,12.0
1607090758.9753,12.0
1607090759.3808,12.0
1607090759.3814,9.0
1607090759.3838,12.0
1607090759.3866,16.0
1607090759.3885,12.0
1607090759.3905,-4.0
1607090759.3925,-4.0
1607090759.3945,113.0
1607090759.3965,399.0
1607090759.3985,719.0
1607090759.3991,786.0
1607090759.4005,367.0
1607090759.4025,-149.0
1607090759.4045,-163.0
1607090759.4065,21.0
1607090759.4084,-45.0
1607090759.4105,-110.0
1607090759.4124,-45.0
1607090759.4145,-38.0
1607090759.4165,-64.0
1607090759.4185,-45.0
1607090759.4205,-31.0
1607090759.4225,-33.0
1607090759.4245,-26.0
1607090759.4264,-21.0
1607090759.4284,-24.0
1607090759.429,-14.0
1607090759.4304,-2.0
1607090759.4324,0.0
1607090759.4345,0.0
1607090759.4364,4.0
1607090759.4384,14.0
1607090759.4404,16.0
1607090759.4424,21.0
1607090759.4445,24.0
1607090759.4464,26.0
1607090759.4484,36.0
1607090759.4504,50.0
1607090759.4524,57.0
1607090759.4545,69.0
1607090759.4564,88.0
1607090759.4586,101.0
1607090759.459,113.0
1607090759.4605,127.0
1607090759.4624,139.0
1607090759.4645,149.0
1607090759.4664,156.0
1607090759.4684,153.0
1607090759.4704,139.0
1607090759.4724,115.0
1607090759.4745,84.0
1607090759.4765,45.0
1607090759.4784,9.0
1607090759.4804,-16.0
1607090759.4824,-33.0
1607090759.4845,-45.0
1607090759.4865,-55.0
1607090759.4884,-60.0
1607090759.489,-55.0
1607090759.4904,-55.0
1607090759.4924,-57.0
1607090759.4945,-52.0
1607090759.4964,-48.0
1607090759.4984,-48.0
1607090759.5004,-43.0
1607090759.5024,-38.0
1607090759.5045,-33.0
1607090759.5064,-28.0
1607090759.5084,-24.0
1607090759.5104,-21.0
1607090759.5124,-16.0
1607090759.5145,-14.0
1607090759.5164,-14.0
1607090759.951,-9.0
1607090759.9519,-2.0
1607090759.9544,-2.0
1607090759.957,-4.0
1607090759.959,-2.0
1607090759.961,-2.0
1607090759.963,-9.0
1607090759.965,-14.0
1607090759.9669,-7.0
1607090759.9689,0.0
1607090759.9709,0.0
1607090759.9729,-2.0
1607090759.975,-2.0
1607090759.9769,0.0
1607090759.9789,2.0
1607090759.9809,2.0
1607090759.9829,0.0
1607090759.9835,0.0
1607090759.9849,0.0
1607090759.9871,4.0
1607090759.9889,7.0
1607090759.9909,4.0
1607090759.9929,2.0
1607090759.9949,4.0
1607090759.9969,7.0
1607090759.9989,7.0
1607090760.001,4.0
1607090760.003,2.0
1607090760.0054,2.0
1607090760.007,2.0
1607090760.0094,2.0
1607090760.0109,7.0
1607090760.0129,12.0
1607090760.0136,12.0
1607090760.015,9.0
1607090760.0169,7.0
1607090760.0188,12.0
1607090760.0208,14.0
1607090760.0229,14.0
1607090760.0249,16.0
1607090760.0268,19.0
1607090760.0288,14.0
1607090760.0309,14.0
1607090760.0328,19.0
1607090760.0349,16.0
1607090760.0368,12.0
1607090760.0388,12.0
1607090760.0408,7.0
1607090760.0428,4.0
1607090760.0435,7.0
1607090760.0449,9.0
1607090760.0469,9.0
1607090760.0489,12.0
1607090760.0508,12.0
1607090760.0528,9.0
1607090760.0549,12.0
1607090760.0568,16.0
1607090760.059,16.0
1607090760.0609,16.0
1607090760.0628,16.0
1607090760.0649,19.0
1607090760.0668,19.0
1607090760.0688,21.0
1607090760.0709,21.0
1607090760.0728,21.0
1607090760.0735,21.0
1607090760.0749,24.0
1607090760.0769,26.0
1607090760.0788,26.0
1607090760.0808,24.0
1607090760.083,24.0
1607090760.085,21.0
1607090760.0868,19.0
1607090760.4914,24.0
1607090760.4928,26.0
1607090760.4952,33.0
1607090760.4978,48.0
1607090760.4999,57.0
1607090760.5007,55.0
1607090760.5018,45.0
1607090760.5039,26.0
1607090760.5058,9.0
1607090760.5078,9.0
1607090760.5098,12.0
1607090760.5118,9.0
1607090760.5138,9.0
1607090760.5158,14.0
1607090760.5178,19.0
1607090760.5198,16.0
1607090760.5218,4.0
1607090760.5238,-2.0
1607090760.5257,69.0
1607090760.5278,298.0
1607090760.5298,622.0
1607090760.5304,798.0
1607090760.5318,526.0
1607090760.5338,-9.0
1607090760.5358,-173.0
1607090760.5377,2.0
1607090760.5397,0.0
1607090760.5418,-98.0
1607090760.5437,-55.0
1607090760.5457,-19.0
1607090760.5477,-45.0
1607090760.5497,-43.0
1607090760.5517,-21.0
1607090760.5537,-24.0
1607090760.5557,-24.0
1607090760.5577,-12.0
1607090760.5597,-7.0
1607090760.5603,-4.0
1607090760.5617,0.0
1607090760.5637,4.0
1607090760.5657,7.0
1607090760.5677,14.0
1607090760.5697,19.0
1607090760.5717,26.0
1607090760.5737,31.0
1607090760.5757,38.0
1607090760.5777,45.0
1607090760.5797,52.0
1607090760.582,57.0
1607090760.5838,69.0
1607090760.5857,81.0
1607090760.5877,91.0
1607090760.5897,103.0
1607090760.5903,120.0
1607090760.5917,134.0
1607090760.5937,149.0
1607090760.5958,158.0
1607090760.5978,163.0
1607090760.5997,163.0
1607090760.6017,156.0
1607090760.6037,139.0
1607090760.6057,110.0
1607090760.6077,74.0
1607090760.6097,40.0
1607090760.6117,12.0
1607090760.6137,-9.0
1607090760.6157,-26.0
1607090760.6177,-36.0
1607090760.6197,-38.0
1607090760.6203,-40.0
1607090760.6217,-43.0
1607090760.6237,-43.0
1607090760.6257,-38.0
1607090761.0909,-33.0
1607090761.0918,-33.0
1607090761.0943,-31.0
1607090761.0969,-26.0
1607090761.0989,-28.0
1607090761.1009,-31.0
1607090761.103,-28.0
1607090761.1049,-21.0
1607090761.1055,-19.0
1607090761.1069,-19.0
1607090761.1089,-16.0
1607090761.1109,-14.0
1607090761.1129,-16.0
1607090761.1149,-14.0
1607090761.117,-14.0
1607090761.1188,-12.0
1607090761.1208,-9.0
1607090761.1228,-7.0
1607090761.1248,-4.0
1607090761.1269,-4.0
1607090761.1288,-2.0
1607090761.1308,-2.0
1607090761.1328,0.0
1607090761.1348,2.0
1607090761.1354,4.0
1607090761.1368,4.0
1607090761.139,7.0
1607090761.1408,7.0
1607090761.1429,4.0
1607090761.1448,2.0
1607090761.1468,2.0
1607090761.1488,7.0
1607090761.1508,9.0
1607090761.1528,9.0
1607090761.1548,12.0
1607090761.1567,12.0
1607090761.1587,9.0
1607090761.1609,12.0
1607090761.1628,14.0
1607090761.1648,12.0
1607090761.1654,12.0
1607090761.1667,16.0
1607090761.1687,19.0
1607090761.1707,19.0
1607090761.1727,19.0
1607090761.1748,19.0
1607090761.1768,19.0
1607090761.1788,19.0
1607090761.1807,21.0
1607090761.1827,21.0
1607090761.1848,24.0
1607090761.1868,24.0
1607090761.1887,24.0
1607090761.1907,26.0
1607090761.1928,28.0
1607090761.1949,31.0
1607090761.1953,31.0
1607090761.1967,28.0
1607090761.1988,24.0
1607090761.2007,21.0
1607090761.2027,24.0
1607090761.2048,24.0
1607090761.2068,19.0
1607090761.2088,16.0
1607090761.2109,19.0
1607090761.2128,21.0
1607090761.2148,24.0
1607090761.2168,24.0
1607090761.2188,21.0
1607090761.2207,21.0
1607090761.2228,21.0
1607090761.2248,24.0
1607090761.2254,28.0
1607090761.6311,28.0
1607090761.6321,26.0
1607090761.6345,26.0
1607090761.6363,21.0
1607090761.6385,19.0
1607090761.6403,21.0
1607090761.6422,24.0
1607090761.6442,26.0
1607090761.6462,24.0
1607090761.6482,14.0
1607090761.6502,2.0
1607090761.6522,4.0
1607090761.6542,16.0
1607090761.6562,31.0
1607090761.6582,43.0
1607090761.6589,48.0
1607090761.6601,43.0
1607090761.6622,31.0
1607090761.6643,19.0
1607090761.6662,21.0
1607090761.6682,24.0
1607090761.6702,16.0
1607090761.6722,14.0
1607090761.6742,19.0
1607090761.6761,21.0
1607090761.6781,21.0
1607090761.6801,12.0
1607090761.6821,4.0
1607090761.6841,72.0
1607090761.6861,295.0
1607090761.6882,630.0
1607090761.6887,822.0
1607090761.6901,541.0
1607090761.6923,-38.0
1607090761.6941,-214.0
1607090761.6961,2.0
1607090761.6981,21.0
1607090761.7001,-84.0
1607090761.7022,-40.0
1607090761.7042,-2.0
1607090761.7061,-33.0
1607090761.7081,-24.0
1607090761.7101,-4.0
1607090761.7121,-7.0
1607090761.7141,-4.0
1607090761.7161,4.0
1607090761.7181,7.0
1607090761.7187,14.0
1607090761.7201,21.0
1607090761.7221,26.0
1607090761.7241,28.0
1607090761.7261,33.0
1607090761.7281,38.0
1607090761.7301,38.0
1607090761.7321,45.0
1607090761.7343,50.0
1607090761.7361,52.0
1607090761.7381,60.0
1607090761.7401,72.0
1607090761.7422,84.0
1607090761.7441,98.0
1607090761.7461,110.0
1607090761.7481,125.0
1607090761.7487,141.0
1607090761.7501,156.0
1607090761.7521,170.0
1607090761.7541,182.0
1607090761.7561,192.0
1607090761.7581,187.0
1607090761.7601,173.0
1607090761.7621,151.0
1607090761.7641,122.0
1607090761.7661,86.0
1607090762.2012,43.0
1607090762.2021,9.0
1607090762.2046,-16.0
1607090762.2057,-36.0
1607090762.2072,-43.0
1607090762.2091,-48.0
1607090762.2112,-52.0
1607090762.2133,-60.0
1607090762.2151,-64.0
1607090762.2171,-60.0
1607090762.2191,-52.0
1607090762.2211,-50.0
1607090762.2231,-48.0
1607090762.2251,-43.0
1607090762.2271,-38.0
1607090762.2291,-36.0
1607090762.2311,-31.0
1607090762.2331,-26.0
1607090762.2352,-24.0
1607090762.2357,-24.0
1607090762.2371,-16.0
1607090762.2391,-9.0
1607090762.2411,-9.0
1607090762.2431,-9.0
1607090762.2452,-4.0
1607090762.2471,-2.0
1607090762.2491,-4.0
1607090762.2511,-2.0
1607090762.2531,2.0
1607090762.2551,2.0
1607090762.2571,-2.0
1607090762.2591,-2.0
1607090762.2611,0.0
1607090762.2633,2.0
1607090762.2651,2.0
1607090762.2657,2.0
1607090762.2671,4.0
1607090762.2691,4.0
1607090762.2711,7.0
1607090762.2731,7.0
1607090762.2751,9.0
1607090762.2771,12.0
1607090762.2791,12.0
1607090762.2811,12.0
1607090762.2831,12.0
1607090762.2851,12.0
1607090762.2871,9.0
1607090762.2891,7.0
1607090762.2911,9.0
1607090762.2931,9.0
1607090762.2951,9.0
1607090762.2957,12.0
1607090762.2971,12.0
1607090762.2991,9.0
1607090762.3011,9.0
1607090762.3031,12.0
1607090762.3051,12.0
1607090762.3071,12.0
1607090762.3091,12.0
1607090762.3111,14.0
1607090762.3131,14.0
1607090762.3151,9.0
1607090762.3171,4.0
1607090762.3191,7.0
1607090762.3211,9.0
1607090762.3231,12.0
1607090762.3252,9.0
1607090762.3257,9.0
1607090762.3271,12.0
1607090762.3291,12.0
1607090762.3311,12.0
1607090762.3331,14.0
1607090762.3353,14.0
1607090762.7411,9.0
1607090762.742,7.0
1607090762.7444,7.0
1607090762.7461,2.0
1607090762.748,2.0
1607090762.75,2.0
1607090762.752,2.0
1607090762.754,2.0
1607090762.756,-2.0
1607090762.7566,-9.0
1607090762.758,-9.0
1607090762.7603,-7.0
1607090762.7621,-9.0
1607090762.7643,-9.0
1607090762.766,2.0
1607090762.768,24.0
1607090762.77,31.0
1607090762.772,26.0
1607090762.774,19.0
1607090762.776,9.0
1607090762.778,4.0
1607090762.78,2.0
1607090762.782,4.0
1607090762.784,4.0
1607090762.786,2.0
1607090762.7866,2.0
1607090762.788,7.0
1607090762.79,4.0
1607090762.792,-12.0
1607090762.794,-7.0
1607090762.796,115.0
1607090762.7981,406.0
1607090762.8001,733.0
1607090762.802,788.0
1607090762.804,346.0
1607090762.806,-163.0
1607090762.808,-156.0
1607090762.81,19.0
1607090762.812,-55.0
1607090762.814,-110.0
1607090762.816,-43.0
1607090762.8166,-43.0
1607090762.818,-67.0
1607090762.82,-45.0
1607090762.822,-33.0
1607090762.824,-38.0
1607090762.826,-31.0
1607090762.828,-24.0
1607090762.83,-21.0
1607090762.832,-14.0
1607090762.834,-4.0
1607090762.8361,0.0
1607090762.838,2.0
1607090762.8392,7.0
1607090762.841,12.0
1607090762.843,12.0
1607090762.8436,14.0
1607090762.845,24.0
1607090762.847,31.0
1607090762.849,36.0
1607090762.851,48.0
1607090762.853,62.0
1607090762.8552,72.0
1607090762.857,84.0
1607090762.859,101.0
1607090762.861,115.0
1607090762.863,127.0
1607090762.865,139.0
1607090762.867,149.0
1607090762.869,156.0
1607090762.871,153.0
1607090762.8731,139.0
1607090762.8736,113.0
1607090763.3107,76.0
1607090763.3117,40.0
1607090763.314,12.0
1607090763.3168,-14.0
1607090763.3188,-38.0
1607090763.3207,-55.0
1607090763.3229,-69.0
1607090763.3248,-74.0
1607090763.3267,-69.0
1607090763.3287,-67.0
1607090763.3307,-67.0
1607090763.3327,-64.0
1607090763.3347,-60.0
1607090763.3353,-57.0
1607090763.3367,-55.0
1607090763.3387,-50.0
1607090763.3407,-40.0
1607090763.3427,-38.0
1607090763.3447,-38.0
1607090763.3467,-33.0
1607090763.3487,-26.0
1607090763.3507,-26.0
1607090763.3527,-24.0
1607090763.3547,-19.0
1607090763.3567,-14.0
1607090763.3587,-12.0
1607090763.3606,-12.0
1607090763.3626,-12.0
1607090763.3647,-7.0
1607090763.3653,-7.0
1607090763.3666,-9.0
1607090763.3686,-4.0
1607090763.3707,0.0
1607090763.3726,0.0
1607090763.3747,0.0
1607090763.3766,0.0
1607090763.3786,-2.0
1607090763.3806,-4.0
1607090763.3826,0.0
1607090763.3847,4.0
1607090763.3868,4.0
1607090763.3887,2.0
1607090763.3907,4.0
1607090763.3926,9.0
1607090763.3947,12.0
1607090763.3952,9.0
1607090763.3966,9.0
1607090763.3986,9.0
1607090763.4006,4.0
1607090763.4026,4.0
1607090763.4047,7.0
1607090763.4066,9.0
1607090763.4087,4.0
1607090763.4106,4.0
1607090763.4126,7.0
1607090763.4146,7.0
1607090763.4167,9.0
1607090763.4186,9.0
1607090763.4207,4.0
1607090763.4226,4.0
1607090763.4247,4.0
1607090763.4252,7.0
1607090763.4266,14.0
1607090763.4286,14.0
1607090763.4306,12.0
1607090763.4326,12.0
1607090763.4347,14.0
1607090763.4367,16.0
1607090763.4387,16.0
1607090763.4406,19.0
1607090763.4426,19.0
1607090763.4447,19.0
1607090763.4466,19.0
1607090763.8511,19.0
1607090763.852,19.0
1607090763.8545,19.0
1607090763.8556,14.0
1607090763.8572,12.0
1607090763.8591,14.0
1607090763.8611,14.0
1607090763.8632,7.0
1607090763.8651,4.0
1607090763.8671,9.0
1607090763.8691,7.0
1607090763.8711,4.0
1607090763.8731,9.0
1607090763.8751,12.0
1607090763.877,9.0
1607090763.8791,7.0
1607090763.8811,9.0
1607090763.8831,4.0
1607090763.8853,2.0
1607090763.8857,4.0
1607090763.8871,2.0
1607090763.889,2.0
1607090763.891,7.0
1607090763.893,7.0
1607090763.8951,12.0
1607090763.897,28.0
1607090763.899,43.0
1607090763.901,43.0
1607090763.9033,38.0
1607090763.9051,31.0
1607090763.907,16.0
1607090763.909,12.0
1607090763.911,14.0
1607090763.913,14.0
1607090763.9151,14.0
1607090763.9156,16.0
1607090763.917,19.0
1607090763.919,16.0
1607090763.921,7.0
1607090763.923,-9.0
1607090763.925,21.0
1607090763.927,199.0
1607090763.929,512.0
1607090763.931,771.0
1607090763.933,668.0
1607090763.935,158.0
1607090763.937,-180.0
1607090763.939,-60.0
1607090763.941,21.0
1607090763.943,-84.0
1607090763.9451,-86.0
1607090763.9456,-31.0
1607090763.947,-50.0
1607090763.949,-60.0
1607090763.951,-33.0
1607090763.953,-28.0
1607090763.9551,-31.0
1607090763.957,-24.0
1607090763.9591,-16.0
1607090763.961,-12.0
1607090763.963,-2.0
1607090763.9651,0.0
1607090763.967,0.0
1607090763.969,7.0
1607090763.971,14.0
1607090763.973,19.0
1607090763.9751,21.0
1607090763.9832,28.0
1607090763.9851,38.0
1607090763.9872,45.0
1607090763.9891,52.0
1607090763.991,62.0
1607090763.993,72.0
1607090764.4512,84.0
1607090764.4521,96.0
1607090764.4546,113.0
1607090764.4572,125.0
1607090764.4591,132.0
1607090764.4611,137.0
1607090764.4633,149.0
1607090764.4639,151.0
1607090764.465,144.0
1607090764.4671,129.0
1607090764.4691,105.0
1607090764.4711,72.0
1607090764.4731,38.0
1607090764.4751,9.0
1607090764.4771,-16.0
1607090764.4791,-33.0
1607090764.4811,-43.0
1607090764.4831,-48.0
1607090764.4851,-50.0
1607090764.4871,-48.0
1607090764.4891,-48.0
1607090764.4911,-48.0
1607090764.4931,-45.0
1607090764.4937,-40.0
1607090764.4951,-38.0
1607090764.4971,-33.0
1607090764.4991,-28.0
1607090764.5011,-26.0
1607090764.503,-24.0
1607090764.5051,-19.0
1607090764.5071,-14.0
1607090764.509,-12.0
1607090764.5111,-12.0
1607090764.5131,-12.0
1607090764.5151,-9.0
1607090764.5171,-7.0
1607090764.519,-7.0
1607090764.521,-2.0
1607090764.523,0.0
1607090764.5237,0.0
1607090764.5251,2.0
1607090764.527,0.0
1607090764.529,2.0
1607090764.531,2.0
1607090764.533,2.0
1607090764.535,4.0
1607090764.537,7.0
1607090764.5392,9.0
1607090764.5411,9.0
1607090764.543,12.0
1607090764.5451,12.0
1607090764.547,12.0
1607090764.549,14.0
1607090764.551,14.0
1607090764.553,16.0
1607090764.5537,24.0
1607090764.5551,26.0
1607090764.557,24.0
1607090764.5591,21.0
1607090764.561,24.0
1607090764.563,26.0
1607090764.5651,26.0
1607090764.567,26.0
1607090764.569,26.0
1607090764.571,26.0
1607090764.573,28.0
1607090764.5751,28.0
1607090764.577,28.0
1607090764.579,31.0
1607090764.581,33.0
1607090764.583,36.0
1607090764.5837,36.0
1607090764.5851,33.0
1607090765.0208,33.0
1607090765.0217,33.0
1607090765.0234,33.0
1607090765.0255,33.0
1607090765.0274,36.0
1607090765.0294,36.0
1607090765.0314,38.0
1607090765.0334,43.0
1607090765.0355,43.0
1607090765.0373,36.0
1607090765.0393,28.0
1607090765.0413,33.0
1607090765.042,33.0
1607090765.0433,28.0
1607090765.0453,31.0
1607090765.0473,33.0
1607090765.0493,28.0
1607090765.0514,28.0
1607090765.0533,28.0
1607090765.0554,28.0
1607090765.0573,26.0
1607090765.0593,28.0
1607090765.0613,31.0
1607090765.0634,31.0
1607090765.0654,28.0
1607090765.0675,24.0
1607090765.0694,24.0
1607090765.0713,28.0
1607090765.072,31.0
1607090765.0733,26.0
1607090765.0754,24.0
1607090765.0773,21.0
1607090765.0793,16.0
1607090765.0813,19.0
1607090765.0833,24.0
1607090765.0853,21.0
1607090765.0873,21.0
1607090765.0893,24.0
1607090765.0913,21.0
1607090765.0933,28.0
1607090765.0953,48.0
1607090765.0973,62.0
1607090765.0993,64.0
1607090765.1013,62.0
1607090765.102,52.0
1607090765.1033,36.0
1607090765.1053,26.0
1607090765.1073,26.0
1607090765.1093,31.0
1607090765.1113,33.0
1607090765.1133,33.0
1607090765.1153,33.0
1607090765.1173,36.0
1607090765.1193,26.0
1607090765.1213,21.0
1607090765.1233,84.0
1607090765.1253,307.0
1607090765.1273,642.0
1607090765.1293,834.0
1607090765.1313,545.0
1607090765.132,-31.0
1607090765.1333,-197.0
1607090765.1354,16.0
1607090765.1373,28.0
1607090765.1393,-76.0
1607090765.1413,-31.0
1607090765.1433,7.0
1607090765.1453,-28.0
1607090765.1473,-21.0
1607090765.1493,2.0
1607090765.1513,0.0
1607090765.1533,2.0
1607090765.1553,14.0
1607090765.5609,19.0
1607090765.5616,24.0
1607090765.5633,28.0
1607090765.566,31.0
1607090765.5677,36.0
1607090765.5696,43.0
1607090765.5716,45.0
1607090765.5736,48.0
1607090765.5756,57.0
1607090765.5776,60.0
1607090765.5796,62.0
1607090765.5816,64.0
1607090765.5836,74.0
1607090765.5856,81.0
1607090765.5876,93.0
1607090765.5896,110.0
1607090765.5916,127.0
1607090765.5936,139.0
1607090765.5943,146.0
1607090765.5956,158.0
1607090765.5976,173.0
1607090765.5996,177.0
1607090765.6016,180.0
1607090765.6036,177.0
1607090765.6057,156.0
1607090765.6076,117.0
1607090765.6097,76.0
1607090765.6116,40.0
1607090765.6137,14.0
1607090765.6157,-9.0
1607090765.6176,-28.0
1607090765.6196,-40.0
1607090765.6216,-48.0
1607090765.6236,-48.0
1607090765.6242,-45.0
1607090765.6256,-40.0
1607090765.6276,-43.0
1607090765.6296,-40.0
1607090765.6316,-36.0
1607090765.6337,-31.0
1607090765.6357,-26.0
1607090765.6376,-21.0
1607090765.6396,-14.0
1607090765.6416,-9.0
1607090765.6436,-7.0
1607090765.6456,-7.0
1607090765.6476,-2.0
1607090765.6496,2.0
1607090765.6516,4.0
1607090765.6536,2.0
1607090765.6542,7.0
1607090765.6556,7.0
1607090765.6576,7.0
1607090765.6596,9.0
1607090765.6618,7.0
1607090765.6637,2.0
1607090765.6657,4.0
1607090765.6676,7.0
1607090765.6696,4.0
1607090765.6716,4.0
1607090765.6736,4.0
1607090765.6756,7.0
1607090765.6776,9.0
1607090765.6796,12.0
1607090765.6816,9.0
1607090765.6836,9.0
1607090765.6843,16.0
1607090765.6856,19.0
1607090765.6876,16.0
1607090765.6896,16.0
1607090765.6916,16.0
1607090765.6936,14.0
1607090765.6956,14.0
1607090766.1311,12.0
1607090766.132,12.0
1607090766.1345,12.0
1607090766.1372,12.0
1607090766.1392,12.0
1607090766.1411,12.0
1607090766.1433,14.0
1607090766.144,9.0
1607090766.1451,2.0
1607090766.1471,0.0
1607090766.1491,-2.0
1607090766.1511,-4.0
1607090766.1531,-2.0
1607090766.1551,-2.0
1607090766.1571,-7.0
1607090766.159,-7.0
1607090766.1611,-4.0
1607090766.1631,0.0
1607090766.1651,0.0
1607090766.167,-2.0
1607090766.169,-2.0
1607090766.171,0.0
1607090766.173,0.0
1607090766.1737,-2.0
1607090766.1751,0.0
1607090766.177,0.0
1607090766.179,0.0
1607090766.181,2.0
1607090766.183,4.0
1607090766.1851,2.0
1607090766.187,2.0
1607090766.189,4.0
1607090766.1912,4.0
1607090766.1931,0.0
1607090766.1951,-2.0
1607090766.197,-4.0
1607090766.199,-7.0
1607090766.201,0.0
1607090766.203,19.0
1607090766.2036,31.0
1607090766.2051,31.0
1607090766.207,21.0
1607090766.209,7.0
1607090766.211,-2.0
1607090766.213,-2.0
1607090766.215,-7.0
1607090766.217,-12.0
1607090766.219,-12.0
1607090766.221,-7.0
1607090766.223,-2.0
1607090766.2251,-4.0
1607090766.227,-12.0
1607090766.229,-28.0
1607090766.231,0.0
1607090766.233,180.0
1607090766.2336,505.0
1607090766.2351,779.0
1607090766.237,673.0
1607090766.239,132.0
1607090766.241,-228.0
1607090766.243,-91.0
1607090766.2451,14.0
1607090766.247,-98.0
1607090766.249,-101.0
1607090766.251,-40.0
1607090766.253,-60.0
1607090766.2551,-72.0
1607090766.257,-45.0
1607090766.259,-40.0
1607090766.261,-40.0
1607090766.263,-33.0
1607090766.2636,-28.0
1607090766.265,-24.0
1607090766.6709,-16.0
1607090766.6714,-12.0
1607090766.6733,-14.0
1607090766.6752,-12.0
1607090766.6771,-7.0
1607090766.6791,-4.0
1607090766.6811,0.0
1607090766.6831,9.0
1607090766.6851,16.0
1607090766.6871,14.0
1607090766.6893,16.0
1607090766.6912,33.0
1607090766.6931,50.0
1607090766.6951,60.0
1607090766.6957,74.0
1607090766.6971,91.0
1607090766.6991,108.0
1607090766.7011,120.0
1607090766.7031,132.0
1607090766.7052,141.0
1607090766.7071,144.0
1607090766.7091,139.0
1607090766.7111,120.0
1607090766.7131,91.0
1607090766.7152,55.0
1607090766.7171,19.0
1607090766.7192,-9.0
1607090766.7212,-31.0
1607090766.7231,-50.0
1607090766.7252,-62.0
1607090766.7257,-64.0
1607090766.7271,-64.0
1607090766.7291,-62.0
1607090766.7311,-60.0
1607090766.7331,-55.0
1607090766.7352,-55.0
1607090766.7371,-52.0
1607090766.7391,-52.0
1607090766.7411,-48.0
1607090766.7431,-40.0
1607090766.7452,-36.0
1607090766.7472,-33.0
1607090766.7491,-28.0
1607090766.7511,-24.0
1607090766.7531,-16.0
1607090766.7551,-12.0
1607090766.7557,-7.0
1607090766.7571,-4.0
1607090766.7591,2.0
1607090766.7611,2.0
1607090766.7631,2.0
1607090766.7651,7.0
1607090766.7672,9.0
1607090766.7691,9.0
1607090766.7711,9.0
1607090766.7731,9.0
1607090766.7752,9.0
1607090766.7771,12.0
1607090766.7791,12.0
1607090766.7811,9.0
1607090766.7831,9.0
1607090766.7853,16.0
1607090766.7858,19.0
1607090766.7871,19.0
1607090766.7891,14.0
1607090766.7911,16.0
1607090766.7931,19.0
1607090766.7952,16.0
1607090766.7971,9.0
1607090766.7991,9.0
1607090766.8011,12.0
1607090766.8031,12.0
1607090766.8052,14.0
1607090767.2105,19.0
1607090767.211,16.0
1607090767.2121,14.0
1607090767.2142,14.0
1607090767.2161,16.0
1607090767.2181,14.0
1607090767.2201,7.0
1607090767.2221,2.0
1607090767.2241,4.0
1607090767.2261,7.0
1607090767.2281,9.0
1607090767.2301,12.0
1607090767.2321,12.0
1607090767.2329,9.0
1607090767.2352,14.0
1607090767.2371,16.0
1607090767.2391,19.0
1607090767.2411,16.0
1607090767.2431,19.0
1607090767.2452,19.0
1607090767.2472,19.0
1607090767.2492,21.0
1607090767.2512,19.0
1607090767.2531,16.0
1607090767.2552,19.0
1607090767.2571,16.0
1607090767.2591,16.0
1607090767.2611,14.0
1607090767.2631,9.0
1607090767.2637,9.0
1607090767.2652,9.0
1607090767.2671,12.0
1607090767.2691,12.0
1607090767.2711,9.0
1607090767.2731,9.0
1607090767.2751,14.0
1607090767.2771,14.0
1607090767.2791,12.0
1607090767.2811,14.0
1607090767.2833,16.0
1607090767.2852,14.0
1607090767.2871,14.0
1607090767.2891,14.0
1607090767.2911,16.0
1607090767.2931,19.0
1607090767.2937,19.0
1607090767.2952,19.0
1607090767.2971,19.0
1607090767.2991,21.0
1607090767.3011,19.0
1607090767.3031,19.0
1607090767.3051,14.0
1607090767.3071,12.0
1607090767.3091,14.0
1607090767.3111,21.0
