Time,ECG
1607090724.0728,4203
1607090724.0754,4811
1607090724.0778,5521
1607090724.0805,6004
1607090724.0825,6391
1607090724.0844,6812
1607090724.0865,7154
1607090724.0884,7442
1607090724.0904,7741
1607090724.0924,8003
1607090724.0944,8221
1607090724.0968,8445
1607090724.0993,8659
1607090724.1015,8842
1607090724.1036,9005
1607090724.1056,9152
1607090724.1074,9344
1607090724.1095,9681
1607090724.1114,10133
1607090724.1134,10487
1607090724.1154,10417
1607090724.1174,9982
1607090724.1194,9823
1607090724.1214,10085
1607090724.1234,10222
1607090724.1253,10191
1607090724.1273,10280
1607090724.1293,10388
1607090724.1313,10419
1607090724.1333,10470
1607090724.1354,10535
1607090724.1373,10578
1607090724.1393,10621
1607090724.1413,10660
1607090724.1433,10682
1607090724.1454,10708
1607090724.1473,10742
1607090724.1493,10766
1607090724.1513,10783
1607090724.1533,10780
1607090724.1554,10780
1607090724.1573,10780
1607090724.1594,10775
1607090724.1614,10778
1607090724.1634,10780
1607090724.1654,10766
1607090724.1673,10746
1607090724.1693,10744
1607090724.1713,10737
1607090724.1733,10718
1607090724.1756,10703
1607090724.1774,10691
1607090724.1793,10665
1607090724.1813,10633
1607090724.1833,10605
1607090724.1854,10576
1607090724.1873,10532
1607090724.1893,10465
1607090724.1913,10386
1607090724.1933,10309
1607090724.1954,10225
1607090724.1972,10133
1607090724.1993,10059
1607090724.2012,9991
1607090724.2033,9917
1607090724.2053,9847
1607090724.2073,9789
1607090724.2093,9734
1607090724.2114,9672
1607090724.2133,9604
1607090724.2153,9542
1607090724.2173,9489
1607090724.2193,9431
1607090724.6112,9359
1607090724.6123,9294
1607090724.6147,9239
1607090724.6173,9164
1607090724.6193,9090
1607090724.6213,9032
1607090724.6234,8969
1607090724.6253,8895
1607090724.6274,8823
1607090724.6294,8763
1607090724.6313,8705
1607090724.6333,8613
1607090724.6354,8517
1607090724.6373,8460
1607090724.6393,8395
1607090724.6414,8303
1607090724.6433,8233
1607090724.6453,8171
1607090724.6474,8099
1607090724.6493,8019
1607090724.6513,7947
1607090724.6533,7875
1607090724.6553,7803
1607090724.6573,7731
1607090724.6593,7661
1607090724.6613,7596
1607090724.6633,7524
1607090724.6653,7442
1607090724.6674,7373
1607090724.6693,7310
1607090724.6713,7243
1607090724.6733,7173
1607090724.6753,7091
1607090724.6773,7012
1607090724.6793,6947
1607090724.6812,6880
1607090724.6833,6815
1607090724.6853,6747
1607090724.6872,6673
1607090724.6892,6598
1607090724.6912,6536
1607090724.6933,6473
1607090724.6955,6401
1607090724.6977,6334
1607090724.6994,6276
1607090724.7012,6209
1607090724.7032,6139
1607090724.7053,6074
1607090724.7072,6014
1607090724.7092,5951
1607090724.7113,5882
1607090724.7132,5819
1607090724.7153,5761
1607090724.7172,5701
1607090724.7192,5636
1607090724.7212,5576
1607090724.7232,5518
1607090724.7253,5456
1607090724.7273,5396
1607090724.7293,5338
1607090724.7312,5280
1607090724.7332,5223
1607090724.7353,5160
1607090724.7372,5098
1607090724.7392,5040
1607090724.7413,4980
1607090724.7433,4920
1607090724.7453,4869
1607090724.7472,4814
1607090724.7492,4754
1607090724.7512,4696
1607090724.7532,4643
1607090724.7553,4593
1607090725.1812,4545
1607090725.1820,4504
1607090725.1844,4465
1607090725.1871,4422
1607090725.1890,4364
1607090725.1911,4302
1607090725.1933,4246
1607090725.1952,4196
1607090725.1971,4136
1607090725.1990,4076
1607090725.2010,4037
1607090725.2030,3994
1607090725.2050,3946
1607090725.2070,3898
1607090725.2090,3845
1607090725.2111,3789
1607090725.2130,3813
1607090725.2151,4001
1607090725.2170,4287
1607090725.2190,4410
1607090725.2210,4064
1607090725.2230,3486
1607090725.2250,3323
1607090725.2270,3472
1607090725.2291,3414
1607090725.2310,3277
1607090725.2330,3284
1607090725.2351,3272
1607090725.2370,3205
1607090725.2390,3176
1607090725.2410,3162
1607090725.2430,3121
1607090725.2451,3085
1607090725.2470,3061
1607090725.2490,3030
1607090725.2510,2996
1607090725.2530,2967
1607090725.2551,2938
1607090725.2572,2907
1607090725.2590,2878
1607090725.2611,2849
1607090725.2630,2825
1607090725.2650,2801
1607090725.2670,2770
1607090725.2690,2741
1607090725.2710,2722
1607090725.2730,2702
1607090725.2751,2683
1607090725.2771,2664
1607090725.2790,2647
1607090725.2810,2630
1607090725.2830,2616
1607090725.2851,2601
1607090725.2870,2585
1607090725.2890,2565
1607090725.2910,2534
1607090725.2930,2498
1607090725.2953,2455
1607090725.2970,2399
1607090725.2990,2332
1607090725.3010,2270
1607090725.3030,2214
1607090725.3051,2164
1607090725.3070,2123
1607090725.3090,2087
1607090725.3111,2058
1607090725.3131,2032
1607090725.3151,2003
1607090725.3170,1981
1607090725.3190,1964
1607090725.3210,1943
1607090725.3230,1919
1607090725.3250,1899
1607090725.7204,1882
1607090725.7211,1863
1607090725.7235,1846
1607090725.7262,1830
1607090725.7283,1813
1607090725.7302,1793
1607090725.7322,1769
1607090725.7342,1750
1607090725.7362,1733
1607090725.7382,1709
1607090725.7402,1680
1607090725.7422,1666
1607090725.7443,1649
1607090725.7462,1628
1607090725.7482,1606
1607090725.7501,1589
1607090725.7522,1575
1607090725.7541,1558
1607090725.7562,1534
1607090725.7581,1512
1607090725.7602,1498
1607090725.7622,1481
1607090725.7641,1462
1607090725.7662,1447
1607090725.7681,1433
1607090725.7701,1416
1607090725.7721,1404
1607090725.7741,1392
1607090725.7762,1377
1607090725.7782,1361
1607090725.7801,1346
1607090725.7821,1334
1607090725.7841,1320
1607090725.7862,1305
1607090725.7881,1291
1607090725.7903,1276
1607090725.7922,1262
1607090725.7942,1250
1607090725.7962,1236
1607090725.7982,1221
1607090725.8001,1207
1607090725.8021,1192
1607090725.8042,1180
1607090725.8062,1168
1607090725.8081,1156
1607090725.8102,1142
1607090725.8122,1127
1607090725.8141,1113
1607090725.8162,1101
1607090725.8181,1089
1607090725.8201,1079
1607090725.8221,1070
1607090725.8241,1058
1607090725.8263,1046
1607090725.8282,1036
1607090725.8301,1024
1607090725.8321,1012
1607090725.8341,1005
1607090725.8362,995
1607090725.8382,983
1607090725.8401,969
1607090725.8421,957
1607090725.8442,947
1607090725.8461,935
1607090725.8481,921
1607090725.8501,909
1607090725.8521,899
1607090725.8541,887
1607090725.8561,884
1607090725.8581,894
1607090725.8602,899
1607090725.8622,889
1607090725.8642,872
1607090726.2916,851
1607090726.2925,832
1607090726.2950,817
1607090726.2976,808
1607090726.2995,803
1607090726.3016,793
1607090726.3037,776
1607090726.3056,764
1607090726.3075,757
1607090726.3096,735
1607090726.3116,728
1607090726.3135,844
1607090726.3155,1127
1607090726.3177,1435
1607090726.3195,1435
1607090726.3215,954
1607090726.3235,492
1607090726.3256,560
1607090726.3276,716
1607090726.3295,620
1607090726.3315,581
1607090726.3335,642
1607090726.3355,625
1607090726.3375,593
1607090726.3395,615
1607090726.3415,620
1607090726.3435,606
1607090726.3455,608
1607090726.3475,613
1607090726.3495,608
1607090726.3515,603
1607090726.3535,606
1607090726.3555,608
1607090726.3575,608
1607090726.3596,608
1607090726.3616,608
1607090726.3635,608
1607090726.3655,603
1607090726.3675,606
1607090726.3695,610
1607090726.3715,613
1607090726.3735,615
1607090726.3755,625
1607090726.3777,634
1607090726.3795,644
1607090726.3815,654
1607090726.3835,666
1607090726.3855,675
1607090726.3875,680
1607090726.3895,680
1607090726.3915,678
1607090726.3935,661
1607090726.3956,630
1607090726.3975,586
1607090726.3995,541
1607090726.4015,505
1607090726.4035,473
1607090726.4055,449
1607090726.4075,430
1607090726.4095,420
1607090726.4116,413
1607090726.4135,408
1607090726.4155,406
1607090726.4175,406
1607090726.4196,404
1607090726.4215,401
1607090726.4235,401
1607090726.4255,404
1607090726.4276,401
1607090726.4295,401
1607090726.4315,401
1607090726.4335,401
1607090726.4355,401
1607090726.8310,399
1607090726.8320,399
1607090726.8344,394
1607090726.8370,384
1607090726.8390,384
1607090726.8410,384
1607090726.8430,382
1607090726.8451,372
1607090726.8470,363
1607090726.8490,360
1607090726.8510,360
1607090726.8529,355
1607090726.8550,353
1607090726.8570,355
1607090726.8590,353
1607090726.8610,351
1607090726.8630,348
1607090726.8651,348
1607090726.8670,346
1607090726.8689,343
1607090726.8709,341
1607090726.8729,339
1607090726.8750,339
1607090726.8770,339
1607090726.8790,339
1607090726.8809,336
1607090726.8829,336
1607090726.8850,334
1607090726.8869,329
1607090726.8890,327
1607090726.8910,329
1607090726.8929,327
1607090726.8951,324
1607090726.8969,324
1607090726.8989,322
1607090726.9009,319
1607090726.9029,319
1607090726.9050,319
1607090726.9069,317
1607090726.9090,315
1607090726.9110,312
1607090726.9129,310
1607090726.9152,310
1607090726.9170,310
1607090726.9189,310
1607090726.9210,307
1607090726.9229,305
1607090726.9250,303
1607090726.9270,300
1607090726.9290,300
1607090726.9309,298
1607090726.9330,295
1607090726.9350,295
1607090726.9369,290
1607090726.9389,288
1607090726.9410,288
1607090726.9429,288
1607090726.9451,286
1607090726.9469,283
1607090726.9490,276
1607090726.9509,274
1607090726.9529,276
1607090726.9550,276
1607090726.9569,271
1607090726.9589,269
1607090726.9610,266
1607090726.9629,259
1607090726.9650,252
1607090726.9669,247
1607090726.9689,254
1607090726.9709,271
1607090726.9729,283
1607090726.9750,283
1607090727.4611,276
1607090727.4623,262
1607090727.4647,245
1607090727.4673,238
1607090727.4693,235
1607090727.4713,226
1607090727.4734,221
1607090727.4753,226
1607090727.4773,223
1607090727.4793,221
1607090727.4813,211
1607090727.4832,199
1607090727.4852,262
1607090727.4872,490
1607090727.4892,820
1607090727.4913,997
1607090727.4932,721
1607090727.4953,177
1607090727.4972,16
1607090727.4992,202
1607090727.5014,199
1607090727.5033,105
1607090727.5052,151
1607090727.5072,177
1607090727.5092,146
1607090727.5113,153
1607090727.5132,175
1607090727.5153,170
1607090727.5172,173
1607090727.5192,185
1607090727.5212,187
1607090727.5232,189
1607090727.5253,194
1607090727.5273,199
1607090727.5292,204
1607090727.5312,209
1607090727.5332,214
1607090727.5353,218
1607090727.5372,228
1607090727.5392,228
1607090727.5413,233
1607090727.5432,242
1607090727.5453,252
1607090727.5472,262
1607090727.5492,274
1607090727.5512,286
1607090727.5532,298
1607090727.5552,312
1607090727.5572,324
1607090727.5592,334
1607090727.5613,341
1607090727.5632,341
1607090727.5653,336
1607090727.5672,319
1607090727.5692,286
1607090727.5712,245
1607090727.5732,206
1607090727.5753,177
1607090727.5773,156
1607090727.5792,137
1607090727.5812,120
1607090727.5832,115
1607090727.5852,113
1607090727.5872,110
1607090727.5892,113
1607090727.5912,117
1607090727.5933,120
1607090727.5952,120
1607090727.5972,122
1607090727.5992,127
1607090727.6012,129
1607090727.6034,134
1607090727.6053,141
1607090727.9710,144
1607090727.9719,144
1607090727.9745,144
1607090727.9770,149
1607090727.9791,153
1607090727.9810,156
1607090727.9832,156
1607090727.9850,156
1607090727.9869,156
1607090727.9890,153
1607090727.9909,153
1607090727.9929,153
1607090727.9951,151
1607090727.9969,149
1607090727.9990,139
1607090728.0009,137
1607090728.0029,144
1607090728.0050,141
1607090728.0069,139
1607090728.0089,141
1607090728.0110,141
1607090728.0129,144
1607090728.0150,144
1607090728.0169,146
1607090728.0189,149
1607090728.0209,149
1607090728.0229,146
1607090728.0249,146
1607090728.0270,151
1607090728.0289,151
1607090728.0309,151
1607090728.0329,153
1607090728.0350,153
1607090728.0369,151
1607090728.0389,153
1607090728.0409,156
1607090728.0429,153
1607090728.0451,151
1607090728.0469,153
1607090728.0489,156
1607090728.0509,153
1607090728.0529,153
1607090728.0549,151
1607090728.0569,151
1607090728.0589,151
1607090728.0610,151
1607090728.0630,151
1607090728.0650,153
1607090728.0669,151
1607090728.0691,149
1607090728.0709,149
1607090728.0729,151
1607090728.0749,146
1607090728.0770,141
1607090728.0790,144
1607090728.0810,146
1607090728.0829,141
1607090728.0850,141
1607090728.0869,146
1607090728.0889,146
1607090728.0909,144
1607090728.0930,141
1607090728.0951,141
1607090728.0969,141
1607090728.0989,139
1607090728.1009,139
1607090728.1029,141
1607090728.1050,141
1607090728.1069,139
1607090728.1089,139
1607090728.1110,141
1607090728.1129,141
1607090728.1150,144
1607090728.5414,141
1607090728.5423,137
1607090728.5448,134
1607090728.5474,132
1607090728.5494,132
1607090728.5514,132
1607090728.5534,132
1607090728.5554,134
1607090728.5573,146
1607090728.5593,153
1607090728.5614,149
1607090728.5633,134
1607090728.5654,120
1607090728.5673,113
1607090728.5694,110
1607090728.5713,110
1607090728.5733,113
1607090728.5752,113
1607090728.5773,110
1607090728.5793,113
1607090728.5813,110
1607090728.5832,93
1607090728.5853,117
1607090728.5872,283
1607090728.5892,593
1607090728.5899,865
1607090728.5914,762
1607090728.5935,242
1607090728.5953,-96
1607090728.5972,38
1607090728.5992,134
1607090728.6013,26
1607090728.6032,26
1607090728.6053,79
1607090728.6073,52
1607090728.6093,45
1607090728.6113,74
1607090728.6133,74
1607090728.6153,69
1607090728.6172,84
1607090728.6192,93
1607090728.6200,93
1607090728.6212,98
1607090728.6232,105
1607090728.6253,108
1607090728.6273,108
1607090728.6293,108
1607090728.6312,117
1607090728.6333,122
1607090728.6353,125
1607090728.6373,134
1607090728.6392,144
1607090728.6413,153
1607090728.6433,163
1607090728.6453,175
1607090728.6472,187
1607090728.6492,204
1607090728.6499,221
1607090728.6512,233
1607090728.6532,245
1607090728.6553,257
1607090728.6572,262
1607090728.6592,257
1607090728.6614,245
1607090728.6632,221
1607090728.6653,185
1607090728.6672,144
1607090728.6692,108
1607090728.6712,84
1607090728.6733,64
1607090728.6753,50
1607090728.6773,45
1607090728.6793,43
1607090729.0809,40
1607090729.0816,40
1607090729.0840,45
1607090729.0867,48
1607090729.0886,48
1607090729.0909,52
1607090729.0929,57
1607090729.0947,60
1607090729.0966,57
1607090729.0986,55
1607090729.1006,62
1607090729.1026,67
1607090729.1046,67
1607090729.1053,72
1607090729.1066,76
1607090729.1086,76
1607090729.1107,79
1607090729.1126,84
1607090729.1146,86
1607090729.1166,86
1607090729.1186,86
1607090729.1206,86
1607090729.1226,88
1607090729.1247,91
1607090729.1267,88
1607090729.1287,88
1607090729.1306,91
1607090729.1326,91
1607090729.1346,91
1607090729.1353,93
1607090729.1366,96
1607090729.1386,96
1607090729.1406,96
1607090729.1426,98
1607090729.1447,101
1607090729.1466,101
1607090729.1486,98
1607090729.1506,101
1607090729.1526,98
1607090729.1546,93
1607090729.1566,96
1607090729.1586,101
1607090729.1607,98
1607090729.1626,101
1607090729.1646,103
1607090729.1653,103
1607090729.1666,103
1607090729.1687,103
1607090729.1706,101
1607090729.1726,103
1607090729.1748,108
1607090729.1766,108
1607090729.1787,110
1607090729.1806,113
1607090729.1826,108
1607090729.1846,105
1607090729.1868,105
1607090729.1887,105
1607090729.1906,103
1607090729.1926,108
1607090729.1947,110
1607090729.1953,108
1607090729.1966,103
1607090729.1986,103
1607090729.2006,105
1607090729.2026,105
1607090729.2046,105
1607090729.2066,103
1607090729.2086,105
1607090729.2107,105
1607090729.2126,105
1607090729.2146,105
1607090729.2166,108
1607090729.6813,108
1607090729.6823,103
1607090729.6847,108
1607090729.6874,113
1607090729.6880,113
1607090729.6903,105
1607090729.6923,101
1607090729.6944,101
1607090729.6964,103
1607090729.6983,103
1607090729.7003,103
1607090729.7023,101
1607090729.7043,93
1607090729.7063,88
1607090729.7083,88
1607090729.7103,98
1607090729.7123,113
1607090729.7143,122
1607090729.7163,125
1607090729.7183,120
1607090729.7189,108
1607090729.7203,96
1607090729.7222,96
1607090729.7242,96
1607090729.7263,93
1607090729.7284,93
1607090729.7303,96
1607090729.7323,101
1607090729.7343,101
1607090729.7362,88
1607090729.7383,81
1607090729.7402,163
1607090729.7423,411
1607090729.7443,745
1607090729.7464,868
1607090729.7483,480
1607090729.7489,-64
1607090729.7502,-108
1607090729.7522,110
1607090729.7543,69
1607090729.7563,-12
1607090729.7583,48
1607090729.7603,69
1607090729.7623,43
1607090729.7643,57
1607090729.7663,74
1607090729.7682,67
1607090729.7702,67
1607090729.7723,72
1607090729.7742,76
1607090729.7763,84
1607090729.7784,91
1607090729.7790,93
1607090729.7803,96
1607090729.7823,103
1607090729.7842,110
1607090729.7863,115
1607090729.7882,120
1607090729.7902,127
1607090729.7923,134
1607090729.7943,141
1607090729.7963,151
1607090729.7982,165
1607090729.8002,180
1607090729.8023,189
1607090729.8042,206
1607090729.8063,226
1607090729.8083,238
1607090729.8089,250
1607090729.8103,259
1607090729.8123,262
1607090729.8143,252
1607090729.8163,230
1607090730.1909,197
1607090730.1917,153
1607090730.1941,115
1607090730.1967,81
1607090730.1988,55
1607090730.2008,33
1607090730.2027,21
1607090730.2047,14
1607090730.2067,12
1607090730.2087,16
1607090730.2107,9
1607090730.2128,0
1607090730.2149,7
1607090730.2167,16
1607090730.2187,16
1607090730.2207,21
1607090730.2227,28
1607090730.2247,33
1607090730.2267,38
1607090730.2287,43
1607090730.2306,45
1607090730.2326,52
1607090730.2347,55
1607090730.2366,52
1607090730.2387,52
1607090730.2407,52
1607090730.2427,52
1607090730.2448,55
1607090730.2466,57
1607090730.2486,57
1607090730.2507,57
1607090730.2526,57
1607090730.2546,62
1607090730.2566,64
1607090730.2586,62
1607090730.2607,62
1607090730.2627,64
1607090730.2647,67
1607090730.2667,67
1607090730.2686,64
1607090730.2706,62
1607090730.2726,67
1607090730.2747,72
1607090730.2767,74
1607090730.2787,74
1607090730.2806,74
1607090730.2826,72
1607090730.2847,74
1607090730.2867,76
1607090730.2886,74
1607090730.2906,74
1607090730.2927,79
1607090730.2948,79
1607090730.2967,79
1607090730.2987,79
1607090730.3006,81
1607090730.3026,81
1607090730.3047,79
1607090730.3066,76
1607090730.3087,79
1607090730.3107,81
1607090730.3127,81
1607090730.3147,79
1607090730.3168,81
1607090730.3187,81
1607090730.3206,81
1607090730.3227,84
1607090730.3247,84
1607090730.3267,84
1607090730.3287,84
1607090730.3306,81
1607090730.3326,79
1607090730.3348,81
1607090730.8208,81
1607090730.8217,81
1607090730.8241,84
1607090730.8269,79
1607090730.8288,72
1607090730.8308,69
1607090730.8329,72
1607090730.8349,72
1607090730.8368,69
1607090730.8388,69
1607090730.8408,69
1607090730.8429,69
1607090730.8448,67
1607090730.8468,72
1607090730.8487,72
1607090730.8507,67
1607090730.8527,60
1607090730.8548,60
1607090730.8567,72
1607090730.8587,88
1607090730.8608,98
1607090730.8628,98
1607090730.8648,91
1607090730.8667,81
1607090730.8687,72
1607090730.8707,69
1607090730.8727,72
1607090730.8748,69
1607090730.8767,69
1607090730.8788,69
1607090730.8807,69
1607090730.8827,67
1607090730.8848,55
1607090730.8867,50
1607090730.8887,153
1607090730.8907,423
1607090730.8927,750
1607090730.8948,851
1607090730.8967,466
1607090730.8987,-60
1607090730.9007,-101
1607090730.9028,91
1607090730.9048,36
1607090730.9067,-36
1607090730.9087,24
1607090730.9108,36
1607090730.9127,9
1607090730.9147,28
1607090730.9167,40
1607090730.9187,38
1607090730.9207,43
1607090730.9228,52
1607090730.9248,52
1607090730.9267,60
1607090730.9288,64
1607090730.9307,67
1607090730.9327,72
1607090730.9347,79
1607090730.9367,81
1607090730.9387,86
1607090730.9407,96
1607090730.9427,101
1607090730.9448,101
1607090730.9467,108
1607090730.9487,122
1607090730.9507,134
1607090730.9527,144
1607090730.9547,161
1607090730.9567,175
1607090730.9587,189
1607090730.9608,204
1607090730.9627,214
1607090730.9647,223
1607090731.3611,226
1607090731.3622,218
1607090731.3647,199
1607090731.3672,165
1607090731.3692,125
1607090731.3712,88
1607090731.3733,60
1607090731.3752,36
1607090731.3773,16
1607090731.3793,4
1607090731.3812,0
1607090731.3832,-2
1607090731.3853,-4
1607090731.3872,-12
1607090731.3892,-14
1607090731.3912,-7
1607090731.3932,-2
1607090731.3953,2
1607090731.3972,7
1607090731.3993,12
1607090731.4012,14
1607090731.4032,16
1607090731.4052,24
1607090731.4071,31
1607090731.4092,33
1607090731.4112,36
1607090731.4131,40
1607090731.4151,45
1607090731.4171,45
1607090731.4191,45
1607090731.4211,50
1607090731.4231,55
1607090731.4251,52
1607090731.4272,52
1607090731.4292,57
1607090731.4311,57
1607090731.4331,55
1607090731.4352,55
1607090731.4371,55
1607090731.4391,55
1607090731.4411,57
1607090731.4431,57
1607090731.4452,60
1607090731.4471,60
1607090731.4491,60
1607090731.4511,64
1607090731.4531,67
1607090731.4552,64
1607090731.4571,64
1607090731.4591,72
1607090731.4612,72
1607090731.4631,69
1607090731.4652,72
1607090731.4671,72
1607090731.4691,72
1607090731.4711,72
1607090731.4731,69
1607090731.4751,69
1607090731.4772,69
1607090731.4792,69
1607090731.4811,67
1607090731.4831,67
1607090731.4852,67
1607090731.4871,69
1607090731.4891,72
1607090731.4911,72
1607090731.4932,72
1607090731.4952,72
1607090731.4971,74
1607090731.4991,74
1607090731.5013,76
1607090731.5032,76
1607090731.5052,74
1607090731.9012,76
1607090731.9021,72
1607090731.9045,67
1607090731.9062,64
1607090731.9083,69
1607090731.9102,69
1607090731.9122,67
1607090731.9142,67
1607090731.9161,64
1607090731.9181,62
1607090731.9201,52
1607090731.9221,48
1607090731.9241,45
1607090731.9262,48
1607090731.9282,50
1607090731.9301,48
1607090731.9321,50
1607090731.9341,55
1607090731.9361,52
1607090731.9381,52
1607090731.9402,55
1607090731.9421,57
1607090731.9442,57
1607090731.9461,60
1607090731.9481,57
1607090731.9501,55
1607090731.9521,57
1607090731.9541,62
1607090731.9561,72
1607090731.9582,86
1607090731.9601,96
1607090731.9622,96
1607090731.9641,86
1607090731.9661,74
1607090731.9681,67
1607090731.9701,67
1607090731.9721,67
1607090731.9741,64
1607090731.9761,64
1607090731.9782,69
1607090731.9801,72
1607090731.9821,64
1607090731.9841,50
1607090731.9861,50
1607090731.9881,168
1607090731.9901,449
1607090731.9921,759
1607090731.9942,808
1607090731.9963,382
1607090731.9981,-88
1607090732.0001,-74
1607090732.0021,86
1607090732.0041,9
1607090732.0061,-43
1607090732.0081,19
1607090732.0102,19
1607090732.0121,-2
1607090732.0141,19
1607090732.0161,31
1607090732.0181,26
1607090732.0201,33
1607090732.0221,40
1607090732.0241,40
1607090732.0261,43
1607090732.0282,50
1607090732.0301,55
1607090732.0321,62
1607090732.0341,64
1607090732.0361,60
1607090732.0381,67
1607090732.0401,79
1607090732.0421,84
1607090732.0442,88
1607090732.4709,98
1607090732.4716,108
1607090732.4740,117
1607090732.4767,125
1607090732.4787,139
1607090732.4807,153
1607090732.4828,168
1607090732.4847,175
1607090732.4867,177
1607090732.4887,185
1607090732.4907,192
1607090732.4927,185
1607090732.4948,168
1607090732.4967,139
1607090732.4986,101
1607090732.5006,62
1607090732.5026,33
1607090732.5046,12
1607090732.5066,-4
1607090732.5086,-14
1607090732.5107,-19
1607090732.5127,-19
1607090732.5146,-19
1607090732.5166,-16
1607090732.5186,-16
1607090732.5206,-9
1607090732.5228,-7
1607090732.5247,-4
1607090732.5267,0
1607090732.5287,7
1607090732.5306,9
1607090732.5326,12
1607090732.5346,16
1607090732.5366,21
1607090732.5386,28
1607090732.5406,28
1607090732.5427,26
1607090732.5449,31
1607090732.5466,38
1607090732.5486,38
1607090732.5506,40
1607090732.5526,43
1607090732.5546,43
1607090732.5566,43
1607090732.5586,45
1607090732.5607,48
1607090732.5626,50
1607090732.5646,48
1607090732.5666,50
1607090732.5686,52
1607090732.5706,52
1607090732.5726,52
1607090732.5746,57
1607090732.5767,55
1607090732.5787,52
1607090732.5806,60
1607090732.5826,62
1607090732.5846,62
1607090732.5866,62
1607090732.5886,62
1607090732.5907,60
1607090732.5927,55
1607090732.5947,57
1607090732.5966,62
1607090732.5986,62
1607090732.6006,62
1607090732.6026,60
1607090732.6046,57
1607090732.6066,55
1607090732.6086,57
1607090732.6107,57
1607090732.6126,60
1607090732.6146,60
1607090733.0113,60
1607090733.0123,60
1607090733.0134,62
1607090733.0154,64
1607090733.0176,62
1607090733.0194,62
1607090733.0214,64
1607090733.0235,69
1607090733.0253,62
1607090733.0274,52
1607090733.0294,55
1607090733.0313,60
1607090733.0333,57
1607090733.0354,57
1607090733.0373,64
1607090733.0393,64
1607090733.0413,64
1607090733.0434,64
1607090733.0454,64
1607090733.0473,62
1607090733.0493,57
1607090733.0513,57
1607090733.0533,57
1607090733.0554,57
1607090733.0573,57
1607090733.0594,57
1607090733.0614,57
1607090733.0633,57
1607090733.0654,57
1607090733.0673,60
1607090733.0693,60
1607090733.0713,60
1607090733.0733,57
1607090733.0753,60
1607090733.0774,60
1607090733.0793,55
1607090733.0813,50
1607090733.0833,55
1607090733.0853,62
1607090733.0873,72
1607090733.0893,88
1607090733.0913,96
1607090733.0933,93
1607090733.0954,84
1607090733.0973,69
1607090733.0993,64
1607090733.1013,64
1607090733.1033,64
1607090733.1053,64
1607090733.1073,67
1607090733.1094,72
1607090733.1114,69
1607090733.1133,60
1607090733.1153,43
1607090733.1173,79
1607090733.1195,269
1607090733.1213,591
1607090733.1233,834
1607090733.1253,658
1607090733.1274,96
1607090733.1293,-185
1607090733.1313,4
1607090733.1333,74
1607090733.1353,-40
1607090733.1373,-19
1607090733.1393,33
1607090733.1414,4
1607090733.1434,2
1607090733.1455,31
1607090733.1473,31
1607090733.1493,28
1607090733.1513,38
1607090733.1533,45
1607090733.5511,50
1607090733.5520,52
1607090733.5545,52
1607090733.5571,57
1607090733.5591,62
1607090733.5612,62
1607090733.5632,60
1607090733.5651,62
1607090733.5670,74
1607090733.5690,84
1607090733.5710,88
1607090733.5730,98
1607090733.5751,110
1607090733.5771,125
1607090733.5791,141
1607090733.5810,156
1607090733.5830,170
1607090733.5851,180
1607090733.5870,192
1607090733.5890,206
1607090733.5910,218
1607090733.5930,214
1607090733.5952,202
1607090733.5970,177
1607090733.5990,141
1607090733.6010,101
1607090733.6030,64
1607090733.6050,38
1607090733.6070,16
1607090733.6090,-2
1607090733.6111,-12
1607090733.6130,-12
1607090733.6150,-12
1607090733.6172,-14
1607090733.6190,-14
1607090733.6210,-7
1607090733.6230,-2
1607090733.6250,-2
1607090733.6271,4
1607090733.6290,9
1607090733.6310,12
1607090733.6330,14
1607090733.6350,21
1607090733.6370,26
1607090733.6390,28
1607090733.6410,26
1607090733.6430,26
1607090733.6451,33
1607090733.6470,36
1607090733.6490,33
1607090733.6510,36
1607090733.6529,40
1607090733.6550,40
1607090733.6570,40
1607090733.6590,43
1607090733.6611,48
1607090733.6630,45
1607090733.6650,43
1607090733.6670,43
1607090733.6690,43
1607090733.6710,45
1607090733.6730,48
1607090733.6749,50
1607090733.6771,48
1607090733.6790,48
1607090733.6810,52
1607090733.6830,55
1607090733.6850,55
1607090733.6870,52
1607090733.6891,52
1607090733.6910,57
1607090733.6930,60
1607090733.6952,57
1607090734.1512,57
1607090734.1521,57
1607090734.1546,55
1607090734.1572,43
1607090734.1593,38
1607090734.1613,48
1607090734.1634,50
1607090734.1653,43
1607090734.1672,40
1607090734.1692,43
1607090734.1712,40
1607090734.1734,38
1607090734.1752,40
1607090734.1772,48
1607090734.1792,50
1607090734.1812,48
1607090734.1832,50
1607090734.1852,50
1607090734.1872,48
1607090734.1891,48
1607090734.1911,45
1607090734.1932,48
1607090734.1953,52
1607090734.1971,52
1607090734.1991,52
1607090734.2011,52
1607090734.2031,48
1607090734.2052,48
1607090734.2071,48
1607090734.2091,45
1607090734.2112,45
1607090734.2132,48
1607090734.2152,48
1607090734.2171,45
1607090734.2191,45
1607090734.2211,45
1607090734.2231,45
1607090734.2251,43
1607090734.2272,33
1607090734.2291,28
1607090734.2311,36
1607090734.2332,52
1607090734.2352,67
1607090734.2371,69
1607090734.2391,64
1607090734.2411,57
1607090734.2432,45
1607090734.2453,40
1607090734.2471,43
1607090734.2491,43
1607090734.2511,43
1607090734.2531,40
1607090734.2552,40
1607090734.2571,43
1607090734.2591,36
1607090734.2612,24
1607090734.2631,84
1607090734.2652,310
1607090734.2671,651
1607090734.2691,853
1607090734.2711,581
1607090734.2731,-2
1607090734.2753,-189
1607090734.2772,21
1607090734.2791,40
1607090734.2811,-64
1607090734.2831,-21
1607090734.2851,14
1607090734.2871,-19
1607090734.2891,-9
1607090734.2911,16
1607090734.2932,12
1607090734.2953,9
1607090734.7207,19
1607090734.7217,24
1607090734.7241,26
1607090734.7258,31
1607090734.7278,36
1607090734.7298,40
1607090734.7317,48
1607090734.7337,50
1607090734.7359,43
1607090734.7377,45
1607090734.7397,60
1607090734.7417,67
1607090734.7437,72
1607090734.7458,84
1607090734.7477,96
1607090734.7497,108
1607090734.7517,122
1607090734.7537,139
1607090734.7557,156
1607090734.7577,170
1607090734.7597,182
1607090734.7618,189
1607090734.7637,194
1607090734.7656,192
1607090734.7677,180
1607090734.7697,153
1607090734.7716,113
1607090734.7737,69
1607090734.7757,38
1607090734.7777,9
1607090734.7797,-14
1607090734.7817,-31
1607090734.7837,-38
1607090734.7857,-38
1607090734.7876,-36
1607090734.7896,-36
1607090734.7916,-36
1607090734.7937,-33
1607090734.7957,-28
1607090734.7976,-24
1607090734.7998,-16
1607090734.8017,-12
1607090734.8036,-9
1607090734.8056,-7
1607090734.8076,-2
1607090734.8096,4
1607090734.8117,9
1607090734.8136,12
1607090734.8157,14
1607090734.8176,19
1607090734.8196,16
1607090734.8217,16
1607090734.8236,21
1607090734.8256,28
1607090734.8277,28
1607090734.8297,26
1607090734.8316,28
1607090734.8337,33
1607090734.8358,31
1607090734.8376,28
1607090734.8396,31
1607090734.8416,33
1607090734.8438,33
1607090734.8457,33
1607090734.8476,33
1607090734.8496,33
1607090734.8516,36
1607090734.8536,36
1607090734.8543,36
1607090734.8557,38
1607090734.8576,40
1607090734.8596,40
1607090734.8617,43
1607090735.2610,45
1607090735.2619,43
1607090735.2643,43
1607090735.2660,48
1607090735.2680,50
1607090735.2700,45
1607090735.2720,40
1607090735.2740,43
1607090735.2760,43
1607090735.2767,36
1607090735.2780,31
1607090735.2800,36
1607090735.2820,40
1607090735.2840,33
1607090735.2859,36
1607090735.2879,40
1607090735.2899,40
1607090735.2919,38
1607090735.2941,40
1607090735.2960,43
1607090735.2979,40
1607090735.2999,40
1607090735.3019,38
1607090735.3039,33
1607090735.3060,33
1607090735.3065,40
1607090735.3079,40
1607090735.3099,38
1607090735.3120,36
1607090735.3139,36
1607090735.3160,40
1607090735.3179,36
1607090735.3199,33
1607090735.3219,36
1607090735.3239,40
1607090735.3259,38
1607090735.3279,36
1607090735.3299,38
1607090735.3319,40
1607090735.3339,40
1607090735.3359,38
1607090735.3365,40
1607090735.3379,43
1607090735.3399,43
1607090735.3419,43
1607090735.3439,43
1607090735.3459,45
1607090735.3479,45
1607090735.3499,43
1607090735.3519,43
1607090735.3539,45
1607090735.3559,45
1607090735.3579,43
1607090735.3599,40
1607090735.3619,38
1607090735.3639,38
1607090735.3659,55
1607090735.3666,72
1607090735.3679,76
1607090735.3699,74
1607090735.3719,64
1607090735.3739,50
1607090735.3759,45
1607090735.3780,45
1607090735.3799,45
1607090735.3819,50
1607090735.3839,50
1607090735.3859,48
1607090735.3879,48
1607090735.3900,43
1607090735.3920,31
1607090735.3940,60
1607090735.3959,238
1607090735.8605,550
1607090735.8614,810
1607090735.8639,694
1607090735.8666,177
1607090735.8685,-149
1607090735.8706,-19
1607090735.8726,52
1607090735.8745,-57
1607090735.8765,-50
1607090735.8786,0
1607090735.8805,-26
1607090735.8825,-31
1607090735.8845,-2
1607090735.8864,-2
1607090735.8885,-9
1607090735.8968,-2
1607090735.8985,2
1607090735.9005,7
1607090735.9024,14
1607090735.9045,16
1607090735.9065,21
1607090735.9085,31
1607090735.9105,38
1607090735.9125,45
1607090735.9145,48
1607090735.9164,52
1607090735.9184,62
1607090735.9204,69
1607090735.9224,79
1607090735.9244,88
1607090735.9251,96
1607090735.9264,110
1607090735.9285,129
1607090735.9304,141
1607090735.9324,153
1607090735.9344,170
1607090735.9364,180
1607090735.9384,185
1607090735.9404,187
1607090735.9424,180
1607090735.9445,158
1607090735.9464,127
1607090735.9484,93
1607090735.9504,55
1607090735.9524,26
1607090735.9544,4
1607090735.9550,-14
1607090735.9566,-21
1607090735.9584,-24
1607090735.9605,-26
1607090735.9624,-28
1607090735.9644,-24
1607090735.9664,-21
1607090735.9684,-19
1607090735.9704,-16
1607090735.9724,-12
1607090735.9744,-7
1607090735.9765,0
1607090735.9785,4
1607090735.9804,4
1607090735.9824,7
1607090735.9844,9
1607090735.9851,12
1607090735.9864,16
1607090735.9884,19
1607090735.9904,21
1607090735.9925,21
1607090735.9945,26
1607090735.9965,28
1607090735.9984,26
1607090736.0004,28
1607090736.0025,31
1607090736.0045,28
1607090736.3711,31
1607090736.3720,36
1607090736.3744,33
1607090736.3756,33
1607090736.3770,33
1607090736.3792,33
1607090736.3811,36
1607090736.3831,33
1607090736.3851,28
1607090736.3870,28
1607090736.3890,33
1607090736.3910,31
1607090736.3931,24
1607090736.3951,24
1607090736.3970,31
1607090736.3990,31
1607090736.4010,26
1607090736.4030,26
1607090736.4050,31
1607090736.4056,33
1607090736.4070,31
1607090736.4090,31
1607090736.4111,33
1607090736.4130,36
1607090736.4150,38
1607090736.4172,40
1607090736.4190,40
1607090736.4210,40
1607090736.4230,43
1607090736.4250,43
1607090736.4270,43
1607090736.4289,43
1607090736.4310,43
1607090736.4329,43
1607090736.4350,43
1607090736.4356,45
1607090736.4369,45
1607090736.4390,45
1607090736.4410,43
1607090736.4431,40
1607090736.4450,38
1607090736.4470,38
1607090736.4489,36
1607090736.4509,38
1607090736.4529,40
1607090736.4550,43
1607090736.4570,45
1607090736.4590,43
1607090736.4610,40
1607090736.4630,43
1607090736.4650,43
1607090736.4656,40
1607090736.4669,45
1607090736.4689,45
1607090736.4709,45
1607090736.4730,48
1607090736.4751,52
1607090736.4771,52
1607090736.4791,50
1607090736.4810,50
1607090736.4830,50
1607090736.4850,52
1607090736.4870,55
1607090736.4890,52
1607090736.4910,52
1607090736.4930,55
1607090736.4951,52
1607090736.4970,50
1607090736.4990,50
1607090736.5010,48
1607090736.5030,52
1607090736.5049,69
1607090736.5070,84
1607090736.9411,79
1607090736.9420,64
1607090736.9445,55
1607090736.9474,48
1607090736.9492,43
1607090736.9511,38
1607090736.9532,36
1607090736.9552,40
1607090736.9571,43
1607090736.9591,38
1607090736.9612,36
1607090736.9632,28
1607090736.9652,24
1607090736.9671,88
1607090736.9691,319
1607090736.9711,658
1607090736.9732,836
1607090736.9751,533
1607090736.9772,-31
1607090736.9791,-173
1607090736.9811,38
1607090736.9831,36
1607090736.9851,-60
1607090736.9871,-7
1607090736.9891,24
1607090736.9911,-12
1607090736.9932,-2
1607090736.9952,16
1607090736.9972,9
1607090736.9991,12
1607090737.0011,26
1607090737.0030,28
1607090737.0051,31
1607090737.0070,38
1607090737.0091,43
1607090737.0111,45
1607090737.0131,50
1607090737.0151,57
1607090737.0170,67
1607090737.0190,69
1607090737.0211,72
1607090737.0230,79
1607090737.0251,91
1607090737.0271,103
1607090737.0291,113
1607090737.0310,125
1607090737.0330,141
1607090737.0351,158
1607090737.0370,170
1607090737.0390,185
1607090737.0410,199
1607090737.0431,214
1607090737.0450,221
1607090737.0470,216
1607090737.0492,202
1607090737.0511,173
1607090737.0530,134
1607090737.0551,96
1607090737.0570,57
1607090737.0591,24
1607090737.0611,0
1607090737.0630,-12
1607090737.0651,-19
1607090737.0670,-26
1607090737.0690,-28
1607090737.0710,-26
1607090737.0730,-28
1607090737.0750,-28
1607090737.0771,-24
1607090737.0791,-21
1607090737.0810,-16
1607090737.0830,-12
1607090737.0851,-4
1607090737.5411,2
1607090737.5424,7
1607090737.5449,9
1607090737.5475,9
1607090737.5494,14
1607090737.5514,16
1607090737.5535,12
1607090737.5555,9
1607090737.5574,16
1607090737.5595,24
1607090737.5615,21
1607090737.5635,21
1607090737.5654,26
1607090737.5674,26
1607090737.5694,26
1607090737.5714,26
1607090737.5734,28
1607090737.5754,31
1607090737.5775,28
1607090737.5794,28
1607090737.5814,28
1607090737.5834,31
1607090737.5854,31
1607090737.5874,31
1607090737.5894,36
1607090737.5914,38
1607090737.5934,36
1607090737.5955,33
1607090737.5973,33
1607090737.5993,36
1607090737.6014,38
1607090737.6033,38
1607090737.6056,38
1607090737.6074,40
1607090737.6094,40
1607090737.6114,40
1607090737.6133,45
1607090737.6154,48
1607090737.6173,45
1607090737.6193,43
1607090737.6213,45
1607090737.6233,48
1607090737.6253,43
1607090737.6274,45
1607090737.6293,50
1607090737.6313,48
1607090737.6333,43
1607090737.6354,48
1607090737.6373,50
1607090737.6393,43
1607090737.6413,38
1607090737.6434,38
1607090737.6454,36
1607090737.6473,33
1607090737.6493,36
1607090737.6513,38
1607090737.6533,38
1607090737.6553,33
1607090737.6573,31
1607090737.6594,31
1607090737.6614,33
1607090737.6633,36
1607090737.6654,36
1607090737.6673,31
1607090737.6693,28
1607090737.6713,33
1607090737.6733,36
1607090737.6753,36
1607090737.6774,33
1607090737.6793,28
1607090737.6813,28
1607090737.6833,38
1607090737.6854,57
1607090738.0809,69
1607090738.0816,69
1607090738.0841,62
1607090738.0867,50
1607090738.0887,40
1607090738.0907,38
1607090738.0928,40
1607090738.0948,38
1607090738.0967,38
1607090738.0986,43
1607090738.1009,38
1607090738.1027,26
1607090738.1048,7
1607090738.1067,7
1607090738.1086,120
1607090738.1107,406
1607090738.1127,745
1607090738.1147,820
1607090738.1167,377
1607090738.1187,-158
1607090738.1207,-156
1607090738.1227,48
1607090738.1248,-19
1607090738.1267,-81
1607090738.1288,-12
1607090738.1307,-9
1607090738.1327,-36
1607090738.1347,-14
1607090738.1366,0
1607090738.1386,-4
1607090738.1407,2
1607090738.1428,9
1607090738.1448,9
1607090738.1466,14
1607090738.1486,21
1607090738.1506,28
1607090738.1526,38
1607090738.1547,38
1607090738.1566,40
1607090738.1586,48
1607090738.1607,57
1607090738.1626,62
1607090738.1647,64
1607090738.1666,72
1607090738.1686,81
1607090738.1706,93
1607090738.1726,105
1607090738.1747,120
1607090738.1767,141
1607090738.1788,156
1607090738.1806,165
1607090738.1826,175
1607090738.1848,182
1607090738.1866,185
1607090738.1886,180
1607090738.1906,163
1607090738.1927,129
1607090738.1947,86
1607090738.1966,48
1607090738.1986,16
1607090738.2006,-9
1607090738.2028,-28
1607090738.2048,-40
1607090738.2066,-45
1607090738.2086,-45
1607090738.2107,-45
1607090738.2127,-43
1607090738.2147,-43
1607090738.2166,-43
1607090738.2186,-38
1607090738.2206,-33
1607090738.2226,-28
1607090738.2248,-21
1607090738.6205,-19
1607090738.6214,-19
1607090738.6240,-16
1607090738.6266,-9
1607090738.6286,-7
1607090738.6305,-4
1607090738.6326,0
1607090738.6345,4
1607090738.6365,2
1607090738.6385,-2
1607090738.6405,0
1607090738.6425,2
1607090738.6446,0
1607090738.6465,0
1607090738.6485,4
1607090738.6505,9
1607090738.6525,7
1607090738.6545,7
1607090738.6565,12
1607090738.6586,12
1607090738.6606,9
1607090738.6625,12
1607090738.6645,16
1607090738.6664,16
1607090738.6685,14
1607090738.6705,16
1607090738.6725,19
1607090738.6744,19
1607090738.6765,19
1607090738.6785,21
1607090738.6805,21
1607090738.6824,21
1607090738.6844,21
1607090738.6865,24
1607090738.6884,21
1607090738.6904,21
1607090738.6924,21
1607090738.6945,24
1607090738.6966,26
1607090738.6988,26
1607090738.7006,26
1607090738.7026,28
1607090738.7045,26
1607090738.7066,24
1607090738.7086,26
1607090738.7105,26
1607090738.7126,26
1607090738.7145,26
1607090738.7165,24
1607090738.7184,26
1607090738.7204,26
1607090738.7224,24
1607090738.7244,24
1607090738.7265,24
1607090738.7285,21
1607090738.7304,21
1607090738.7324,21
1607090738.7344,24
1607090738.7364,24
1607090738.7384,24
1607090738.7404,28
1607090738.7425,26
1607090738.7445,26
1607090738.7464,28
1607090738.7484,28
1607090738.7504,26
1607090738.7524,24
1607090738.7544,24
1607090738.7564,26
1607090738.7585,26
1607090738.7605,28
1607090738.7624,28
1607090738.7644,31
1607090739.1912,28
1607090739.1921,28
1607090739.1946,31
1607090739.1972,36
1607090739.1992,33
1607090739.2012,24
1607090739.2032,14
1607090739.2052,14
1607090739.2071,26
1607090739.2091,43
1607090739.2112,55
1607090739.2131,57
1607090739.2152,48
1607090739.2171,36
1607090739.2191,31
1607090739.2211,28
1607090739.2231,28
1607090739.2253,33
1607090739.2272,31
1607090739.2291,31
1607090739.2311,36
1607090739.2331,33
1607090739.2351,21
1607090739.2371,9
1607090739.2391,74
1607090739.2411,298
1607090739.2431,627
1607090739.2452,822
1607090739.2471,577
1607090739.2491,33
1607090739.2511,-161
1607090739.2531,12
1607090739.2551,21
1607090739.2571,-76
1607090739.2591,-40
1607090739.2612,-9
1607090739.2631,-38
1607090739.2651,-36
1607090739.2671,-16
1607090739.2691,-14
1607090739.2711,-12
1607090739.2731,-4
1607090739.2751,-2
1607090739.2771,2
1607090739.2791,12
1607090739.2811,19
1607090739.2831,21
1607090739.2851,28
1607090739.2871,36
1607090739.2891,38
1607090739.2911,43
1607090739.2932,50
1607090739.2951,57
1607090739.2971,60
1607090739.2991,69
1607090739.3011,81
1607090739.3031,88
1607090739.3051,98
1607090739.3071,117
1607090739.3091,137
1607090739.3112,146
1607090739.3131,156
1607090739.3151,170
1607090739.3171,177
1607090739.3191,177
1607090739.3211,165
1607090739.3231,141
1607090739.3251,108
1607090739.3273,69
1607090739.3291,36
1607090739.3311,7
1607090739.3331,-14
1607090739.3351,-24
1607090739.7307,-28
1607090739.7314,-33
1607090739.7339,-33
1607090739.7366,-33
1607090739.7385,-31
1607090739.7405,-31
1607090739.7426,-33
1607090739.7446,-36
1607090739.7465,-33
1607090739.7485,-26
1607090739.7505,-24
1607090739.7525,-24
1607090739.7545,-16
1607090739.7564,-7
1607090739.7585,-4
1607090739.7605,-4
1607090739.7624,-2
1607090739.7644,0
1607090739.7664,2
1607090739.7684,2
1607090739.7704,4
1607090739.7724,7
1607090739.7744,9
1607090739.7765,9
1607090739.7785,12
1607090739.7804,14
1607090739.7825,14
1607090739.7845,14
1607090739.7864,14
1607090739.7884,12
1607090739.7904,9
1607090739.7925,9
1607090739.7945,14
1607090739.7964,16
1607090739.7984,16
1607090739.8004,16
1607090739.8024,19
1607090739.8044,21
1607090739.8064,21
1607090739.8086,21
1607090739.8105,24
1607090739.8124,26
1607090739.8145,26
1607090739.8164,24
1607090739.8184,28
1607090739.8204,33
1607090739.8226,28
1607090739.8246,21
1607090739.8265,24
1607090739.8285,28
1607090739.8304,26
1607090739.8324,28
1607090739.8345,31
1607090739.8364,31
1607090739.8384,28
1607090739.8404,31
1607090739.8425,33
1607090739.8445,33
1607090739.8464,36
1607090739.8484,38
1607090739.8504,38
1607090739.8524,36
1607090739.8544,38
1607090739.8564,43
1607090739.8586,40
1607090739.8605,38
1607090739.8624,36
1607090739.8644,40
1607090739.8665,40
1607090739.8684,36
1607090739.8704,33
1607090739.8724,38
1607090739.8744,40
1607090740.3007,38
1607090740.3019,40
1607090740.3043,45
1607090740.3069,43
1607090740.3089,31
1607090740.3109,24
1607090740.3130,28
1607090740.3150,31
1607090740.3169,31
1607090740.3189,31
1607090740.3209,33
1607090740.3229,36
1607090740.3249,38
1607090740.3270,36
1607090740.3290,38
1607090740.3310,40
1607090740.3330,38
1607090740.3351,36
1607090740.3369,43
1607090740.3389,50
1607090740.3409,40
1607090740.3429,31
1607090740.3450,31
1607090740.3469,36
1607090740.3491,40
1607090740.3509,52
1607090740.3529,72
1607090740.3549,72
1607090740.3569,64
1607090740.3589,62
1607090740.3610,55
1607090740.3629,45
1607090740.3649,43
1607090740.3668,45
1607090740.3689,48
1607090740.3709,48
1607090740.3729,45
1607090740.3749,48
1607090740.3769,43
1607090740.3789,24
1607090740.3808,40
1607090740.3828,204
1607090740.3849,517
1607090740.3868,803
1607090740.3888,733
1607090740.3908,216
1607090740.3930,-170
1607090740.3950,-48
1607090740.3969,74
1607090740.3988,-31
1607090740.4008,-40
1607090740.4028,16
1607090740.4049,-4
1607090740.4068,-16
1607090740.4089,12
1607090740.4109,14
1607090740.4128,9
1607090740.4149,24
1607090740.4168,31
1607090740.4188,33
1607090740.4208,38
1607090740.4228,40
1607090740.4248,45
1607090740.4269,50
1607090740.4289,55
1607090740.4308,60
1607090740.4328,62
1607090740.4349,69
1607090740.4368,79
1607090740.4388,86
1607090740.4408,93
1607090740.4429,101
1607090740.4449,110
1607090740.9008,127
1607090740.9017,144
1607090740.9044,158
1607090740.9069,170
1607090740.9088,185
1607090740.9108,189
1607090740.9129,192
1607090740.9148,197
1607090740.9168,194
1607090740.9188,170
1607090740.9208,137
1607090740.9228,101
1607090740.9248,64
1607090740.9268,26
1607090740.9288,-2
1607090740.9307,-24
1607090740.9327,-31
1607090740.9348,-33
1607090740.9368,-36
1607090740.9387,-38
1607090740.9407,-36
1607090740.9428,-36
1607090740.9448,-33
1607090740.9467,-26
1607090740.9487,-19
1607090740.9507,-14
1607090740.9527,-12
1607090740.9548,-7
1607090740.9567,-2
1607090740.9587,2
1607090740.9608,2
1607090740.9627,4
1607090740.9648,9
1607090740.9667,14
1607090740.9687,14
1607090740.9707,19
1607090740.9727,21
1607090740.9748,24
1607090740.9768,24
1607090740.9788,26
1607090740.9807,28
1607090740.9827,31
1607090740.9847,28
1607090740.9867,28
1607090740.9887,31
1607090740.9907,31
1607090740.9928,28
1607090740.9949,28
1607090740.9967,28
1607090740.9987,31
1607090741.0007,33
1607090741.0027,36
1607090741.0047,33
1607090741.0069,36
1607090741.0087,36
1607090741.0108,38
1607090741.0127,40
1607090741.0148,36
1607090741.0168,33
1607090741.0188,36
1607090741.0208,38
1607090741.0228,36
1607090741.0248,31
1607090741.0267,33
1607090741.0288,36
1607090741.0307,36
1607090741.0327,38
1607090741.0348,36
1607090741.0367,33
1607090741.0387,33
1607090741.0407,36
1607090741.0427,38
1607090741.0448,38
1607090741.4408,38
1607090741.4416,38
1607090741.4440,40
1607090741.4466,43
1607090741.4486,43
1607090741.4506,40
1607090741.4526,38
1607090741.4547,28
1607090741.4566,26
1607090741.4587,28
1607090741.4607,21
1607090741.4626,12
1607090741.4647,16
1607090741.4666,24
1607090741.4686,19
1607090741.4706,16
1607090741.4726,19
1607090741.4747,21
1607090741.4767,21
1607090741.4786,19
1607090741.4806,19
1607090741.4826,16
1607090741.4847,14
1607090741.4866,12
1607090741.4886,14
1607090741.4906,16
1607090741.4926,21
1607090741.4948,33
1607090741.4966,50
1607090741.4986,50
1607090741.5006,40
1607090741.5027,31
1607090741.5047,24
1607090741.5066,21
1607090741.5086,21
1607090741.5106,26
1607090741.5126,28
1607090741.5146,26
1607090741.5166,26
1607090741.5186,21
1607090741.5206,7
1607090741.5226,24
1607090741.5247,180
1607090741.5266,502
1607090741.5286,808
1607090741.5306,745
1607090741.5325,197
1607090741.5346,-228
1607090741.5366,-96
1607090741.5385,57
1607090741.5405,-52
1607090741.5426,-69
1607090741.5447,-2
1607090741.5466,-26
1607090741.5472,-43
1607090741.5486,-12
1607090741.5505,-7
1607090741.5525,-19
1607090741.5546,-4
1607090741.5565,7
1607090741.5586,4
1607090741.5607,9
1607090741.5626,14
1607090741.5646,21
1607090741.5665,26
1607090741.5685,28
1607090741.5705,33
1607090741.5725,45
1607090741.5746,48
1607090741.5766,50
1607090741.5772,62
1607090741.5786,76
1607090741.5805,79
1607090742.0108,84
1607090742.0117,101
1607090742.0135,117
1607090742.0155,132
1607090742.0175,146
1607090742.0195,158
1607090742.0215,170
1607090742.0235,177
1607090742.0254,175
1607090742.0277,163
1607090742.0283,144
1607090742.0295,113
1607090742.0314,67
1607090742.0334,24
1607090742.0354,-4
1607090742.0374,-28
1607090742.0394,-48
1607090742.0414,-57
1607090742.0435,-62
1607090742.0455,-64
1607090742.0474,-62
1607090742.0494,-57
1607090742.0514,-55
1607090742.0534,-55
1607090742.0554,-50
1607090742.0574,-45
1607090742.0580,-38
1607090742.0595,-36
1607090742.0614,-28
1607090742.0634,-24
1607090742.0654,-24
1607090742.0674,-19
1607090742.0694,-12
1607090742.0714,-7
1607090742.0734,-7
1607090742.0754,-4
1607090742.0775,0
1607090742.0794,2
1607090742.0814,2
1607090742.0834,2
1607090742.0854,4
1607090742.0874,7
1607090742.0880,9
1607090742.0894,4
1607090742.0914,0
1607090742.0935,2
1607090742.0954,7
1607090742.0974,7
1607090742.0994,7
1607090742.1014,9
1607090742.1034,9
1607090742.1054,9
1607090742.1074,14
1607090742.1095,16
1607090742.1115,14
1607090742.1134,16
1607090742.1154,21
1607090742.1174,24
1607090742.1180,19
1607090742.1194,19
1607090742.1216,19
1607090742.1234,19
1607090742.1254,19
1607090742.1275,21
1607090742.1294,21
1607090742.1314,16
1607090742.1334,12
1607090742.1354,12
1607090742.1374,16
1607090742.1394,16
1607090742.1414,19
1607090742.1435,21
1607090742.1454,21
1607090742.5511,21
1607090742.5520,21
1607090742.5544,21
1607090742.5570,21
1607090742.5590,19
1607090742.5611,19
1607090742.5631,19
1607090742.5650,19
1607090742.5670,12
1607090742.5690,4
1607090742.5710,7
1607090742.5730,9
1607090742.5750,4
1607090742.5771,0
1607090742.5777,2
1607090742.5790,7
1607090742.5810,7
1607090742.5830,7
1607090742.5850,9
1607090742.5870,7
1607090742.5890,9
1607090742.5910,16
1607090742.5930,19
1607090742.5951,16
1607090742.5970,16
1607090742.5990,19
1607090742.6010,21
1607090742.6030,19
1607090742.6050,21
1607090742.6069,21
1607090742.6076,21
1607090742.6089,21
1607090742.6110,21
1607090742.6130,19
1607090742.6150,21
1607090742.6169,24
1607090742.6190,24
1607090742.6210,33
1607090742.6231,50
1607090742.6250,55
1607090742.6270,50
1607090742.6290,43
1607090742.6309,33
1607090742.6329,26
1607090742.6350,24
1607090742.6369,26
1607090742.6376,31
1607090742.6389,33
1607090742.6409,28
1607090742.6430,28
1607090742.6450,19
1607090742.6470,7
1607090742.6489,79
1607090742.6509,322
1607090742.6529,654
1607090742.6550,829
1607090742.6569,560
1607090742.6590,14
1607090742.6610,-168
1607090742.6629,7
1607090742.6650,9
1607090742.6669,-88
1607090742.6676,-45
1607090742.6689,-12
1607090742.6710,-43
1607090742.6729,-33
1607090742.6749,-14
1607090742.6770,-24
1607090742.6790,-21
1607090742.6809,-4
1607090742.6829,-2
1607090742.6850,-2
1607090742.6869,7
1607090743.1207,14
1607090743.1216,16
1607090743.1240,24
1607090743.1251,28
1607090743.1268,33
1607090743.1288,36
1607090743.1307,36
1607090743.1328,38
1607090743.1347,48
1607090743.1366,62
1607090743.1386,69
1607090743.1406,81
1607090743.1427,98
1607090743.1448,113
1607090743.1466,125
1607090743.1486,141
1607090743.1509,153
1607090743.1527,163
1607090743.1547,168
1607090743.1552,170
1607090743.1566,161
1607090743.1588,141
1607090743.1607,108
1607090743.1627,67
1607090743.1648,36
1607090743.1666,9
1607090743.1686,-12
1607090743.1706,-26
1607090743.1726,-33
1607090743.1747,-38
1607090743.1766,-38
1607090743.1787,-38
1607090743.1806,-36
1607090743.1826,-33
1607090743.1847,-28
1607090743.1852,-26
1607090743.1872,-26
1607090743.1892,-21
1607090743.1906,-14
1607090743.1927,-9
1607090743.1948,-7
1607090743.1966,-2
1607090743.1986,0
1607090743.2006,2
1607090743.2026,2
1607090743.2047,7
1607090743.2066,9
1607090743.2087,9
1607090743.2107,14
1607090743.2126,16
1607090743.2147,14
1607090743.2166,9
1607090743.2186,9
1607090743.2206,12
1607090743.2226,14
1607090743.2247,16
1607090743.2267,16
1607090743.2287,16
1607090743.2306,14
1607090743.2326,14
1607090743.2347,16
1607090743.2366,16
1607090743.2386,16
1607090743.2406,19
1607090743.2427,21
1607090743.2448,19
1607090743.2466,19
1607090743.2488,24
1607090743.2507,26
1607090743.2526,24
1607090743.2547,24
1607090743.2567,24
1607090743.2588,24
1607090743.6608,24
1607090743.6614,26
1607090743.6632,28
1607090743.6652,26
1607090743.6672,26
1607090743.6692,28
1607090743.6712,31
1607090743.6732,26
1607090743.6752,19
1607090743.6773,21
1607090743.6793,24
1607090743.6812,21
1607090743.6832,24
1607090743.6853,33
1607090743.6872,33
1607090743.6892,28
1607090743.6912,26
1607090743.6933,26
1607090743.6953,24
1607090743.6972,21
1607090743.6992,21
1607090743.7012,24
1607090743.7032,24
1607090743.7052,21
1607090743.7072,21
1607090743.7093,24
1607090743.7113,26
1607090743.7132,26
1607090743.7152,24
1607090743.7172,26
1607090743.7192,31
1607090743.7212,31
1607090743.7232,28
1607090743.7252,31
1607090743.7273,31
1607090743.7292,31
1607090743.7312,31
1607090743.7332,33
1607090743.7352,36
1607090743.7372,36
1607090743.7392,36
1607090743.7412,40
1607090743.7433,43
1607090743.7453,38
1607090743.7472,33
1607090743.7494,33
1607090743.7512,38
1607090743.7532,38
1607090743.7552,40
1607090743.7572,38
1607090743.7592,38
1607090743.7613,36
1607090743.7632,31
1607090743.7652,31
1607090743.7672,36
1607090743.7693,43
1607090743.7712,55
1607090743.7732,69
1607090743.7752,72
1607090743.7773,64
1607090743.7792,55
1607090743.7812,45
1607090743.7832,40
1607090743.7852,40
1607090743.7872,45
1607090743.7892,43
1607090743.7912,43
1607090743.7933,45
1607090743.7953,45
1607090743.7972,33
1607090743.7992,24
1607090743.8012,96
1607090743.8032,331
1607090744.2611,666
1607090744.2621,839
1607090744.2646,543
1607090744.2672,-16
1607090744.2692,-173
1607090744.2712,24
1607090744.2733,24
1607090744.2753,-74
1607090744.2772,-28
1607090744.2792,-2
1607090744.2812,-28
1607090744.2831,-16
1607090744.2852,0
1607090744.2871,-4
1607090744.2891,2
1607090744.2911,14
1607090744.2932,14
1607090744.2953,16
1607090744.2972,24
1607090744.2991,28
1607090744.3011,36
1607090744.3031,43
1607090744.3052,45
1607090744.3073,48
1607090744.3092,57
1607090744.3112,64
1607090744.3131,72
1607090744.3152,76
1607090744.3172,84
1607090744.3191,93
1607090744.3211,113
1607090744.3231,127
1607090744.3251,137
1607090744.3272,151
1607090744.3291,168
1607090744.3311,177
1607090744.3331,182
1607090744.3351,192
1607090744.3371,197
1607090744.3391,185
1607090744.3411,158
1607090744.3432,127
1607090744.3452,91
1607090744.3471,52
1607090744.3491,19
1607090744.3511,-2
1607090744.3531,-21
1607090744.3551,-31
1607090744.3571,-36
1607090744.3591,-36
1607090744.3612,-36
1607090744.3631,-36
1607090744.3651,-36
1607090744.3671,-31
1607090744.3691,-21
1607090744.3711,-16
1607090744.3731,-14
1607090744.3751,-12
1607090744.3772,-4
1607090744.3791,0
1607090744.3811,7
1607090744.3831,14
1607090744.3851,14
1607090744.3871,14
1607090744.3891,16
1607090744.3911,21
1607090744.3932,26
1607090744.3952,26
1607090744.3971,26
1607090744.3991,26
1607090744.4011,28
1607090744.4031,33
1607090744.4051,33
1607090744.8008,28
1607090744.8018,31
1607090744.8034,31
1607090744.8054,31
1607090744.8074,33
1607090744.8094,36
1607090744.8114,36
1607090744.8133,33
1607090744.8154,33
1607090744.8174,33
1607090744.8194,28
1607090744.8214,28
1607090744.8234,33
1607090744.8254,28
1607090744.8275,24
1607090744.8294,26
1607090744.8314,31
1607090744.8334,31
1607090744.8354,33
1607090744.8374,38
1607090744.8393,38
1607090744.8414,36
1607090744.8434,36
1607090744.8454,38
1607090744.8474,38
1607090744.8493,38
1607090744.8514,36
1607090744.8534,36
1607090744.8554,31
1607090744.8574,28
1607090744.8594,28
1607090744.8616,28
1607090744.8634,26
1607090744.8653,28
1607090744.8674,33
1607090744.8693,28
1607090744.8714,28
1607090744.8734,28
1607090744.8818,26
1607090744.8834,24
1607090744.8854,26
1607090744.8874,28
1607090744.8894,28
1607090744.8914,28
1607090744.8934,28
1607090744.8954,28
1607090744.8974,31
1607090744.8994,31
1607090744.9014,31
1607090744.9034,31
1607090744.9054,31
1607090744.9073,31
1607090744.9096,31
1607090744.9114,28
1607090744.9134,28
1607090744.9154,26
1607090744.9174,26
1607090744.9194,28
1607090744.9214,38
1607090744.9234,55
1607090744.9254,62
1607090744.9275,60
1607090744.9294,50
1607090744.9314,36
1607090744.9334,24
1607090744.9354,21
1607090744.9374,24
1607090744.9394,26
1607090744.9414,26
1607090744.9435,26
1607090744.9454,28
1607090744.9474,24
1607090744.9494,4
1607090745.3702,28
1607090745.3708,199
1607090745.3732,521
1607090745.3759,812
1607090745.3779,731
1607090745.3798,185
1607090745.3818,-218
1607090745.3838,-88
1607090745.3858,38
1607090745.3878,-69
1607090745.3898,-79
1607090745.3918,-19
1607090745.3939,-36
1607090745.3958,-43
1607090745.3978,-19
1607090745.3998,-19
1607090745.4018,-19
1607090745.4038,-7
1607090745.4058,-2
1607090745.4078,-2
1607090745.4099,2
1607090745.4118,2
1607090745.4138,2
1607090745.4158,9
1607090745.4178,19
1607090745.4198,24
1607090745.4218,28
1607090745.4238,36
1607090745.4259,45
1607090745.4279,55
1607090745.4300,60
1607090745.4318,67
1607090745.4337,81
1607090745.4358,98
1607090745.4378,110
1607090745.4398,127
1607090745.4418,144
1607090745.4439,156
1607090745.4458,165
1607090745.4478,173
1607090745.4498,177
1607090745.4518,175
1607090745.4538,156
1607090745.4558,120
1607090745.4578,81
1607090745.4599,45
1607090745.4618,14
1607090745.4638,-12
1607090745.4658,-33
1607090745.4678,-45
1607090745.4698,-50
1607090745.4718,-50
1607090745.4738,-50
1607090745.4759,-50
1607090745.4779,-50
1607090745.4798,-48
1607090745.4817,-45
1607090745.4838,-40
1607090745.4858,-36
1607090745.4878,-31
1607090745.4898,-28
1607090745.4918,-24
1607090745.4939,-16
1607090745.4958,-12
1607090745.4978,-9
1607090745.4998,-7
1607090745.5018,-7
1607090745.5039,-4
1607090745.5059,-2
1607090745.5078,0
1607090745.5099,2
1607090745.5118,4
1607090745.5138,4
1607090745.9411,4
1607090745.9420,4
1607090745.9445,7
1607090745.9471,7
1607090745.9491,9
1607090745.9511,12
1607090745.9531,12
1607090745.9551,9
1607090745.9572,4
1607090745.9591,0
1607090745.9611,2
1607090745.9630,7
1607090745.9652,4
1607090745.9670,0
1607090745.9690,-2
1607090745.9709,0
1607090745.9730,0
1607090745.9750,0
1607090745.9771,0
1607090745.9790,4
1607090745.9810,7
1607090745.9830,9
1607090745.9850,12
1607090745.9870,14
1607090745.9890,12
1607090745.9910,14
1607090745.9930,16
1607090745.9951,16
1607090745.9970,14
1607090745.9990,16
1607090746.0010,19
1607090746.0030,16
1607090746.0050,14
1607090746.0070,19
1607090746.0090,24
1607090746.0110,21
1607090746.0130,14
1607090746.0150,16
1607090746.0170,19
1607090746.0190,14
1607090746.0211,12
1607090746.0231,14
1607090746.0251,12
1607090746.0270,12
1607090746.0291,14
1607090746.0311,12
1607090746.0330,9
1607090746.0350,12
1607090746.0370,12
1607090746.0390,12
1607090746.0410,14
1607090746.0430,14
1607090746.0451,14
1607090746.0470,16
1607090746.0490,19
1607090746.0510,19
1607090746.0530,19
1607090746.0550,24
1607090746.0570,24
1607090746.0591,19
1607090746.0610,16
1607090746.0630,19
1607090746.0650,21
1607090746.0670,21
1607090746.0689,28
1607090746.0710,43
1607090746.0730,55
1607090746.0750,52
1607090746.0771,48
1607090746.0790,38
1607090746.0810,28
1607090746.0830,26
1607090746.0850,26
1607090746.4810,26
1607090746.4819,26
1607090746.4843,28
1607090746.4869,31
1607090746.4889,26
1607090746.4909,4
1607090746.4930,4
1607090746.4951,129
1607090746.4970,416
1607090746.4989,721
1607090746.5009,767
1607090746.5029,353
1607090746.5050,-127
1607090746.5069,-134
1607090746.5089,24
1607090746.5110,-43
1607090746.5129,-98
1607090746.5150,-40
1607090746.5169,-38
1607090746.5189,-60
1607090746.5209,-40
1607090746.5229,-26
1607090746.5249,-31
1607090746.5270,-24
1607090746.5289,-14
1607090746.5309,-12
1607090746.5330,-7
1607090746.5349,-2
1607090746.5369,4
1607090746.5389,7
1607090746.5410,12
1607090746.5429,19
1607090746.5450,26
1607090746.5469,33
1607090746.5489,38
1607090746.5509,45
1607090746.5529,50
1607090746.5551,60
1607090746.5569,69
1607090746.5589,84
1607090746.5610,96
1607090746.5629,105
1607090746.5650,120
1607090746.5669,139
1607090746.5689,153
1607090746.5710,156
1607090746.5730,158
1607090746.5749,158
1607090746.5770,146
1607090746.5789,125
1607090746.5809,93
1607090746.5829,55
1607090746.5849,21
1607090746.5869,0
1607090746.5889,-21
1607090746.5909,-36
1607090746.5929,-40
1607090746.5950,-38
1607090746.5969,-40
1607090746.5989,-40
1607090746.6009,-38
1607090746.6029,-36
1607090746.6049,-33
1607090746.6069,-28
1607090746.6089,-24
1607090746.6110,-24
1607090746.6129,-19
1607090746.6149,-12
1607090746.6169,-9
1607090746.6189,-9
1607090746.6209,-7
1607090746.6229,-9
1607090746.6249,-12
1607090747.0204,-4
1607090747.0211,2
1607090747.0229,0
1607090747.0249,0
1607090747.0270,2
1607090747.0289,2
1607090747.0309,0
1607090747.0329,-4
1607090747.0349,-4
1607090747.0368,0
1607090747.0388,0
1607090747.0409,-2
1607090747.0429,4
1607090747.0450,7
1607090747.0468,4
1607090747.0490,7
1607090747.0508,12
1607090747.0528,12
1607090747.0549,12
1607090747.0568,14
1607090747.0589,16
1607090747.0609,16
1607090747.0628,16
1607090747.0649,16
1607090747.0668,16
1607090747.0689,16
1607090747.0708,16
1607090747.0728,16
1607090747.0748,12
1607090747.0769,14
1607090747.0788,16
1607090747.0808,14
1607090747.0828,16
1607090747.0849,19
1607090747.0868,16
1607090747.0888,21
1607090747.0908,28
1607090747.0929,31
1607090747.0949,26
1607090747.0968,26
1607090747.0988,28
1607090747.1008,31
1607090747.1028,31
1607090747.1049,31
1607090747.1068,33
1607090747.1089,33
1607090747.1109,28
1607090747.1128,26
1607090747.1149,26
1607090747.1168,24
1607090747.1188,26
1607090747.1208,28
1607090747.1228,31
1607090747.1248,28
1607090747.1269,28
1607090747.1289,31
1607090747.1308,31
1607090747.1329,31
1607090747.1349,28
1607090747.1368,28
1607090747.1388,26
1607090747.1408,24
1607090747.1429,28
1607090747.1449,31
1607090747.1468,26
1607090747.1489,24
1607090747.1510,26
1607090747.1529,31
1607090747.1549,33
1607090747.1568,31
1607090747.1589,26
1607090747.1609,24
1607090747.1628,26
1607090747.6513,31
1607090747.6523,36
1607090747.6548,50
1607090747.6573,60
1607090747.6594,55
1607090747.6614,43
1607090747.6635,36
1607090747.6654,26
1607090747.6673,24
1607090747.6693,24
1607090747.6713,24
1607090747.6733,28
1607090747.6752,31
1607090747.6773,33
1607090747.6792,36
1607090747.6812,24
1607090747.6832,21
1607090747.6853,115
1607090747.6872,375
1607090747.6892,704
1607090747.6912,808
1607090747.6933,418
1607090747.6954,-115
1607090747.6972,-158
1607090747.6992,45
1607090747.7012,0
1607090747.7032,-76
1607090747.7052,-19
1607090747.7072,-4
1607090747.7092,-33
1607090747.7113,-16
1607090747.7132,0
1607090747.7152,-4
1607090747.7172,0
1607090747.7192,12
1607090747.7212,14
1607090747.7232,16
1607090747.7252,24
1607090747.7273,31
1607090747.7292,31
1607090747.7312,33
1607090747.7332,43
1607090747.7353,50
1607090747.7372,50
1607090747.7394,52
1607090747.7413,62
1607090747.7433,74
1607090747.7453,86
1607090747.7472,98
1607090747.7492,110
1607090747.7512,122
1607090747.7532,132
1607090747.7553,144
1607090747.7573,163
1607090747.7594,177
1607090747.7613,185
1607090747.7632,192
1607090747.7653,185
1607090747.7672,168
1607090747.7692,144
1607090747.7712,113
1607090747.7732,74
1607090747.7752,38
1607090747.7773,9
1607090747.7792,-12
1607090747.7812,-26
1607090747.7832,-40
1607090747.7853,-48
1607090747.7872,-40
1607090747.7892,-36
1607090747.7912,-38
1607090747.7933,-38
1607090747.7953,-31
1607090748.1909,-26
1607090748.1917,-26
1607090748.1941,-21
1607090748.1967,-12
1607090748.1987,-7
1607090748.2007,-4
1607090748.2027,-2
1607090748.2048,2
1607090748.2067,2
1607090748.2087,2
1607090748.2107,4
1607090748.2126,12
1607090748.2147,12
1607090748.2166,0
1607090748.2186,-4
1607090748.2206,2
1607090748.2226,7
1607090748.2247,4
1607090748.2267,4
1607090748.2287,7
1607090748.2306,4
1607090748.2327,7
1607090748.2349,12
1607090748.2367,14
1607090748.2386,12
1607090748.2406,14
1607090748.2427,16
1607090748.2448,16
1607090748.2466,14
1607090748.2486,14
1607090748.2506,16
1607090748.2527,19
1607090748.2547,16
1607090748.2553,19
1607090748.2576,26
1607090748.2597,26
1607090748.2617,21
1607090748.2637,21
1607090748.2657,26
1607090748.2676,28
1607090748.2696,31
1607090748.2716,26
1607090748.2737,21
1607090748.2757,19
1607090748.2777,19
1607090748.2797,19
1607090748.2816,24
1607090748.2836,26
1607090748.2857,26
1607090748.2863,21
1607090748.2887,19
1607090748.2906,21
1607090748.2927,19
1607090748.2948,19
1607090748.2966,24
1607090748.2987,24
1607090748.3006,19
1607090748.3026,19
1607090748.3047,26
1607090748.3066,21
1607090748.3086,16
1607090748.3107,19
1607090748.3126,26
1607090748.3147,26
1607090748.3166,21
1607090748.3173,21
1607090748.3197,19
1607090748.3216,12
1607090748.3236,7
1607090748.3257,9
1607090748.3277,16
1607090748.3297,28
1607090748.3317,40
1607090748.7312,45
1607090748.7322,38
1607090748.7346,26
1607090748.7372,16
1607090748.7392,12
1607090748.7412,12
1607090748.7432,9
1607090748.7439,12
1607090748.7462,14
1607090748.7481,12
1607090748.7502,4
1607090748.7521,-9
1607090748.7542,-16
1607090748.7561,55
1607090748.7581,298
1607090748.7602,646
1607090748.7622,827
1607090748.7641,509
1607090748.7661,-81
1607090748.7681,-226
1607090748.7701,-4
1607090748.7721,-7
1607090748.7741,-108
1607090748.7748,-55
1607090748.7772,-21
1607090748.7793,-55
1607090748.7811,-45
1607090748.7831,-24
1607090748.7852,-28
1607090748.7871,-26
1607090748.7891,-14
1607090748.7912,-12
1607090748.7933,-9
1607090748.7953,-7
1607090748.7972,0
1607090748.7991,4
1607090748.8011,12
1607090748.8031,14
1607090748.8052,16
1607090748.8059,24
1607090748.8081,33
1607090748.8102,40
1607090748.8122,43
1607090748.8142,52
1607090748.8162,64
1607090748.8182,74
1607090748.8201,88
1607090748.8222,108
1607090748.8241,122
1607090748.8262,134
1607090748.8284,146
1607090748.8303,161
1607090748.8322,170
1607090748.8341,168
1607090748.8349,151
1607090748.8371,127
1607090748.8391,91
1607090748.8411,52
1607090748.8433,16
1607090748.8453,-9
1607090748.8471,-31
1607090748.8491,-45
1607090748.8511,-52
1607090748.8532,-55
1607090748.8552,-60
1607090748.8571,-60
1607090748.8592,-60
1607090748.8612,-55
1607090748.8631,-50
1607090748.8652,-48
1607090748.8660,-45
1607090748.8671,-38
1607090748.8691,-33
1607090749.3010,-31
1607090749.3020,-26
1607090749.3045,-19
1607090749.3070,-14
1607090749.3091,-14
1607090749.3110,-12
1607090749.3131,-9
1607090749.3150,-14
1607090749.3170,-19
1607090749.3190,-12
1607090749.3210,-9
1607090749.3217,-12
1607090749.3240,-12
1607090749.3260,-9
1607090749.3279,-7
1607090749.3300,-7
1607090749.3319,-7
1607090749.3339,-4
1607090749.3360,-2
1607090749.3379,-2
1607090749.3399,-2
1607090749.3419,0
1607090749.3439,2
1607090749.3460,2
1607090749.3479,0
1607090749.3499,0
1607090749.3520,4
1607090749.3527,4
1607090749.3550,2
1607090749.3571,4
1607090749.3591,7
1607090749.3610,7
1607090749.3629,7
1607090749.3650,12
1607090749.3670,12
1607090749.3689,4
1607090749.3710,4
1607090749.3729,7
1607090749.3750,7
1607090749.3769,9
1607090749.3789,12
1607090749.3809,12
1607090749.3829,9
1607090749.3836,9
1607090749.3861,12
1607090749.3879,12
1607090749.3899,9
1607090749.3919,12
1607090749.3939,14
1607090749.3960,14
1607090749.3979,12
1607090749.3999,12
1607090749.4019,16
1607090749.4039,14
1607090749.4059,14
1607090749.4079,14
1607090749.4100,14
1607090749.4119,9
1607090749.4139,9
1607090749.4147,12
1607090749.4169,16
1607090749.4189,16
1607090749.4210,16
1607090749.4229,16
1607090749.4250,21
1607090749.4269,19
1607090749.4289,14
1607090749.4309,19
1607090749.4329,19
1607090749.4350,14
1607090749.4369,14
1607090749.4389,14
1607090749.4409,12
1607090749.8711,7
1607090749.8721,9
1607090749.8736,16
1607090749.8757,26
1607090749.8775,36
1607090749.8795,43
1607090749.8815,43
1607090749.8837,33
1607090749.8855,16
1607090749.8876,4
1607090749.8894,4
1607090749.8914,4
1607090749.8934,2
1607090749.8954,4
1607090749.8974,7
1607090749.8994,7
1607090749.9014,0
1607090749.9022,-19
1607090749.9045,4
1607090749.9065,158
1607090749.9084,459
1607090749.9104,755
1607090749.9124,733
1607090749.9144,254
1607090749.9164,-170
1607090749.9184,-98
1607090749.9204,33
1607090749.9224,-69
1607090749.9244,-101
1607090749.9264,-40
1607090749.9284,-50
1607090749.9304,-64
1607090749.9324,-40
1607090749.9344,-33
1607090749.9364,-38
1607090749.9384,-26
1607090749.9405,-19
1607090749.9424,-16
1607090749.9444,-12
1607090749.9464,-4
1607090749.9484,2
1607090749.9504,9
1607090749.9524,16
1607090749.9545,19
1607090749.9564,24
1607090749.9584,33
1607090749.9604,38
1607090749.9624,40
1607090749.9644,50
1607090749.9664,62
1607090749.9684,69
1607090749.9704,81
1607090749.9724,96
1607090749.9745,108
1607090749.9764,122
1607090749.9784,134
1607090749.9804,149
1607090749.9824,158
1607090749.9846,161
1607090749.9864,153
1607090749.9884,139
1607090749.9904,117
1607090749.9924,84
1607090749.9944,48
1607090749.9964,14
1607090749.9984,-9
1607090750.0004,-26
1607090750.0024,-36
1607090750.0044,-43
1607090750.0064,-45
1607090750.0084,-45
1607090750.0104,-43
1607090750.0124,-43
1607090750.3809,-38
1607090750.3815,-33
1607090750.3830,-31
1607090750.3848,-31
1607090750.3868,-26
1607090750.3943,-24
1607090750.3957,-21
1607090750.3977,-21
1607090750.3997,-16
1607090750.4017,-14
1607090750.4037,-19
1607090750.4057,-19
1607090750.4077,-12
1607090750.4097,-9
1607090750.4117,-9
1607090750.4137,-4
1607090750.4158,0
1607090750.4177,0
1607090750.4197,-2
1607090750.4217,0
1607090750.4237,-2
1607090750.4257,-7
1607090750.4277,-7
1607090750.4297,-2
1607090750.4317,2
1607090750.4337,2
1607090750.4357,4
1607090750.4377,4
1607090750.4397,4
1607090750.4417,2
1607090750.4437,4
1607090750.4457,12
1607090750.4477,16
1607090750.4497,16
1607090750.4517,16
1607090750.4537,19
1607090750.4559,24
1607090750.4577,24
1607090750.4597,19
1607090750.4617,19
1607090750.4637,21
1607090750.4657,26
1607090750.4677,26
1607090750.4697,24
1607090750.4717,26
1607090750.4737,26
1607090750.4757,28
1607090750.4777,31
1607090750.4797,31
1607090750.4817,28
1607090750.4837,33
1607090750.4857,38
1607090750.4877,36
1607090750.4897,31
1607090750.4917,31
1607090750.4937,31
1607090750.4957,31
1607090750.4977,31
1607090750.4997,33
1607090750.5017,33
1607090750.5037,36
1607090750.5057,38
1607090750.5077,38
1607090750.5097,36
1607090750.5117,36
1607090750.5137,36
1607090750.5157,38
1607090750.5177,40
1607090750.5197,43
1607090750.5217,40
1607090750.5237,38
1607090750.5257,38
1607090750.5277,36
1607090750.9803,33
1607090750.9808,36
1607090750.9824,38
1607090750.9844,26
1607090750.9860,16
1607090750.9880,24
1607090750.9900,26
1607090750.9920,21
1607090750.9940,21
1607090750.9960,24
1607090750.9980,26
1607090751.0001,24
1607090751.0021,16
1607090751.0040,14
1607090751.0063,19
1607090751.0081,31
1607090751.0100,45
1607090751.0120,50
1607090751.0140,40
1607090751.0160,31
1607090751.0180,26
1607090751.0200,26
1607090751.0220,26
1607090751.0240,26
1607090751.0261,26
1607090751.0282,28
1607090751.0301,31
1607090751.0321,31
1607090751.0341,19
1607090751.0362,9
1607090751.0381,86
1607090751.0401,334
1607090751.0420,673
1607090751.0440,824
1607090751.0461,488
1607090751.0480,-79
1607090751.0500,-189
1607090751.0520,28
1607090751.0540,12
1607090751.0561,-84
1607090751.0580,-26
1607090751.0600,0
1607090751.0620,-33
1607090751.0640,-16
1607090751.0661,0
1607090751.0680,-9
1607090751.0700,-4
1607090751.0720,9
1607090751.0740,14
1607090751.0760,19
1607090751.0780,21
1607090751.0800,24
1607090751.0820,33
1607090751.0840,40
1607090751.0861,43
1607090751.0880,45
1607090751.0900,52
1607090751.0920,57
1607090751.0940,62
1607090751.0960,69
1607090751.0980,79
1607090751.1000,88
1607090751.1020,98
1607090751.1040,113
1607090751.1061,132
1607090751.1082,146
1607090751.1101,158
1607090751.1120,175
1607090751.1140,187
1607090751.1161,185
1607090751.1180,182
1607090751.1200,180
1607090751.1220,161
1607090751.5511,122
1607090751.5520,84
1607090751.5545,48
1607090751.5572,14
1607090751.5591,-14
1607090751.5611,-31
1607090751.5632,-38
1607090751.5652,-45
1607090751.5671,-60
1607090751.5691,-67
1607090751.5713,-60
1607090751.5732,-52
1607090751.5751,-52
1607090751.5771,-48
1607090751.5791,-40
1607090751.5811,-36
1607090751.5831,-33
1607090751.5851,-26
1607090751.5871,-16
1607090751.5890,-12
1607090751.5897,-14
1607090751.5910,-14
1607090751.5928,-4
1607090751.5941,-2
1607090751.5960,-4
1607090751.5981,-2
1607090751.6000,0
1607090751.6020,2
1607090751.6040,4
1607090751.6061,4
1607090751.6080,4
1607090751.6100,4
1607090751.6121,9
1607090751.6141,7
1607090751.6160,7
1607090751.6180,7
1607090751.6200,12
1607090751.6220,14
1607090751.6227,14
1607090751.6240,12
1607090751.6261,14
1607090751.6280,16
1607090751.6300,16
1607090751.6322,14
1607090751.6341,12
1607090751.6361,14
1607090751.6380,21
1607090751.6400,24
1607090751.6420,24
1607090751.6440,21
1607090751.6460,21
1607090751.6480,21
1607090751.6500,24
1607090751.6520,24
1607090751.6527,24
1607090751.6540,21
1607090751.6560,19
1607090751.6580,21
1607090751.6600,24
1607090751.6621,24
1607090751.6641,21
1607090751.6661,24
1607090751.6680,21
1607090751.6702,19
1607090751.6720,21
1607090751.6740,26
1607090751.6760,26
1607090751.6780,24
1607090751.6800,19
1607090751.6820,19
1607090751.6827,19
1607090751.6840,16
1607090751.6860,16
1607090752.0906,19
1607090752.0913,16
1607090752.0936,14
1607090752.0963,19
1607090752.0983,19
1607090752.1003,16
1607090752.1024,16
1607090752.1043,16
1607090752.1063,12
1607090752.1083,4
1607090752.1090,0
1607090752.1103,0
1607090752.1123,4
1607090752.1143,14
1607090752.1163,26
1607090752.1183,24
1607090752.1203,12
1607090752.1222,0
1607090752.1242,-4
1607090752.1263,-4
1607090752.1282,-4
1607090752.1304,-4
1607090752.1323,-2
1607090752.1342,0
1607090752.1362,0
1607090752.1384,-7
1607090752.1402,-24
1607090752.1422,4
1607090752.1443,175
1607090752.1463,497
1607090752.1482,788
1607090752.1503,714
1607090752.1522,177
1607090752.1543,-226
1607090752.1562,-103
1607090752.1582,26
1607090752.1602,-84
1607090752.1623,-98
1607090752.1643,-31
1607090752.1662,-48
1607090752.1682,-62
1607090752.1689,-36
1607090752.1702,-31
1607090752.1722,-38
1607090752.1742,-28
1607090752.1763,-21
1607090752.1783,-19
1607090752.1802,-14
1607090752.1822,-9
1607090752.1842,-4
1607090752.1863,0
1607090752.1882,7
1607090752.1902,12
1607090752.1922,14
1607090752.1943,24
1607090752.1963,31
1607090752.1983,38
1607090752.1989,45
1607090752.2002,55
1607090752.2022,67
1607090752.2043,81
1607090752.2062,93
1607090752.2082,108
1607090752.2103,115
1607090752.2122,125
1607090752.2142,141
1607090752.2162,151
1607090752.2182,149
1607090752.2202,141
1607090752.2222,127
1607090752.2242,101
1607090752.2262,64
1607090752.2284,24
1607090752.6912,-7
1607090752.6920,-28
1607090752.6944,-45
1607090752.6971,-57
1607090752.6991,-64
1607090752.7011,-62
1607090752.7032,-69
1607090752.7051,-79
1607090752.7070,-74
1607090752.7091,-64
1607090752.7110,-62
1607090752.7130,-62
1607090752.7151,-55
1607090752.7170,-48
1607090752.7191,-45
1607090752.7210,-40
1607090752.7217,-33
1607090752.7231,-31
1607090752.7251,-28
1607090752.7270,-24
1607090752.7290,-19
1607090752.7310,-14
1607090752.7330,-12
1607090752.7350,-9
1607090752.7370,-7
1607090752.7390,-4
1607090752.7410,-7
1607090752.7430,-7
1607090752.7451,-2
1607090752.7470,-2
1607090752.7490,-4
1607090752.7510,0
1607090752.7517,4
1607090752.7530,0
1607090752.7550,0
1607090752.7570,0
1607090752.7591,0
1607090752.7610,2
1607090752.7630,2
1607090752.7650,4
1607090752.7670,7
1607090752.7690,4
1607090752.7711,2
1607090752.7730,9
1607090752.7751,12
1607090752.7770,12
1607090752.7790,14
1607090752.7810,16
1607090752.7817,16
1607090752.7830,14
1607090752.7852,16
1607090752.7871,16
1607090752.7890,19
1607090752.7910,19
1607090752.7930,19
1607090752.7950,19
1607090752.7970,14
1607090752.7990,9
1607090752.8010,12
1607090752.8030,14
1607090752.8050,12
1607090752.8070,9
1607090752.8091,14
1607090752.8110,19
1607090752.8117,16
1607090752.8130,12
1607090752.8150,12
1607090752.8170,9
1607090752.8190,7
1607090752.8210,12
1607090752.8230,14
1607090752.8251,14
1607090752.8270,16
1607090753.2009,19
1607090753.2016,19
1607090753.2040,24
1607090753.2066,24
1607090753.2086,21
1607090753.2093,21
1607090753.2116,21
1607090753.2136,16
1607090753.2157,7
1607090753.2176,7
1607090753.2196,7
1607090753.2216,0
1607090753.2236,-4
1607090753.2255,-2
1607090753.2276,2
1607090753.2295,2
1607090753.2317,0
1607090753.2335,0
1607090753.2356,2
1607090753.2376,4
1607090753.2396,4
1607090753.2402,2
1607090753.2416,0
1607090753.2435,2
1607090753.2456,14
1607090753.2476,26
1607090753.2496,36
1607090753.2515,36
1607090753.2537,28
1607090753.2556,19
1607090753.2575,14
1607090753.2595,12
1607090753.2616,7
1607090753.2635,9
1607090753.2656,14
1607090753.2676,12
1607090753.2695,14
1607090753.2702,19
1607090753.2716,9
1607090753.2736,-4
1607090753.2757,69
1607090753.2775,305
1607090753.2796,625
1607090753.2815,795
1607090753.2836,533
1607090753.2856,7
1607090753.2875,-161
1607090753.2896,4
1607090753.2915,-2
1607090753.2936,-93
1607090753.2956,-57
1607090753.2976,-31
1607090753.2995,-60
1607090753.3002,-48
1607090753.3016,-26
1607090753.3036,-33
1607090753.3056,-28
1607090753.3075,-14
1607090753.3096,-14
1607090753.3116,-16
1607090753.3136,-9
1607090753.3156,0
1607090753.3175,4
1607090753.3196,12
1607090753.3216,16
1607090753.3235,19
1607090753.3257,26
1607090753.3276,33
1607090753.3295,43
1607090753.3302,52
1607090753.3316,57
1607090753.3336,64
1607090753.3356,76
1607090753.7710,91
1607090753.7718,103
1607090753.7742,117
1607090753.7768,134
1607090753.7788,144
1607090753.7808,146
1607090753.7830,149
1607090753.7849,153
1607090753.7868,146
1607090753.7888,125
1607090753.7908,93
1607090753.7915,62
1607090753.7928,28
1607090753.7948,0
1607090753.7968,-19
1607090753.7988,-31
1607090753.8008,-40
1607090753.8028,-48
1607090753.8048,-50
1607090753.8067,-48
1607090753.8087,-45
1607090753.8107,-43
1607090753.8128,-40
1607090753.8148,-36
1607090753.8167,-28
1607090753.8187,-28
1607090753.8207,-24
1607090753.8214,-16
1607090753.8227,-16
1607090753.8248,-14
1607090753.8268,-9
1607090753.8287,-4
1607090753.8307,-4
1607090753.8327,-4
1607090753.8348,0
1607090753.8367,2
1607090753.8387,7
1607090753.8407,9
1607090753.8427,9
1607090753.8448,9
1607090753.8467,9
1607090753.8487,9
1607090753.8507,7
1607090753.8514,4
1607090753.8528,4
1607090753.8548,7
1607090753.8568,7
1607090753.8587,12
1607090753.8607,16
1607090753.8628,14
1607090753.8647,14
1607090753.8667,16
1607090753.8688,16
1607090753.8707,16
1607090753.8727,19
1607090753.8748,24
1607090753.8767,24
1607090753.8790,26
1607090753.8810,26
1607090753.8827,24
1607090753.8848,21
1607090753.8867,28
1607090753.8887,36
1607090753.8907,31
1607090753.8928,26
1607090753.8948,28
1607090753.8967,31
1607090753.8987,31
1607090753.9008,31
1607090753.9027,31
1607090753.9048,31
1607090753.9067,33
1607090753.9087,33
1607090754.4310,33
1607090754.4320,33
1607090754.4344,31
1607090754.4371,31
1607090754.4390,33
1607090754.4410,33
1607090754.4430,28
1607090754.4450,28
1607090754.4470,28
1607090754.4490,26
1607090754.4510,24
1607090754.4530,24
1607090754.4550,24
1607090754.4570,21
1607090754.4591,21
1607090754.4597,21
1607090754.4610,19
1607090754.4630,19
1607090754.4650,21
1607090754.4669,21
1607090754.4689,26
1607090754.4709,28
1607090754.4729,24
1607090754.4750,21
1607090754.4770,26
1607090754.4790,31
1607090754.4810,31
1607090754.4829,28
1607090754.4850,31
1607090754.4869,31
1607090754.4889,28
1607090754.4896,26
1607090754.4909,26
1607090754.4929,24
1607090754.4950,26
1607090754.4971,36
1607090754.4990,55
1607090754.5009,62
1607090754.5030,55
1607090754.5050,45
1607090754.5069,33
1607090754.5090,24
1607090754.5109,24
1607090754.5129,26
1607090754.5150,26
1607090754.5169,26
1607090754.5189,28
1607090754.5196,31
1607090754.5209,31
1607090754.5229,19
1607090754.5249,26
1607090754.5270,156
1607090754.5289,444
1607090754.5309,757
1607090754.5329,776
1607090754.5349,303
1607090754.5369,-177
1607090754.5389,-125
1607090754.5409,55
1607090754.5429,-26
1607090754.5449,-69
1607090754.5469,-2
1607090754.5489,-7
1607090754.5496,-28
1607090754.5509,-4
1607090754.5529,4
1607090754.5549,-2
1607090754.5569,7
1607090754.5590,14
1607090754.5609,14
1607090754.5629,19
1607090754.5649,24
1607090754.5669,26
1607090754.9108,31
1607090754.9115,38
1607090754.9138,43
1607090754.9165,48
1607090754.9185,50
1607090754.9205,57
1607090754.9212,67
1607090754.9225,76
1607090754.9245,84
1607090754.9265,93
1607090754.9285,105
1607090754.9305,113
1607090754.9325,122
1607090754.9347,141
1607090754.9365,158
1607090754.9385,165
1607090754.9405,170
1607090754.9424,177
1607090754.9445,173
1607090754.9464,153
1607090754.9484,122
1607090754.9504,86
1607090754.9511,43
1607090754.9524,2
1607090754.9545,-19
1607090754.9564,-31
1607090754.9584,-52
1607090754.9604,-67
1607090754.9624,-64
1607090754.9645,-60
1607090754.9665,-60
1607090754.9684,-60
1607090754.9704,-57
1607090754.9724,-52
1607090754.9745,-50
1607090754.9764,-45
1607090754.9784,-38
1607090754.9804,-28
1607090754.9811,-24
1607090754.9824,-21
1607090754.9845,-19
1607090754.9864,-14
1607090754.9884,-12
1607090754.9905,-7
1607090754.9924,0
1607090754.9945,4
1607090754.9965,2
1607090754.9985,2
1607090755.0004,4
1607090755.0024,7
1607090755.0045,9
1607090755.0064,9
1607090755.0085,9
1607090755.0104,9
1607090755.0111,9
1607090755.0124,7
1607090755.0145,12
1607090755.0164,12
1607090755.0184,12
1607090755.0204,14
1607090755.0224,16
1607090755.0245,16
1607090755.0264,16
1607090755.0284,16
1607090755.0306,16
1607090755.0325,16
1607090755.0345,16
1607090755.0364,16
1607090755.0385,19
1607090755.0404,19
1607090755.0411,16
1607090755.0425,19
1607090755.0445,21
1607090755.4511,24
1607090755.4519,21
1607090755.4544,19
1607090755.4570,19
1607090755.4590,24
1607090755.4611,21
1607090755.4630,16
1607090755.4650,16
1607090755.4670,14
1607090755.4690,7
1607090755.4697,9
1607090755.4710,14
1607090755.4729,12
1607090755.4750,9
1607090755.4770,12
1607090755.4789,14
1607090755.4809,16
1607090755.4829,14
1607090755.4850,12
1607090755.4869,9
1607090755.4890,7
1607090755.4909,7
1607090755.4929,7
1607090755.4950,7
1607090755.4969,2
1607090755.4989,0
1607090755.4996,2
1607090755.5009,2
1607090755.5029,0
1607090755.5050,0
1607090755.5069,-2
1607090755.5090,-2
1607090755.5109,2
1607090755.5129,19
1607090755.5150,36
1607090755.5169,40
1607090755.5189,28
1607090755.5209,14
1607090755.5229,12
1607090755.5250,9
1607090755.5269,4
1607090755.5289,4
1607090755.5298,7
1607090755.5309,7
1607090755.5329,9
1607090755.5349,9
1607090755.5369,0
1607090755.5390,-14
1607090755.5409,40
1607090755.5429,262
1607090755.5450,603
1607090755.5469,822
1607090755.5489,593
1607090755.5509,14
1607090755.5529,-226
1607090755.5550,-33
1607090755.5569,7
1607090755.5590,-98
1607090755.5596,-64
1607090755.5609,-24
1607090755.5629,-57
1607090755.5649,-52
1607090755.5669,-26
1607090755.5689,-33
1607090755.5709,-33
1607090755.5729,-16
1607090755.5749,-12
1607090755.5769,-14
1607090755.5789,-4
1607090755.5809,4
1607090755.5829,7
1607090755.5850,12
1607090755.5869,14
1607090756.0206,19
1607090756.0214,26
1607090756.0232,31
1607090756.0252,38
1607090756.0273,48
1607090756.0292,52
1607090756.0312,57
1607090756.0332,67
1607090756.0353,81
1607090756.0373,96
1607090756.0392,113
1607090756.0412,125
1607090756.0433,129
1607090756.0453,137
1607090756.0473,146
1607090756.0492,149
1607090756.0512,141
1607090756.0532,120
1607090756.0552,84
1607090756.0571,45
1607090756.0594,12
1607090756.0612,-19
1607090756.0631,-40
1607090756.0652,-48
1607090756.0672,-55
1607090756.0692,-67
1607090756.0711,-67
1607090756.0731,-62
1607090756.0752,-60
1607090756.0772,-57
1607090756.0778,-57
1607090756.0791,-52
1607090756.0811,-45
1607090756.0831,-45
1607090756.0852,-40
1607090756.0871,-36
1607090756.0891,-31
1607090756.0911,-26
1607090756.0932,-24
1607090756.0952,-19
1607090756.0971,-16
1607090756.0991,-14
1607090756.1011,-12
1607090756.1031,-7
1607090756.1051,-4
1607090756.1071,-7
1607090756.1078,-4
1607090756.1091,-2
1607090756.1111,-2
1607090756.1131,-4
1607090756.1152,0
1607090756.1171,2
1607090756.1191,0
1607090756.1211,-2
1607090756.1231,0
1607090756.1251,4
1607090756.1271,4
1607090756.1291,4
1607090756.1311,7
1607090756.1331,7
1607090756.1351,7
1607090756.1371,7
1607090756.1378,12
1607090756.1391,12
1607090756.1411,14
1607090756.1431,14
1607090756.1451,12
1607090756.1471,14
1607090756.1491,14
1607090756.1511,12
1607090756.1524,16
1607090756.1543,19
1607090756.1562,14
1607090756.5611,9
1607090756.5619,14
1607090756.5643,14
1607090756.5660,12
1607090756.5666,7
1607090756.5680,4
1607090756.5700,0
1607090756.5720,-2
1607090756.5740,-4
1607090756.5760,-2
1607090756.5779,-2
1607090756.5799,-2
1607090756.5819,0
1607090756.5839,4
1607090756.5859,2
1607090756.5879,2
1607090756.5899,4
1607090756.5919,7
1607090756.5939,9
1607090756.5959,9
1607090756.5965,9
1607090756.5979,12
1607090756.5999,7
1607090756.6019,2
1607090756.6039,4
1607090756.6060,9
1607090756.6080,12
1607090756.6099,7
1607090756.6119,7
1607090756.6139,9
1607090756.6160,9
1607090756.6179,9
1607090756.6199,12
1607090756.6220,12
1607090756.6239,9
1607090756.6259,9
1607090756.6265,9
1607090756.6279,7
1607090756.6299,7
1607090756.6319,9
1607090756.6339,16
1607090756.6359,14
1607090756.6379,12
1607090756.6399,14
1607090756.6419,14
1607090756.6439,9
1607090756.6459,9
1607090756.6479,14
1607090756.6499,26
1607090756.6522,43
1607090756.6539,48
1607090756.6559,45
1607090756.6565,36
1607090756.6579,24
1607090756.6599,21
1607090756.6620,21
1607090756.6640,19
1607090756.6660,16
1607090756.6679,16
1607090756.6700,21
1607090756.6720,26
1607090756.6739,21
1607090756.6759,9
1607090756.6779,7
1607090756.6799,108
1607090756.6819,370
1607090756.6839,685
1607090756.6859,783
1607090756.6865,428
1607090756.6879,-76
1607090756.6899,-144
1607090756.6919,14
1607090756.6939,-33
1607090757.1307,-101
1607090757.1312,-45
1607090757.1336,-33
1607090757.1363,-57
1607090757.1383,-50
1607090757.1402,-40
1607090757.1423,-43
1607090757.1443,-33
1607090757.1462,-26
1607090757.1482,-24
1607090757.1502,-19
1607090757.1522,-9
1607090757.1529,-4
1607090757.1542,0
1607090757.1562,4
1607090757.1582,12
1607090757.1602,16
1607090757.1622,24
1607090757.1642,31
1607090757.1662,38
1607090757.1682,45
1607090757.1702,52
1607090757.1722,62
1607090757.1742,74
1607090757.1762,86
1607090757.1782,101
1607090757.1802,117
1607090757.1824,129
1607090757.1828,137
1607090757.1844,146
1607090757.1862,156
1607090757.1882,156
1607090757.1902,144
1607090757.1923,122
1607090757.1942,93
1607090757.1962,57
1607090757.1982,24
1607090757.2002,-2
1607090757.2022,-24
1607090757.2042,-40
1607090757.2062,-43
1607090757.2082,-43
1607090757.2102,-48
1607090757.2122,-48
1607090757.2128,-45
1607090757.2142,-38
1607090757.2162,-36
1607090757.2182,-36
1607090757.2202,-33
1607090757.2222,-26
1607090757.2242,-24
1607090757.2263,-24
1607090757.2283,-21
1607090757.2303,-14
1607090757.2323,-9
1607090757.2342,-9
1607090757.2362,-4
1607090757.2382,0
1607090757.2403,-2
1607090757.2423,-2
1607090757.2428,0
1607090757.2442,0
1607090757.2462,2
1607090757.2482,2
1607090757.2502,-2
1607090757.2522,0
1607090757.2542,4
1607090757.2562,4
1607090757.2582,0
1607090757.2602,2
1607090757.2622,7
1607090757.2642,9
1607090757.2662,9
1607090757.7311,9
1607090757.7320,9
1607090757.7345,9
1607090757.7355,14
1607090757.7371,19
1607090757.7393,19
1607090757.7411,14
1607090757.7431,12
1607090757.7451,14
1607090757.7471,12
1607090757.7492,12
1607090757.7512,14
1607090757.7531,16
1607090757.7551,16
1607090757.7572,16
1607090757.7591,16
1607090757.7611,19
1607090757.7631,19
1607090757.7651,19
1607090757.7656,19
1607090757.7672,16
1607090757.7692,16
1607090757.7711,16
1607090757.7731,24
1607090757.7751,28
1607090757.7771,24
1607090757.7791,21
1607090757.7811,24
1607090757.7831,26
1607090757.7851,33
1607090757.7871,31
1607090757.7890,28
1607090757.7911,31
1607090757.7931,33
1607090757.7952,31
1607090757.7957,31
1607090757.7971,31
1607090757.7992,28
1607090757.8011,28
1607090757.8030,28
1607090757.8051,26
1607090757.8070,26
1607090757.8091,31
1607090757.8110,36
1607090757.8130,38
1607090757.8151,36
1607090757.8171,36
1607090757.8191,38
1607090757.8211,36
1607090757.8230,33
1607090757.8251,36
1607090757.8256,33
1607090757.8271,28
1607090757.8291,28
1607090757.8311,31
1607090757.8331,33
1607090757.8353,31
1607090757.8371,26
1607090757.8391,28
1607090757.8411,31
1607090757.8431,26
1607090757.8451,21
1607090757.8470,26
1607090757.8491,43
1607090757.8511,60
1607090757.8530,67
1607090757.8550,60
1607090757.8557,50
1607090757.8571,38
1607090757.8591,31
1607090757.8611,33
1607090757.8631,40
1607090757.8651,38
1607090758.2710,36
1607090758.2717,40
1607090758.2741,43
1607090758.2767,36
1607090758.2787,19
1607090758.2807,38
1607090758.2827,189
1607090758.2833,495
1607090758.2848,786
1607090758.2867,735
1607090758.2887,216
1607090758.2907,-209
1607090758.2927,-93
1607090758.2948,50
1607090758.2967,-60
1607090758.2987,-79
1607090758.3007,-7
1607090758.3027,-24
1607090758.3048,-43
1607090758.3065,-12
1607090758.3088,-4
1607090758.3107,-12
1607090758.3127,-2
1607090758.3133,4
1607090758.3147,7
1607090758.3167,14
1607090758.3187,21
1607090758.3207,24
1607090758.3227,31
1607090758.3247,36
1607090758.3267,36
1607090758.3287,40
1607090758.3307,45
1607090758.3327,55
1607090758.3349,64
1607090758.3367,74
1607090758.3387,84
1607090758.3407,93
1607090758.3427,103
1607090758.3433,115
1607090758.3447,132
1607090758.3467,149
1607090758.3487,163
1607090758.3507,177
1607090758.3527,185
1607090758.3547,187
1607090758.3567,182
1607090758.3587,170
1607090758.3607,141
1607090758.3627,96
1607090758.3647,55
1607090758.3668,24
1607090758.3687,-2
1607090758.3707,-24
1607090758.3726,-40
1607090758.3733,-48
1607090758.3747,-50
1607090758.3767,-50
1607090758.3787,-48
1607090758.3807,-45
1607090758.3827,-40
1607090758.3847,-43
1607090758.3867,-43
1607090758.3887,-33
1607090758.3907,-21
1607090758.3927,-16
1607090758.3947,-14
1607090758.3967,-14
1607090758.3987,-12
1607090758.4007,-2
1607090758.4027,2
1607090758.4033,2
1607090758.4047,2
1607090758.8409,4
1607090758.8416,4
1607090758.8440,7
1607090758.8466,12
1607090758.8486,12
1607090758.8506,12
1607090758.8528,12
1607090758.8547,7
1607090758.8566,0
1607090758.8573,-4
1607090758.8586,-2
1607090758.8607,2
1607090758.8628,7
1607090758.8647,7
1607090758.8666,9
1607090758.8686,9
1607090758.8706,7
1607090758.8726,9
1607090758.8746,9
1607090758.8766,12
1607090758.8786,14
1607090758.8806,14
1607090758.8826,14
1607090758.8846,12
1607090758.8866,9
1607090758.8872,12
1607090758.8888,12
1607090758.8906,14
1607090758.8926,14
1607090758.8946,16
1607090758.8966,19
1607090758.8986,16
1607090758.9006,16
1607090758.9026,14
1607090758.9046,12
1607090758.9066,14
1607090758.9086,16
1607090758.9106,16
1607090758.9126,16
1607090758.9146,14
1607090758.9152,12
1607090758.9167,14
1607090758.9186,12
1607090758.9206,7
1607090758.9226,7
1607090758.9247,9
1607090758.9266,9
1607090758.9286,7
1607090758.9306,4
1607090758.9326,4
1607090758.9346,4
1607090758.9366,7
1607090758.9386,9
1607090758.9406,14
1607090758.9426,12
1607090758.9446,7
1607090758.9452,9
1607090758.9466,14
1607090758.9486,12
1607090758.9506,9
1607090758.9526,9
1607090758.9546,9
1607090758.9566,9
1607090758.9587,12
1607090758.9607,21
1607090758.9626,36
1607090758.9646,40
1607090758.9666,36
1607090758.9686,31
1607090758.9706,19
1607090758.9727,9
1607090758.9746,12
1607090758.9753,12
1607090759.3808,12
1607090759.3814,9
1607090759.3838,12
1607090759.3866,16
1607090759.3885,12
1607090759.3905,-4
1607090759.3925,-4
1607090759.3945,113
1607090759.3965,399
1607090759.3985,719
1607090759.3991,786
1607090759.4005,367
1607090759.4025,-149
1607090759.4045,-163
1607090759.4065,21
1607090759.4084,-45
1607090759.4105,-110
1607090759.4124,-45
1607090759.4145,-38
1607090759.4165,-64
1607090759.4185,-45
1607090759.4205,-31
1607090759.4225,-33
1607090759.4245,-26
1607090759.4264,-21
1607090759.4284,-24
1607090759.4290,-14
1607090759.4304,-2
1607090759.4324,0
1607090759.4345,0
1607090759.4364,4
1607090759.4384,14
1607090759.4404,16
1607090759.4424,21
1607090759.4445,24
1607090759.4464,26
1607090759.4484,36
1607090759.4504,50
1607090759.4524,57
1607090759.4545,69
1607090759.4564,88
1607090759.4586,101
1607090759.4590,113
1607090759.4605,127
1607090759.4624,139
1607090759.4645,149
1607090759.4664,156
1607090759.4684,153
1607090759.4704,139
1607090759.4724,115
1607090759.4745,84
1607090759.4765,45
1607090759.4784,9
1607090759.4804,-16
1607090759.4824,-33
1607090759.4845,-45
1607090759.4865,-55
1607090759.4884,-60
1607090759.4890,-55
1607090759.4904,-55
1607090759.4924,-57
1607090759.4945,-52
1607090759.4964,-48
1607090759.4984,-48
1607090759.5004,-43
1607090759.5024,-38
1607090759.5045,-33
1607090759.5064,-28
1607090759.5084,-24
1607090759.5104,-21
1607090759.5124,-16
1607090759.5145,-14
1607090759.5164,-14
1607090759.9510,-9
1607090759.9519,-2
1607090759.9544,-2
1607090759.9570,-4
1607090759.9590,-2
1607090759.9610,-2
1607090759.9630,-9
1607090759.9650,-14
1607090759.9669,-7
1607090759.9689,0
1607090759.9709,0
1607090759.9729,-2
1607090759.9750,-2
1607090759.9769,0
1607090759.9789,2
1607090759.9809,2
1607090759.9829,0
1607090759.9835,0
1607090759.9849,0
1607090759.9871,4
1607090759.9889,7
1607090759.9909,4
1607090759.9929,2
1607090759.9949,4
1607090759.9969,7
1607090759.9989,7
1607090760.0010,4
1607090760.0030,2
1607090760.0054,2
1607090760.0070,2
1607090760.0094,2
1607090760.0109,7
1607090760.0129,12
1607090760.0136,12
1607090760.0150,9
1607090760.0169,7
1607090760.0188,12
1607090760.0208,14
1607090760.0229,14
1607090760.0249,16
1607090760.0268,19
1607090760.0288,14
1607090760.0309,14
1607090760.0328,19
1607090760.0349,16
1607090760.0368,12
1607090760.0388,12
1607090760.0408,7
1607090760.0428,4
1607090760.0435,7
1607090760.0449,9
1607090760.0469,9
1607090760.0489,12
1607090760.0508,12
1607090760.0528,9
1607090760.0549,12
1607090760.0568,16
1607090760.0590,16
1607090760.0609,16
1607090760.0628,16
1607090760.0649,19
1607090760.0668,19
1607090760.0688,21
1607090760.0709,21
1607090760.0728,21
1607090760.0735,21
1607090760.0749,24
1607090760.0769,26
1607090760.0788,26
1607090760.0808,24
1607090760.0830,24
1607090760.0850,21
1607090760.0868,19
1607090760.4914,24
1607090760.4928,26
1607090760.4952,33
1607090760.4978,48
1607090760.4999,57
1607090760.5007,55
1607090760.5018,45
1607090760.5039,26
1607090760.5058,9
1607090760.5078,9
1607090760.5098,12
1607090760.5118,9
1607090760.5138,9
1607090760.5158,14
1607090760.5178,19
1607090760.5198,16
1607090760.5218,4
1607090760.5238,-2
1607090760.5257,69
1607090760.5278,298
1607090760.5298,622
1607090760.5304,798
1607090760.5318,526
1607090760.5338,-9
1607090760.5358,-173
1607090760.5377,2
1607090760.5397,0
1607090760.5418,-98
1607090760.5437,-55
1607090760.5457,-19
1607090760.5477,-45
1607090760.5497,-43
1607090760.5517,-21
1607090760.5537,-24
1607090760.5557,-24
1607090760.5577,-12
1607090760.5597,-7
1607090760.5603,-4
1607090760.5617,0
1607090760.5637,4
1607090760.5657,7
1607090760.5677,14
1607090760.5697,19
1607090760.5717,26
1607090760.5737,31
1607090760.5757,38
1607090760.5777,45
1607090760.5797,52
1607090760.5820,57
1607090760.5838,69
1607090760.5857,81
1607090760.5877,91
1607090760.5897,103
1607090760.5903,120
1607090760.5917,134
1607090760.5937,149
1607090760.5958,158
1607090760.5978,163
1607090760.5997,163
1607090760.6017,156
1607090760.6037,139
1607090760.6057,110
1607090760.6077,74
1607090760.6097,40
1607090760.6117,12
1607090760.6137,-9
1607090760.6157,-26
1607090760.6177,-36
1607090760.6197,-38
1607090760.6203,-40
1607090760.6217,-43
1607090760.6237,-43
1607090760.6257,-38
1607090761.0909,-33
1607090761.0918,-33
1607090761.0943,-31
1607090761.0969,-26
1607090761.0989,-28
1607090761.1009,-31
1607090761.1030,-28
1607090761.1049,-21
1607090761.1055,-19
1607090761.1069,-19
1607090761.1089,-16
1607090761.1109,-14
1607090761.1129,-16
1607090761.1149,-14
1607090761.1170,-14
1607090761.1188,-12
1607090761.1208,-9
1607090761.1228,-7
1607090761.1248,-4
1607090761.1269,-4
1607090761.1288,-2
1607090761.1308,-2
1607090761.1328,0
1607090761.1348,2
1607090761.1354,4
1607090761.1368,4
1607090761.1390,7
1607090761.1408,7
1607090761.1429,4
1607090761.1448,2
1607090761.1468,2
1607090761.1488,7
1607090761.1508,9
1607090761.1528,9
1607090761.1548,12
1607090761.1567,12
1607090761.1587,9
1607090761.1609,12
1607090761.1628,14
1607090761.1648,12
1607090761.1654,12
1607090761.1667,16
1607090761.1687,19
1607090761.1707,19
1607090761.1727,19
1607090761.1748,19
1607090761.1768,19
1607090761.1788,19
1607090761.1807,21
1607090761.1827,21
1607090761.1848,24
1607090761.1868,24
1607090761.1887,24
1607090761.1907,26
1607090761.1928,28
1607090761.1949,31
1607090761.1953,31
1607090761.1967,28
1607090761.1988,24
1607090761.2007,21
1607090761.2027,24
1607090761.2048,24
1607090761.2068,19
1607090761.2088,16
1607090761.2109,19
1607090761.2128,21
1607090761.2148,24
1607090761.2168,24
1607090761.2188,21
1607090761.2207,21
1607090761.2228,21
1607090761.2248,24
1607090761.2254,28
1607090761.6311,28
1607090761.6321,26
1607090761.6345,26
1607090761.6363,21
1607090761.6385,19
1607090761.6403,21
1607090761.6422,24
1607090761.6442,26
1607090761.6462,24
1607090761.6482,14
1607090761.6502,2
1607090761.6522,4
1607090761.6542,16
1607090761.6562,31
1607090761.6582,43
1607090761.6589,48
1607090761.6601,43
1607090761.6622,31
1607090761.6643,19
1607090761.6662,21
1607090761.6682,24
1607090761.6702,16
1607090761.6722,14
1607090761.6742,19
1607090761.6761,21
1607090761.6781,21
1607090761.6801,12
1607090761.6821,4
1607090761.6841,72
1607090761.6861,295
1607090761.6882,630
1607090761.6887,822
1607090761.6901,541
1607090761.6923,-38
1607090761.6941,-214
1607090761.6961,2
1607090761.6981,21
1607090761.7001,-84
1607090761.7022,-40
1607090761.7042,-2
1607090761.7061,-33
1607090761.7081,-24
1607090761.7101,-4
1607090761.7121,-7
1607090761.7141,-4
1607090761.7161,4
1607090761.7181,7
1607090761.7187,14
1607090761.7201,21
1607090761.7221,26
1607090761.7241,28
1607090761.7261,33
1607090761.7281,38
1607090761.7301,38
1607090761.7321,45
1607090761.7343,50
1607090761.7361,52
1607090761.7381,60
1607090761.7401,72
1607090761.7422,84
1607090761.7441,98
1607090761.7461,110
1607090761.7481,125
1607090761.7487,141
1607090761.7501,156
1607090761.7521,170
1607090761.7541,182
1607090761.7561,192
1607090761.7581,187
1607090761.7601,173
1607090761.7621,151
1607090761.7641,122
1607090761.7661,86
1607090762.2012,43
1607090762.2021,9
1607090762.2046,-16
1607090762.2057,-36
1607090762.2072,-43
1607090762.2091,-48
1607090762.2112,-52
1607090762.2133,-60
1607090762.2151,-64
1607090762.2171,-60
1607090762.2191,-52
1607090762.2211,-50
1607090762.2231,-48
1607090762.2251,-43
1607090762.2271,-38
1607090762.2291,-36
1607090762.2311,-31
1607090762.2331,-26
1607090762.2352,-24
1607090762.2357,-24
1607090762.2371,-16
1607090762.2391,-9
1607090762.2411,-9
1607090762.2431,-9
1607090762.2452,-4
1607090762.2471,-2
1607090762.2491,-4
1607090762.2511,-2
1607090762.2531,2
1607090762.2551,2
1607090762.2571,-2
1607090762.2591,-2
1607090762.2611,0
1607090762.2633,2
1607090762.2651,2
1607090762.2657,2
1607090762.2671,4
1607090762.2691,4
1607090762.2711,7
1607090762.2731,7
1607090762.2751,9
1607090762.2771,12
1607090762.2791,12
1607090762.2811,12
1607090762.2831,12
1607090762.2851,12
1607090762.2871,9
1607090762.2891,7
1607090762.2911,9
1607090762.2931,9
1607090762.2951,9
1607090762.2957,12
1607090762.2971,12
1607090762.2991,9
1607090762.3011,9
1607090762.3031,12
1607090762.3051,12
1607090762.3071,12
1607090762.3091,12
1607090762.3111,14
1607090762.3131,14
1607090762.3151,9
1607090762.3171,4
1607090762.3191,7
1607090762.3211,9
1607090762.3231,12
1607090762.3252,9
1607090762.3257,9
1607090762.3271,12
1607090762.3291,12
1607090762.3311,12
1607090762.3331,14
1607090762.3353,14
1607090762.7411,9
1607090762.7420,7
1607090762.7444,7
1607090762.7461,2
1607090762.7480,2
1607090762.7500,2
1607090762.7520,2
1607090762.7540,2
1607090762.7560,-2
1607090762.7566,-9
1607090762.7580,-9
1607090762.7603,-7
1607090762.7621,-9
1607090762.7643,-9
1607090762.7660,2
1607090762.7680,24
1607090762.7700,31
1607090762.7720,26
1607090762.7740,19
1607090762.7760,9
1607090762.7780,4
1607090762.7800,2
1607090762.7820,4
1607090762.7840,4
1607090762.7860,2
1607090762.7866,2
1607090762.7880,7
1607090762.7900,4
1607090762.7920,-12
1607090762.7940,-7
1607090762.7960,115
1607090762.7981,406
1607090762.8001,733
1607090762.8020,788
1607090762.8040,346
1607090762.8060,-163
1607090762.8080,-156
1607090762.8100,19
1607090762.8120,-55
1607090762.8140,-110
1607090762.8160,-43
1607090762.8166,-43
1607090762.8180,-67
1607090762.8200,-45
1607090762.8220,-33
1607090762.8240,-38
1607090762.8260,-31
1607090762.8280,-24
1607090762.8300,-21
1607090762.8320,-14
1607090762.8340,-4
1607090762.8361,0
1607090762.8380,2
1607090762.8392,7
1607090762.8410,12
1607090762.8430,12
1607090762.8436,14
1607090762.8450,24
1607090762.8470,31
1607090762.8490,36
1607090762.8510,48
1607090762.8530,62
1607090762.8552,72
1607090762.8570,84
1607090762.8590,101
1607090762.8610,115
1607090762.8630,127
1607090762.8650,139
1607090762.8670,149
1607090762.8690,156
1607090762.8710,153
1607090762.8731,139
1607090762.8736,113
1607090763.3107,76
1607090763.3117,40
1607090763.3140,12
1607090763.3168,-14
1607090763.3188,-38
1607090763.3207,-55
1607090763.3229,-69
1607090763.3248,-74
1607090763.3267,-69
1607090763.3287,-67
1607090763.3307,-67
1607090763.3327,-64
1607090763.3347,-60
1607090763.3353,-57
1607090763.3367,-55
1607090763.3387,-50
1607090763.3407,-40
1607090763.3427,-38
1607090763.3447,-38
1607090763.3467,-33
1607090763.3487,-26
1607090763.3507,-26
1607090763.3527,-24
1607090763.3547,-19
1607090763.3567,-14
1607090763.3587,-12
1607090763.3606,-12
1607090763.3626,-12
1607090763.3647,-7
1607090763.3653,-7
1607090763.3666,-9
1607090763.3686,-4
1607090763.3707,0
1607090763.3726,0
1607090763.3747,0
1607090763.3766,0
1607090763.3786,-2
1607090763.3806,-4
1607090763.3826,0
1607090763.3847,4
1607090763.3868,4
1607090763.3887,2
1607090763.3907,4
1607090763.3926,9
1607090763.3947,12
1607090763.3952,9
1607090763.3966,9
1607090763.3986,9
1607090763.4006,4
1607090763.4026,4
1607090763.4047,7
1607090763.4066,9
1607090763.4087,4
1607090763.4106,4
1607090763.4126,7
1607090763.4146,7
1607090763.4167,9
1607090763.4186,9
1607090763.4207,4
1607090763.4226,4
1607090763.4247,4
1607090763.4252,7
1607090763.4266,14
1607090763.4286,14
1607090763.4306,12
1607090763.4326,12
1607090763.4347,14
1607090763.4367,16
1607090763.4387,16
1607090763.4406,19
1607090763.4426,19
1607090763.4447,19
1607090763.4466,19
1607090763.8511,19
1607090763.8520,19
1607090763.8545,19
1607090763.8556,14
1607090763.8572,12
1607090763.8591,14
1607090763.8611,14
1607090763.8632,7
1607090763.8651,4
1607090763.8671,9
1607090763.8691,7
1607090763.8711,4
1607090763.8731,9
1607090763.8751,12
1607090763.8770,9
1607090763.8791,7
1607090763.8811,9
1607090763.8831,4
1607090763.8853,2
1607090763.8857,4
1607090763.8871,2
1607090763.8890,2
1607090763.8910,7
1607090763.8930,7
1607090763.8951,12
1607090763.8970,28
1607090763.8990,43
1607090763.9010,43
1607090763.9033,38
1607090763.9051,31
1607090763.9070,16
1607090763.9090,12
1607090763.9110,14
1607090763.9130,14
1607090763.9151,14
1607090763.9156,16
1607090763.9170,19
1607090763.9190,16
1607090763.9210,7
1607090763.9230,-9
1607090763.9250,21
1607090763.9270,199
1607090763.9290,512
1607090763.9310,771
1607090763.9330,668
1607090763.9350,158
1607090763.9370,-180
1607090763.9390,-60
1607090763.9410,21
1607090763.9430,-84
1607090763.9451,-86
1607090763.9456,-31
1607090763.9470,-50
1607090763.9490,-60
1607090763.9510,-33
1607090763.9530,-28
1607090763.9551,-31
1607090763.9570,-24
1607090763.9591,-16
1607090763.9610,-12
1607090763.9630,-2
1607090763.9651,0
1607090763.9670,0
1607090763.9690,7
1607090763.9710,14
1607090763.9730,19
1607090763.9751,21
1607090763.9832,28
1607090763.9851,38
1607090763.9872,45
1607090763.9891,52
1607090763.9910,62
1607090763.9930,72
1607090764.4512,84
1607090764.4521,96
1607090764.4546,113
1607090764.4572,125
1607090764.4591,132
1607090764.4611,137
1607090764.4633,149
1607090764.4639,151
1607090764.4650,144
1607090764.4671,129
1607090764.4691,105
1607090764.4711,72
1607090764.4731,38
1607090764.4751,9
1607090764.4771,-16
1607090764.4791,-33
1607090764.4811,-43
1607090764.4831,-48
1607090764.4851,-50
1607090764.4871,-48
1607090764.4891,-48
1607090764.4911,-48
1607090764.4931,-45
1607090764.4937,-40
1607090764.4951,-38
1607090764.4971,-33
1607090764.4991,-28
1607090764.5011,-26
1607090764.5030,-24
1607090764.5051,-19
1607090764.5071,-14
1607090764.5090,-12
1607090764.5111,-12
1607090764.5131,-12
1607090764.5151,-9
1607090764.5171,-7
1607090764.5190,-7
1607090764.5210,-2
1607090764.5230,0
1607090764.5237,0
1607090764.5251,2
1607090764.5270,0
1607090764.5290,2
1607090764.5310,2
1607090764.5330,2
1607090764.5350,4
1607090764.5370,7
1607090764.5392,9
1607090764.5411,9
1607090764.5430,12
1607090764.5451,12
1607090764.5470,12
1607090764.5490,14
1607090764.5510,14
1607090764.5530,16
1607090764.5537,24
1607090764.5551,26
1607090764.5570,24
1607090764.5591,21
1607090764.5610,24
1607090764.5630,26
1607090764.5651,26
1607090764.5670,26
1607090764.5690,26
1607090764.5710,26
1607090764.5730,28
1607090764.5751,28
1607090764.5770,28
1607090764.5790,31
1607090764.5810,33
1607090764.5830,36
1607090764.5837,36
1607090764.5851,33
1607090765.0208,33
1607090765.0217,33
1607090765.0234,33
1607090765.0255,33
1607090765.0274,36
1607090765.0294,36
1607090765.0314,38
1607090765.0334,43
1607090765.0355,43
1607090765.0373,36
1607090765.0393,28
1607090765.0413,33
1607090765.0420,33
1607090765.0433,28
1607090765.0453,31
1607090765.0473,33
1607090765.0493,28
1607090765.0514,28
1607090765.0533,28
1607090765.0554,28
1607090765.0573,26
1607090765.0593,28
1607090765.0613,31
1607090765.0634,31
1607090765.0654,28
1607090765.0675,24
1607090765.0694,24
1607090765.0713,28
1607090765.0720,31
1607090765.0733,26
1607090765.0754,24
1607090765.0773,21
1607090765.0793,16
1607090765.0813,19
1607090765.0833,24
1607090765.0853,21
1607090765.0873,21
1607090765.0893,24
1607090765.0913,21
1607090765.0933,28
1607090765.0953,48
1607090765.0973,62
1607090765.0993,64
1607090765.1013,62
1607090765.1020,52
1607090765.1033,36
1607090765.1053,26
1607090765.1073,26
1607090765.1093,31
1607090765.1113,33
1607090765.1133,33
1607090765.1153,33
1607090765.1173,36
1607090765.1193,26
1607090765.1213,21
1607090765.1233,84
1607090765.1253,307
1607090765.1273,642
1607090765.1293,834
1607090765.1313,545
1607090765.1320,-31
1607090765.1333,-197
1607090765.1354,16
1607090765.1373,28
1607090765.1393,-76
1607090765.1413,-31
1607090765.1433,7
1607090765.1453,-28
1607090765.1473,-21
1607090765.1493,2
1607090765.1513,0
1607090765.1533,2
1607090765.1553,14
1607090765.5609,19
1607090765.5616,24
1607090765.5633,28
1607090765.5660,31
1607090765.5677,36
1607090765.5696,43
1607090765.5716,45
1607090765.5736,48
1607090765.5756,57
1607090765.5776,60
1607090765.5796,62
1607090765.5816,64
1607090765.5836,74
1607090765.5856,81
1607090765.5876,93
1607090765.5896,110
1607090765.5916,127
1607090765.5936,139
1607090765.5943,146
1607090765.5956,158
1607090765.5976,173
1607090765.5996,177
1607090765.6016,180
1607090765.6036,177
1607090765.6057,156
1607090765.6076,117
1607090765.6097,76
1607090765.6116,40
1607090765.6137,14
1607090765.6157,-9
1607090765.6176,-28
1607090765.6196,-40
1607090765.6216,-48
1607090765.6236,-48
1607090765.6242,-45
1607090765.6256,-40
1607090765.6276,-43
1607090765.6296,-40
1607090765.6316,-36
1607090765.6337,-31
1607090765.6357,-26
1607090765.6376,-21
1607090765.6396,-14
1607090765.6416,-9
1607090765.6436,-7
1607090765.6456,-7
1607090765.6476,-2
1607090765.6496,2
1607090765.6516,4
1607090765.6536,2
1607090765.6542,7
1607090765.6556,7
1607090765.6576,7
1607090765.6596,9
1607090765.6618,7
1607090765.6637,2
1607090765.6657,4
1607090765.6676,7
1607090765.6696,4
1607090765.6716,4
1607090765.6736,4
1607090765.6756,7
1607090765.6776,9
1607090765.6796,12
1607090765.6816,9
1607090765.6836,9
1607090765.6843,16
1607090765.6856,19
1607090765.6876,16
1607090765.6896,16
1607090765.6916,16
1607090765.6936,14
1607090765.6956,14
1607090766.1311,12
1607090766.1320,12
1607090766.1345,12
1607090766.1372,12
1607090766.1392,12
1607090766.1411,12
1607090766.1433,14
1607090766.1440,9
1607090766.1451,2
1607090766.1471,0
1607090766.1491,-2
1607090766.1511,-4
1607090766.1531,-2
1607090766.1551,-2
1607090766.1571,-7
1607090766.1590,-7
1607090766.1611,-4
1607090766.1631,0
1607090766.1651,0
1607090766.1670,-2
1607090766.1690,-2
1607090766.1710,0
1607090766.1730,0
1607090766.1737,-2
1607090766.1751,0
1607090766.1770,0
1607090766.1790,0
1607090766.1810,2
1607090766.1830,4
1607090766.1851,2
1607090766.1870,2
1607090766.1890,4
1607090766.1912,4
1607090766.1931,0
1607090766.1951,-2
1607090766.1970,-4
1607090766.1990,-7
1607090766.2010,0
1607090766.2030,19
1607090766.2036,31
1607090766.2051,31
1607090766.2070,21
1607090766.2090,7
1607090766.2110,-2
1607090766.2130,-2
1607090766.2150,-7
1607090766.2170,-12
1607090766.2190,-12
1607090766.2210,-7
1607090766.2230,-2
1607090766.2251,-4
1607090766.2270,-12
1607090766.2290,-28
1607090766.2310,0
1607090766.2330,180
1607090766.2336,505
1607090766.2351,779
1607090766.2370,673
1607090766.2390,132
1607090766.2410,-228
1607090766.2430,-91
1607090766.2451,14
1607090766.2470,-98
1607090766.2490,-101
1607090766.2510,-40
1607090766.2530,-60
1607090766.2551,-72
1607090766.2570,-45
1607090766.2590,-40
1607090766.2610,-40
1607090766.2630,-33
1607090766.2636,-28
1607090766.2650,-24
1607090766.6709,-16
1607090766.6714,-12
1607090766.6733,-14
1607090766.6752,-12
1607090766.6771,-7
1607090766.6791,-4
1607090766.6811,0
1607090766.6831,9
1607090766.6851,16
1607090766.6871,14
1607090766.6893,16
1607090766.6912,33
1607090766.6931,50
1607090766.6951,60
1607090766.6957,74
1607090766.6971,91
1607090766.6991,108
1607090766.7011,120
1607090766.7031,132
1607090766.7052,141
1607090766.7071,144
1607090766.7091,139
1607090766.7111,120
1607090766.7131,91
1607090766.7152,55
1607090766.7171,19
1607090766.7192,-9
1607090766.7212,-31
1607090766.7231,-50
1607090766.7252,-62
1607090766.7257,-64
1607090766.7271,-64
1607090766.7291,-62
1607090766.7311,-60
1607090766.7331,-55
1607090766.7352,-55
1607090766.7371,-52
1607090766.7391,-52
1607090766.7411,-48
1607090766.7431,-40
1607090766.7452,-36
1607090766.7472,-33
1607090766.7491,-28
1607090766.7511,-24
1607090766.7531,-16
1607090766.7551,-12
1607090766.7557,-7
1607090766.7571,-4
1607090766.7591,2
1607090766.7611,2
1607090766.7631,2
1607090766.7651,7
1607090766.7672,9
1607090766.7691,9
1607090766.7711,9
1607090766.7731,9
1607090766.7752,9
1607090766.7771,12
1607090766.7791,12
1607090766.7811,9
1607090766.7831,9
1607090766.7853,16
1607090766.7858,19
1607090766.7871,19
1607090766.7891,14
1607090766.7911,16
1607090766.7931,19
1607090766.7952,16
1607090766.7971,9
1607090766.7991,9
1607090766.8011,12
1607090766.8031,12
1607090766.8052,14
1607090767.2105,19
1607090767.2110,16
1607090767.2121,14
1607090767.2142,14
1607090767.2161,16
1607090767.2181,14
1607090767.2201,7
1607090767.2221,2
1607090767.2241,4
1607090767.2261,7
1607090767.2281,9
1607090767.2301,12
1607090767.2321,12
1607090767.2329,9
1607090767.2352,14
1607090767.2371,16
1607090767.2391,19
1607090767.2411,16
1607090767.2431,19
1607090767.2452,19
1607090767.2472,19
1607090767.2492,21
1607090767.2512,19
1607090767.2531,16
1607090767.2552,19
1607090767.2571,16
1607090767.2591,16
1607090767.2611,14
1607090767.2631,9
1607090767.2637,9
1607090767.2652,9
1607090767.2671,12
1607090767.2691,12
1607090767.2711,9
1607090767.2731,9
1607090767.2751,14
1607090767.2771,14
1607090767.2791,12
1607090767.2811,14
1607090767.2833,16
1607090767.2852,14
1607090767.2871,14
1607090767.2891,14
1607090767.2911,16
1607090767.2931,19
1607090767.2937,19
1607090767.2952,19
1607090767.2971,19
1607090767.2991,21
1607090767.3011,19
1607090767.3031,19
1607090767.3051,14
1607090767.3071,12
1607090767.3091,14
1607090767.3111,21
1607090767.3131,36
1607090767.3151,50
1607090767.3171,52
1607090767.3191,48
1607090767.3211,33
1607090767.3231,16
1607090767.3237,9
1607090767.3252,14
1607090767.3271,14
1607090767.3291,14
1607090767.3311,16
1607090767.3331,21
1607090767.3352,21
1607090767.3371,14
1607090767.3391,0
1607090767.3411,14
1607090767.3431,156
1607090767.3451,449
1607090767.8109,745
1607090767.8137,735
1607090767.8157,276
1607090767.8175,-161
1607090767.8193,-113
1607090767.8212,24
1607090767.8234,-62
1607090767.8254,-93
1607090767.8273,-33
1607090767.8293,-43
1607090767.8313,-57
1607090767.8319,-33
1607090767.8333,-26
1607090767.8353,-31
1607090767.8373,-21
1607090767.8392,-14
1607090767.8413,-14
1607090767.8434,-7
1607090767.8454,-2
1607090767.8473,0
1607090767.8493,4
1607090767.8513,14
1607090767.8533,16
1607090767.8553,19
1607090767.8573,26
1607090767.8593,33
1607090767.8613,38
1607090767.8619,48
1607090767.8633,60
1607090767.8654,72
1607090767.8673,84
1607090767.8693,96
1607090767.8715,110
1607090767.8734,125
1607090767.8754,137
1607090767.8773,151
1607090767.8793,161
1607090767.8813,165
1607090767.8833,165
1607090767.8853,151
1607090767.8873,127
1607090767.8893,96
1607090767.8899,57
1607090767.8913,24
1607090767.8932,0
1607090767.8953,-14
1607090767.8974,-31
1607090767.8993,-40
1607090767.9013,-43
1607090767.9032,-38
1607090767.9053,-38
1607090767.9072,-43
1607090767.9094,-43
1607090767.9113,-40
1607090767.9133,-40
1607090767.9153,-38
1607090767.9173,-36
1607090767.9194,-33
1607090767.9199,-28
1607090767.9213,-21
1607090767.9233,-16
1607090767.9253,-12
1607090767.9273,-9
1607090767.9293,-7
1607090767.9313,-4
1607090767.9333,-2
1607090767.9353,0
1607090767.9373,2
1607090767.9395,4
1607090767.9414,4
1607090767.9433,4
1607090767.9453,7
1607090767.9473,9
1607090768.3803,9
1607090768.3807,9
1607090768.3826,9
1607090768.3846,9
1607090768.3865,12
1607090768.3886,14
1607090768.3905,14
1607090768.3925,14
1607090768.3946,7
1607090768.3966,0
1607090768.3986,0
1607090768.4006,2
1607090768.4026,0
1607090768.4046,-2
1607090768.4052,0
1607090768.4066,4
1607090768.4086,9
1607090768.4106,9
1607090768.4126,9
1607090768.4146,9
1607090768.4166,9
1607090768.4186,9
1607090768.4206,9
1607090768.4226,12
1607090768.4247,16
1607090768.4266,16
1607090768.4286,16
1607090768.4306,16
1607090768.4327,14
1607090768.4346,16
1607090768.4352,21
1607090768.4366,21
1607090768.4386,19
1607090768.4406,21
1607090768.4426,24
1607090768.4446,19
1607090768.4466,14
1607090768.4486,16
1607090768.4506,14
1607090768.4526,12
1607090768.4546,14
1607090768.4565,19
1607090768.4586,16
1607090768.4605,12
1607090768.4625,7
1607090768.4646,7
1607090768.4653,4
1607090768.4666,7
1607090768.4686,9
1607090768.4705,12
1607090768.4725,14
1607090768.4746,14
1607090768.4765,14
1607090768.4785,14
1607090768.4806,16
1607090768.4825,21
1607090768.4846,19
1607090768.4865,19
1607090768.4885,16
1607090768.4905,14
1607090768.4926,12
1607090768.4946,26
1607090768.4952,43
1607090768.4965,50
1607090768.4985,50
1607090768.5005,48
1607090768.5025,36
1607090768.5046,26
1607090768.5065,24
1607090768.5086,26
1607090768.5105,26
1607090768.5125,24
1607090768.5146,24
1607090768.9205,24
1607090768.9211,21
1607090768.9235,12
1607090768.9253,0
1607090768.9272,38
1607090768.9278,221
1607090768.9291,550
1607090768.9312,808
1607090768.9332,651
1607090768.9352,84
1607090768.9372,-238
1607090768.9391,-62
1607090768.9411,31
1607090768.9432,-86
1607090768.9451,-79
1607090768.9471,-16
1607090768.9491,-38
1607090768.9511,-48
1607090768.9531,-26
1607090768.9552,-19
1607090768.9571,-16
1607090768.9577,-7
1607090768.9591,-4
1607090768.9611,-2
1607090768.9633,2
1607090768.9652,4
1607090768.9671,9
1607090768.9691,16
1607090768.9711,21
1607090768.9731,26
1607090768.9751,31
1607090768.9772,38
1607090768.9791,40
1607090768.9811,48
1607090768.9831,55
1607090768.9851,67
1607090768.9871,76
1607090768.9877,86
1607090768.9891,96
1607090768.9911,113
1607090768.9932,129
1607090768.9951,146
1607090768.9971,158
1607090768.9991,165
1607090769.0011,168
1607090769.0031,165
1607090769.0051,149
1607090769.0071,115
1607090769.0091,76
1607090769.0111,36
1607090769.0131,2
1607090769.0151,-21
1607090769.0171,-38
1607090769.0177,-50
1607090769.0191,-57
1607090769.0211,-57
1607090769.0231,-57
1607090769.0252,-60
1607090769.0271,-55
1607090769.0291,-50
1607090769.0311,-50
1607090769.0331,-48
1607090769.0351,-40
1607090769.0371,-38
1607090769.0392,-33
1607090769.0411,-31
1607090769.0432,-28
1607090769.0452,-24
1607090769.0467,-19
1607090769.0482,-16
1607090769.0501,-14
1607090769.0522,-9
1607090769.0542,-4
1607090769.4911,-4
1607090769.4921,-7
1607090769.4947,-9
1607090769.4962,-7
1607090769.4981,-2
1607090769.5001,-2
1607090769.5021,-9
1607090769.5043,-14
1607090769.5049,-16
1607090769.5061,-12
1607090769.5081,-12
1607090769.5101,-12
1607090769.5121,-9
1607090769.5142,-7
1607090769.5161,-9
1607090769.5181,-9
1607090769.5201,-7
1607090769.5221,-2
1607090769.5241,0
1607090769.5261,0
1607090769.5281,-2
1607090769.5301,0
1607090769.5321,2
1607090769.5341,2
1607090769.5347,0
1607090769.5361,0
1607090769.5380,0
1607090769.5400,-4
1607090769.5421,-7
1607090769.5441,-4
1607090769.5460,-9
1607090769.5480,-9
1607090769.5500,-2
1607090769.5520,0
1607090769.5541,-4
1607090769.5547,-2
1607090769.5560,2
1607090769.5580,0
1607090769.5600,0
1607090769.5606,2
1607090769.5620,4
1607090769.5640,4
1607090769.5660,2
1607090769.5680,2
1607090769.5700,7
1607090769.5720,9
1607090769.5740,7
1607090769.5760,7
1607090769.5780,7
1607090769.5800,4
1607090769.5820,4
1607090769.5840,4
1607090769.5860,4
1607090769.5882,0
1607090769.5901,0
1607090769.5906,0
1607090769.5921,-2
1607090769.5940,-7
1607090769.5960,-9
1607090769.5980,2
1607090769.6000,19
1607090769.6020,28
1607090769.6040,31
1607090769.6060,28
1607090769.6080,14
1607090769.6100,2
1607090769.6120,0
1607090769.6140,4
1607090769.6160,4
1607090769.6180,0
1607090769.6200,2
1607090769.6206,4
1607090769.6220,2
1607090770.0606,-9
1607090770.0615,-12
1607090770.0639,74
1607090770.0665,336
1607090770.0685,680
1607090770.0705,810
1607090770.0726,442
1607090770.0746,-125
1607090770.0765,-214
1607090770.0785,-4
1607090770.0805,-31
1607090770.0812,-115
1607090770.0825,-60
1607090770.0846,-40
1607090770.0865,-69
1607090770.0885,-57
1607090770.0905,-40
1607090770.0925,-43
1607090770.0945,-36
1607090770.0965,-26
1607090770.0985,-21
1607090770.1005,-14
1607090770.1025,-9
1607090770.1045,-12
1607090770.1065,-9
1607090770.1085,-2
1607090770.1105,0
1607090770.1111,4
1607090770.1125,12
1607090770.1145,19
1607090770.1166,26
1607090770.1186,33
1607090770.1205,43
1607090770.1225,57
1607090770.1245,72
1607090770.1265,81
1607090770.1285,98
1607090770.1305,117
1607090770.1325,132
1607090770.1345,146
1607090770.1365,158
1607090770.1385,161
1607090770.1405,161
1607090770.1411,151
1607090770.1425,125
1607090770.1446,91
1607090770.1465,52
1607090770.1485,7
1607090770.1505,-26
1607090770.1525,-38
1607090770.1545,-45
1607090770.1565,-60
1607090770.1585,-67
1607090770.1605,-64
1607090770.1625,-64
1607090770.1646,-62
1607090770.1665,-57
1607090770.1685,-52
1607090770.1705,-50
1607090770.1711,-48
1607090770.1725,-45
1607090770.1745,-40
1607090770.1765,-36
1607090770.1785,-33
1607090770.1805,-33
1607090770.1825,-24
1607090770.1845,-19
1607090770.1865,-19
1607090770.1885,-14
1607090770.1905,-7
1607090770.1925,-9
1607090770.1945,-14
1607090770.1965,-9
1607090770.6007,-4
1607090770.6016,-7
1607090770.6033,-9
1607090770.6058,-9
1607090770.6077,-9
1607090770.6096,-7
1607090770.6116,-2
1607090770.6137,-2
1607090770.6157,-7
1607090770.6179,-14
1607090770.6197,-19
1607090770.6216,-16
1607090770.6237,-12
1607090770.6257,-12
1607090770.6276,-12
1607090770.6296,-16
1607090770.6316,-19
1607090770.6337,-16
1607090770.6342,-12
1607090770.6356,-9
1607090770.6376,-9
1607090770.6396,-7
1607090770.6416,-7
1607090770.6436,-4
1607090770.6456,-4
1607090770.6476,-4
1607090770.6496,-4
1607090770.6516,-2
1607090770.6536,-2
1607090770.6556,-4
1607090770.6576,-4
1607090770.6596,-2
1607090770.6616,0
1607090770.6636,0
1607090770.6642,0
1607090770.6656,2
1607090770.6676,2
1607090770.6696,2
1607090770.6716,0
1607090770.6736,0
1607090770.6756,0
1607090770.6776,0
1607090770.6796,4
1607090770.6816,4
1607090770.6836,2
1607090770.6856,2
1607090770.6876,4
1607090770.6896,2
1607090770.6916,0
1607090770.6936,2
1607090770.6943,4
1607090770.6956,-2
1607090770.6976,-4
1607090770.6996,-2
1607090770.7016,2
1607090770.7036,2
1607090770.7057,2
1607090770.7076,2
1607090770.7096,4
1607090770.7116,7
1607090770.7138,4
1607090770.7157,2
1607090770.7176,2
1607090770.7196,4
1607090770.7216,7
1607090770.7236,16
1607090770.7243,31
1607090770.7256,40
1607090770.7276,36
1607090770.7296,26
1607090770.7316,16
1607090770.7336,7
1607090770.7357,0
1607090771.2007,2
1607090771.2016,7
1607090771.2040,4
1607090771.2068,2
1607090771.2088,4
1607090771.2107,4
1607090771.2128,-12
1607090771.2134,-24
1607090771.2147,74
1607090771.2166,343
1607090771.2187,666
1607090771.2207,762
1607090771.2227,391
1607090771.2247,-117
1607090771.2267,-173
1607090771.2286,2
1607090771.2306,-48
1607090771.2326,-115
1607090771.2347,-60
1607090771.2366,-48
1607090771.2386,-72
1607090771.2406,-55
1607090771.2426,-38
1607090771.2433,-43
1607090771.2447,-33
1607090771.2466,-19
1607090771.2486,-21
1607090771.2506,-21
1607090771.2526,-12
1607090771.2547,-9
1607090771.2566,-7
1607090771.2586,0
1607090771.2606,7
1607090771.2626,12
1607090771.2646,14
1607090771.2666,21
1607090771.2686,28
1607090771.2706,38
1607090771.2728,45
1607090771.2732,57
1607090771.2747,69
1607090771.2766,79
1607090771.2786,91
1607090771.2806,105
1607090771.2826,122
1607090771.2847,134
1607090771.2866,141
1607090771.2886,149
1607090771.2906,149
1607090771.2926,139
1607090771.2946,115
1607090771.2966,86
1607090771.2986,52
1607090771.3006,16
1607090771.3026,-9
1607090771.3032,-33
1607090771.3046,-48
1607090771.3066,-57
1607090771.3087,-62
1607090771.3106,-60
1607090771.3126,-57
1607090771.3147,-57
1607090771.3166,-57
1607090771.3186,-55
1607090771.3206,-50
1607090771.3226,-50
1607090771.3247,-45
1607090771.3267,-38
1607090771.3286,-36
1607090771.3306,-33
1607090771.3326,-28
1607090771.3332,-28
1607090771.3347,-24
1607090771.7408,-24
1607090771.7417,-24
1607090771.7441,-26
1607090771.7468,-24
1607090771.7487,-21
1607090771.7508,-19
1607090771.7524,-14
1607090771.7538,-16
1607090771.7557,-16
1607090771.7577,-14
1607090771.7597,-12
1607090771.7617,-16
1607090771.7623,-24
1607090771.7637,-21
1607090771.7657,-16
1607090771.7677,-19
1607090771.7699,-19
1607090771.7717,-14
