Time,ECG
1602586130.2753,55
1602586130.2770,155
1602586130.2784,1191
1602586130.2794,3832
1602586130.2803,6514
1602586130.2812,7925
1602586130.2821,9061
1602586130.2832,10360
1602586130.2844,11281
1602586130.2855,11980
1602586130.2864,12738
1602586130.2874,13361
1602586130.2881,13811
1602586130.2888,14279
1602586130.2894,14722
1602586130.2900,15046
1602586130.2907,15338
1602586130.2913,15642
1602586130.2919,15894
1602586130.2926,16098
1602586130.2932,16304
1602586130.2939,16493
1602586130.2946,16632
1602586130.2952,16745
1602586130.2959,16862
1602586130.2965,16985
1602586130.2970,17078
1602586130.2975,17136
1602586130.2980,17193
1602586130.2985,17258
1602586130.2990,17306
1602586130.2997,17346
1602586130.3003,17378
1602586130.3008,17373
1602586130.3013,17363
1602586130.3018,17370
1602586130.3023,17378
1602586130.3028,17373
1602586130.3033,17351
1602586130.3039,17315
1602586130.3044,17287
1602586130.3049,17267
1602586130.3053,17227
1602586130.3057,17181
1602586130.3061,17159
1602586130.3065,17112
1602586130.3069,17028
1602586130.3073,16968
1602586130.3077,16932
1602586130.3081,16874
1602586130.3095,16800
1602586130.3099,16733
1602586130.3103,16666
1602586130.3106,16587
1602586130.3110,16503
1602586130.3113,16431
1602586130.3116,16369
1602586130.3120,16285
1602586130.3123,16182
1602586130.3126,16100
1602586130.3130,16031
1602586130.3133,15942
1602586130.3136,15851
1602586130.3138,15769
1602586130.3140,15671
1602586130.3143,15566
1602586130.3145,15489
1602586130.3147,15420
1602586130.3149,15326
1602586130.3151,15199
1602586130.3153,15067
1602586130.3155,14974
1602586130.3158,14890
1602586130.8147,14782
1602586130.8159,14681
1602586130.8171,14605
1602586130.8181,14518
1602586130.8190,14389
1602586130.8199,14240
1602586130.8210,14156
1602586130.8220,14190
1602586130.8229,14348
1602586130.8238,14538
1602586130.8247,14547
1602586130.8256,14061
1602586130.8264,13301
1602586130.8271,13102
1602586130.8277,13327
1602586130.8284,13236
1602586130.8290,13009
1602586130.8299,12968
1602586130.8307,12913
1602586130.8314,12778
1602586130.8321,12680
1602586130.8328,12601
1602586130.8335,12508
1602586130.8341,12402
1602586130.8347,12294
1602586130.8352,12208
1602586130.8358,12124
1602586130.8363,12021
1602586130.8371,11911
1602586130.8376,11815
1602586130.8383,11733
1602586130.8388,11645
1602586130.8393,11542
1602586130.8398,11448
1602586130.8403,11372
1602586130.8408,11288
1602586130.8413,11194
1602586130.8418,11103
1602586130.8423,11014
1602586130.8427,10919
1602586130.8431,10825
1602586130.8435,10753
1602586130.8439,10681
1602586130.8443,10593
1602586130.8448,10497
1602586130.8452,10411
1602586130.8456,10317
1602586130.8460,10204
1602586130.8464,10089
1602586130.8469,9974
1602586130.8472,9835
1602586130.8475,9699
1602586130.8479,9600
1602586130.8482,9507
1602586130.8485,9414
1602586130.8489,9325
1602586130.8492,9229
1602586130.8496,9145
1602586130.8499,9064
1602586130.8503,8975
1602586130.8506,8901
1602586130.8509,8836
1602586130.8511,8752
1602586130.8513,8666
1602586130.8515,8599
1602586130.8517,8532
1602586130.8520,8440
1602586130.8522,8359
1602586130.8524,8299
1602586130.8526,8230
1602586130.8528,8141
1602586130.8530,8052
1602586130.8532,7990
1602586131.3851,7925
1602586131.3872,7839
1602586131.3888,7765
1602586131.3902,7707
1602586131.3916,7640
1602586131.3925,7556
1602586131.3939,7487
1602586131.3949,7429
1602586131.3958,7364
1602586131.3967,7281
1602586131.3977,7199
1602586131.3987,7144
1602586131.3995,7089
1602586131.4006,7017
1602586131.4014,6943
1602586131.4022,6880
1602586131.4030,6828
1602586131.4037,6765
1602586131.4044,6696
1602586131.4051,6633
1602586131.4058,6574
1602586131.4064,6511
1602586131.4070,6456
1602586131.4077,6408
1602586131.4083,6351
1602586131.4089,6279
1602586131.4095,6214
1602586131.4100,6166
1602586131.4105,6113
1602586131.4111,6053
1602586131.4117,6005
1602586131.4124,5955
1602586131.4130,5883
1602586131.4135,5823
1602586131.4140,5783
1602586131.4145,5735
1602586131.4150,5675
1602586131.4155,5620
1602586131.4160,5572
1602586131.4165,5519
1602586131.4171,5466
1602586131.4178,5418
1602586131.4184,5373
1602586131.4189,5325
1602586131.4197,5270
1602586131.4202,5224
1602586131.4207,5174
1602586131.4212,5119
1602586131.4216,5073
1602586131.4221,5030
1602586131.4226,4987
1602586131.4230,4946
1602586131.4233,4901
1602586131.4236,4848
1602586131.4240,4805
1602586131.4243,4762
1602586131.4247,4716
1602586131.4252,4675
1602586131.4255,4642
1602586131.4259,4599
1602586131.4262,4553
1602586131.4265,4515
1602586131.4267,4469
1602586131.4270,4412
1602586131.4272,4369
1602586131.4274,4340
1602586131.4276,4301
1602586131.4279,4261
1602586131.4281,4225
1602586131.4283,4191
1602586131.4285,4167
1602586131.4288,4141
1602586131.4290,4105
1602586131.9252,4064
1602586131.9273,4016
1602586131.9288,3966
1602586131.9303,3923
1602586131.9317,3892
1602586131.9327,3858
1602586131.9337,3813
1602586131.9349,3781
1602586131.9359,3765
1602586131.9369,3729
1602586131.9379,3669
1602586131.9389,3676
1602586131.9399,3863
1602586131.9408,4146
1602586131.9416,4321
1602586131.9422,4110
1602586131.9429,3472
1602586131.9436,3084
1602586131.9443,3290
1602586131.9451,3424
1602586131.9457,3281
1602586131.9464,3252
1602586131.9471,3292
1602586131.9478,3242
1602586131.9485,3206
1602586131.9491,3204
1602586131.9497,3175
1602586131.9503,3146
1602586131.9510,3134
1602586131.9516,3120
1602586131.9522,3094
1602586131.9528,3060
1602586131.9533,3029
1602586131.9538,3010
1602586131.9542,2993
1602586131.9549,2971
1602586131.9555,2950
1602586131.9560,2928
1602586131.9565,2904
1602586131.9569,2890
1602586131.9573,2880
1602586131.9579,2866
1602586131.9582,2854
1602586131.9586,2837
1602586131.9589,2811
1602586131.9593,2796
1602586131.9596,2796
1602586131.9600,2784
1602586131.9603,2760
1602586131.9606,2739
1602586131.9610,2713
1602586131.9613,2684
1602586131.9617,2636
1602586131.9620,2571
1602586131.9622,2511
1602586131.9624,2451
1602586131.9627,2391
1602586131.9629,2351
1602586131.9631,2329
1602586131.9633,2307
1602586131.9636,2288
1602586131.9638,2269
1602586131.9640,2255
1602586131.9642,2245
1602586131.9645,2228
1602586131.9647,2209
1602586131.9649,2200
1602586131.9651,2192
1602586131.9654,2176
1602586131.9656,2156
1602586131.9658,2142
1602586131.9660,2130
1602586131.9662,2113
1602586132.4952,2104
1602586132.4974,2092
1602586132.4989,2073
1602586132.5004,2053
1602586132.5020,2041
1602586132.5029,2027
1602586132.5039,2008
1602586132.5049,1989
1602586132.5058,1977
1602586132.5068,1967
1602586132.5077,1946
1602586132.5087,1919
1602586132.5097,1910
1602586132.5110,1905
1602586132.5118,1888
1602586132.5127,1869
1602586132.5135,1864
1602586132.5144,1855
1602586132.5152,1828
1602586132.5160,1809
1602586132.5168,1804
1602586132.5177,1797
1602586132.5186,1783
1602586132.5193,1768
1602586132.5199,1756
1602586132.5205,1744
1602586132.5211,1730
1602586132.5216,1718
1602586132.5221,1704
1602586132.5226,1687
1602586132.5232,1672
1602586132.5237,1656
1602586132.5242,1644
1602586132.5246,1641
1602586132.5250,1632
1602586132.5255,1615
1602586132.5259,1598
1602586132.5264,1591
1602586132.5268,1581
1602586132.5272,1567
1602586132.5277,1560
1602586132.5281,1553
1602586132.5286,1541
1602586132.5290,1526
1602586132.5293,1512
1602586132.5297,1500
1602586132.5300,1488
1602586132.5304,1471
1602586132.5308,1452
1602586132.5311,1447
1602586132.5314,1442
1602586132.5318,1428
1602586132.5321,1411
1602586132.5325,1404
1602586132.5327,1399
1602586132.5329,1394
1602586132.5332,1382
1602586132.5334,1368
1602586132.5336,1358
1602586132.5338,1346
1602586132.5341,1332
1602586132.5343,1327
1602586132.5345,1325
1602586132.5348,1313
1602586132.5351,1294
1602586132.5353,1282
1602586132.5355,1286
1602586132.5357,1301
1602586132.5360,1301
1602586132.5362,1289
1602586132.5364,1277
1602586132.5366,1253
1602586132.5368,1227
1602586133.0343,1215
1602586133.0355,1215
1602586133.0365,1212
1602586133.0375,1203
1602586133.0385,1195
1602586133.0395,1188
1602586133.0404,1171
1602586133.0414,1164
1602586133.0423,1255
1602586133.0433,1521
1602586133.0443,1843
1602586133.0452,1924
1602586133.0461,1466
1602586133.0469,802
1602586133.0476,735
1602586133.0483,1059
1602586133.0489,1071
1602586133.0496,973
1602586133.0503,1032
1602586133.0510,1044
1602586133.0519,994
1602586133.0526,1004
1602586133.0534,1025
1602586133.0541,1011
1602586133.0548,1008
1602586133.0553,1018
1602586133.0558,1011
1602586133.0562,1001
1602586133.0567,1004
1602586133.0571,1008
1602586133.0575,1008
1602586133.0580,1011
1602586133.0586,1008
1602586133.0590,999
1602586133.0595,997
1602586133.0597,997
1602586133.0599,997
1602586133.0602,1001
1602586133.0604,1004
1602586133.0606,999
1602586133.0609,992
1602586133.0611,997
1602586133.0614,1006
1602586133.0616,1008
1602586133.0619,1013
1602586133.0621,1020
1602586133.0623,1018
1602586133.0626,1006
1602586133.0628,989
1602586133.0630,956
1602586133.0632,903
1602586133.0635,850
1602586133.0636,817
1602586133.0638,798
1602586133.0640,781
1602586133.0641,762
1602586133.0643,752
1602586133.0645,759
1602586133.0646,757
1602586133.0648,757
1602586133.0650,764
1602586133.0651,769
1602586133.0653,769
1602586133.0655,771
1602586133.0657,766
1602586133.0658,759
1602586133.0660,759
1602586133.0662,766
1602586133.0663,771
1602586133.0665,771
1602586133.0667,764
1602586133.0668,759
1602586133.0670,762
1602586133.6348,764
1602586133.6369,759
1602586133.6385,759
1602586133.6399,750
1602586133.6414,738
1602586133.6424,728
1602586133.6434,728
1602586133.6443,733
1602586133.6453,730
1602586133.6463,716
1602586133.6474,707
1602586133.6487,709
1602586133.6500,711
1602586133.6510,711
1602586133.6518,711
1602586133.6525,707
1602586133.6532,697
1602586133.6539,697
1602586133.6546,702
1602586133.6553,699
1602586133.6561,692
1602586133.6568,690
1602586133.6574,690
1602586133.6581,690
1602586133.6588,687
1602586133.6596,690
1602586133.6603,687
1602586133.6609,675
1602586133.6615,668
1602586133.6621,671
1602586133.6627,673
1602586133.6633,671
1602586133.6637,666
1602586133.6639,654
1602586133.6642,642
1602586133.6644,639
1602586133.6646,642
1602586133.6648,642
1602586133.6651,639
1602586133.6653,637
1602586133.6655,635
1602586133.6657,625
1602586133.6660,615
1602586133.6662,615
1602586133.6664,618
1602586133.6666,613
1602586133.6669,613
1602586133.6671,615
1602586133.6673,611
1602586133.6675,599
1602586133.6677,596
1602586133.6679,601
1602586133.6680,594
1602586133.6682,594
1602586133.6684,596
1602586133.6685,596
1602586133.6687,591
1602586133.6689,584
1602586133.6690,579
1602586133.6692,579
1602586133.6694,579
1602586133.6695,570
1602586133.6697,560
1602586133.6699,570
1602586133.6701,587
1602586133.6702,589
1602586133.6704,582
1602586133.6706,565
1602586133.6707,546
1602586133.6709,536
1602586133.6711,536
1602586133.6714,541
1602586133.6716,541
1602586134.2045,527
1602586134.2062,512
1602586134.2078,515
1602586134.2095,510
1602586134.2112,524
1602586134.2123,671
1602586134.2133,975
1602586134.2143,1248
1602586134.2153,1212
1602586134.2164,685
1602586134.2174,127
1602586134.2185,201
1602586134.2195,484
1602586134.2202,431
1602586134.2209,352
1602586134.2216,419
1602586134.2223,431
1602586134.2230,407
1602586134.2237,426
1602586134.2243,443
1602586134.2249,436
1602586134.2255,436
1602586134.2261,445
1602586134.2266,452
1602586134.2272,452
1602586134.2277,450
1602586134.2283,443
1602586134.2288,448
1602586134.2293,457
1602586134.2297,467
1602586134.2301,472
1602586134.2305,476
1602586134.2309,481
1602586134.2314,484
1602586134.2319,491
1602586134.2324,500
1602586134.2329,512
1602586134.2332,524
1602586134.2335,539
1602586134.2337,551
1602586134.2339,556
1602586134.2342,558
1602586134.2344,572
1602586134.2346,575
1602586134.2349,563
1602586134.2351,544
1602586134.2354,512
1602586134.2356,469
1602586134.2358,428
1602586134.2361,397
1602586134.2364,378
1602586134.2366,369
1602586134.2367,366
1602586134.2369,359
1602586134.2371,354
1602586134.2372,357
1602586134.2374,361
1602586134.2376,361
1602586134.2378,371
1602586134.2379,378
1602586134.2381,376
1602586134.2383,376
1602586134.2384,383
1602586134.2386,388
1602586134.2388,378
1602586134.2389,373
1602586134.2391,385
1602586134.2393,388
1602586134.2394,383
1602586134.2396,385
1602586134.2398,393
1602586134.2400,393
1602586134.2401,388
1602586134.7445,385
1602586134.7463,385
1602586134.7477,383
1602586134.7492,385
1602586134.7502,388
1602586134.7516,385
1602586134.7528,381
1602586134.7538,376
1602586134.7548,378
1602586134.7558,381
1602586134.7568,378
1602586134.7579,371
1602586134.7586,366
1602586134.7593,366
1602586134.7600,369
1602586134.7607,369
1602586134.7614,371
1602586134.7621,359
1602586134.7626,345
1602586134.7631,347
1602586134.7635,357
1602586134.7640,359
1602586134.7644,359
1602586134.7649,359
1602586134.7653,352
1602586134.7659,347
1602586134.7663,349
1602586134.7668,349
1602586134.7671,352
1602586134.7673,359
1602586134.7676,359
1602586134.7678,349
1602586134.7680,347
1602586134.7683,352
1602586134.7685,349
1602586134.7688,349
1602586134.7690,354
1602586134.7692,352
1602586134.7695,345
1602586134.7697,347
1602586134.7699,349
1602586134.7702,349
1602586134.7704,349
1602586134.7706,347
1602586134.7708,342
1602586134.7710,342
1602586134.7712,345
1602586134.7714,345
1602586134.7715,345
1602586134.7717,345
1602586134.7719,347
1602586134.7721,345
1602586134.7722,337
1602586134.7724,335
1602586134.7726,330
1602586134.7728,321
1602586134.7729,318
1602586134.7731,323
1602586134.7733,323
1602586134.7735,318
1602586134.7736,313
1602586134.7738,313
1602586134.7740,313
1602586134.7742,316
1602586134.7743,318
1602586134.7745,311
1602586134.7747,306
1602586134.7748,311
1602586134.7750,328
1602586134.7752,340
1602586134.7754,340
1602586134.7756,328
1602586134.7757,316
1602586135.3145,299
1602586135.3164,285
1602586135.3180,285
1602586135.3196,287
1602586135.3210,287
1602586135.3228,285
1602586135.3240,287
1602586135.3250,282
1602586135.3261,261
1602586135.3271,256
1602586135.3279,369
1602586135.3286,647
1602586135.3293,951
1602586135.3300,1020
1602586135.3307,599
1602586135.3314,-14
1602586135.3320,-74
1602586135.3325,230
1602586135.3331,239
1602586135.3337,146
1602586135.3343,208
1602586135.3348,239
1602586135.3354,206
1602586135.3360,220
1602586135.3364,242
1602586135.3367,242
1602586135.3371,251
1602586135.3375,263
1602586135.3378,258
1602586135.3382,263
1602586135.3385,275
1602586135.3389,280
1602586135.3393,282
1602586135.3397,287
1602586135.3400,294
1602586135.3402,297
1602586135.3404,304
1602586135.3407,316
1602586135.3409,325
1602586135.3411,335
1602586135.3414,340
1602586135.3416,345
1602586135.3418,354
1602586135.3421,369
1602586135.3423,385
1602586135.3425,395
1602586135.3428,395
1602586135.3430,390
1602586135.3432,395
1602586135.3435,400
1602586135.3437,385
1602586135.3439,357
1602586135.3441,318
1602586135.3443,275
1602586135.3445,234
1602586135.3447,213
1602586135.3449,206
1602586135.3451,201
1602586135.3452,196
1602586135.3454,194
1602586135.3456,194
1602586135.3458,198
1602586135.3459,206
1602586135.3461,213
1602586135.3463,220
1602586135.3465,220
1602586135.3466,215
1602586135.3468,218
1602586135.3470,232
1602586135.3472,234
1602586135.3473,232
1602586135.3475,234
1602586135.3477,239
1602586135.8544,239
1602586135.8565,239
1602586135.8582,237
1602586135.8597,230
1602586135.8612,225
1602586135.8622,220
1602586135.8632,220
1602586135.8643,227
1602586135.8653,227
1602586135.8663,215
1602586135.8673,210
1602586135.8685,215
1602586135.8696,218
1602586135.8704,218
1602586135.8713,225
1602586135.8721,232
1602586135.8729,230
1602586135.8737,218
1602586135.8744,215
1602586135.8751,227
1602586135.8757,230
1602586135.8763,230
1602586135.8768,232
1602586135.8774,230
1602586135.8779,222
1602586135.8784,225
1602586135.8787,232
1602586135.8789,234
1602586135.8792,234
1602586135.8794,232
1602586135.8796,232
1602586135.8799,234
1602586135.8801,234
1602586135.8803,230
1602586135.8807,227
1602586135.8809,230
1602586135.8812,237
1602586135.8814,232
1602586135.8816,222
1602586135.8819,225
1602586135.8821,225
1602586135.8823,227
1602586135.8825,232
1602586135.8827,230
1602586135.8829,225
1602586135.8830,225
1602586135.8832,227
1602586135.8834,225
1602586135.8836,222
1602586135.8837,225
1602586135.8839,227
1602586135.8841,227
1602586135.8843,225
1602586135.8844,225
1602586135.8846,232
1602586135.8848,230
1602586135.8850,222
1602586135.8852,220
1602586135.8853,218
1602586135.8855,206
1602586135.8857,203
1602586135.8859,213
1602586135.8861,225
1602586135.8863,234
1602586135.8865,237
1602586135.8866,234
1602586135.8868,225
1602586135.8870,203
1602586135.8871,186
1602586135.8873,179
1602586135.8875,177
1602586135.8876,177
1602586135.8878,179
1602586136.3945,189
1602586136.3961,191
1602586136.3976,184
1602586136.3990,172
1602586136.4004,242
1602586136.4018,476
1602586136.4030,805
1602586136.4040,965
1602586136.4049,644
1602586136.4059,-31
1602586136.4069,-263
1602586136.4079,50
1602586136.4091,162
1602586136.4101,55
1602586136.4109,103
1602586136.4115,158
1602586136.4122,124
1602586136.4128,124
1602586136.4135,153
1602586136.4142,153
1602586136.4148,155
1602586136.4155,170
1602586136.4161,172
1602586136.4168,170
1602586136.4175,179
1602586136.4181,186
1602586136.4187,194
1602586136.4194,201
1602586136.4200,201
1602586136.4205,194
1602586136.4210,198
1602586136.4215,215
1602586136.4220,225
1602586136.4225,234
1602586136.4231,246
1602586136.4236,258
1602586136.4241,268
1602586136.4246,278
1602586136.4251,292
1602586136.4256,311
1602586136.4262,316
1602586136.4267,318
1602586136.4271,330
1602586136.4275,337
1602586136.4279,321
1602586136.4284,285
1602586136.4288,242
1602586136.4292,196
1602586136.4296,160
1602586136.4300,141
1602586136.4304,131
1602586136.4310,124
1602586136.4315,112
1602586136.4319,112
1602586136.4323,122
1602586136.4327,134
1602586136.4331,139
1602586136.4336,136
1602586136.4340,139
1602586136.4344,146
1602586136.4348,146
1602586136.4353,143
1602586136.4357,153
1602586136.4362,162
1602586136.4365,155
1602586136.4369,153
1602586136.4372,165
1602586136.4375,172
1602586136.4379,172
1602586136.4382,174
1602586136.4385,179
1602586136.4389,177
1602586136.4392,174
1602586136.9965,179
1602586136.9981,186
1602586136.9996,182
1602586137.0006,174
1602586137.0015,167
1602586137.0025,165
1602586137.0035,170
1602586137.0045,177
1602586137.0054,177
1602586137.0064,177
1602586137.0073,179
1602586137.0083,182
1602586137.0091,184
1602586137.0097,186
1602586137.0104,186
1602586137.0113,186
1602586137.0120,184
1602586137.0127,189
1602586137.0134,196
1602586137.0141,194
1602586137.0148,184
1602586137.0154,182
1602586137.0161,186
1602586137.0168,189
1602586137.0175,194
1602586137.0181,201
1602586137.0186,198
1602586137.0191,189
1602586137.0197,189
1602586137.0203,196
1602586137.0208,196
1602586137.0214,196
1602586137.0219,198
1602586137.0224,196
1602586137.0229,191
1602586137.0234,191
1602586137.0239,196
1602586137.0245,198
1602586137.0250,198
1602586137.0255,201
1602586137.0260,198
1602586137.0266,191
1602586137.0271,194
1602586137.0276,198
1602586137.0281,201
1602586137.0285,201
1602586137.0290,201
1602586137.0294,198
1602586137.0299,196
1602586137.0303,198
1602586137.0308,198
1602586137.0311,191
1602586137.0315,179
1602586137.0318,167
1602586137.0322,162
1602586137.0325,165
1602586137.0329,162
1602586137.0332,160
1602586137.0335,170
1602586137.0339,191
1602586137.0342,201
1602586137.0346,198
1602586137.0349,191
1602586137.0351,179
1602586137.0353,170
1602586137.0355,162
1602586137.0357,160
1602586137.0360,165
1602586137.0362,167
1602586137.0364,170
1602586137.0366,172
1602586137.0369,165
1602586137.0371,150
1602586137.5647,203
1602586137.5664,421
1602586137.5679,745
1602586137.5693,946
1602586137.5704,723
1602586137.5717,88
1602586137.5729,-242
1602586137.5741,11
1602586137.5753,153
1602586137.5763,31
1602586137.5772,45
1602586137.5782,105
1602586137.5789,79
1602586137.5796,79
1602586137.5803,110
1602586137.5809,107
1602586137.5816,107
1602586137.5822,127
1602586137.5829,134
1602586137.5840,134
1602586137.5847,141
1602586137.5856,153
1602586137.5864,158
1602586137.5870,162
1602586137.5876,170
1602586137.5881,177
1602586137.5886,182
1602586137.5891,189
1602586137.5898,201
1602586137.5904,210
1602586137.5909,220
1602586137.5914,232
1602586137.5919,244
1602586137.5925,256
1602586137.5930,268
1602586137.5936,278
1602586137.5941,289
1602586137.5946,304
1602586137.5952,301
1602586137.5956,292
1602586137.5960,282
1602586137.5964,266
1602586137.5968,222
1602586137.5973,172
1602586137.5979,127
1602586137.5983,98
1602586137.5988,81
1602586137.5992,79
1602586137.5997,81
1602586137.6001,81
1602586137.6005,79
1602586137.6009,83
1602586137.6012,95
1602586137.6016,105
1602586137.6019,110
1602586137.6023,107
1602586137.6026,110
1602586137.6030,119
1602586137.6034,127
1602586137.6036,129
1602586137.6038,134
1602586137.6041,136
1602586137.6043,136
1602586137.6045,141
1602586137.6047,150
1602586137.6049,148
1602586137.6052,143
1602586137.6054,146
1602586137.6056,148
1602586137.6058,150
1602586137.6061,153
1602586137.6063,150
1602586137.6066,150
1602586138.1041,150
1602586138.1057,146
1602586138.1072,146
1602586138.1087,148
1602586138.1102,148
1602586138.1112,148
1602586138.1122,150
1602586138.1132,153
1602586138.1142,146
1602586138.1152,139
1602586138.1161,141
1602586138.1171,150
1602586138.1181,150
1602586138.1190,146
1602586138.1197,148
1602586138.1205,153
1602586138.1211,155
1602586138.1218,153
1602586138.1225,158
1602586138.1232,155
1602586138.1239,153
1602586138.1246,155
1602586138.1252,158
1602586138.1259,158
1602586138.1266,158
1602586138.1272,158
1602586138.1278,160
1602586138.1283,160
1602586138.1289,158
1602586138.1294,160
1602586138.1299,165
1602586138.1304,165
1602586138.1310,158
1602586138.1315,153
1602586138.1319,155
1602586138.1324,162
1602586138.1328,162
1602586138.1332,153
1602586138.1337,141
1602586138.1342,139
1602586138.1346,143
1602586138.1351,146
1602586138.1355,150
1602586138.1360,150
1602586138.1364,146
1602586138.1368,146
1602586138.1371,153
1602586138.1375,158
1602586138.1379,158
1602586138.1383,150
1602586138.1386,148
1602586138.1390,150
1602586138.1393,150
1602586138.1397,150
1602586138.1400,150
1602586138.1402,146
1602586138.1404,143
1602586138.1406,148
1602586138.1409,150
1602586138.1411,146
1602586138.1413,143
1602586138.1415,143
1602586138.1418,148
1602586138.1420,148
1602586138.1422,150
1602586138.1424,162
1602586138.1427,170
1602586138.1429,165
1602586138.1431,148
1602586138.1433,129
1602586138.1435,119
1602586138.1438,115
1602586138.1440,115
1602586138.6748,117
1602586138.6770,117
1602586138.6786,115
1602586138.6800,119
1602586138.6815,117
1602586138.6826,112
1602586138.6836,179
1602586138.6848,419
1602586138.6859,745
1602586138.6871,901
1602586138.6883,594
1602586138.6894,-43
1602586138.6905,-261
1602586138.6913,31
1602586138.6922,124
1602586138.6930,14
1602586138.6938,55
1602586138.6947,103
1602586138.6955,64
1602586138.6962,71
1602586138.6971,107
1602586138.6979,105
1602586138.6988,100
1602586138.6994,107
1602586138.7000,110
1602586138.7005,112
1602586138.7014,119
1602586138.7020,129
1602586138.7027,136
1602586138.7034,136
1602586138.7040,131
1602586138.7046,136
1602586138.7054,150
1602586138.7061,162
1602586138.7068,167
1602586138.7076,174
1602586138.7081,179
1602586138.7085,194
1602586138.7090,210
1602586138.7095,225
1602586138.7099,234
1602586138.7104,244
1602586138.7109,256
1602586138.7114,268
1602586138.7116,273
1602586138.7118,268
1602586138.7120,254
1602586138.7123,230
1602586138.7125,191
1602586138.7127,143
1602586138.7130,110
1602586138.7132,88
1602586138.7134,71
1602586138.7136,62
1602586138.7139,57
1602586138.7141,59
1602586138.7143,59
1602586138.7145,59
1602586138.7148,67
1602586138.7150,74
1602586138.7152,76
1602586138.7154,79
1602586138.7157,86
1602586138.7159,91
1602586138.7161,91
1602586138.7163,93
1602586138.7165,98
1602586138.7168,103
1602586138.7170,103
1602586138.7172,105
1602586138.7174,112
1602586138.7177,117
1602586138.7179,110
1602586139.2139,110
1602586139.2157,115
1602586139.2172,119
1602586139.2187,115
1602586139.2206,112
1602586139.2219,112
1602586139.2230,112
1602586139.2239,105
1602586139.2249,103
1602586139.2258,105
1602586139.2268,107
1602586139.2279,103
1602586139.2288,107
1602586139.2298,112
1602586139.2307,107
1602586139.2314,103
1602586139.2322,105
1602586139.2329,105
1602586139.2336,107
1602586139.2343,112
1602586139.2349,115
1602586139.2356,110
1602586139.2363,95
1602586139.2371,91
1602586139.2379,100
1602586139.2387,110
1602586139.2394,105
1602586139.2400,98
1602586139.2406,103
1602586139.2411,110
1602586139.2416,107
1602586139.2421,105
1602586139.2427,110
1602586139.2432,115
1602586139.2437,110
1602586139.2442,107
1602586139.2446,115
1602586139.2452,117
1602586139.2457,115
1602586139.2462,115
1602586139.2466,117
1602586139.2471,112
1602586139.2475,112
1602586139.2480,117
1602586139.2484,119
1602586139.2486,119
1602586139.2489,117
1602586139.2491,110
1602586139.2493,107
1602586139.2496,112
1602586139.2498,112
1602586139.2500,112
1602586139.2503,119
1602586139.2505,112
1602586139.2507,105
1602586139.2510,112
1602586139.2512,119
1602586139.2515,110
1602586139.2517,103
1602586139.2519,105
1602586139.2521,107
1602586139.2524,103
1602586139.2525,100
1602586139.2527,100
1602586139.2529,103
1602586139.2531,112
1602586139.2532,127
1602586139.2534,134
1602586139.2536,134
1602586139.2538,124
1602586139.2539,110
1602586139.2541,100
1602586139.2543,98
1602586139.7846,98
1602586139.7868,95
1602586139.7885,95
1602586139.7899,91
1602586139.7914,79
1602586139.7924,62
1602586139.7935,55
1602586139.7945,117
1602586139.7954,337
1602586139.7964,673
1602586139.7974,877
1602586139.7984,618
1602586139.7994,-52
1602586139.8002,-361
1602586139.8009,-79
1602586139.8016,64
1602586139.8023,-43
1602586139.8030,-9
1602586139.8037,59
1602586139.8044,23
1602586139.8049,19
1602586139.8055,52
1602586139.8060,55
1602586139.8065,55
1602586139.8071,69
1602586139.8076,76
1602586139.8081,81
1602586139.8086,88
1602586139.8090,93
1602586139.8094,98
1602586139.8100,107
1602586139.8104,117
1602586139.8109,119
1602586139.8116,124
1602586139.8122,136
1602586139.8126,146
1602586139.8128,153
1602586139.8131,160
1602586139.8133,167
1602586139.8135,174
1602586139.8138,189
1602586139.8140,203
1602586139.8142,215
1602586139.8144,232
1602586139.8147,242
1602586139.8149,244
1602586139.8151,242
1602586139.8154,232
1602586139.8156,210
1602586139.8158,165
1602586139.8160,115
1602586139.8163,76
1602586139.8165,52
1602586139.8167,38
1602586139.8168,31
1602586139.8170,26
1602586139.8172,31
1602586139.8173,40
1602586139.8175,43
1602586139.8177,40
1602586139.8179,47
1602586139.8180,62
1602586139.8182,67
1602586139.8184,62
1602586139.8185,64
1602586139.8187,79
1602586139.8189,83
1602586139.8190,83
1602586139.8192,86
1602586139.8194,86
1602586139.8195,81
1602586139.8197,86
1602586139.8199,93
1602586140.3838,95
1602586140.3856,93
1602586140.3873,93
1602586140.3889,95
1602586140.3904,98
1602586140.3919,88
1602586140.3929,79
1602586140.3940,81
1602586140.3950,76
1602586140.3960,69
1602586140.3971,74
1602586140.3984,86
1602586140.3996,86
1602586140.4007,86
1602586140.4014,91
1602586140.4021,95
1602586140.4028,93
1602586140.4035,91
1602586140.4043,95
1602586140.4049,103
1602586140.4055,105
1602586140.4061,103
1602586140.4067,100
1602586140.4072,103
1602586140.4078,107
1602586140.4083,110
1602586140.4089,107
1602586140.4094,110
1602586140.4098,110
1602586140.4102,107
1602586140.4107,110
1602586140.4111,107
1602586140.4116,105
1602586140.4120,105
1602586140.4125,112
1602586140.4129,112
1602586140.4133,107
1602586140.4138,107
1602586140.4140,115
1602586140.4143,115
1602586140.4145,110
1602586140.4147,110
1602586140.4149,115
1602586140.4152,122
1602586140.4154,117
1602586140.4156,110
1602586140.4159,115
1602586140.4161,119
1602586140.4163,119
1602586140.4166,117
1602586140.4168,117
1602586140.4170,110
1602586140.4172,105
1602586140.4175,105
1602586140.4177,110
1602586140.4178,112
1602586140.4180,107
1602586140.4182,105
1602586140.4184,107
1602586140.4185,112
1602586140.4187,110
1602586140.4189,103
1602586140.4191,100
1602586140.4193,95
1602586140.4194,93
1602586140.4196,100
1602586140.4198,117
1602586140.4199,129
1602586140.4201,127
1602586140.4203,115
1602586140.4205,103
1602586140.4206,88
1602586140.4208,74
1602586140.9242,67
1602586140.9259,62
1602586140.9274,64
1602586140.9289,67
1602586140.9304,71
1602586140.9314,76
1602586140.9324,69
1602586140.9334,71
1602586140.9344,167
1602586140.9354,433
1602586140.9366,750
1602586140.9380,850
1602586140.9390,469
1602586140.9398,-162
1602586140.9405,-285
1602586140.9412,23
1602586140.9419,67
1602586140.9426,-35
1602586140.9433,16
1602586140.9438,55
1602586140.9444,21
1602586140.9449,26
1602586140.9454,47
1602586140.9460,50
1602586140.9465,62
1602586140.9470,71
1602586140.9476,71
1602586140.9482,79
1602586140.9486,91
1602586140.9491,98
1602586140.9495,98
1602586140.9499,103
1602586140.9504,112
1602586140.9508,122
1602586140.9512,124
1602586140.9516,131
1602586140.9520,146
1602586140.9525,155
1602586140.9527,160
1602586140.9529,172
1602586140.9532,191
1602586140.9535,203
1602586140.9537,213
1602586140.9539,225
1602586140.9541,234
1602586140.9544,242
1602586140.9546,249
1602586140.9548,249
1602586140.9551,227
1602586140.9553,194
1602586140.9555,153
1602586140.9558,112
1602586140.9560,71
1602586140.9562,40
1602586140.9564,33
1602586140.9566,31
1602586140.9568,26
1602586140.9570,26
1602586140.9571,31
1602586140.9573,43
1602586140.9575,47
1602586140.9577,47
1602586140.9578,50
1602586140.9580,57
1602586140.9582,62
1602586140.9583,55
1602586140.9585,55
1602586140.9587,59
1602586140.9589,62
1602586140.9590,67
1602586140.9592,76
1602586140.9594,76
1602586140.9595,74
1602586141.4936,79
1602586141.4955,83
1602586141.4971,83
1602586141.4987,86
1602586141.5004,86
1602586141.5019,86
1602586141.5030,86
1602586141.5040,76
1602586141.5051,69
1602586141.5061,76
1602586141.5069,79
1602586141.5076,74
1602586141.5083,74
1602586141.5090,76
1602586141.5097,79
1602586141.5104,79
1602586141.5109,83
1602586141.5115,91
1602586141.5122,91
1602586141.5129,86
1602586141.5135,83
1602586141.5140,88
1602586141.5145,91
1602586141.5150,91
1602586141.5154,93
1602586141.5157,93
1602586141.5161,91
1602586141.5165,93
1602586141.5168,98
1602586141.5172,100
1602586141.5176,98
1602586141.5179,95
1602586141.5183,98
1602586141.5186,98
1602586141.5189,95
1602586141.5191,95
1602586141.5194,100
1602586141.5196,100
1602586141.5198,95
1602586141.5200,98
1602586141.5203,98
1602586141.5205,100
1602586141.5207,100
1602586141.5210,93
1602586141.5212,93
1602586141.5214,98
1602586141.5216,93
1602586141.5219,88
1602586141.5221,88
1602586141.5223,83
1602586141.5225,83
1602586141.5228,86
1602586141.5230,86
1602586141.5232,86
1602586141.5233,86
1602586141.5235,86
1602586141.5237,88
1602586141.5239,83
1602586141.5240,76
1602586141.5242,74
1602586141.5244,76
1602586141.5246,79
1602586141.5247,79
1602586141.5249,79
1602586141.5251,74
1602586141.5252,71
1602586141.5254,69
1602586141.5256,67
1602586141.5258,69
1602586141.5260,67
1602586141.5262,62
1602586141.5263,67
1602586141.5265,71
1602586142.0340,69
1602586142.0356,62
1602586142.0371,59
1602586142.0386,67
1602586142.0401,83
1602586142.0415,95
1602586142.0425,95
1602586142.0435,93
1602586142.0444,81
1602586142.0454,57
1602586142.0464,52
1602586142.0472,57
1602586142.0479,57
1602586142.0486,62
1602586142.0493,67
1602586142.0499,67
1602586142.0506,67
1602586142.0512,64
1602586142.0517,67
1602586142.0523,160
1602586142.0528,428
1602586142.0534,747
1602586142.0539,862
1602586142.0545,500
1602586142.0551,-131
1602586142.0554,-273
1602586142.0558,28
1602586142.0561,81
1602586142.0565,-26
1602586142.0569,23
1602586142.0572,64
1602586142.0576,33
1602586142.0579,40
1602586142.0583,64
1602586142.0587,57
1602586142.0590,57
1602586142.0592,69
1602586142.0594,76
1602586142.0596,81
1602586142.0599,88
1602586142.0601,93
1602586142.0603,98
1602586142.0605,103
1602586142.0608,110
1602586142.0610,117
1602586142.0612,129
1602586142.0614,136
1602586142.0617,136
1602586142.0620,143
1602586142.0622,158
1602586142.0624,165
1602586142.0627,167
1602586142.0629,179
1602586142.0631,196
1602586142.0633,206
1602586142.0634,218
1602586142.0636,230
1602586142.0638,234
1602586142.0640,227
1602586142.0641,213
1602586142.0643,186
1602586142.0645,148
1602586142.0647,105
1602586142.0648,69
1602586142.0650,50
1602586142.0652,35
1602586142.0653,16
1602586142.0655,7
1602586142.0657,14
1602586142.0658,23
1602586142.0660,28
1602586142.0662,33
1602586142.0664,35
1602586142.6036,35
1602586142.6056,38
1602586142.6072,45
1602586142.6086,55
1602586142.6101,59
1602586142.6111,50
1602586142.6120,43
1602586142.6130,55
1602586142.6140,67
1602586142.6150,62
1602586142.6157,57
1602586142.6164,62
1602586142.6171,64
1602586142.6178,67
1602586142.6185,71
1602586142.6192,69
1602586142.6197,67
1602586142.6203,69
1602586142.6208,74
1602586142.6214,76
1602586142.6222,76
1602586142.6227,74
1602586142.6232,74
1602586142.6238,79
1602586142.6241,76
1602586142.6246,69
1602586142.6249,69
1602586142.6252,79
1602586142.6256,79
1602586142.6259,74
1602586142.6263,74
1602586142.6266,79
1602586142.6269,79
1602586142.6273,79
1602586142.6276,83
1602586142.6279,86
1602586142.6282,83
1602586142.6284,81
1602586142.6286,86
1602586142.6288,86
1602586142.6290,81
1602586142.6293,81
1602586142.6295,81
1602586142.6297,74
1602586142.6299,64
1602586142.6301,67
1602586142.6304,71
1602586142.6306,71
1602586142.6308,71
1602586142.6310,76
1602586142.6312,81
1602586142.6314,79
1602586142.6317,74
1602586142.6319,69
1602586142.6321,67
1602586142.6323,69
1602586142.6325,69
1602586142.6328,62
1602586142.6330,64
1602586142.6332,67
1602586142.6334,62
1602586142.6336,64
1602586142.6339,69
1602586142.6341,69
1602586142.6343,69
1602586142.6345,71
1602586142.6347,69
1602586142.6349,67
1602586142.6352,67
1602586142.6354,67
1602586142.6356,67
1602586142.6358,64
1602586142.6360,55
1602586143.1443,55
1602586143.1462,57
1602586143.1477,52
1602586143.1495,50
1602586143.1510,55
1602586143.1520,57
1602586143.1529,45
1602586143.1539,33
1602586143.1549,43
1602586143.1559,47
1602586143.1568,38
1602586143.1578,35
1602586143.1587,45
1602586143.1596,47
1602586143.1603,55
1602586143.1610,69
1602586143.1616,71
1602586143.1623,67
1602586143.1630,67
1602586143.1636,59
1602586143.1644,47
1602586143.1651,38
1602586143.1660,38
1602586143.1668,47
1602586143.1675,55
1602586143.1682,57
1602586143.1690,62
1602586143.1697,57
1602586143.1703,55
1602586143.1708,110
1602586143.1713,323
1602586143.1719,654
1602586143.1725,874
1602586143.1730,637
1602586143.1735,-35
1602586143.1741,-376
1602586143.1746,-100
1602586143.1751,64
1602586143.1756,-38
1602586143.1761,-19
1602586143.1766,43
1602586143.1771,19
1602586143.1776,16
1602586143.1780,45
1602586143.1784,47
1602586143.1788,47
1602586143.1792,55
1602586143.1796,55
1602586143.1801,57
1602586143.1805,67
1602586143.1810,74
1602586143.1814,76
1602586143.1819,81
1602586143.1822,91
1602586143.1827,95
1602586143.1830,103
1602586143.1833,112
1602586143.1837,117
1602586143.1840,122
1602586143.1844,134
1602586143.1847,148
1602586143.1850,160
1602586143.1854,172
1602586143.1857,186
1602586143.1860,198
1602586143.1862,208
1602586143.1865,218
1602586143.1867,227
1602586143.1869,230
1602586143.1871,215
1602586143.1873,186
1602586143.1875,148
1602586143.1878,103
1602586143.7438,59
1602586143.7457,35
1602586143.7472,16
1602586143.7487,-2
1602586143.7501,-14
1602586143.7511,-7
1602586143.7520,-4
1602586143.7531,-11
1602586143.7540,-7
1602586143.7549,4
1602586143.7560,11
1602586143.7571,14
1602586143.7581,23
1602586143.7591,31
1602586143.7598,35
1602586143.7605,38
1602586143.7611,43
1602586143.7618,47
1602586143.7625,55
1602586143.7631,62
1602586143.7638,62
1602586143.7645,59
1602586143.7652,64
1602586143.7658,64
1602586143.7665,64
1602586143.7671,69
1602586143.7678,71
1602586143.7686,67
1602586143.7692,57
1602586143.7697,52
1602586143.7703,57
1602586143.7708,59
1602586143.7716,59
1602586143.7722,64
1602586143.7730,67
1602586143.7735,62
1602586143.7741,64
1602586143.7747,71
1602586143.7753,69
1602586143.7758,64
1602586143.7763,69
1602586143.7768,74
1602586143.7772,74
1602586143.7776,76
1602586143.7780,81
1602586143.7785,81
1602586143.7789,79
1602586143.7793,81
1602586143.7798,86
1602586143.7802,88
1602586143.7806,83
1602586143.7811,81
1602586143.7815,86
1602586143.7818,88
1602586143.7821,83
1602586143.7825,79
1602586143.7828,79
1602586143.7832,79
1602586143.7835,76
1602586143.7838,79
1602586143.7842,83
1602586143.7845,83
1602586143.7848,81
1602586143.7852,79
1602586143.7854,81
1602586143.7856,81
1602586143.7858,83
1602586143.7860,86
1602586143.7862,86
1602586143.7865,83
1602586143.7867,81
1602586143.7869,71
1602586143.7871,69
1602586144.3139,71
1602586144.3155,64
1602586144.3170,62
1602586144.3183,64
1602586144.3197,67
1602586144.3211,67
1602586144.3220,69
1602586144.3231,69
1602586144.3240,57
1602586144.3249,52
1602586144.3261,57
1602586144.3273,59
1602586144.3284,55
1602586144.3293,57
1602586144.3303,64
1602586144.3312,64
1602586144.3319,62
1602586144.3326,59
1602586144.3333,64
1602586144.3339,69
1602586144.3346,76
1602586144.3353,83
1602586144.3360,93
1602586144.3366,91
1602586144.3373,76
1602586144.3380,64
1602586144.3387,59
1602586144.3394,57
1602586144.3400,59
1602586144.3405,62
1602586144.3410,59
1602586144.3415,62
1602586144.3421,64
1602586144.3427,59
1602586144.3432,62
1602586144.3437,155
1602586144.3441,419
1602586144.3445,738
1602586144.3450,862
1602586144.3455,520
1602586144.3459,-112
1602586144.3463,-285
1602586144.3468,9
1602586144.3472,76
1602586144.3476,-33
1602586144.3481,14
1602586144.3483,59
1602586144.3485,23
1602586144.3487,31
1602586144.3489,59
1602586144.3492,57
1602586144.3494,59
1602586144.3496,71
1602586144.3499,74
1602586144.3501,79
1602586144.3503,86
1602586144.3505,91
1602586144.3508,93
1602586144.3510,100
1602586144.3512,105
1602586144.3514,110
1602586144.3517,115
1602586144.3519,117
1602586144.3521,122
1602586144.3524,134
1602586144.3526,146
1602586144.3528,158
1602586144.3531,167
1602586144.3533,174
1602586144.3535,191
1602586144.3537,210
1602586144.3539,220
1602586144.3542,227
1602586144.8537,230
1602586144.8558,225
1602586144.8574,210
1602586144.8589,189
1602586144.8603,153
1602586144.8613,105
1602586144.8623,67
1602586144.8633,40
1602586144.8642,21
1602586144.8653,7
1602586144.8662,-2
1602586144.8673,4
1602586144.8682,9
1602586144.8692,-2
1602586144.8699,-4
1602586144.8706,9
1602586144.8712,19
1602586144.8719,21
1602586144.8726,23
1602586144.8734,23
1602586144.8741,26
1602586144.8748,26
1602586144.8755,33
1602586144.8761,43
1602586144.8768,45
1602586144.8775,43
1602586144.8780,47
1602586144.8786,52
1602586144.8791,55
1602586144.8796,57
1602586144.8802,59
1602586144.8807,59
1602586144.8812,59
1602586144.8817,62
1602586144.8822,64
1602586144.8826,69
1602586144.8830,67
1602586144.8834,62
1602586144.8839,64
1602586144.8846,71
1602586144.8851,69
1602586144.8856,71
1602586144.8861,71
1602586144.8866,69
1602586144.8870,69
1602586144.8873,74
1602586144.8877,79
1602586144.8880,81
1602586144.8884,79
1602586144.8887,71
1602586144.8891,74
1602586144.8895,79
1602586144.8898,76
1602586144.8902,76
1602586144.8905,76
1602586144.8907,67
1602586144.8909,62
1602586144.8912,64
1602586144.8914,69
1602586144.8916,69
1602586144.8918,64
1602586144.8921,64
1602586144.8923,67
1602586144.8925,67
1602586144.8927,67
1602586144.8930,69
1602586144.8932,69
1602586144.8934,67
1602586144.8936,64
1602586144.8939,69
1602586144.8941,69
1602586144.8943,64
1602586144.8945,57
1602586145.4241,57
1602586145.4259,57
1602586145.4274,52
1602586145.4289,50
1602586145.4303,50
1602586145.4317,38
1602586145.4327,21
1602586145.4336,16
1602586145.4346,26
1602586145.4355,31
1602586145.4364,28
1602586145.4375,28
1602586145.4384,28
1602586145.4394,33
1602586145.4406,35
1602586145.4414,35
1602586145.4422,40
1602586145.4433,45
1602586145.4442,40
1602586145.4450,43
1602586145.4457,50
1602586145.4464,50
1602586145.4471,52
1602586145.4478,55
1602586145.4485,55
1602586145.4492,52
1602586145.4498,50
1602586145.4503,52
1602586145.4509,62
1602586145.4514,71
1602586145.4519,81
1602586145.4525,88
1602586145.4530,91
1602586145.4535,81
1602586145.4540,69
1602586145.4544,57
1602586145.4548,57
1602586145.4553,59
1602586145.4557,59
1602586145.4561,62
1602586145.4566,67
1602586145.4571,67
1602586145.4575,59
1602586145.4579,52
1602586145.4585,103
1602586145.4588,313
1602586145.4592,630
1602586145.4595,834
1602586145.4599,639
1602586145.4602,38
1602586145.4606,-309
1602586145.4609,-81
1602586145.4612,83
1602586145.4616,-21
1602586145.4619,-26
1602586145.4623,40
1602586145.4626,21
1602586145.4628,11
1602586145.4630,40
1602586145.4633,47
1602586145.4635,40
1602586145.4637,47
1602586145.4639,55
1602586145.4641,64
1602586145.4644,71
1602586145.4646,71
1602586145.4648,74
1602586145.4650,83
1602586145.4653,93
1602586145.4655,91
1602586145.4657,88
1602586145.4659,88
1602586145.4662,93
1602586145.9633,105
1602586145.9646,112
1602586145.9657,119
1602586145.9667,131
1602586145.9675,146
1602586145.9682,158
1602586145.9690,172
1602586145.9698,182
1602586145.9707,182
1602586145.9715,186
1602586145.9725,194
1602586145.9734,184
1602586145.9742,158
1602586145.9750,124
1602586145.9759,86
1602586145.9767,47
1602586145.9775,11
1602586145.9784,-11
1602586145.9792,-14
1602586145.9799,-14
1602586145.9805,-14
1602586145.9812,-11
1602586145.9818,-4
1602586145.9824,0
1602586145.9831,2
1602586145.9837,9
1602586145.9843,14
1602586145.9850,16
1602586145.9856,21
1602586145.9862,28
1602586145.9868,28
1602586145.9874,31
1602586145.9881,38
1602586145.9885,45
1602586145.9888,38
1602586145.9892,31
1602586145.9895,33
1602586145.9899,43
1602586145.9903,43
1602586145.9907,43
1602586145.9910,45
1602586145.9914,43
1602586145.9917,45
1602586145.9920,47
1602586145.9922,50
1602586145.9925,55
1602586145.9928,52
1602586145.9930,47
1602586145.9933,50
1602586145.9935,57
1602586145.9937,55
1602586145.9939,55
1602586145.9942,57
1602586145.9944,59
1602586145.9946,55
1602586145.9948,55
1602586145.9951,59
1602586145.9953,67
1602586145.9955,62
1602586145.9958,55
1602586145.9960,59
1602586145.9962,64
1602586145.9963,55
1602586145.9965,47
1602586145.9967,52
1602586145.9968,55
1602586145.9970,43
1602586145.9972,38
1602586145.9973,43
1602586145.9975,43
1602586145.9977,40
1602586145.9978,45
1602586145.9980,47
1602586146.5342,50
1602586146.5359,50
1602586146.5375,47
1602586146.5390,47
1602586146.5405,43
1602586146.5415,33
1602586146.5425,35
1602586146.5435,47
1602586146.5445,45
1602586146.5456,26
1602586146.5467,23
1602586146.5478,31
1602586146.5487,26
1602586146.5495,23
1602586146.5502,31
1602586146.5509,31
1602586146.5515,28
1602586146.5523,26
1602586146.5531,26
1602586146.5537,31
1602586146.5542,33
1602586146.5548,28
1602586146.5553,26
1602586146.5558,28
1602586146.5566,40
1602586146.5574,57
1602586146.5579,64
1602586146.5584,62
1602586146.5590,57
1602586146.5595,47
1602586146.5600,35
1602586146.5604,33
1602586146.5609,35
1602586146.5614,38
1602586146.5618,40
1602586146.5621,43
1602586146.5623,47
1602586146.5625,45
1602586146.5627,43
1602586146.5630,105
1602586146.5632,328
1602586146.5634,663
1602586146.5637,867
1602586146.5639,599
1602586146.5641,-71
1602586146.5643,-378
1602586146.5646,-93
1602586146.5648,64
1602586146.5650,-38
1602586146.5652,-14
1602586146.5655,47
1602586146.5657,16
1602586146.5659,9
1602586146.5660,43
1602586146.5662,43
1602586146.5664,26
1602586146.5665,28
1602586146.5667,38
1602586146.5669,40
1602586146.5671,45
1602586146.5672,57
1602586146.5674,59
1602586146.5676,64
1602586146.5677,71
1602586146.5679,76
1602586146.5681,86
1602586146.5682,98
1602586146.5684,103
1602586146.5686,112
1602586146.5687,124
1602586146.5689,134
1602586146.5691,146
1602586146.5693,160
1602586147.1332,177
1602586147.1345,191
1602586147.1364,201
1602586147.1380,206
1602586147.1394,213
1602586147.1405,210
1602586147.1415,191
1602586147.1425,162
1602586147.1435,124
1602586147.1446,76
1602586147.1456,33
1602586147.1466,11
1602586147.1476,0
1602586147.1483,-11
1602586147.1490,-16
1602586147.1497,-14
1602586147.1504,-16
1602586147.1511,-14
1602586147.1518,-7
1602586147.1524,0
1602586147.1529,4
1602586147.1535,9
1602586147.1540,16
1602586147.1546,23
1602586147.1551,31
1602586147.1556,31
1602586147.1562,31
1602586147.1567,35
1602586147.1572,43
1602586147.1577,45
1602586147.1582,47
1602586147.1586,55
1602586147.1590,57
1602586147.1594,50
1602586147.1598,50
1602586147.1603,59
1602586147.1607,59
1602586147.1610,57
1602586147.1612,62
1602586147.1614,64
1602586147.1616,59
1602586147.1619,55
1602586147.1621,57
1602586147.1623,62
1602586147.1626,62
1602586147.1628,59
1602586147.1630,62
1602586147.1632,55
1602586147.1635,38
1602586147.1637,38
1602586147.1639,50
1602586147.1642,50
1602586147.1644,50
1602586147.1647,55
1602586147.1648,59
1602586147.1650,62
1602586147.1652,62
1602586147.1653,59
1602586147.1655,57
1602586147.1657,64
1602586147.1659,69
1602586147.1660,67
1602586147.1662,64
1602586147.1664,64
1602586147.1665,64
1602586147.1667,64
1602586147.1669,69
1602586147.1670,71
1602586147.1672,69
1602586147.1674,69
1602586147.1675,71
1602586147.1677,74
1602586147.1679,74
1602586147.6737,71
1602586147.6756,69
1602586147.6771,64
1602586147.6786,62
1602586147.6804,67
1602586147.6819,69
1602586147.6830,62
1602586147.6840,52
1602586147.6850,50
1602586147.6860,55
1602586147.6871,52
1602586147.6881,43
1602586147.6891,45
1602586147.6901,50
1602586147.6910,47
1602586147.6918,47
1602586147.6925,50
1602586147.6932,50
1602586147.6940,47
1602586147.6947,43
1602586147.6952,45
1602586147.6956,67
1602586147.6961,76
1602586147.6966,64
1602586147.6970,59
1602586147.6975,52
1602586147.6979,35
1602586147.6985,28
1602586147.6989,33
1602586147.6994,35
1602586147.6996,35
1602586147.7000,38
1602586147.7002,43
1602586147.7004,40
1602586147.7007,33
1602586147.7009,67
1602586147.7012,244
1602586147.7014,558
1602586147.7016,812
1602586147.7019,716
1602586147.7021,136
1602586147.7024,-359
1602586147.7026,-208
1602586147.7028,40
1602586147.7031,-35
1602586147.7033,-71
1602586147.7035,2
1602586147.7037,-2
1602586147.7038,-16
1602586147.7040,9
1602586147.7042,16
1602586147.7044,14
1602586147.7046,31
1602586147.7048,38
1602586147.7049,38
1602586147.7051,47
1602586147.7053,55
1602586147.7055,55
1602586147.7057,62
1602586147.7058,76
1602586147.7060,81
1602586147.7062,83
1602586147.7064,91
1602586147.7066,103
1602586147.7067,112
1602586147.7069,119
1602586147.7071,131
1602586147.7073,143
1602586147.7074,153
1602586147.7076,160
1602586147.7078,174
1602586147.7080,189
1602586147.7082,194
1602586148.2432,196
1602586148.2450,198
1602586148.2466,191
1602586148.2482,170
1602586148.2497,136
1602586148.2513,95
1602586148.2524,55
1602586148.2534,16
1602586148.2544,-9
1602586148.2557,-16
1602586148.2566,-11
1602586148.2574,-16
1602586148.2582,-23
1602586148.2589,-16
1602586148.2597,-4
1602586148.2602,0
1602586148.2608,4
1602586148.2613,11
1602586148.2619,19
1602586148.2625,19
1602586148.2631,21
1602586148.2637,26
1602586148.2642,33
1602586148.2646,35
1602586148.2650,35
1602586148.2654,38
1602586148.2657,43
1602586148.2661,43
1602586148.2665,45
1602586148.2669,50
1602586148.2672,40
1602586148.2676,35
1602586148.2680,33
1602586148.2683,31
1602586148.2685,31
1602586148.2688,35
1602586148.2690,35
1602586148.2692,35
1602586148.2695,40
1602586148.2697,40
1602586148.2700,38
1602586148.2702,43
1602586148.2704,47
1602586148.2707,47
1602586148.2709,47
1602586148.2712,45
1602586148.2714,50
1602586148.2716,55
1602586148.2719,50
1602586148.2721,45
1602586148.2724,38
1602586148.2725,38
1602586148.2727,45
1602586148.2729,50
1602586148.2731,45
1602586148.2733,40
1602586148.2734,47
1602586148.2736,55
1602586148.2738,55
1602586148.2740,52
1602586148.2742,52
1602586148.2744,52
1602586148.2746,50
1602586148.2747,47
1602586148.2749,52
1602586148.2751,57
1602586148.2753,57
1602586148.2755,55
1602586148.2757,55
1602586148.2758,57
1602586148.2760,59
1602586148.2762,59
1602586148.2764,57
1602586148.7843,59
1602586148.7865,59
1602586148.7881,62
1602586148.7896,64
1602586148.7912,64
1602586148.7924,59
1602586148.7935,57
1602586148.7945,62
1602586148.7955,59
1602586148.7965,45
1602586148.7976,43
1602586148.7986,50
1602586148.7997,45
1602586148.8004,40
1602586148.8011,47
1602586148.8018,52
1602586148.8025,47
1602586148.8033,47
1602586148.8040,52
1602586148.8046,52
1602586148.8051,52
1602586148.8056,50
1602586148.8060,50
1602586148.8065,50
1602586148.8070,47
1602586148.8074,38
1602586148.8080,28
1602586148.8084,28
1602586148.8087,26
1602586148.8089,21
1602586148.8091,23
1602586148.8094,26
1602586148.8096,33
1602586148.8099,50
1602586148.8101,69
1602586148.8104,64
1602586148.8106,47
1602586148.8108,31
1602586148.8112,31
1602586148.8115,31
1602586148.8117,28
1602586148.8120,31
1602586148.8122,35
1602586148.8124,38
1602586148.8126,40
1602586148.8128,38
1602586148.8130,35
1602586148.8132,79
1602586148.8133,275
1602586148.8135,596
1602586148.8137,826
1602586148.8139,671
1602586148.8141,62
1602586148.8142,-347
1602586148.8144,-136
1602586148.8146,62
1602586148.8148,-38
1602586148.8150,-50
1602586148.8151,21
1602586148.8153,2
1602586148.8155,-11
1602586148.8157,16
1602586148.8159,28
1602586148.8160,26
1602586148.8162,35
1602586148.8164,43
1602586148.8166,47
1602586148.8167,50
1602586148.8169,55
1602586148.8171,64
1602586148.8173,71
1602586148.8175,79
1602586148.8177,79
1602586149.3537,86
1602586149.3554,98
1602586149.3568,105
1602586149.3585,112
1602586149.3601,122
1602586149.3615,129
1602586149.3626,131
1602586149.3635,143
1602586149.3644,160
1602586149.3653,172
1602586149.3663,182
1602586149.3673,186
1602586149.3682,189
1602586149.3691,186
1602586149.3701,179
1602586149.3710,167
1602586149.3720,134
1602586149.3728,81
1602586149.3736,33
1602586149.3743,4
1602586149.3752,-9
1602586149.3759,-19
1602586149.3766,-26
1602586149.3773,-26
1602586149.3780,-19
1602586149.3788,-11
1602586149.3795,-9
1602586149.3800,0
1602586149.3805,4
1602586149.3811,4
1602586149.3816,4
1602586149.3821,16
1602586149.3826,21
1602586149.3831,23
1602586149.3836,26
1602586149.3841,28
1602586149.3847,33
1602586149.3852,35
1602586149.3857,35
1602586149.3862,38
1602586149.3867,38
1602586149.3872,35
1602586149.3877,43
1602586149.3882,47
1602586149.3886,35
1602586149.3890,31
1602586149.3894,38
1602586149.3899,40
1602586149.3903,38
1602586149.3909,40
1602586149.3913,43
1602586149.3918,45
1602586149.3923,43
1602586149.3927,40
1602586149.3931,43
1602586149.3934,47
1602586149.3937,45
1602586149.3941,43
1602586149.3944,47
1602586149.3947,52
1602586149.3951,50
1602586149.3954,47
1602586149.3958,55
1602586149.3961,52
1602586149.3964,47
1602586149.3966,47
1602586149.3968,50
1602586149.3971,50
1602586149.3973,50
1602586149.3976,55
1602586149.3978,57
1602586149.3980,55
1602586149.3982,47
1602586149.8939,50
1602586149.8959,55
1602586149.8974,55
1602586149.8988,50
1602586149.9002,43
1602586149.9015,45
1602586149.9025,45
1602586149.9034,35
1602586149.9044,35
1602586149.9053,38
1602586149.9062,31
1602586149.9072,19
1602586149.9083,23
1602586149.9095,31
1602586149.9106,31
1602586149.9112,31
1602586149.9119,28
1602586149.9126,31
1602586149.9132,31
1602586149.9139,28
1602586149.9146,28
1602586149.9152,31
1602586149.9159,28
1602586149.9165,23
1602586149.9172,26
1602586149.9178,35
1602586149.9186,33
1602586149.9193,28
1602586149.9198,31
1602586149.9203,33
1602586149.9208,31
1602586149.9213,33
1602586149.9218,43
1602586149.9224,38
1602586149.9229,26
1602586149.9234,19
1602586149.9239,16
1602586149.9244,11
1602586149.9250,4
1602586149.9255,14
1602586149.9260,33
1602586149.9265,43
1602586149.9271,40
1602586149.9276,35
1602586149.9280,28
1602586149.9287,11
1602586149.9292,0
1602586149.9298,4
1602586149.9303,14
1602586149.9307,16
1602586149.9312,16
1602586149.9316,19
1602586149.9321,14
1602586149.9325,11
1602586149.9328,71
1602586149.9332,289
1602586149.9335,625
1602586149.9338,841
1602586149.9342,599
1602586149.9345,-64
1602586149.9349,-402
1602586149.9352,-131
1602586149.9355,31
1602586149.9359,-74
1602586149.9362,-52
1602586149.9366,14
1602586149.9369,-19
1602586149.9372,-23
1602586149.9376,7
1602586149.9379,4
1602586149.9383,0
1602586149.9386,16
1602586149.9389,26
1602586150.4936,26
1602586150.4953,35
1602586150.4968,40
1602586150.4982,28
1602586150.4995,16
1602586150.5009,26
1602586150.5019,40
1602586150.5028,47
1602586150.5037,50
1602586150.5046,62
1602586150.5058,76
1602586150.5070,88
1602586150.5080,98
1602586150.5091,110
1602586150.5098,127
1602586150.5105,141
1602586150.5111,150
1602586150.5118,167
1602586150.5125,186
1602586150.5131,189
1602586150.5138,179
1602586150.5145,167
1602586150.5152,148
1602586150.5161,107
1602586150.5169,57
1602586150.5177,16
1602586150.5183,-16
1602586150.5188,-40
1602586150.5194,-47
1602586150.5200,-43
1602586150.5206,-43
1602586150.5211,-43
1602586150.5216,-33
1602586150.5221,-23
1602586150.5226,-23
1602586150.5232,-23
1602586150.5237,-14
1602586150.5242,-4
1602586150.5248,-2
1602586150.5253,0
1602586150.5259,4
1602586150.5264,14
1602586150.5268,21
1602586150.5273,23
1602586150.5277,26
1602586150.5281,28
1602586150.5286,33
1602586150.5290,33
1602586150.5294,35
1602586150.5299,43
1602586150.5303,45
1602586150.5307,38
1602586150.5312,35
1602586150.5316,43
1602586150.5319,47
1602586150.5323,43
1602586150.5326,40
1602586150.5329,40
1602586150.5333,35
1602586150.5336,33
1602586150.5340,38
1602586150.5343,43
1602586150.5347,40
1602586150.5350,40
1602586150.5354,45
1602586150.5357,50
1602586150.5361,50
1602586150.5365,52
1602586150.5368,50
1602586150.5372,40
1602586150.5375,33
1602586150.5379,38
1602586150.5382,40
1602586151.0640,45
1602586151.0661,47
1602586151.0676,45
1602586151.0691,45
1602586151.0705,50
1602586151.0719,52
1602586151.0729,52
1602586151.0739,52
1602586151.0748,50
1602586151.0759,40
1602586151.0770,38
1602586151.0782,50
1602586151.0792,50
1602586151.0802,38
1602586151.0812,35
1602586151.0819,45
1602586151.0827,45
1602586151.0834,38
1602586151.0842,38
1602586151.0850,43
1602586151.0857,40
1602586151.0865,38
1602586151.0872,45
1602586151.0878,50
1602586151.0886,47
1602586151.0893,45
1602586151.0899,43
1602586151.0905,47
1602586151.0910,50
1602586151.0916,45
1602586151.0925,43
1602586151.0931,40
1602586151.0937,35
1602586151.0942,33
1602586151.0947,35
1602586151.0952,33
1602586151.0956,28
1602586151.0960,33
1602586151.0965,52
1602586151.0969,67
1602586151.0974,62
1602586151.0978,57
1602586151.0982,55
1602586151.0988,40
1602586151.0991,26
1602586151.0995,28
1602586151.0998,38
1602586151.1002,40
1602586151.1005,38
1602586151.1009,35
1602586151.1012,33
1602586151.1016,28
1602586151.1020,33
1602586151.1023,141
1602586151.1026,424
1602586151.1028,742
1602586151.1031,831
1602586151.1033,428
1602586151.1035,-206
1602586151.1037,-306
1602586151.1040,4
1602586151.1042,28
1602586151.1044,-81
1602586151.1046,-28
1602586151.1048,9
1602586151.1051,-19
1602586151.1053,-4
1602586151.1055,16
1602586151.1057,11
1602586151.1060,19
1602586151.1062,38
1602586151.1064,38
1602586151.1066,35
1602586151.6036,45
1602586151.6054,55
1602586151.6069,55
1602586151.6083,59
1602586151.6099,69
1602586151.6113,79
1602586151.6123,81
1602586151.6133,86
1602586151.6143,91
1602586151.6152,98
1602586151.6162,98
1602586151.6172,107
1602586151.6182,127
1602586151.6191,143
1602586151.6200,153
1602586151.6210,165
1602586151.6217,177
1602586151.6224,189
1602586151.6231,191
1602586151.6237,184
1602586151.6244,170
1602586151.6251,146
1602586151.6260,107
1602586151.6268,64
1602586151.6275,28
1602586151.6282,2
1602586151.6289,-11
1602586151.6296,-14
1602586151.6302,-11
1602586151.6307,-14
1602586151.6315,-16
1602586151.6321,-9
1602586151.6327,2
1602586151.6332,4
1602586151.6337,7
1602586151.6342,11
1602586151.6347,16
1602586151.6351,19
1602586151.6355,21
1602586151.6360,23
1602586151.6364,21
1602586151.6368,23
1602586151.6373,31
1602586151.6377,31
1602586151.6381,31
1602586151.6386,35
1602586151.6388,40
1602586151.6390,43
1602586151.6393,40
1602586151.6395,40
1602586151.6397,43
1602586151.6399,50
1602586151.6402,50
1602586151.6404,43
1602586151.6406,40
1602586151.6408,35
1602586151.6411,31
1602586151.6413,33
1602586151.6415,35
1602586151.6417,40
1602586151.6420,43
1602586151.6422,40
1602586151.6424,40
1602586151.6427,45
1602586151.6429,47
1602586151.6431,47
1602586151.6433,50
1602586151.6436,50
1602586151.6438,47
1602586151.6440,50
1602586151.6442,50
1602586151.6445,50
1602586151.6447,47
1602586152.1735,43
1602586152.1753,47
1602586152.1770,50
1602586152.1784,50
1602586152.1798,47
1602586152.1810,50
1602586152.1819,45
1602586152.1829,38
1602586152.1842,38
1602586152.1852,38
1602586152.1863,31
1602586152.1873,31
1602586152.1883,35
1602586152.1892,38
1602586152.1899,38
1602586152.1906,35
1602586152.1913,40
1602586152.1920,43
1602586152.1927,40
1602586152.1935,38
1602586152.1941,40
1602586152.1948,45
1602586152.1955,45
1602586152.1962,45
1602586152.1968,47
1602586152.1975,40
1602586152.1981,33
1602586152.1986,33
1602586152.1992,33
1602586152.1997,31
1602586152.2002,28
1602586152.2007,21
1602586152.2013,23
1602586152.2018,28
1602586152.2023,26
1602586152.2027,23
1602586152.2031,28
1602586152.2036,28
1602586152.2040,28
1602586152.2045,31
1602586152.2049,35
1602586152.2053,33
1602586152.2058,31
1602586152.2062,33
1602586152.2066,38
1602586152.2069,38
1602586152.2071,38
1602586152.2073,33
1602586152.2075,19
1602586152.2078,19
1602586152.2080,35
1602586152.2082,50
1602586152.2084,59
1602586152.2087,64
1602586152.2089,57
1602586152.2091,47
1602586152.2094,38
1602586152.2096,31
1602586152.2098,28
1602586152.2101,33
1602586152.2104,40
1602586152.2106,43
1602586152.2109,43
1602586152.2111,38
1602586152.2113,31
1602586152.2116,47
1602586152.2118,179
1602586152.2120,474
1602586152.2123,764
1602586152.2125,783
1602586152.2127,316
1602586152.2130,-254
1602586152.2132,-244
1602586152.7136,40
1602586152.7154,16
1602586152.7170,-57
1602586152.7185,9
1602586152.7200,19
1602586152.7215,-9
1602586152.7225,14
1602586152.7234,28
1602586152.7244,16
1602586152.7254,21
1602586152.7267,35
1602586152.7279,35
1602586152.7289,38
1602586152.7299,47
1602586152.7307,59
1602586152.7314,62
1602586152.7321,64
1602586152.7328,69
1602586152.7335,79
1602586152.7342,91
1602586152.7347,95
1602586152.7353,100
1602586152.7358,105
1602586152.7364,110
1602586152.7369,124
1602586152.7374,141
1602586152.7380,155
1602586152.7386,167
1602586152.7390,177
1602586152.7395,186
1602586152.7399,196
1602586152.7403,201
1602586152.7407,194
1602586152.7411,179
1602586152.7416,150
1602586152.7420,107
1602586152.7424,64
1602586152.7431,33
1602586152.7434,11
1602586152.7436,-7
1602586152.7438,-21
1602586152.7440,-28
1602586152.7443,-31
1602586152.7445,-26
1602586152.7447,-19
1602586152.7450,-9
1602586152.7452,-4
1602586152.7454,-7
1602586152.7456,-2
1602586152.7459,9
1602586152.7461,11
1602586152.7463,14
1602586152.7466,21
1602586152.7468,21
1602586152.7470,16
1602586152.7472,16
1602586152.7474,23
1602586152.7476,28
1602586152.7477,28
1602586152.7479,31
1602586152.7481,35
1602586152.7483,38
1602586152.7484,35
1602586152.7486,35
1602586152.7488,38
1602586152.7489,38
1602586152.7491,38
1602586152.7493,40
1602586152.7495,40
1602586152.7496,40
1602586152.7498,38
1602586152.7500,38
1602586152.7501,38
1602586153.2836,40
1602586153.2854,45
1602586153.2869,47
1602586153.2884,50
1602586153.2899,43
1602586153.2913,35
1602586153.2923,35
1602586153.2936,38
1602586153.2947,35
1602586153.2957,35
1602586153.2968,38
1602586153.2978,40
1602586153.2988,40
1602586153.2997,38
1602586153.3007,38
1602586153.3017,38
1602586153.3025,38
1602586153.3034,38
1602586153.3042,40
1602586153.3049,45
1602586153.3054,45
1602586153.3060,38
1602586153.3065,33
1602586153.3070,38
1602586153.3076,38
1602586153.3082,31
1602586153.3087,31
1602586153.3093,38
1602586153.3098,38
1602586153.3102,35
1602586153.3107,38
1602586153.3112,40
1602586153.3116,40
1602586153.3121,33
1602586153.3125,21
1602586153.3130,26
1602586153.3135,31
1602586153.3137,26
1602586153.3140,23
1602586153.3142,23
1602586153.3144,14
1602586153.3147,9
1602586153.3149,16
1602586153.3151,21
1602586153.3154,19
1602586153.3156,14
1602586153.3158,14
1602586153.3161,21
1602586153.3163,19
1602586153.3165,16
1602586153.3167,21
1602586153.3170,23
1602586153.3172,21
1602586153.3174,21
1602586153.3177,28
1602586153.3178,28
1602586153.3180,23
1602586153.3182,23
1602586153.3183,28
1602586153.3185,33
1602586153.3187,47
1602586153.3188,64
1602586153.3190,69
1602586153.3192,59
1602586153.3194,45
1602586153.3195,35
1602586153.3198,35
1602586153.3199,35
1602586153.3201,38
1602586153.3203,40
1602586153.3205,38
1602586153.3206,38
1602586153.3208,43
1602586153.8839,38
1602586153.8860,57
1602586153.8875,206
1602586153.8890,512
1602586153.8905,800
1602586153.8915,769
1602586153.8925,210
1602586153.8936,-361
1602586153.8946,-266
1602586153.8956,28
1602586153.8966,-23
1602586153.8976,-76
1602586153.8986,9
1602586153.8996,11
1602586153.9003,-19
1602586153.9010,9
1602586153.9017,28
1602586153.9024,19
1602586153.9031,26
1602586153.9038,38
1602586153.9044,43
1602586153.9050,43
1602586153.9055,50
1602586153.9060,57
1602586153.9066,64
1602586153.9071,67
1602586153.9076,64
1602586153.9081,64
1602586153.9087,76
1602586153.9091,83
1602586153.9095,91
1602586153.9098,105
1602586153.9102,117
1602586153.9106,124
1602586153.9109,136
1602586153.9113,150
1602586153.9117,160
1602586153.9120,170
1602586153.9124,182
1602586153.9127,189
1602586153.9129,194
1602586153.9131,189
1602586153.9133,172
1602586153.9136,141
1602586153.9139,98
1602586153.9142,47
1602586153.9144,9
1602586153.9146,-4
1602586153.9149,-14
1602586153.9151,-23
1602586153.9153,-26
1602586153.9155,-21
1602586153.9158,-16
1602586153.9160,-14
1602586153.9162,-9
1602586153.9165,2
1602586153.9167,7
1602586153.9169,4
1602586153.9171,9
1602586153.9172,21
1602586153.9174,23
1602586153.9176,26
1602586153.9178,31
1602586153.9179,33
1602586153.9181,35
1602586153.9183,35
1602586153.9185,38
1602586153.9186,40
1602586153.9188,35
1602586153.9190,33
1602586153.9192,35
1602586153.9193,40
1602586153.9195,43
1602586154.4234,43
1602586154.4252,45
1602586154.4268,45
1602586154.4281,43
1602586154.4292,45
1602586154.4302,50
1602586154.4312,47
1602586154.4323,43
1602586154.4333,43
1602586154.4343,47
1602586154.4353,45
1602586154.4364,40
1602586154.4372,40
1602586154.4380,43
1602586154.4387,43
1602586154.4394,45
1602586154.4402,47
1602586154.4409,52
1602586154.4414,43
1602586154.4419,31
1602586154.4423,33
1602586154.4428,43
1602586154.4435,38
1602586154.4441,35
1602586154.4446,43
1602586154.4451,47
1602586154.4455,43
1602586154.4458,38
1602586154.4460,35
1602586154.4462,38
1602586154.4465,40
1602586154.4467,40
1602586154.4469,35
1602586154.4472,35
1602586154.4474,40
1602586154.4476,40
1602586154.4479,43
1602586154.4481,45
1602586154.4483,40
1602586154.4486,35
1602586154.4488,43
1602586154.4490,47
1602586154.4493,47
1602586154.4495,43
1602586154.4497,43
1602586154.4499,40
1602586154.4500,35
1602586154.4502,33
1602586154.4504,35
1602586154.4506,38
1602586154.4508,31
1602586154.4509,28
1602586154.4511,33
1602586154.4513,33
1602586154.4515,31
1602586154.4517,33
1602586154.4518,35
1602586154.4520,35
1602586154.4522,35
1602586154.4524,31
1602586154.4525,31
1602586154.4527,35
1602586154.4529,28
1602586154.4531,28
1602586154.4532,50
1602586154.4534,71
1602586154.4536,71
1602586154.4538,64
1602586154.4539,57
1602586154.4541,45
1602586154.4543,38
1602586154.4545,40
1602586154.4546,45
1602586154.9941,45
1602586154.9962,43
1602586154.9977,45
1602586154.9992,50
1602586155.0006,43
1602586155.0017,47
1602586155.0027,153
1602586155.0037,424
1602586155.0047,730
1602586155.0054,822
1602586155.0062,428
1602586155.0069,-210
1602586155.0077,-323
1602586155.0084,-11
1602586155.0091,23
1602586155.0097,-79
1602586155.0103,-23
1602586155.0109,11
1602586155.0115,-23
1602586155.0121,-14
1602586155.0126,11
1602586155.0132,9
1602586155.0138,14
1602586155.0141,31
1602586155.0145,33
1602586155.0149,35
1602586155.0152,47
1602586155.0156,55
1602586155.0159,55
1602586155.0163,62
1602586155.0167,71
1602586155.0170,76
1602586155.0174,81
1602586155.0177,91
1602586155.0179,103
1602586155.0182,110
1602586155.0184,119
1602586155.0186,131
1602586155.0189,141
1602586155.0191,150
1602586155.0193,167
1602586155.0196,184
1602586155.0198,191
1602586155.0200,194
1602586155.0203,198
1602586155.0205,198
1602586155.0207,184
1602586155.0210,155
1602586155.0212,117
1602586155.0214,69
1602586155.0217,28
1602586155.0219,0
1602586155.0221,-14
1602586155.0223,-16
1602586155.0225,-19
1602586155.0227,-21
1602586155.0228,-19
1602586155.0230,-9
1602586155.0232,-2
1602586155.0234,-2
1602586155.0235,0
1602586155.0237,4
1602586155.0239,11
1602586155.0241,16
1602586155.0242,19
1602586155.0244,23
1602586155.0246,26
1602586155.0248,26
1602586155.0250,31
1602586155.0251,35
1602586155.0253,35
1602586155.0255,38
1602586155.0256,40
1602586155.5334,40
1602586155.5352,35
1602586155.5368,33
1602586155.5384,26
1602586155.5398,26
1602586155.5413,28
1602586155.5423,28
1602586155.5433,31
1602586155.5446,31
1602586155.5457,11
1602586155.5465,2
1602586155.5473,14
1602586155.5480,19
1602586155.5487,11
1602586155.5495,16
1602586155.5501,26
1602586155.5508,28
1602586155.5515,28
1602586155.5522,28
1602586155.5527,31
1602586155.5533,35
1602586155.5538,38
1602586155.5544,40
1602586155.5548,40
1602586155.5551,35
1602586155.5555,38
1602586155.5558,38
1602586155.5562,31
1602586155.5566,31
1602586155.5570,35
1602586155.5574,33
1602586155.5578,31
1602586155.5581,35
1602586155.5584,35
1602586155.5587,35
1602586155.5589,38
1602586155.5591,38
1602586155.5594,38
1602586155.5596,33
1602586155.5598,33
1602586155.5601,35
1602586155.5603,31
1602586155.5605,31
1602586155.5608,28
1602586155.5610,23
1602586155.5613,21
1602586155.5615,21
1602586155.5617,21
1602586155.5620,16
1602586155.5622,16
1602586155.5624,26
1602586155.5627,28
1602586155.5629,19
1602586155.5630,16
1602586155.5632,23
1602586155.5634,26
1602586155.5635,23
1602586155.5637,26
1602586155.5638,28
1602586155.5640,31
1602586155.5642,31
1602586155.5643,28
1602586155.5645,33
1602586155.5647,35
1602586155.5648,35
1602586155.5650,33
1602586155.5652,28
1602586155.5653,31
1602586155.5655,31
1602586155.5656,26
1602586155.5658,45
1602586155.5660,62
1602586155.5661,55
1602586156.1027,45
1602586156.1043,43
1602586156.1058,33
1602586156.1072,26
1602586156.1086,26
1602586156.1099,23
1602586156.1110,16
1602586156.1123,16
1602586156.1134,28
1602586156.1144,31
1602586156.1154,16
1602586156.1165,28
1602586156.1175,160
1602586156.1184,450
1602586156.1192,747
1602586156.1199,788
1602586156.1206,337
1602586156.1212,-256
1602586156.1219,-278
1602586156.1226,21
1602586156.1233,19
1602586156.1240,-67
1602586156.1246,-7
1602586156.1253,11
1602586156.1260,-14
1602586156.1266,2
1602586156.1272,21
1602586156.1278,21
1602586156.1283,26
1602586156.1289,31
1602586156.1294,33
1602586156.1299,35
1602586156.1304,38
1602586156.1309,45
1602586156.1315,52
1602586156.1320,55
1602586156.1326,62
1602586156.1331,69
1602586156.1336,74
1602586156.1341,83
1602586156.1347,93
1602586156.1352,98
1602586156.1356,107
1602586156.1361,122
1602586156.1365,134
1602586156.1369,146
1602586156.1373,158
1602586156.1377,170
1602586156.1381,179
1602586156.1386,184
1602586156.1390,189
1602586156.1395,186
1602586156.1399,172
1602586156.1403,141
1602586156.1407,98
1602586156.1411,59
1602586156.1416,23
1602586156.1420,-4
1602586156.1425,-19
1602586156.1430,-21
1602586156.1435,-28
1602586156.1441,-40
1602586156.1444,-40
1602586156.1448,-35
1602586156.1451,-33
1602586156.1455,-33
1602586156.1458,-26
1602586156.1462,-19
1602586156.1465,-14
1602586156.1468,-9
1602586156.1472,-4
1602586156.1475,0
1602586156.1478,2
1602586156.6435,7
1602586156.6454,11
1602586156.6469,14
1602586156.6483,14
1602586156.6497,16
1602586156.6511,16
1602586156.6521,19
1602586156.6530,14
1602586156.6540,7
1602586156.6549,11
1602586156.6559,14
1602586156.6569,11
1602586156.6578,11
1602586156.6587,16
1602586156.6596,19
1602586156.6606,16
1602586156.6613,16
1602586156.6620,19
1602586156.6627,19
1602586156.6633,19
1602586156.6641,21
1602586156.6649,21
1602586156.6656,19
1602586156.6663,16
1602586156.6670,16
1602586156.6676,23
1602586156.6684,26
1602586156.6691,21
1602586156.6696,21
1602586156.6701,23
1602586156.6706,26
1602586156.6712,26
1602586156.6717,26
1602586156.6722,31
1602586156.6727,26
1602586156.6732,23
1602586156.6740,28
1602586156.6746,31
1602586156.6753,31
1602586156.6759,26
1602586156.6765,21
1602586156.6770,23
1602586156.6776,23
1602586156.6780,21
1602586156.6785,21
1602586156.6789,23
1602586156.6793,21
1602586156.6798,19
1602586156.6803,23
1602586156.6807,23
1602586156.6812,21
1602586156.6816,23
1602586156.6822,23
1602586156.6825,9
1602586156.6829,2
1602586156.6832,2
1602586156.6835,0
1602586156.6839,0
1602586156.6842,-2
1602586156.6846,-4
1602586156.6849,-2
1602586156.6852,0
1602586156.6856,-2
1602586156.6859,-4
1602586156.6862,-2
1602586156.6864,-2
1602586156.6867,0
1602586156.6869,2
1602586156.6871,2
1602586156.6873,0
1602586156.6875,2
1602586156.6878,23
1602586156.6880,38
1602586157.2438,38
1602586157.2457,33
1602586157.2472,23
1602586157.2486,7
1602586157.2495,-4
1602586157.2505,-4
1602586157.2514,-2
1602586157.2524,4
1602586157.2533,9
1602586157.2542,9
1602586157.2552,7
1602586157.2562,7
1602586157.2572,64
1602586157.2581,273
1602586157.2591,599
1602586157.2598,822
1602586157.2606,606
1602586157.2613,-55
1602586157.2621,-421
1602586157.2628,-158
1602586157.2635,26
1602586157.2642,-76
1602586157.2649,-59
1602586157.2656,11
1602586157.2662,-14
1602586157.2669,-26
1602586157.2675,7
1602586157.2680,9
1602586157.2686,4
1602586157.2691,19
1602586157.2696,28
1602586157.2701,31
1602586157.2706,35
1602586157.2711,43
1602586157.2717,45
1602586157.2722,52
1602586157.2727,62
1602586157.2732,71
1602586157.2737,71
1602586157.2742,71
1602586157.2747,83
1602586157.2752,95
1602586157.2757,107
1602586157.2761,119
1602586157.2765,127
1602586157.2770,131
1602586157.2776,136
1602586157.2781,146
1602586157.2786,160
1602586157.2790,174
1602586157.2794,184
1602586157.2799,182
1602586157.2803,172
1602586157.2806,150
1602586157.2810,112
1602586157.2813,67
1602586157.2817,23
1602586157.2820,-4
1602586157.2824,-21
1602586157.2827,-31
1602586157.2831,-33
1602586157.2834,-31
1602586157.2837,-26
1602586157.2840,-23
1602586157.2842,-19
1602586157.2845,-11
1602586157.2848,-4
1602586157.2850,-4
1602586157.2852,0
1602586157.2854,9
1602586157.2856,11
1602586157.2858,16
1602586157.2861,23
1602586157.8134,31
1602586157.8152,28
1602586157.8167,28
1602586157.8181,33
1602586157.8195,35
1602586157.8205,28
1602586157.8215,26
1602586157.8224,35
1602586157.8235,35
1602586157.8246,28
1602586157.8257,23
1602586157.8268,28
1602586157.8277,31
1602586157.8288,28
1602586157.8296,26
1602586157.8303,33
1602586157.8310,35
1602586157.8318,35
1602586157.8325,38
1602586157.8331,40
1602586157.8338,38
1602586157.8345,38
1602586157.8352,45
1602586157.8359,47
1602586157.8365,47
1602586157.8372,45
1602586157.8378,50
1602586157.8384,52
1602586157.8389,50
1602586157.8395,50
1602586157.8400,52
1602586157.8405,55
1602586157.8410,52
1602586157.8415,50
1602586157.8420,55
1602586157.8424,55
1602586157.8429,52
1602586157.8433,47
1602586157.8438,43
1602586157.8442,35
1602586157.8446,38
1602586157.8451,43
1602586157.8456,43
1602586157.8462,43
1602586157.8465,45
1602586157.8467,45
1602586157.8469,47
1602586157.8472,52
1602586157.8474,50
1602586157.8476,40
1602586157.8478,40
1602586157.8481,47
1602586157.8483,45
1602586157.8485,43
1602586157.8487,47
1602586157.8490,47
1602586157.8492,45
1602586157.8494,45
1602586157.8497,47
1602586157.8499,45
1602586157.8501,47
1602586157.8503,50
1602586157.8505,50
1602586157.8508,52
1602586157.8510,47
1602586157.8512,40
1602586157.8515,35
1602586157.8517,33
1602586157.8519,23
1602586157.8521,19
1602586157.8524,28
1602586157.8526,47
1602586157.8528,62
1602586158.3533,57
1602586158.3552,47
1602586158.3567,40
1602586158.3582,26
1602586158.3596,23
1602586158.3606,26
1602586158.3616,23
1602586158.3626,26
1602586158.3636,31
1602586158.3646,33
1602586158.3655,26
1602586158.3665,11
1602586158.3675,35
1602586158.3685,201
1602586158.3692,510
1602586158.3699,786
1602586158.3705,747
1602586158.3712,210
1602586158.3719,-325
1602586158.3726,-227
1602586158.3733,40
1602586158.3742,-19
1602586158.3751,-74
1602586158.3759,0
1602586158.3766,4
1602586158.3772,-21
1602586158.3778,0
1602586158.3784,14
1602586158.3790,7
1602586158.3796,16
1602586158.3802,23
1602586158.3807,19
1602586158.3813,16
1602586158.3817,23
1602586158.3822,31
1602586158.3826,35
1602586158.3830,43
1602586158.3835,52
1602586158.3839,57
1602586158.3843,64
1602586158.3848,76
1602586158.3852,86
1602586158.3856,95
1602586158.3862,105
1602586158.3865,119
1602586158.3868,131
1602586158.3872,143
1602586158.3875,158
1602586158.3879,172
1602586158.3883,177
1602586158.3886,182
1602586158.3890,189
1602586158.3893,184
1602586158.3897,162
1602586158.3900,129
1602586158.3903,88
1602586158.3905,50
1602586158.3907,19
1602586158.3910,-4
1602586158.3912,-19
1602586158.3914,-28
1602586158.3917,-33
1602586158.3919,-28
1602586158.3921,-19
1602586158.3923,-14
1602586158.3925,-16
1602586158.3928,-11
1602586158.3930,0
1602586158.3932,4
1602586158.3934,4
1602586158.3937,9
1602586158.3939,16
1602586158.3942,19
1602586158.9538,16
1602586158.9559,19
1602586158.9574,26
1602586158.9588,31
1602586158.9603,31
1602586158.9613,31
1602586158.9624,31
1602586158.9635,28
1602586158.9644,26
1602586158.9654,26
1602586158.9664,28
1602586158.9674,28
1602586158.9684,26
1602586158.9693,28
1602586158.9700,31
1602586158.9707,31
1602586158.9714,31
1602586158.9721,31
1602586158.9728,26
1602586158.9735,21
1602586158.9743,23
1602586158.9750,31
1602586158.9757,31
1602586158.9764,26
1602586158.9771,19
1602586158.9778,19
1602586158.9784,26
1602586158.9790,26
1602586158.9796,23
1602586158.9801,28
1602586158.9806,31
1602586158.9812,26
1602586158.9817,28
1602586158.9822,33
1602586158.9827,35
1602586158.9831,38
1602586158.9835,38
1602586158.9841,33
1602586158.9845,35
1602586158.9850,40
1602586158.9854,43
1602586158.9859,45
1602586158.9863,45
1602586158.9869,38
1602586158.9872,38
1602586158.9876,43
1602586158.9879,45
1602586158.9883,45
1602586158.9886,43
1602586158.9890,43
1602586158.9895,40
1602586158.9898,38
1602586158.9902,40
1602586158.9905,35
1602586158.9908,28
1602586158.9911,31
1602586158.9913,38
1602586158.9915,38
1602586158.9917,33
1602586158.9920,28
1602586158.9922,31
1602586158.9924,35
1602586158.9926,38
1602586158.9929,35
1602586158.9931,33
1602586158.9933,33
1602586158.9935,33
1602586158.9938,35
1602586158.9940,35
1602586158.9942,31
1602586158.9944,28
1602586158.9947,26
1602586158.9949,21
1602586159.4634,16
1602586159.4651,16
1602586159.4666,16
1602586159.4681,16
1602586159.4691,19
1602586159.4701,26
1602586159.4711,40
1602586159.4721,52
1602586159.4730,47
1602586159.4740,33
1602586159.4749,19
1602586159.4759,9
1602586159.4769,2
1602586159.4779,-4
1602586159.4786,0
1602586159.4794,9
1602586159.4802,9
1602586159.4809,-2
1602586159.4816,-9
1602586159.4823,-7
1602586159.4830,55
1602586159.4837,273
1602586159.4843,591
1602586159.4850,795
1602586159.4857,582
1602586159.4864,-45
1602586159.4869,-373
1602586159.4874,-119
1602586159.4882,33
1602586159.4889,-79
1602586159.4896,-69
1602586159.4902,-2
1602586159.4907,-26
1602586159.4912,-33
1602586159.4917,-2
1602586159.4921,0
1602586159.4926,-4
1602586159.4930,14
1602586159.4935,23
1602586159.4939,23
1602586159.4943,23
1602586159.4948,23
1602586159.4953,28
1602586159.4957,38
1602586159.4961,43
1602586159.4964,50
1602586159.4968,59
1602586159.4971,62
1602586159.4975,67
1602586159.4978,79
1602586159.4982,93
1602586159.4985,103
1602586159.4989,115
1602586159.4992,124
1602586159.4994,139
1602586159.4996,148
1602586159.4998,158
1602586159.5001,170
1602586159.5003,177
1602586159.5005,177
1602586159.5007,167
1602586159.5010,148
1602586159.5012,110
1602586159.5014,62
1602586159.5016,21
1602586159.5019,-4
1602586159.5021,-23
1602586159.5023,-28
1602586159.5025,-31
1602586159.5028,-35
1602586159.5030,-38
1602586159.5032,-33
1602586159.5034,-26
1602586160.0056,-26
1602586160.0073,-26
1602586160.0087,-16
1602586160.0098,-9
1602586160.0109,-11
1602586160.0121,-14
1602586160.0136,-14
1602586160.0148,-7
1602586160.0159,-4
1602586160.0168,-16
1602586160.0178,-21
1602586160.0185,-9
1602586160.0192,0
1602586160.0200,-2
1602586160.0207,0
1602586160.0214,9
1602586160.0221,9
1602586160.0228,2
1602586160.0235,2
1602586160.0242,9
1602586160.0249,14
1602586160.0256,9
1602586160.0263,9
1602586160.0269,14
1602586160.0274,16
1602586160.0279,16
1602586160.0284,19
1602586160.0290,19
1602586160.0297,19
1602586160.0303,21
1602586160.0309,21
1602586160.0314,21
1602586160.0319,16
1602586160.0323,14
1602586160.0328,14
1602586160.0332,19
1602586160.0336,23
1602586160.0341,23
1602586160.0345,23
1602586160.0350,26
1602586160.0354,23
1602586160.0357,26
1602586160.0361,31
1602586160.0364,33
1602586160.0368,33
1602586160.0371,31
1602586160.0375,28
1602586160.0378,31
1602586160.0382,31
1602586160.0385,31
1602586160.0389,31
1602586160.0392,33
1602586160.0394,33
1602586160.0396,33
1602586160.0399,33
1602586160.0401,35
1602586160.0403,38
1602586160.0406,33
1602586160.0408,28
1602586160.0410,23
1602586160.0413,23
1602586160.0415,26
1602586160.0417,28
1602586160.0419,26
1602586160.0422,19
1602586160.0424,14
1602586160.0426,21
1602586160.0428,23
1602586160.0430,16
1602586160.0432,19
1602586160.0434,23
1602586160.0436,21
1602586160.0437,21
1602586160.6031,23
1602586160.6048,11
1602586160.6063,-9
1602586160.6078,-21
1602586160.6092,-19
1602586160.6106,-19
1602586160.6116,-19
1602586160.6126,-7
1602586160.6137,9
1602586160.6147,16
1602586160.6156,11
1602586160.6166,2
1602586160.6176,-9
1602586160.6185,-14
1602586160.6195,-11
1602586160.6202,-9
1602586160.6209,-7
1602586160.6216,-4
1602586160.6222,-2
1602586160.6229,0
1602586160.6236,0
1602586160.6243,4
1602586160.6250,88
1602586160.6256,335
1602586160.6263,663
1602586160.6271,812
1602586160.6278,450
1602586160.6284,-230
1602586160.6289,-407
1602586160.6295,-79
1602586160.6301,4
1602586160.6306,-95
1602586160.6311,-40
1602586160.6317,4
1602586160.6322,-31
1602586160.6328,-23
1602586160.6333,7
1602586160.6339,4
1602586160.6343,4
1602586160.6348,16
1602586160.6354,21
1602586160.6360,23
1602586160.6364,31
1602586160.6367,38
1602586160.6370,45
1602586160.6374,47
1602586160.6377,52
1602586160.6381,62
1602586160.6384,69
1602586160.6388,76
1602586160.6391,86
1602586160.6395,93
1602586160.6398,103
1602586160.6402,115
1602586160.6405,124
1602586160.6407,129
1602586160.6409,139
1602586160.6412,153
1602586160.6414,167
1602586160.6416,179
1602586160.6418,184
1602586160.6421,182
1602586160.6423,172
1602586160.6425,143
1602586160.6427,103
1602586160.6430,55
1602586160.6432,11
1602586160.6434,-19
1602586160.6436,-35
1602586160.6439,-43
1602586160.6441,-45
1602586160.6443,-43
1602586160.6445,-38
1602586161.1728,-31
1602586161.1746,-21
1602586161.1761,-16
1602586161.1775,-14
1602586161.1789,-9
1602586161.1804,-2
1602586161.1814,2
1602586161.1823,0
1602586161.1833,-4
1602586161.1842,2
1602586161.1852,14
1602586161.1862,14
1602586161.1872,11
1602586161.1884,21
1602586161.1893,19
1602586161.1900,9
1602586161.1907,16
1602586161.1914,23
1602586161.1921,26
1602586161.1928,26
1602586161.1934,28
1602586161.1941,28
1602586161.1949,31
1602586161.1957,33
1602586161.1965,33
1602586161.1972,31
1602586161.1978,31
1602586161.1983,33
1602586161.1989,35
1602586161.1994,38
1602586161.1999,40
1602586161.2004,40
1602586161.2010,40
1602586161.2014,43
1602586161.2018,47
1602586161.2023,45
1602586161.2027,45
1602586161.2031,47
1602586161.2036,45
1602586161.2040,45
1602586161.2044,50
1602586161.2048,52
1602586161.2053,50
1602586161.2058,47
1602586161.2061,47
1602586161.2065,47
1602586161.2068,47
1602586161.2072,43
1602586161.2075,43
1602586161.2079,45
1602586161.2082,45
1602586161.2086,43
1602586161.2090,43
1602586161.2093,47
1602586161.2097,47
1602586161.2100,43
1602586161.2102,45
1602586161.2104,47
1602586161.2106,40
1602586161.2108,26
1602586161.2111,23
1602586161.2113,31
1602586161.2115,28
1602586161.2118,23
1602586161.2120,31
1602586161.2123,33
1602586161.2125,31
1602586161.2127,33
1602586161.2129,33
1602586161.2132,33
1602586161.2134,33
1602586161.2136,38
1602586161.2139,43
1602586161.7130,40
1602586161.7149,31
1602586161.7164,26
1602586161.7179,28
1602586161.7193,26
1602586161.7207,26
1602586161.7217,38
1602586161.7226,50
1602586161.7236,45
1602586161.7245,28
1602586161.7257,19
1602586161.7268,11
1602586161.7277,2
1602586161.7287,0
1602586161.7297,7
1602586161.7305,14
1602586161.7312,14
1602586161.7319,16
1602586161.7326,16
1602586161.7333,9
1602586161.7339,31
1602586161.7346,186
1602586161.7353,493
1602586161.7360,778
1602586161.7366,754
1602586161.7373,230
1602586161.7380,-321
1602586161.7387,-244
1602586161.7392,33
1602586161.7398,-19
1602586161.7403,-79
1602586161.7408,-7
1602586161.7413,-4
1602586161.7418,-26
1602586161.7424,2
1602586161.7429,19
1602586161.7433,7
1602586161.7438,4
1602586161.7444,16
1602586161.7450,26
1602586161.7455,28
1602586161.7460,35
1602586161.7467,45
1602586161.7473,45
1602586161.7477,47
1602586161.7481,57
1602586161.7484,64
1602586161.7487,71
1602586161.7491,79
1602586161.7494,86
1602586161.7498,93
1602586161.7501,93
1602586161.7505,95
1602586161.7508,112
1602586161.7512,129
1602586161.7515,141
1602586161.7517,153
1602586161.7519,167
1602586161.7521,174
1602586161.7523,177
1602586161.7526,170
1602586161.7528,150
1602586161.7530,122
1602586161.7532,83
1602586161.7535,43
1602586161.7537,14
1602586161.7539,-7
1602586161.7541,-23
1602586161.7544,-35
1602586161.7546,-40
1602586161.7548,-38
1602586161.7550,-28
1602586161.7553,-26
1602586162.2831,-21
1602586162.2849,-16
1602586162.2863,-11
1602586162.2878,-9
1602586162.2893,0
1602586162.2908,2
1602586162.2918,-7
1602586162.2928,-9
1602586162.2938,2
1602586162.2948,7
1602586162.2958,7
1602586162.2970,11
1602586162.2982,16
1602586162.2992,19
1602586162.2999,16
1602586162.3006,19
1602586162.3013,26
1602586162.3020,26
1602586162.3027,21
1602586162.3034,23
1602586162.3043,28
1602586162.3051,31
1602586162.3060,31
1602586162.3067,28
1602586162.3074,26
1602586162.3081,26
1602586162.3087,31
1602586162.3092,33
1602586162.3097,28
1602586162.3103,19
1602586162.3108,21
1602586162.3113,28
1602586162.3119,31
1602586162.3124,31
1602586162.3128,33
1602586162.3133,33
1602586162.3137,33
1602586162.3142,35
1602586162.3146,33
1602586162.3151,35
1602586162.3155,38
1602586162.3159,38
1602586162.3164,31
1602586162.3168,28
1602586162.3173,21
1602586162.3177,16
1602586162.3181,23
1602586162.3185,28
1602586162.3190,23
1602586162.3194,26
1602586162.3198,31
1602586162.3202,33
1602586162.3206,33
1602586162.3210,31
1602586162.3215,31
1602586162.3218,33
1602586162.3222,33
1602586162.3225,33
1602586162.3229,35
1602586162.3232,35
1602586162.3236,23
1602586162.3239,16
1602586162.3243,23
1602586162.3246,26
1602586162.3250,23
1602586162.3253,23
1602586162.3256,28
1602586162.3258,28
1602586162.3261,26
1602586162.3263,26
1602586162.3265,28
1602586162.3268,28
1602586162.3270,26
1602586162.8234,28
1602586162.8255,33
1602586162.8269,31
1602586162.8283,26
1602586162.8297,23
1602586162.8308,21
1602586162.8319,14
1602586162.8329,7
1602586162.8339,2
1602586162.8348,4
1602586162.8358,4
1602586162.8368,7
1602586162.8378,21
1602586162.8387,38
1602586162.8394,40
1602586162.8401,35
1602586162.8408,26
1602586162.8414,14
1602586162.8421,4
1602586162.8428,2
1602586162.8434,7
1602586162.8441,11
1602586162.8448,9
1602586162.8455,7
1602586162.8461,11
1602586162.8468,11
1602586162.8474,7
1602586162.8480,91
1602586162.8485,345
1602586162.8491,663
1602586162.8496,807
1602586162.8501,493
1602586162.8506,-148
1602586162.8511,-352
1602586162.8517,-57
1602586162.8522,26
1602586162.8527,-88
1602586162.8532,-57
1602586162.8537,-14
1602586162.8542,-45
1602586162.8547,-38
1602586162.8552,-7
1602586162.8557,-7
1602586162.8561,-7
1602586162.8565,2
1602586162.8570,9
1602586162.8574,14
1602586162.8578,19
1602586162.8583,26
1602586162.8590,33
1602586162.8596,38
1602586162.8601,43
1602586162.8605,47
1602586162.8610,57
1602586162.8615,62
1602586162.8619,64
1602586162.8623,74
1602586162.8627,88
1602586162.8631,100
1602586162.8635,112
1602586162.8640,119
1602586162.8644,131
1602586162.8647,148
1602586162.8651,162
1602586162.8654,172
1602586162.8658,172
1602586162.8661,167
1602586162.8665,158
1602586162.8668,139
1602586162.8672,100
1602586162.8675,55
1602586162.8678,14
1602586162.8681,-11
1602586163.3933,-28
1602586163.3953,-35
1602586163.3968,-38
1602586163.3982,-45
1602586163.3992,-52
1602586163.4002,-45
1602586163.4011,-33
1602586163.4020,-28
1602586163.4030,-26
1602586163.4041,-26
1602586163.4051,-31
1602586163.4061,-23
1602586163.4069,-16
1602586163.4076,-11
1602586163.4083,-7
1602586163.4090,-7
1602586163.4096,-7
1602586163.4103,-2
1602586163.4110,4
1602586163.4116,9
1602586163.4123,4
1602586163.4130,4
1602586163.4136,11
1602586163.4144,16
1602586163.4150,16
1602586163.4156,9
1602586163.4161,7
1602586163.4169,9
1602586163.4176,9
1602586163.4182,4
1602586163.4188,-2
1602586163.4193,-4
1602586163.4198,0
1602586163.4204,4
1602586163.4209,4
1602586163.4214,2
1602586163.4219,7
1602586163.4224,11
1602586163.4230,11
1602586163.4234,11
1602586163.4239,9
1602586163.4243,9
1602586163.4247,9
1602586163.4252,7
1602586163.4256,9
1602586163.4260,14
1602586163.4264,11
1602586163.4268,9
1602586163.4273,11
1602586163.4277,19
1602586163.4281,21
1602586163.4285,16
1602586163.4289,14
1602586163.4294,16
1602586163.4298,19
1602586163.4302,23
1602586163.4307,26
1602586163.4311,26
1602586163.4317,19
1602586163.4321,19
1602586163.4325,23
1602586163.4328,28
1602586163.4332,28
1602586163.4335,26
1602586163.4339,28
1602586163.4342,31
1602586163.4345,23
1602586163.4349,19
1602586163.4352,21
1602586163.4356,21
1602586163.4359,16
1602586163.4361,14
1602586163.4363,21
1602586163.9929,19
1602586163.9950,11
1602586163.9966,11
1602586163.9985,14
1602586164.0000,11
1602586164.0015,4
1602586164.0027,2
1602586164.0038,14
1602586164.0049,14
1602586164.0061,4
1602586164.0071,2
1602586164.0082,4
1602586164.0090,2
1602586164.0098,-4
1602586164.0106,-7
1602586164.0114,-4
1602586164.0123,7
1602586164.0131,21
1602586164.0139,28
1602586164.0148,31
1602586164.0159,23
1602586164.0169,2
1602586164.0179,-11
1602586164.0187,-16
1602586164.0194,-14
1602586164.0201,-9
1602586164.0207,-9
1602586164.0213,-7
1602586164.0220,-2
1602586164.0226,-2
1602586164.0232,-2
1602586164.0238,81
1602586164.0244,335
1602586164.0251,666
1602586164.0257,810
1602586164.0262,455
1602586164.0268,-222
1602586164.0273,-409
1602586164.0278,-83
1602586164.0283,4
1602586164.0288,-98
1602586164.0294,-47
1602586164.0299,2
1602586164.0305,-31
1602586164.0308,-23
1602586164.0312,-2
1602586164.0315,-4
1602586164.0319,2
1602586164.0322,14
1602586164.0326,16
1602586164.0329,19
1602586164.0333,28
1602586164.0336,33
1602586164.0340,40
1602586164.0343,50
1602586164.0347,55
1602586164.0352,55
1602586164.0355,64
1602586164.0359,74
1602586164.0362,79
1602586164.0365,83
1602586164.0369,98
1602586164.0372,112
1602586164.0376,119
1602586164.0379,124
1602586164.0382,134
1602586164.0385,148
1602586164.0387,162
1602586164.0390,170
1602586164.0392,174
1602586164.0394,174
1602586164.0396,165
1602586164.0398,143
1602586164.5332,105
1602586164.5353,57
1602586164.5369,14
1602586164.5385,-9
1602586164.5400,-19
1602586164.5411,-28
1602586164.5421,-35
1602586164.5431,-33
1602586164.5442,-31
1602586164.5453,-31
1602586164.5463,-35
1602586164.5474,-31
1602586164.5484,-21
1602586164.5492,-14
1602586164.5499,-14
1602586164.5506,-11
1602586164.5513,-14
1602586164.5521,-16
1602586164.5528,-7
1602586164.5536,0
1602586164.5543,0
1602586164.5550,2
1602586164.5557,9
1602586164.5564,11
1602586164.5572,9
1602586164.5578,9
1602586164.5584,9
1602586164.5590,11
1602586164.5595,14
1602586164.5601,16
1602586164.5607,19
1602586164.5613,19
1602586164.5618,19
1602586164.5624,21
1602586164.5633,21
1602586164.5639,23
1602586164.5647,28
1602586164.5653,26
1602586164.5659,21
1602586164.5664,26
1602586164.5669,33
1602586164.5674,33
1602586164.5679,33
1602586164.5684,35
1602586164.5688,35
1602586164.5693,33
1602586164.5698,35
1602586164.5703,40
1602586164.5708,43
1602586164.5713,40
1602586164.5718,43
1602586164.5722,43
1602586164.5727,38
1602586164.5732,35
1602586164.5736,43
1602586164.5741,43
1602586164.5746,31
1602586164.5750,28
1602586164.5753,38
1602586164.5757,40
1602586164.5760,33
1602586164.5763,35
1602586164.5767,38
1602586164.5770,38
1602586164.5774,38
1602586164.5777,40
1602586164.5780,43
1602586164.5784,43
1602586164.5787,35
1602586164.5789,28
1602586164.5791,31
1602586164.5793,33
1602586164.5796,31
1602586165.1026,28
1602586165.1046,31
1602586165.1061,31
1602586165.1076,28
1602586165.1091,31
1602586165.1101,35
1602586165.1112,33
1602586165.1122,19
1602586165.1132,9
1602586165.1142,9
1602586165.1153,7
1602586165.1164,4
1602586165.1179,4
1602586165.1188,2
1602586165.1196,-4
1602586165.1203,-16
1602586165.1210,-11
1602586165.1218,11
1602586165.1225,28
1602586165.1233,28
1602586165.1240,26
1602586165.1247,21
1602586165.1254,7
1602586165.1262,-2
1602586165.1268,-2
1602586165.1274,0
1602586165.1280,7
1602586165.1286,11
1602586165.1292,9
1602586165.1297,9
1602586165.1303,4
1602586165.1309,9
1602586165.1315,122
1602586165.1321,402
1602586165.1327,711
1602586165.1333,793
1602586165.1339,395
1602586165.1345,-222
1602586165.1350,-316
1602586165.1355,-14
1602586165.1360,11
1602586165.1365,-88
1602586165.1369,-35
1602586165.1375,-7
1602586165.1380,-33
1602586165.1385,-16
1602586165.1390,2
1602586165.1397,-2
1602586165.1402,2
1602586165.1407,14
1602586165.1412,16
1602586165.1417,21
1602586165.1422,31
1602586165.1426,33
1602586165.1431,38
1602586165.1437,43
1602586165.1440,50
1602586165.1443,62
1602586165.1447,69
1602586165.1450,74
1602586165.1454,81
1602586165.1457,88
1602586165.1460,98
1602586165.1465,110
1602586165.1468,124
1602586165.1472,136
1602586165.1475,141
1602586165.1478,153
1602586165.1480,167
1602586165.1482,174
1602586165.1484,177
1602586165.1487,177
1602586165.1489,162
1602586165.6430,134
1602586165.6450,93
1602586165.6465,45
1602586165.6480,2
1602586165.6497,-19
1602586165.6512,-35
1602586165.6522,-52
1602586165.6532,-57
1602586165.6542,-59
1602586165.6552,-59
1602586165.6562,-47
1602586165.6572,-40
1602586165.6582,-40
1602586165.6593,-31
1602586165.6600,-23
1602586165.6608,-16
1602586165.6615,-11
1602586165.6622,-11
1602586165.6629,-9
1602586165.6637,-2
1602586165.6644,2
1602586165.6653,4
1602586165.6661,11
1602586165.6668,14
1602586165.6676,14
1602586165.6683,19
1602586165.6689,23
1602586165.6695,23
1602586165.6700,23
1602586165.6706,28
1602586165.6712,28
1602586165.6717,21
1602586165.6723,21
1602586165.6728,28
1602586165.6734,31
1602586165.6740,31
1602586165.6745,28
1602586165.6751,26
1602586165.6757,23
1602586165.6762,23
1602586165.6768,26
1602586165.6776,35
1602586165.6781,35
1602586165.6787,26
1602586165.6792,23
1602586165.6797,33
1602586165.6801,38
1602586165.6806,35
1602586165.6811,35
1602586165.6816,38
1602586165.6820,38
1602586165.6823,40
1602586165.6826,43
1602586165.6830,43
1602586165.6833,40
1602586165.6837,40
1602586165.6840,50
1602586165.6843,50
1602586165.6847,40
1602586165.6850,40
1602586165.6854,45
1602586165.6857,45
1602586165.6860,45
1602586165.6864,45
1602586165.6867,47
1602586165.6870,52
1602586165.6874,50
1602586165.6877,35
1602586165.6881,26
1602586165.6884,28
1602586165.6887,26
1602586165.6891,19
1602586165.6894,19
1602586166.2131,26
1602586166.2152,31
1602586166.2168,31
1602586166.2183,28
1602586166.2197,26
1602586166.2208,21
1602586166.2218,16
1602586166.2229,21
1602586166.2239,26
1602586166.2249,26
1602586166.2259,26
1602586166.2269,26
1602586166.2279,21
1602586166.2289,16
1602586166.2296,14
1602586166.2303,16
1602586166.2311,19
1602586166.2319,14
1602586166.2327,11
1602586166.2340,16
1602586166.2349,19
1602586166.2357,21
1602586166.2364,38
1602586166.2371,50
1602586166.2377,50
1602586166.2383,40
1602586166.2389,33
1602586166.2394,23
1602586166.2400,14
1602586166.2406,9
1602586166.2411,14
1602586166.2417,19
1602586166.2423,21
1602586166.2429,23
1602586166.2435,23
1602586166.2441,16
1602586166.2447,50
1602586166.2453,232
1602586166.2458,548
1602586166.2464,805
1602586166.2468,704
1602586166.2473,124
1602586166.2478,-352
1602586166.2483,-194
1602586166.2488,47
1602586166.2493,-33
1602586166.2498,-67
1602586166.2503,7
1602586166.2508,-4
1602586166.2512,-23
1602586166.2515,7
1602586166.2519,14
1602586166.2522,4
1602586166.2525,19
1602586166.2529,35
1602586166.2532,33
1602586166.2536,28
1602586166.2539,38
1602586166.2542,47
1602586166.2546,40
1602586166.2549,31
1602586166.2551,35
1602586166.2553,50
1602586166.2555,57
1602586166.2557,62
1602586166.2560,69
1602586166.2562,81
1602586166.2564,93
1602586166.2566,105
1602586166.2568,122
1602586166.2571,131
1602586166.2573,139
1602586166.2575,150
1602586166.7525,172
1602586166.7537,179
1602586166.7544,174
1602586166.7551,165
1602586166.7558,148
1602586166.7565,115
1602586166.7572,71
1602586166.7579,26
1602586166.7586,-4
1602586166.7593,-23
1602586166.7602,-40
1602586166.7612,-47
1602586166.7622,-40
1602586166.7632,-35
1602586166.7643,-33
1602586166.7654,-33
1602586166.7665,-31
1602586166.7674,-23
1602586166.7684,-19
1602586166.7692,-19
1602586166.7699,-16
1602586166.7706,-11
1602586166.7714,-7
1602586166.7721,-2
1602586166.7728,4
1602586166.7735,9
1602586166.7742,7
1602586166.7749,7
1602586166.7756,14
1602586166.7763,19
1602586166.7771,16
1602586166.7777,11
1602586166.7782,16
1602586166.7788,19
1602586166.7793,16
1602586166.7799,21
1602586166.7804,23
1602586166.7810,21
1602586166.7815,21
1602586166.7821,21
1602586166.7828,21
1602586166.7834,26
1602586166.7839,26
1602586166.7845,28
1602586166.7850,33
1602586166.7856,31
1602586166.7861,23
1602586166.7866,26
1602586166.7873,31
1602586166.7878,31
1602586166.7884,31
1602586166.7889,28
1602586166.7894,14
1602586166.7899,7
1602586166.7904,11
1602586166.7908,16
1602586166.7911,19
1602586166.7915,23
1602586166.7918,23
1602586166.7921,23
1602586166.7925,26
1602586166.7928,28
1602586166.7932,28
1602586166.7935,26
1602586166.7938,26
1602586166.7942,28
1602586166.7945,33
1602586166.7947,35
1602586166.7949,33
1602586166.7951,26
1602586166.7954,28
1602586166.7956,35
1602586166.7958,38
1602586167.3527,35
1602586167.3544,26
1602586167.3559,21
1602586167.3573,16
1602586167.3587,11
1602586167.3597,16
1602586167.3607,21
1602586167.3616,14
1602586167.3626,9
1602586167.3635,16
1602586167.3645,21
1602586167.3656,16
1602586167.3667,14
1602586167.3677,11
1602586167.3685,9
1602586167.3691,9
1602586167.3699,14
1602586167.3706,26
1602586167.3714,40
1602586167.3720,40
1602586167.3727,31
1602586167.3734,19
1602586167.3741,4
1602586167.3747,-2
1602586167.3754,0
1602586167.3761,7
1602586167.3769,4
1602586167.3775,2
1602586167.3781,9
1602586167.3787,16
1602586167.3792,9
1602586167.3797,7
1602586167.3802,105
1602586167.3808,381
1602586167.3813,707
1602586167.3818,805
1602586167.3823,390
1602586167.3829,-268
1602586167.3834,-371
1602586167.3840,-43
1602586167.3845,4
1602586167.3849,-91
1602586167.3854,-28
1602586167.3858,2
1602586167.3862,-38
1602586167.3866,-38
1602586167.3871,-19
1602586167.3875,-16
1602586167.3880,-4
1602586167.3884,9
1602586167.3889,11
1602586167.3894,9
1602586167.3897,16
1602586167.3901,28
1602586167.3904,35
1602586167.3908,40
1602586167.3911,47
1602586167.3915,55
1602586167.3918,59
1602586167.3922,69
1602586167.3925,81
1602586167.3928,91
1602586167.3932,98
1602586167.3935,105
1602586167.3937,119
1602586167.3939,136
1602586167.3942,148
1602586167.3944,160
1602586167.3946,172
1602586167.3948,177
1602586167.3951,179
1602586167.3953,182
1602586167.3955,172
1602586167.9231,146
1602586167.9250,100
1602586167.9265,52
1602586167.9281,16
1602586167.9300,-9
1602586167.9311,-28
1602586167.9322,-31
1602586167.9334,-31
1602586167.9344,-40
1602586167.9354,-43
1602586167.9364,-28
1602586167.9374,-21
1602586167.9386,-21
1602586167.9395,-14
1602586167.9402,-4
1602586167.9409,-2
1602586167.9416,0
1602586167.9422,4
1602586167.9429,9
1602586167.9436,14
1602586167.9443,14
1602586167.9450,19
1602586167.9456,26
1602586167.9463,26
1602586167.9470,23
1602586167.9476,26
1602586167.9481,28
1602586167.9486,28
1602586167.9492,31
1602586167.9498,33
1602586167.9504,33
1602586167.9509,31
1602586167.9515,28
1602586167.9520,26
1602586167.9526,21
1602586167.9531,23
1602586167.9536,23
1602586167.9541,19
1602586167.9547,9
1602586167.9552,9
1602586167.9557,19
1602586167.9562,21
1602586167.9566,21
1602586167.9570,21
1602586167.9575,23
1602586167.9579,26
1602586167.9583,26
1602586167.9589,26
1602586167.9593,28
1602586167.9598,33
1602586167.9603,31
1602586167.9607,31
1602586167.9610,33
1602586167.9614,35
1602586167.9617,35
1602586167.9622,33
1602586167.9625,33
1602586167.9629,38
1602586167.9632,38
1602586167.9636,35
1602586167.9639,38
1602586167.9643,38
1602586167.9646,38
1602586167.9650,38
1602586167.9653,38
1602586167.9657,35
1602586167.9660,28
1602586167.9664,28
1602586167.9668,33
1602586167.9671,33
1602586167.9675,35
1602586167.9678,40
1602586167.9681,38
1602586168.4629,31
1602586168.4649,31
1602586168.4666,38
1602586168.4681,38
1602586168.4696,38
1602586168.4706,33
1602586168.4715,28
1602586168.4725,28
1602586168.4735,28
1602586168.4744,21
1602586168.4754,14
1602586168.4764,19
1602586168.4773,21
1602586168.4783,16
1602586168.4792,16
1602586168.4799,21
1602586168.4806,21
1602586168.4812,21
1602586168.4819,31
1602586168.4826,47
1602586168.4833,57
1602586168.4841,47
1602586168.4848,35
1602586168.4855,21
1602586168.4862,4
1602586168.4869,-9
1602586168.4876,-4
1602586168.4882,4
1602586168.4887,2
1602586168.4892,0
1602586168.4897,0
1602586168.4903,-11
1602586168.4908,-26
1602586168.4916,35
1602586168.4922,261
1602586168.4928,584
1602586168.4933,788
1602586168.4939,589
1602586168.4944,-33
1602586168.4949,-388
1602586168.4955,-141
1602586168.4960,26
1602586168.4965,-86
1602586168.4969,-83
1602586168.4973,-14
1602586168.4977,-35
1602586168.4982,-45
1602586168.4986,-14
1602586168.4991,-11
1602586168.4995,-11
1602586168.5001,7
1602586168.5005,14
1602586168.5011,9
1602586168.5014,16
1602586168.5017,31
1602586168.5021,31
1602586168.5024,28
1602586168.5028,35
1602586168.5031,47
1602586168.5035,52
1602586168.5038,55
1602586168.5042,62
1602586168.5045,76
1602586168.5049,86
1602586168.5052,95
1602586168.5054,107
1602586168.5056,122
1602586168.5058,131
1602586168.5061,143
1602586168.5063,155
1602586168.5065,167
1602586168.5067,172
1602586168.5070,167
1602586169.0325,158
1602586169.0343,143
1602586169.0357,110
1602586169.0372,64
1602586169.0387,28
1602586169.0401,2
1602586169.0411,-23
1602586169.0420,-43
1602586169.0430,-43
1602586169.0439,-40
1602586169.0449,-40
1602586169.0462,-38
1602586169.0472,-28
1602586169.0482,-21
1602586169.0492,-16
1602586169.0499,-19
1602586169.0506,-19
1602586169.0513,-11
1602586169.0520,-9
1602586169.0527,-7
1602586169.0534,0
1602586169.0541,9
1602586169.0547,9
1602586169.0554,0
1602586169.0560,-4
1602586169.0567,4
1602586169.0574,7
1602586169.0581,7
1602586169.0586,14
1602586169.0591,16
1602586169.0597,16
1602586169.0602,16
1602586169.0607,14
1602586169.0612,14
1602586169.0618,16
1602586169.0623,19
1602586169.0628,19
1602586169.0633,19
1602586169.0638,19
1602586169.0643,21
1602586169.0649,23
1602586169.0654,21
1602586169.0660,21
1602586169.0665,23
1602586169.0670,28
1602586169.0674,28
1602586169.0678,31
1602586169.0683,26
1602586169.0687,19
1602586169.0692,19
1602586169.0696,23
1602586169.0700,26
1602586169.0704,31
1602586169.0710,28
1602586169.0714,23
1602586169.0717,26
1602586169.0721,31
1602586169.0724,31
1602586169.0728,28
1602586169.0731,33
1602586169.0735,33
1602586169.0738,31
1602586169.0743,33
1602586169.0746,35
1602586169.0750,35
1602586169.0753,33
1602586169.0757,33
1602586169.0760,35
1602586169.0763,33
1602586169.0767,33
1602586169.0770,38
1602586169.0774,38
1602586169.0777,33
1602586169.5726,33
1602586169.5743,38
1602586169.5758,35
1602586169.5772,35
1602586169.5786,35
1602586169.5800,31
1602586169.5811,21
1602586169.5820,9
1602586169.5830,4
1602586169.5840,9
1602586169.5849,11
1602586169.5859,7
1602586169.5869,9
1602586169.5878,16
1602586169.5888,14
1602586169.5897,7
1602586169.5904,2
1602586169.5911,7
1602586169.5918,11
1602586169.5925,9
1602586169.5931,11
1602586169.5938,16
1602586169.5945,14
1602586169.5951,0
1602586169.5958,-7
1602586169.5965,4
1602586169.5972,23
1602586169.5979,33
1602586169.5984,31
1602586169.5989,21
1602586169.5995,11
1602586169.6000,0
1602586169.6006,-2
1602586169.6011,2
1602586169.6016,2
1602586169.6022,2
1602586169.6027,9
1602586169.6032,14
1602586169.6037,4
1602586169.6043,-9
1602586169.6050,28
1602586169.6057,213
1602586169.6063,527
1602586169.6068,781
1602586169.6073,685
1602586169.6077,107
1602586169.6082,-369
1602586169.6087,-208
1602586169.6091,33
1602586169.6095,-47
1602586169.6100,-81
1602586169.6104,-7
1602586169.6109,-16
1602586169.6113,-38
1602586169.6116,-11
1602586169.6120,0
1602586169.6123,0
1602586169.6126,9
1602586169.6130,16
1602586169.6133,16
1602586169.6137,23
1602586169.6140,33
1602586169.6144,35
1602586169.6147,40
1602586169.6150,47
1602586169.6153,52
1602586169.6155,57
1602586169.6157,64
1602586169.6159,74
1602586169.6162,83
1602586169.6164,86
1602586169.6166,91
1602586169.6168,103
1602586170.1428,117
1602586170.1449,131
1602586170.1464,146
1602586170.1478,155
1602586170.1493,155
1602586170.1503,153
1602586170.1515,160
1602586170.1527,155
1602586170.1537,127
1602586170.1547,83
1602586170.1557,47
1602586170.1568,14
1602586170.1578,-19
1602586170.1586,-38
1602586170.1592,-47
1602586170.1599,-52
1602586170.1606,-55
1602586170.1613,-55
1602586170.1623,-47
1602586170.1631,-38
1602586170.1639,-31
1602586170.1646,-28
1602586170.1653,-26
1602586170.1660,-19
1602586170.1667,-16
1602586170.1675,-11
1602586170.1682,-7
1602586170.1688,-4
1602586170.1694,-2
1602586170.1699,-4
1602586170.1705,-4
1602586170.1710,-2
1602586170.1715,4
1602586170.1721,7
1602586170.1726,4
1602586170.1731,7
1602586170.1737,9
1602586170.1743,11
1602586170.1748,16
1602586170.1753,16
1602586170.1757,11
1602586170.1761,11
1602586170.1766,14
1602586170.1770,16
1602586170.1774,16
1602586170.1779,21
1602586170.1784,19
1602586170.1788,16
1602586170.1792,19
1602586170.1797,23
1602586170.1801,23
1602586170.1805,21
1602586170.1810,21
1602586170.1814,23
1602586170.1818,26
1602586170.1822,26
1602586170.1826,26
1602586170.1830,26
1602586170.1835,26
1602586170.1839,23
1602586170.1842,26
1602586170.1846,21
1602586170.1849,16
1602586170.1853,16
1602586170.1856,14
1602586170.1860,16
1602586170.1863,23
1602586170.1867,21
1602586170.1870,21
1602586170.1874,23
1602586170.1877,26
1602586170.1879,21
1602586170.1882,19
1602586170.7728,9
1602586170.7745,7
1602586170.7759,9
1602586170.7773,14
1602586170.7787,14
1602586170.7802,11
1602586170.7812,4
1602586170.7822,7
1602586170.7831,9
1602586170.7841,9
1602586170.7852,7
1602586170.7862,7
1602586170.7871,9
1602586170.7881,7
1602586170.7891,7
1602586170.7898,9
1602586170.7905,11
1602586170.7911,14
1602586170.7918,14
1602586170.7925,14
1602586170.7931,11
1602586170.7938,4
1602586170.7945,4
1602586170.7952,9
1602586170.7958,9
1602586170.7965,11
1602586170.7972,21
1602586170.7978,33
1602586170.7983,38
1602586170.7988,31
1602586170.7993,16
1602586170.7999,2
1602586170.8004,-4
1602586170.8009,-7
1602586170.8015,-4
1602586170.8020,2
1602586170.8025,2
1602586170.8031,2
1602586170.8036,7
1602586170.8041,4
1602586170.8046,2
1602586170.8051,79
1602586170.8056,325
1602586170.8061,659
1602586170.8065,822
1602586170.8069,493
1602586170.8074,-177
1602586170.8080,-397
1602586170.8085,-88
1602586170.8091,16
1602586170.8095,-88
1602586170.8099,-45
1602586170.8103,2
1602586170.8107,-35
1602586170.8111,-23
1602586170.8115,7
1602586170.8120,0
1602586170.8124,-2
1602586170.8128,14
1602586170.8132,21
1602586170.8136,21
1602586170.8140,31
1602586170.8145,43
1602586170.8148,43
1602586170.8152,45
1602586170.8155,47
1602586170.8159,47
1602586170.8162,50
1602586170.8166,59
1602586170.8170,67
1602586170.8173,81
1602586170.8177,93
1602586170.8180,98
1602586171.2827,112
1602586171.2849,131
1602586171.2864,139
1602586171.2878,150
1602586171.2892,170
1602586171.2902,179
1602586171.2912,182
1602586171.2921,179
1602586171.2931,165
1602586171.2941,139
1602586171.2951,103
1602586171.2962,62
1602586171.2971,21
1602586171.2981,-9
1602586171.2988,-31
1602586171.2994,-45
1602586171.3001,-45
1602586171.3008,-38
1602586171.3015,-38
1602586171.3022,-33
1602586171.3029,-23
1602586171.3036,-14
1602586171.3042,-11
1602586171.3049,-11
1602586171.3056,-4
1602586171.3066,4
1602586171.3072,7
1602586171.3078,11
1602586171.3084,14
1602586171.3089,19
1602586171.3094,23
1602586171.3100,23
1602586171.3105,28
1602586171.3111,31
1602586171.3116,31
1602586171.3121,33
1602586171.3126,38
1602586171.3132,38
1602586171.3137,31
1602586171.3142,31
1602586171.3148,35
1602586171.3152,35
1602586171.3157,33
1602586171.3161,28
1602586171.3165,23
1602586171.3171,26
1602586171.3175,28
1602586171.3180,31
1602586171.3185,33
1602586171.3189,33
1602586171.3194,28
1602586171.3198,33
1602586171.3202,43
1602586171.3206,38
1602586171.3210,38
1602586171.3214,43
1602586171.3218,43
1602586171.3222,33
1602586171.3226,26
1602586171.3230,31
1602586171.3234,35
1602586171.3238,33
1602586171.3241,31
1602586171.3245,33
1602586171.3248,38
1602586171.3252,38
1602586171.3255,38
1602586171.3259,40
1602586171.3262,38
1602586171.3266,38
1602586171.3269,40
1602586171.3273,43
1602586171.3276,45
1602586171.8525,40
1602586171.8542,38
1602586171.8557,35
1602586171.8575,33
1602586171.8590,31
1602586171.8605,33
1602586171.8614,31
1602586171.8624,21
1602586171.8633,14
1602586171.8643,19
1602586171.8653,23
1602586171.8665,21
1602586171.8675,16
1602586171.8685,19
1602586171.8695,23
1602586171.8702,26
1602586171.8710,26
1602586171.8716,31
1602586171.8723,31
1602586171.8730,26
1602586171.8737,23
1602586171.8743,28
1602586171.8750,23
1602586171.8757,19
1602586171.8764,16
1602586171.8770,19
1602586171.8778,31
1602586171.8785,43
1602586171.8791,43
1602586171.8796,38
1602586171.8801,21
1602586171.8807,2
1602586171.8812,2
1602586171.8817,9
1602586171.8823,4
1602586171.8828,0
1602586171.8833,4
1602586171.8839,14
1602586171.8844,9
1602586171.8850,-2
1602586171.8855,33
1602586171.8860,218
1602586171.8866,534
1602586171.8870,788
1602586171.8875,695
1602586171.8879,127
1602586171.8883,-352
1602586171.8888,-203
1602586171.8892,35
1602586171.8897,-47
1602586171.8901,-88
1602586171.8905,-21
1602586171.8910,-28
1602586171.8915,-45
1602586171.8919,-21
1602586171.8923,-9
1602586171.8926,-9
1602586171.8930,4
1602586171.8933,9
1602586171.8937,11
1602586171.8940,23
1602586171.8944,33
1602586171.8947,33
1602586171.8950,35
1602586171.8954,43
1602586171.8957,52
1602586171.8959,57
1602586171.8961,57
1602586171.8964,62
1602586171.8966,76
1602586171.8968,86
1602586171.8970,98
1602586171.8973,110
1602586172.3929,115
1602586172.3949,127
1602586172.3965,146
1602586172.3980,162
1602586172.3995,170
1602586172.4006,170
1602586172.4016,167
1602586172.4027,165
1602586172.4037,146
1602586172.4047,105
1602586172.4057,62
1602586172.4067,23
1602586172.4077,-7
1602586172.4086,-26
1602586172.4093,-33
1602586172.4100,-38
1602586172.4107,-40
1602586172.4113,-38
1602586172.4120,-31
1602586172.4127,-26
1602586172.4134,-23
1602586172.4140,-19
1602586172.4147,-11
1602586172.4154,-4
1602586172.4160,-4
1602586172.4167,-7
1602586172.4174,-4
1602586172.4180,0
1602586172.4186,4
1602586172.4191,4
1602586172.4196,9
1602586172.4201,11
1602586172.4210,14
1602586172.4215,16
1602586172.4222,19
1602586172.4227,21
1602586172.4232,19
1602586172.4237,21
1602586172.4242,23
1602586172.4248,26
1602586172.4253,23
1602586172.4258,23
1602586172.4263,16
1602586172.4267,2
1602586172.4271,4
1602586172.4275,14
1602586172.4280,16
1602586172.4284,14
1602586172.4289,14
1602586172.4294,21
1602586172.4298,23
1602586172.4303,21
1602586172.4307,23
1602586172.4311,28
1602586172.4314,31
1602586172.4318,26
1602586172.4321,23
1602586172.4324,26
1602586172.4328,23
1602586172.4332,19
1602586172.4335,21
1602586172.4338,23
1602586172.4342,26
1602586172.4345,26
1602586172.4347,26
1602586172.4349,33
1602586172.4352,33
1602586172.4354,28
1602586172.4356,31
1602586172.4358,35
1602586172.4361,35
1602586172.4363,33
1602586172.4365,31
1602586172.9919,33
1602586172.9937,38
1602586172.9951,35
1602586172.9966,33
1602586172.9980,35
1602586172.9994,33
1602586173.0004,21
1602586173.0014,16
1602586173.0024,19
1602586173.0034,19
1602586173.0047,14
1602586173.0058,16
1602586173.0069,21
1602586173.0078,21
1602586173.0088,16
1602586173.0095,16
1602586173.0102,16
1602586173.0109,9
1602586173.0115,7
1602586173.0122,14
1602586173.0129,19
1602586173.0135,14
1602586173.0142,7
1602586173.0150,7
1602586173.0156,11
1602586173.0163,21
1602586173.0170,31
1602586173.0177,31
1602586173.0182,26
1602586173.0189,14
1602586173.0195,0
1602586173.0201,-7
1602586173.0206,-7
1602586173.0211,-4
1602586173.0216,-7
1602586173.0222,-16
1602586173.0227,-14
1602586173.0232,-7
1602586173.0237,-14
1602586173.0243,-4
1602586173.0248,119
1602586173.0253,412
1602586173.0258,723
1602586173.0262,762
1602586173.0266,282
1602586173.0271,-328
1602586173.0276,-323
1602586173.0281,-16
1602586173.0286,-38
1602586173.0290,-119
1602586173.0295,-38
1602586173.0300,-16
1602586173.0303,-55
1602586173.0307,-40
1602586173.0311,-14
1602586173.0314,-14
1602586173.0317,-7
1602586173.0321,2
1602586173.0324,7
1602586173.0328,11
1602586173.0331,19
1602586173.0336,21
1602586173.0339,28
1602586173.0343,40
1602586173.0346,45
1602586173.0350,45
1602586173.0353,52
1602586173.0357,64
1602586173.0360,67
1602586173.0364,76
1602586173.0368,88
1602586173.0371,98
1602586173.0374,110
1602586173.5024,129
1602586173.5041,141
1602586173.5057,146
1602586173.5075,153
1602586173.5090,165
1602586173.5103,172
1602586173.5113,162
1602586173.5124,143
1602586173.5133,115
1602586173.5143,69
1602586173.5152,19
1602586173.5162,-23
1602586173.5172,-45
1602586173.5181,-52
1602586173.5190,-57
1602586173.5197,-62
1602586173.5204,-59
1602586173.5210,-52
1602586173.5217,-50
1602586173.5224,-43
1602586173.5230,-33
1602586173.5237,-31
1602586173.5244,-28
1602586173.5251,-23
1602586173.5257,-14
1602586173.5266,-7
1602586173.5274,-4
1602586173.5280,-7
1602586173.5286,-14
1602586173.5291,-16
1602586173.5296,-11
1602586173.5301,-4
1602586173.5307,2
1602586173.5312,2
1602586173.5317,-2
1602586173.5322,0
1602586173.5328,4
1602586173.5333,9
1602586173.5338,11
1602586173.5345,9
1602586173.5352,4
1602586173.5359,4
1602586173.5363,4
1602586173.5368,7
1602586173.5372,11
1602586173.5376,11
1602586173.5381,14
1602586173.5386,19
1602586173.5390,14
1602586173.5394,11
1602586173.5399,16
1602586173.5403,21
1602586173.5408,21
1602586173.5412,19
1602586173.5415,23
1602586173.5418,26
1602586173.5422,26
1602586173.5425,26
1602586173.5429,26
1602586173.5432,26
1602586173.5436,28
1602586173.5439,31
1602586173.5443,28
1602586173.5446,28
1602586173.5449,28
1602586173.5451,28
1602586173.5454,28
1602586173.5456,31
1602586173.5458,33
1602586173.5460,31
1602586173.5462,26
1602586173.5465,23
1602586173.5467,23
1602586174.1017,28
1602586174.1034,31
1602586174.1049,28
1602586174.1064,23
1602586174.1078,16
1602586174.1092,16
1602586174.1102,21
1602586174.1112,23
1602586174.1122,21
1602586174.1131,19
1602586174.1142,21
1602586174.1152,19
1602586174.1162,16
1602586174.1171,19
1602586174.1180,26
1602586174.1188,40
1602586174.1195,50
1602586174.1204,47
1602586174.1212,43
1602586174.1220,26
1602586174.1227,4
1602586174.1233,-4
1602586174.1240,2
1602586174.1247,7
1602586174.1253,9
1602586174.1260,16
1602586174.1267,19
1602586174.1273,14
1602586174.1278,7
1602586174.1283,47
1602586174.1289,227
1602586174.1294,548
1602586174.1299,802
1602586174.1306,647
1602586174.1313,4
1602586174.1320,-438
1602586174.1325,-218
1602586174.1331,14
1602586174.1336,-79
1602586174.1341,-95
1602586174.1347,-19
1602586174.1351,-33
1602586174.1356,-47
1602586174.1361,-19
1602586174.1365,-14
1602586174.1370,-16
1602586174.1374,-2
1602586174.1378,7
1602586174.1383,9
1602586174.1387,16
1602586174.1391,21
1602586174.1395,23
1602586174.1399,33
1602586174.1403,43
1602586174.1408,47
1602586174.1412,52
1602586174.1416,62
1602586174.1420,69
1602586174.1424,76
1602586174.1428,86
1602586174.1433,98
1602586174.1437,110
1602586174.1440,117
1602586174.1444,129
1602586174.1447,146
1602586174.1451,160
1602586174.1454,165
1602586174.1458,170
1602586174.1462,174
1602586174.1465,165
1602586174.1469,136
1602586174.1472,103
1602586174.1475,62
1602586174.6725,21
1602586174.6745,-9
1602586174.6759,-23
1602586174.6774,-31
1602586174.6788,-38
1602586174.6801,-40
1602586174.6812,-28
1602586174.6822,-21
1602586174.6831,-28
1602586174.6841,-35
1602586174.6850,-28
1602586174.6861,-16
1602586174.6872,-14
1602586174.6882,-19
1602586174.6892,-21
1602586174.6900,-11
1602586174.6907,-4
1602586174.6914,-4
1602586174.6921,4
1602586174.6928,11
1602586174.6934,11
1602586174.6941,7
1602586174.6948,7
1602586174.6955,14
1602586174.6962,16
1602586174.6968,16
1602586174.6975,19
1602586174.6981,21
1602586174.6986,19
1602586174.6991,21
1602586174.6997,26
1602586174.7002,26
1602586174.7007,19
1602586174.7012,21
1602586174.7018,28
1602586174.7024,28
1602586174.7030,26
1602586174.7035,26
1602586174.7041,31
1602586174.7046,33
1602586174.7051,33
1602586174.7056,35
1602586174.7062,40
1602586174.7067,38
1602586174.7072,33
1602586174.7076,38
1602586174.7083,40
1602586174.7088,40
1602586174.7094,40
1602586174.7098,40
1602586174.7102,38
1602586174.7108,40
1602586174.7111,38
1602586174.7115,35
1602586174.7118,33
1602586174.7122,33
1602586174.7125,33
1602586174.7129,38
1602586174.7132,40
1602586174.7136,38
1602586174.7139,38
1602586174.7143,38
1602586174.7146,35
1602586174.7150,33
1602586174.7153,38
1602586174.7157,43
1602586174.7160,43
1602586174.7163,40
1602586174.7167,38
1602586174.7171,40
1602586174.7174,45
1602586174.7177,45
1602586174.7181,43
1602586175.2128,40
1602586175.2150,43
1602586175.2165,45
1602586175.2179,45
1602586175.2190,43
1602586175.2200,40
1602586175.2210,31
1602586175.2219,19
1602586175.2229,28
1602586175.2238,50
1602586175.2247,55
1602586175.2257,45
1602586175.2267,43
1602586175.2274,35
1602586175.2281,14
1602586175.2288,0
1602586175.2294,2
1602586175.2301,11
1602586175.2308,9
1602586175.2315,9
1602586175.2322,16
1602586175.2328,14
1602586175.2335,2
1602586175.2342,19
1602586175.2352,158
1602586175.2358,455
1602586175.2365,752
1602586175.2370,774
1602586175.2376,289
1602586175.2381,-301
1602586175.2386,-282
1602586175.2392,9
1602586175.2397,-23
1602586175.2402,-105
1602586175.2407,-38
1602586175.2413,-23
1602586175.2418,-52
1602586175.2423,-35
1602586175.2428,-19
1602586175.2433,-23
1602586175.2438,-14
1602586175.2442,-2
1602586175.2446,0
1602586175.2451,2
1602586175.2455,4
1602586175.2459,2
1602586175.2463,9
1602586175.2468,23
1602586175.2472,28
1602586175.2476,28
1602586175.2481,35
1602586175.2485,50
1602586175.2489,59
1602586175.2493,64
1602586175.2499,76
1602586175.2503,91
1602586175.2508,100
1602586175.2512,112
1602586175.2516,129
1602586175.2520,146
1602586175.2526,153
1602586175.2530,158
1602586175.2533,158
1602586175.2537,155
1602586175.2540,143
1602586175.2544,112
1602586175.2547,69
1602586175.2551,26
1602586175.2554,-2
1602586175.2558,-21
1602586175.2561,-33
1602586175.2564,-38
1602586175.2566,-45
1602586175.7822,-50
1602586175.7839,-45
1602586175.7858,-35
1602586175.7874,-35
1602586175.7888,-33
1602586175.7898,-26
1602586175.7908,-26
1602586175.7917,-28
1602586175.7926,-26
1602586175.7936,-16
1602586175.7945,-11
1602586175.7955,-11
1602586175.7965,-7
1602586175.7974,-2
1602586175.7981,0
1602586175.7988,2
1602586175.7994,7
1602586175.8001,14
1602586175.8008,14
1602586175.8014,11
1602586175.8022,14
1602586175.8031,19
1602586175.8039,21
1602586175.8046,19
1602586175.8053,16
1602586175.8060,16
1602586175.8066,19
1602586175.8072,19
1602586175.8077,23
1602586175.8083,26
1602586175.8088,23
1602586175.8093,23
1602586175.8098,28
1602586175.8104,31
1602586175.8109,31
1602586175.8114,26
1602586175.8119,21
1602586175.8125,23
1602586175.8130,28
1602586175.8135,28
1602586175.8140,28
1602586175.8145,28
1602586175.8150,26
1602586175.8154,28
1602586175.8159,33
1602586175.8163,33
1602586175.8167,28
1602586175.8172,31
1602586175.8176,35
1602586175.8182,33
1602586175.8187,33
1602586175.8192,35
1602586175.8196,38
1602586175.8200,35
1602586175.8204,31
1602586175.8207,31
1602586175.8211,35
1602586175.8214,38
1602586175.8218,35
1602586175.8221,33
1602586175.8225,35
1602586175.8228,38
1602586175.8232,35
1602586175.8235,33
1602586175.8238,33
1602586175.8242,23
1602586175.8245,11
1602586175.8249,11
1602586175.8252,19
1602586175.8256,16
1602586175.8259,16
1602586175.8263,16
1602586175.8266,19
1602586176.3228,23
1602586176.3249,21
1602586176.3263,21
1602586176.3279,26
1602586176.3293,21
1602586176.3304,19
1602586176.3315,23
1602586176.3325,23
1602586176.3334,14
1602586176.3344,11
1602586176.3354,21
1602586176.3365,33
1602586176.3375,43
1602586176.3382,50
1602586176.3389,43
1602586176.3395,26
1602586176.3402,14
1602586176.3409,9
1602586176.3416,4
1602586176.3422,4
1602586176.3429,7
1602586176.3436,9
1602586176.3443,14
1602586176.3450,11
1602586176.3456,2
1602586176.3463,19
1602586176.3470,155
1602586176.3477,448
1602586176.3485,745
1602586176.3491,745
1602586176.3498,225
1602586176.3507,-354
1602586176.3513,-299
1602586176.3520,-7
1602586176.3525,-50
1602586176.3530,-124
1602586176.3536,-52
1602586176.3541,-40
1602586176.3546,-67
1602586176.3550,-47
1602586176.3555,-31
1602586176.3559,-33
1602586176.3564,-26
1602586176.3568,-14
1602586176.3572,-11
1602586176.3576,-4
1602586176.3581,-2
1602586176.3585,-2
1602586176.3590,7
1602586176.3594,21
1602586176.3598,26
1602586176.3603,28
1602586176.3609,35
1602586176.3615,50
1602586176.3620,57
1602586176.3624,59
1602586176.3628,69
1602586176.3633,81
1602586176.3637,81
1602586176.3640,86
1602586176.3644,107
1602586176.3647,127
1602586176.3651,134
1602586176.3654,143
1602586176.3658,148
1602586176.3661,141
1602586176.3665,124
1602586176.3668,93
1602586176.3671,50
1602586176.3674,14
1602586176.3677,-16
1602586176.3679,-43
1602586176.3681,-57
1602586176.8921,-62
1602586176.8938,-62
1602586176.8956,-57
1602586176.8971,-50
1602586176.8985,-47
1602586176.8995,-52
1602586176.9004,-52
1602586176.9014,-43
1602586176.9024,-31
1602586176.9038,-31
1602586176.9049,-31
1602586176.9060,-23
1602586176.9069,-19
1602586176.9077,-16
1602586176.9083,-9
1602586176.9090,-4
1602586176.9097,-7
1602586176.9103,-9
1602586176.9110,-7
1602586176.9117,-4
1602586176.9124,0
1602586176.9131,0
1602586176.9137,0
1602586176.9144,7
1602586176.9151,4
1602586176.9157,2
1602586176.9163,4
1602586176.9169,7
1602586176.9174,4
1602586176.9180,7
1602586176.9185,11
1602586176.9190,11
1602586176.9196,11
1602586176.9202,14
1602586176.9207,14
1602586176.9213,14
1602586176.9218,14
1602586176.9224,19
1602586176.9229,19
1602586176.9234,16
1602586176.9239,14
1602586176.9243,16
1602586176.9248,21
1602586176.9252,23
1602586176.9256,23
1602586176.9260,21
1602586176.9265,21
1602586176.9269,21
1602586176.9274,21
1602586176.9278,16
1602586176.9282,9
1602586176.9286,2
1602586176.9290,2
1602586176.9294,7
1602586176.9298,9
1602586176.9302,11
1602586176.9307,11
1602586176.9311,14
1602586176.9315,14
1602586176.9319,19
1602586176.9324,19
1602586176.9328,16
1602586176.9331,21
1602586176.9335,21
1602586176.9338,19
1602586176.9342,21
1602586176.9345,26
1602586176.9349,19
1602586176.9352,19
1602586176.9355,21
1602586176.9359,19
1602586176.9362,23
1602586176.9365,43
1602586177.4921,57
1602586177.4937,57
1602586177.4952,50
1602586177.4966,38
1602586177.4980,21
1602586177.4994,14
1602586177.5004,14
1602586177.5014,9
1602586177.5023,7
1602586177.5033,9
1602586177.5043,11
1602586177.5053,9
1602586177.5063,7
1602586177.5072,40
1602586177.5081,215
1602586177.5089,539
1602586177.5095,805
1602586177.5102,675
1602586177.5109,47
1602586177.5115,-417
1602586177.5122,-215
1602586177.5129,23
1602586177.5136,-67
1602586177.5142,-81
1602586177.5149,-2
1602586177.5156,-19
1602586177.5163,-38
1602586177.5169,-7
1602586177.5175,-2
1602586177.5181,-9
1602586177.5186,2
1602586177.5191,7
1602586177.5197,4
1602586177.5202,2
1602586177.5208,9
1602586177.5213,19
1602586177.5219,21
1602586177.5224,26
1602586177.5232,31
1602586177.5239,31
1602586177.5245,33
1602586177.5250,40
1602586177.5254,45
1602586177.5259,45
1602586177.5263,55
1602586177.5267,71
1602586177.5271,83
