,ecg
1606838161.3254,7055.0
1606838161.3281,8060.0
1606838161.3308,9075.0
1606838161.3334,9835.0
1606838161.3356,10630.0
1606838161.3377,11119.0
1606838161.3397,10789.0
1606838161.3411,10356.0
1606838161.3431,10547.0
1606838161.3451,10833.0
1606838161.3471,10901.0
1606838161.3494,11085.0
1606838161.3519,11317.0
1606838161.354,11420.0
1606838161.3561,11525.0
1606838161.3581,11674.0
1606838161.3598,11777.0
1606838161.3612,11855.0
1606838161.3632,11938.0
1606838161.3651,12017.0
1606838161.3671,12085.0
1606838161.3691,12136.0
1606838161.3712,12178.0
1606838161.3731,12224.0
1606838161.3752,12264.0
1606838161.3771,12286.0
1606838161.3791,12310.0
1606838161.3812,12339.0
1606838161.3832,12361.0
1606838161.3852,12376.0
1606838161.3872,12391.0
1606838161.3891,12405.0
1606838161.3911,12413.0
1606838161.3931,12403.0
1606838161.3951,12378.0
1606838161.397,12359.0
1606838161.3991,12320.0
1606838161.4011,12244.0
1606838161.4031,12163.0
1606838161.4051,12105.0
1606838161.407,12051.0
1606838161.4091,11992.0
1606838161.4111,11943.0
1606838161.4131,11907.0
1606838161.4151,11877.0
1606838161.4171,11831.0
1606838161.4191,11765.0
1606838161.4211,11723.0
1606838161.4231,11686.0
1606838161.425,11618.0
1606838161.4274,11567.0
1606838161.429,11523.0
1606838161.431,11464.0
1606838161.4331,11400.0
1606838161.435,11334.0
1606838161.437,11280.0
1606838161.4391,11224.0
1606838161.441,11151.0
1606838161.443,11082.0
1606838161.445,11024.0
1606838161.4471,10955.0
1606838161.4491,10879.0
1606838161.451,10818.0
1606838161.453,10752.0
1606838161.455,10672.0
1606838161.457,10598.0
1606838161.459,10537.0
1606838161.4609,10466.0
1606838161.463,10388.0
1606838161.465,10312.0
1606838161.467,10239.0
1606838161.4692,10160.0
1606838161.471,10082.0
1606838161.8638,10006.0
1606838161.865,9935.0
1606838161.8674,9857.0
1606838161.8701,9772.0
1606838161.872,9698.0
1606838161.8741,9630.0
1606838161.8761,9549.0
1606838161.8781,9463.0
1606838161.88,9383.0
1606838161.8821,9319.0
1606838161.8841,9251.0
1606838161.8861,9163.0
1606838161.8882,9089.0
1606838161.8901,9028.0
1606838161.8921,8945.0
1606838161.8941,8852.0
1606838161.8961,8767.0
1606838161.8982,8686.0
1606838161.9001,8600.0
1606838161.9021,8517.0
1606838161.9041,8444.0
1606838161.9061,8387.0
1606838161.9082,8361.0
1606838161.91,8378.0
1606838161.912,8454.0
1606838161.914,8551.0
1606838161.916,8593.0
1606838161.9181,8637.0
1606838161.9202,8842.0
1606838161.922,9106.0
1606838161.924,8916.0
1606838161.926,8060.0
1606838161.9281,7338.0
1606838161.9299,7260.0
1606838161.932,7243.0
1606838161.934,7062.0
1606838161.936,7006.0
1606838161.938,6991.0
1606838161.94,6888.0
1606838161.942,6813.0
1606838161.944,6788.0
1606838161.946,6725.0
1606838161.9481,6649.0
1606838161.9501,6602.0
1606838161.952,6553.0
1606838161.9541,6480.0
1606838161.956,6421.0
1606838161.9581,6380.0
1606838161.96,6323.0
1606838161.962,6262.0
1606838161.964,6206.0
1606838161.966,6155.0
1606838161.968,6108.0
1606838161.97,6064.0
1606838161.972,6013.0
1606838161.974,5971.0
1606838161.976,5930.0
1606838161.978,5881.0
1606838161.9799,5827.0
1606838161.982,5776.0
1606838161.984,5707.0
1606838161.986,5609.0
1606838161.988,5502.0
1606838161.99,5406.0
1606838161.992,5328.0
1606838161.994,5255.0
1606838161.996,5186.0
1606838161.998,5130.0
1606838162.0,5071.0
1606838162.002,5013.0
1606838162.004,4959.0
1606838162.006,4910.0
1606838162.008,4859.0
1606838162.434,4807.0
1606838162.4351,4761.0
1606838162.4376,4714.0
1606838162.4402,4663.0
1606838162.4422,4604.0
1606838162.4443,4560.0
1606838162.4466,4524.0
1606838162.4483,4477.0
1606838162.4502,4414.0
1606838162.4522,4355.0
1606838162.4542,4313.0
1606838162.4562,4267.0
1606838162.4583,4215.0
1606838162.4602,4171.0
1606838162.4622,4127.0
1606838162.4643,4081.0
1606838162.4662,4035.0
1606838162.4683,3993.0
1606838162.4702,3951.0
1606838162.4722,3905.0
1606838162.4742,3854.0
1606838162.4762,3812.0
1606838162.4782,3780.0
1606838162.4802,3736.0
1606838162.4822,3685.0
1606838162.4842,3643.0
1606838162.4862,3602.0
1606838162.4882,3555.0
1606838162.4902,3509.0
1606838162.4922,3472.0
1606838162.4942,3443.0
1606838162.4962,3408.0
1606838162.4982,3374.0
1606838162.5002,3355.0
1606838162.5022,3328.0
1606838162.5042,3267.0
1606838162.5062,3208.0
1606838162.5082,3171.0
1606838162.5101,3130.0
1606838162.5122,3088.0
1606838162.5141,3073.0
1606838162.5162,3081.0
1606838162.5182,3130.0
1606838162.5201,3240.0
1606838162.5221,3362.0
1606838162.5242,3445.0
1606838162.5268,3526.0
1606838162.5282,3731.0
1606838162.5301,4059.0
1606838162.5321,4135.0
1606838162.5341,3504.0
1606838162.5361,2631.0
1606838162.5382,2389.0
1606838162.5401,2489.0
1606838162.5421,2391.0
1606838162.5441,2310.0
1606838162.5461,2342.0
1606838162.5483,2318.0
1606838162.5502,2276.0
1606838162.5522,2276.0
1606838162.5542,2264.0
1606838162.5561,2237.0
1606838162.5582,2220.0
1606838162.5601,2208.0
1606838162.5621,2198.0
1606838162.5641,2183.0
1606838162.5661,2161.0
1606838162.5682,2139.0
1606838162.5701,2125.0
1606838162.5721,2112.0
1606838162.5741,2107.0
1606838162.5761,2098.0
1606838162.5782,2085.0
1606838162.9732,2078.0
1606838162.974,2071.0
1606838162.9754,2063.0
1606838162.9774,2056.0
1606838162.9794,2044.0
1606838162.9814,2029.0
1606838162.9833,2000.0
1606838162.9853,1951.0
1606838162.9873,1880.0
1606838162.9893,1802.0
1606838162.9913,1743.0
1606838162.9933,1719.0
1606838162.9953,1699.0
1606838162.9973,1672.0
1606838162.9993,1650.0
1606838163.0013,1640.0
1606838163.0033,1626.0
1606838163.0053,1601.0
1606838163.0073,1584.0
1606838163.0093,1577.0
1606838163.0112,1567.0
1606838163.0132,1555.0
1606838163.0152,1538.0
1606838163.0173,1516.0
1606838163.0193,1494.0
1606838163.0213,1479.0
1606838163.0232,1467.0
1606838163.0252,1455.0
1606838163.0272,1440.0
1606838163.0293,1428.0
1606838163.0313,1411.0
1606838163.0333,1398.0
1606838163.0352,1389.0
1606838163.0372,1371.0
1606838163.0393,1359.0
1606838163.0414,1347.0
1606838163.0433,1330.0
1606838163.0452,1310.0
1606838163.0472,1298.0
1606838163.0492,1288.0
1606838163.0512,1274.0
1606838163.0532,1259.0
1606838163.0552,1247.0
1606838163.0572,1232.0
1606838163.0593,1217.0
1606838163.0613,1205.0
1606838163.0632,1195.0
1606838163.0652,1181.0
1606838163.0672,1168.0
1606838163.0692,1156.0
1606838163.0712,1144.0
1606838163.0733,1129.0
1606838163.0752,1115.0
1606838163.0773,1102.0
1606838163.0793,1098.0
1606838163.0814,1100.0
1606838163.0832,1102.0
1606838163.0852,1100.0
1606838163.0873,1090.0
1606838163.0893,1068.0
1606838163.0912,1046.0
1606838163.0932,1029.0
1606838163.0952,1009.0
1606838163.0973,995.0
1606838163.0993,1000.0
1606838163.1013,1017.0
1606838163.1032,1071.0
1606838163.1052,1193.0
1606838163.1072,1354.0
1606838163.1093,1491.0
1606838163.1112,1587.0
1606838163.1132,1743.0
1606838163.1152,2051.0
1606838163.5433,2308.0
1606838163.544,1963.0
1606838163.5465,1078.0
1606838163.5491,601.0
1606838163.5511,682.0
1606838163.5531,660.0
1606838163.5551,542.0
1606838163.557,584.0
1606838163.559,621.0
1606838163.561,589.0
1606838163.563,596.0
1606838163.5651,626.0
1606838163.567,623.0
1606838163.5692,621.0
1606838163.5711,630.0
1606838163.573,635.0
1606838163.575,638.0
1606838163.577,633.0
1606838163.5791,635.0
1606838163.581,648.0
1606838163.583,652.0
1606838163.585,657.0
1606838163.587,667.0
1606838163.5891,667.0
1606838163.591,672.0
1606838163.593,689.0
1606838163.595,699.0
1606838163.597,699.0
1606838163.599,709.0
1606838163.601,718.0
1606838163.603,714.0
1606838163.6051,684.0
1606838163.607,643.0
1606838163.6091,599.0
1606838163.611,560.0
1606838163.6131,530.0
1606838163.615,511.0
1606838163.617,501.0
1606838163.6191,493.0
1606838163.6211,489.0
1606838163.6231,493.0
1606838163.625,493.0
1606838163.627,489.0
1606838163.6292,486.0
1606838163.6311,489.0
1606838163.633,489.0
1606838163.6351,489.0
1606838163.637,486.0
1606838163.639,489.0
1606838163.641,481.0
1606838163.643,469.0
1606838163.645,464.0
1606838163.647,467.0
1606838163.649,471.0
1606838163.651,479.0
1606838163.653,476.0
1606838163.655,469.0
1606838163.657,462.0
1606838163.659,464.0
1606838163.661,459.0
1606838163.6631,452.0
1606838163.665,445.0
1606838163.667,447.0
1606838163.6691,447.0
1606838163.6712,442.0
1606838163.6731,437.0
1606838163.675,432.0
1606838163.677,423.0
1606838163.679,418.0
1606838163.681,413.0
1606838163.683,415.0
1606838163.685,427.0
1606838163.687,425.0
1606838164.0836,408.0
1606838164.0844,403.0
1606838164.0869,405.0
1606838164.0896,398.0
1606838164.0914,391.0
1606838164.0935,388.0
1606838164.0955,381.0
1606838164.0975,379.0
1606838164.0994,371.0
1606838164.1014,357.0
1606838164.1034,354.0
1606838164.1054,359.0
1606838164.1075,357.0
1606838164.1094,354.0
1606838164.1114,361.0
1606838164.1134,369.0
1606838164.1154,379.0
1606838164.1174,383.0
1606838164.1194,376.0
1606838164.1214,361.0
1606838164.1234,352.0
1606838164.1255,342.0
1606838164.1274,337.0
1606838164.1294,344.0
1606838164.1314,371.0
1606838164.1334,447.0
1606838164.1354,584.0
1606838164.1375,745.0
1606838164.1395,885.0
1606838164.1415,1002.0
1606838164.1434,1198.0
1606838164.1454,1516.0
1606838164.1474,1633.0
1606838164.1494,1085.0
1606838164.1514,295.0
1606838164.1534,85.0
1606838164.1554,176.0
1606838164.1574,78.0
1606838164.1594,24.0
1606838164.1614,83.0
1606838164.1634,78.0
1606838164.1654,70.0
1606838164.1676,110.0
1606838164.1695,124.0
1606838164.1714,122.0
1606838164.1734,132.0
1606838164.1754,144.0
1606838164.1774,146.0
1606838164.1794,158.0
1606838164.1814,173.0
1606838164.1834,168.0
1606838164.1854,171.0
1606838164.1875,200.0
1606838164.1894,224.0
1606838164.1914,220.0
1606838164.1934,227.0
1606838164.1954,256.0
1606838164.1974,276.0
1606838164.1994,281.0
1606838164.2014,291.0
1606838164.2034,300.0
1606838164.2054,308.0
1606838164.2074,310.0
1606838164.2094,288.0
1606838164.2114,249.0
1606838164.2134,210.0
1606838164.2154,180.0
1606838164.2174,166.0
1606838164.2195,158.0
1606838164.2214,149.0
1606838164.2234,146.0
1606838164.2254,149.0
1606838164.2274,146.0
1606838164.684,141.0
1606838164.6852,141.0
1606838164.6877,151.0
1606838164.6903,154.0
1606838164.6923,149.0
1606838164.6945,154.0
1606838164.6964,168.0
1606838164.6983,168.0
1606838164.7003,163.0
1606838164.7023,163.0
1606838164.7042,161.0
1606838164.7063,163.0
1606838164.7083,171.0
1606838164.7102,171.0
1606838164.7122,166.0
1606838164.7142,173.0
1606838164.7162,180.0
1606838164.7182,176.0
1606838164.7202,173.0
1606838164.7221,185.0
1606838164.7243,195.0
1606838164.7262,183.0
1606838164.7282,183.0
1606838164.7301,195.0
1606838164.7323,190.0
1606838164.7341,183.0
1606838164.7362,185.0
1606838164.7382,188.0
1606838164.7401,185.0
1606838164.7422,185.0
1606838164.7442,185.0
1606838164.7461,188.0
1606838164.7481,195.0
1606838164.7502,190.0
1606838164.7522,183.0
1606838164.7541,185.0
1606838164.7562,195.0
1606838164.7582,198.0
1606838164.7601,195.0
1606838164.7622,188.0
1606838164.7641,188.0
1606838164.7662,190.0
1606838164.7682,193.0
1606838164.7701,190.0
1606838164.7722,183.0
1606838164.7742,178.0
1606838164.7762,193.0
1606838164.7782,215.0
1606838164.7802,224.0
1606838164.7822,229.0
1606838164.7841,227.0
1606838164.7861,210.0
1606838164.7882,200.0
1606838164.7902,202.0
1606838164.7922,198.0
1606838164.7942,190.0
1606838164.7962,202.0
1606838164.7981,234.0
1606838164.8001,308.0
1606838164.8021,432.0
1606838164.8042,579.0
1606838164.8062,711.0
1606838164.8082,831.0
1606838164.8102,1044.0
1606838164.8122,1379.0
1606838164.8141,1484.0
1606838164.8162,909.0
1606838164.8182,122.0
1606838164.8201,-68.0
1606838164.8221,36.0
1606838164.8242,-39.0
1606838164.8263,-80.0
1606838164.8282,-24.0
1606838165.2536,-24.0
1606838165.2546,-36.0
1606838165.257,-7.0
1606838165.2596,17.0
1606838165.2616,22.0
1606838165.2636,31.0
1606838165.2657,41.0
1606838165.2676,56.0
1606838165.2695,61.0
1606838165.2715,51.0
1606838165.2735,61.0
1606838165.2756,88.0
1606838165.2775,105.0
1606838165.2795,107.0
1606838165.2815,107.0
1606838165.2835,124.0
1606838165.2855,154.0
1606838165.2875,173.0
1606838165.2895,193.0
1606838165.2915,222.0
1606838165.2935,239.0
1606838165.2955,234.0
1606838165.2975,222.0
1606838165.2996,193.0
1606838165.3015,156.0
1606838165.3035,129.0
1606838165.3055,102.0
1606838165.3075,70.0
1606838165.3096,56.0
1606838165.3116,53.0
1606838165.3135,46.0
1606838165.3155,41.0
1606838165.3175,61.0
1606838165.3195,88.0
1606838165.3215,92.0
1606838165.3235,85.0
1606838165.3255,83.0
1606838165.3275,80.0
1606838165.3295,80.0
1606838165.3315,90.0
1606838165.3335,100.0
1606838165.3355,107.0
1606838165.3376,114.0
1606838165.3396,122.0
1606838165.3415,117.0
1606838165.3435,112.0
1606838165.3455,122.0
1606838165.3476,134.0
1606838165.3496,129.0
1606838165.3517,112.0
1606838165.3536,110.0
1606838165.3556,122.0
1606838165.3575,129.0
1606838165.3595,132.0
1606838165.3615,134.0
1606838165.3635,129.0
1606838165.3655,117.0
1606838165.3675,112.0
1606838165.3695,117.0
1606838165.3717,117.0
1606838165.3735,112.0
1606838165.3756,112.0
1606838165.3775,119.0
1606838165.3795,122.0
1606838165.3815,119.0
1606838165.3835,114.0
1606838165.3855,110.0
1606838165.3875,112.0
1606838165.3896,136.0
1606838165.3915,156.0
1606838165.3935,158.0
1606838165.3955,156.0
1606838165.3976,149.0
1606838165.7938,136.0
1606838165.7948,127.0
1606838165.7972,124.0
1606838165.7999,134.0
1606838165.8019,151.0
1606838165.8039,193.0
1606838165.806,300.0
1606838165.8079,467.0
1606838165.8098,613.0
1606838165.8118,694.0
1606838165.8138,826.0
1606838165.8158,1151.0
1606838165.8178,1503.0
1606838165.8198,1340.0
1606838165.8217,506.0
1606838165.8237,-132.0
1606838165.8257,-102.0
1606838165.8278,-31.0
1606838165.8297,-134.0
1606838165.8317,-117.0
1606838165.8324,-63.0
1606838165.8347,-80.0
1606838165.8367,-78.0
1606838165.8388,-48.0
1606838165.8408,-39.0
1606838165.8427,-34.0
1606838165.8448,-17.0
1606838165.847,2.0
1606838165.8488,12.0
1606838165.8507,24.0
1606838165.8527,36.0
1606838165.8547,41.0
1606838165.8567,53.0
1606838165.8589,73.0
1606838165.8607,88.0
1606838165.8627,97.0
1606838165.8634,117.0
1606838165.8659,136.0
1606838165.8678,146.0
1606838165.8697,161.0
1606838165.8717,180.0
1606838165.8738,190.0
1606838165.8757,190.0
1606838165.8778,173.0
1606838165.8798,132.0
1606838165.8817,80.0
1606838165.8837,39.0
1606838165.8857,12.0
1606838165.8877,0.0
1606838165.8899,-2.0
1606838165.8918,-2.0
1606838165.8937,-4.0
1606838165.8945,-7.0
1606838165.8967,0.0
1606838165.8987,9.0
1606838165.9008,17.0
1606838165.9028,22.0
1606838165.9047,24.0
1606838165.9067,26.0
1606838165.9088,29.0
1606838165.9107,41.0
1606838165.9127,46.0
1606838165.9147,44.0
1606838165.9167,48.0
1606838165.9188,58.0
1606838165.9208,66.0
1606838165.9227,70.0
1606838165.9247,75.0
1606838165.9255,78.0
1606838165.9279,80.0
1606838165.9298,85.0
1606838165.9317,90.0
1606838165.9338,90.0
1606838166.3335,88.0
1606838166.3345,90.0
1606838166.3369,95.0
1606838166.3397,95.0
1606838166.3416,90.0
1606838166.344,85.0
1606838166.3456,85.0
1606838166.3476,83.0
1606838166.3482,73.0
1606838166.3505,68.0
1606838166.3525,75.0
1606838166.3545,75.0
1606838166.3565,70.0
1606838166.3585,73.0
1606838166.3605,80.0
1606838166.3625,80.0
1606838166.3645,92.0
1606838166.3665,114.0
1606838166.3685,124.0
1606838166.3705,124.0
1606838166.3724,119.0
1606838166.3744,110.0
1606838166.3765,105.0
1606838166.3785,102.0
1606838166.3792,97.0
1606838166.3806,107.0
1606838166.3825,139.0
1606838166.3845,198.0
1606838166.3864,317.0
1606838166.3885,489.0
1606838166.3905,640.0
1606838166.3924,753.0
1606838166.3944,931.0
1606838166.3965,1266.0
1606838166.3985,1501.0
1606838166.4004,1085.0
1606838166.4026,212.0
1606838166.4045,-168.0
1606838166.4065,-63.0
1606838166.4086,-102.0
1606838166.4105,-183.0
1606838166.4125,-129.0
1606838166.4145,-105.0
1606838166.4165,-124.0
1606838166.4185,-110.0
1606838166.4205,-83.0
1606838166.4225,-70.0
1606838166.4245,-61.0
1606838166.4265,-48.0
1606838166.4285,-36.0
1606838166.4305,-24.0
1606838166.4326,-12.0
1606838166.4346,0.0
1606838166.4366,9.0
1606838166.4385,19.0
1606838166.4392,31.0
1606838166.4417,46.0
1606838166.4435,63.0
1606838166.4454,78.0
1606838166.4475,97.0
1606838166.4494,122.0
1606838166.4515,136.0
1606838166.4535,146.0
1606838166.4555,161.0
1606838166.4575,171.0
1606838166.4595,151.0
1606838166.4615,107.0
1606838166.4635,68.0
1606838166.4655,36.0
1606838166.4675,14.0
1606838166.4695,2.0
1606838166.4702,0.0
1606838166.4725,0.0
1606838166.9037,2.0
1606838166.9047,4.0
1606838166.9072,9.0
1606838166.9097,19.0
1606838166.9117,19.0
1606838166.9137,17.0
1606838166.9158,19.0
1606838166.9177,26.0
1606838166.9197,31.0
1606838166.9217,34.0
1606838166.9237,34.0
1606838166.9257,36.0
1606838166.9277,41.0
1606838166.9297,44.0
1606838166.9304,46.0
1606838166.9326,53.0
1606838166.9346,56.0
1606838166.9367,53.0
1606838166.9387,61.0
1606838166.9407,66.0
1606838166.9427,66.0
1606838166.9446,70.0
1606838166.9467,75.0
1606838166.9487,78.0
1606838166.9506,75.0
1606838166.9526,73.0
1606838166.9547,78.0
1606838166.9567,78.0
1606838166.9587,73.0
1606838166.9606,70.0
1606838166.9614,75.0
1606838166.9636,75.0
1606838166.9657,75.0
1606838166.9677,80.0
1606838166.9698,83.0
1606838166.9717,75.0
1606838166.9736,68.0
1606838166.9757,73.0
1606838166.9777,75.0
1606838166.9797,68.0
1606838166.9816,70.0
1606838166.9836,80.0
1606838166.9856,95.0
1606838166.9877,110.0
1606838166.9896,119.0
1606838166.9917,122.0
1606838166.9924,110.0
1606838166.9947,97.0
1606838166.9967,90.0
1606838166.9987,90.0
1606838167.0006,92.0
1606838167.0027,105.0
1606838167.0047,134.0
1606838167.0068,212.0
1606838167.0087,357.0
1606838167.0106,525.0
1606838167.0126,662.0
1606838167.0146,777.0
1606838167.0167,975.0
1606838167.0187,1310.0
1606838167.0206,1440.0
1606838167.0226,882.0
1606838167.0234,68.0
1606838167.0256,-156.0
1606838167.0278,-63.0
1606838167.0297,-151.0
1606838167.0317,-195.0
1606838167.0336,-127.0
1606838167.0356,-129.0
1606838167.0377,-141.0
1606838167.0397,-105.0
1606838167.0417,-88.0
1606838167.0436,-88.0
1606838167.4434,-70.0
1606838167.4446,-48.0
1606838167.4471,-41.0
1606838167.4482,-36.0
1606838167.45,-24.0
1606838167.4517,-14.0
1606838167.4536,-14.0
1606838167.4556,-7.0
1606838167.4577,9.0
1606838167.4596,17.0
1606838167.4616,26.0
1606838167.4636,48.0
1606838167.4658,75.0
1606838167.4677,95.0
1606838167.4696,107.0
1606838167.4716,122.0
1606838167.4735,139.0
1606838167.4756,139.0
1606838167.4775,114.0
1606838167.4797,75.0
1606838167.4816,41.0
1606838167.4836,17.0
1606838167.4856,-2.0
1606838167.4877,-9.0
1606838167.4896,-9.0
1606838167.4916,-9.0
1606838167.4936,-9.0
1606838167.4956,-7.0
1606838167.4976,-7.0
1606838167.4995,-7.0
1606838167.5015,0.0
1606838167.5036,9.0
1606838167.5056,14.0
1606838167.5075,19.0
1606838167.5095,24.0
1606838167.5116,24.0
1606838167.5135,26.0
1606838167.5155,34.0
1606838167.5175,39.0
1606838167.5195,39.0
1606838167.5216,36.0
1606838167.5236,41.0
1606838167.5256,46.0
1606838167.5275,51.0
1606838167.5295,53.0
1606838167.5315,53.0
1606838167.5335,53.0
1606838167.5355,61.0
1606838167.5375,66.0
1606838167.5395,66.0
1606838167.5415,66.0
1606838167.5435,61.0
1606838167.5457,63.0
1606838167.5476,68.0
1606838167.5496,70.0
1606838167.5516,68.0
1606838167.5535,66.0
1606838167.5555,66.0
1606838167.5575,70.0
1606838167.5595,73.0
1606838167.5615,70.0
1606838167.5636,70.0
1606838167.5655,73.0
1606838167.5677,73.0
1606838167.5696,70.0
1606838167.5715,75.0
1606838167.5735,80.0
1606838167.5755,75.0
1606838167.5775,75.0
1606838167.5795,80.0
1606838167.5816,80.0
1606838167.5835,78.0
1606838167.5855,80.0
1606838168.0432,80.0
1606838168.044,78.0
1606838168.0465,78.0
1606838168.0491,73.0
1606838168.0511,73.0
1606838168.0531,88.0
1606838168.0552,105.0
1606838168.0571,110.0
1606838168.0591,107.0
1606838168.0612,95.0
1606838168.0632,78.0
1606838168.0651,68.0
1606838168.0672,68.0
1606838168.0691,75.0
1606838168.0712,92.0
1606838168.0731,129.0
1606838168.0751,222.0
1606838168.0771,381.0
1606838168.0791,545.0
1606838168.0811,662.0
1606838168.0831,777.0
1606838168.0851,1009.0
1606838168.0871,1332.0
1606838168.089,1300.0
1606838168.0911,596.0
1606838168.0932,-88.0
1606838168.0951,-149.0
1606838168.097,-97.0
1606838168.099,-207.0
1606838168.101,-200.0
1606838168.103,-139.0
1606838168.105,-156.0
1606838168.107,-158.0
1606838168.1091,-122.0
1606838168.111,-114.0
1606838168.1131,-110.0
1606838168.1151,-90.0
1606838168.117,-78.0
1606838168.119,-73.0
1606838168.121,-63.0
1606838168.123,-53.0
1606838168.1252,-44.0
1606838168.1271,-34.0
1606838168.129,-22.0
1606838168.1311,-7.0
1606838168.133,4.0
1606838168.135,19.0
1606838168.137,36.0
1606838168.139,61.0
1606838168.141,85.0
1606838168.143,100.0
1606838168.145,110.0
1606838168.147,122.0
1606838168.149,122.0
1606838168.151,97.0
1606838168.153,61.0
1606838168.155,26.0
1606838168.157,0.0
1606838168.159,-19.0
1606838168.1611,-26.0
1606838168.1631,-26.0
1606838168.165,-26.0
1606838168.167,-26.0
1606838168.1691,-24.0
1606838168.171,-19.0
1606838168.173,-14.0
1606838168.175,-4.0
1606838168.177,4.0
1606838168.179,9.0
1606838168.181,9.0
1606838168.183,14.0
1606838168.185,19.0
1606838168.187,22.0
1606838168.6133,24.0
1606838168.6144,24.0
1606838168.6169,24.0
1606838168.6195,26.0
1606838168.6215,31.0
1606838168.6235,34.0
1606838168.6256,36.0
1606838168.6275,36.0
1606838168.6295,31.0
1606838168.6315,29.0
1606838168.6335,34.0
1606838168.6355,41.0
1606838168.6375,36.0
1606838168.6395,31.0
1606838168.6415,36.0
1606838168.6435,39.0
1606838168.6455,36.0
1606838168.6475,41.0
1606838168.6494,46.0
1606838168.6516,41.0
1606838168.6535,39.0
1606838168.6554,46.0
1606838168.6574,46.0
1606838168.6594,41.0
1606838168.6614,48.0
1606838168.6634,56.0
1606838168.6654,53.0
1606838168.6674,53.0
1606838168.6694,56.0
1606838168.6714,56.0
1606838168.6734,61.0
1606838168.6754,66.0
1606838168.6774,63.0
1606838168.6794,61.0
1606838168.6814,63.0
1606838168.6834,66.0
1606838168.6854,66.0
1606838168.6874,66.0
1606838168.6894,66.0
1606838168.6914,66.0
1606838168.6934,70.0
1606838168.6954,75.0
1606838168.6974,73.0
1606838168.6994,68.0
1606838168.7014,63.0
1606838168.7034,66.0
1606838168.7054,80.0
1606838168.7074,100.0
1606838168.7094,110.0
1606838168.7114,107.0
1606838168.7134,102.0
1606838168.7154,95.0
1606838168.7174,83.0
1606838168.7194,73.0
1606838168.7214,70.0
1606838168.7234,83.0
1606838168.7254,107.0
1606838168.7274,156.0
1606838168.7294,269.0
1606838168.7314,425.0
1606838168.7334,562.0
1606838168.7354,660.0
1606838168.7374,811.0
1606838168.7394,1120.0
1606838168.7414,1428.0
1606838168.7434,1195.0
1606838168.7454,361.0
1606838168.7474,-180.0
1606838168.7494,-132.0
1606838168.7514,-110.0
1606838168.7536,-205.0
1606838168.7554,-178.0
1606838168.7574,-139.0
1606838169.1536,-158.0
1606838169.1544,-146.0
1606838169.156,-119.0
1606838169.158,-112.0
1606838169.1599,-102.0
1606838169.162,-85.0
1606838169.1639,-75.0
1606838169.1659,-66.0
1606838169.168,-53.0
1606838169.1699,-46.0
1606838169.1719,-44.0
1606838169.1739,-29.0
1606838169.1759,-12.0
1606838169.1779,2.0
1606838169.1799,14.0
1606838169.1819,36.0
1606838169.1839,61.0
1606838169.1859,78.0
1606838169.188,92.0
1606838169.1899,112.0
1606838169.1918,124.0
1606838169.1939,132.0
1606838169.1959,122.0
1606838169.1979,92.0
1606838169.1999,46.0
1606838169.2019,4.0
1606838169.2039,-17.0
1606838169.2059,-31.0
1606838169.2079,-39.0
1606838169.2098,-41.0
1606838169.2118,-44.0
1606838169.2139,-41.0
1606838169.2159,-31.0
1606838169.2179,-24.0
1606838169.2199,-17.0
1606838169.2219,-9.0
1606838169.2239,-7.0
1606838169.2259,-7.0
1606838169.2278,2.0
1606838169.2298,9.0
1606838169.2319,12.0
1606838169.2339,17.0
1606838169.2358,19.0
1606838169.2379,22.0
1606838169.2398,22.0
1606838169.2419,29.0
1606838169.2439,31.0
1606838169.2459,34.0
1606838169.2481,34.0
1606838169.2499,34.0
1606838169.2518,36.0
1606838169.2538,41.0
1606838169.2558,41.0
1606838169.2579,39.0
1606838169.2599,41.0
1606838169.262,44.0
1606838169.2639,41.0
1606838169.2659,39.0
1606838169.2679,41.0
1606838169.2698,41.0
1606838169.2719,36.0
1606838169.2739,36.0
1606838169.2758,44.0
1606838169.2779,46.0
1606838169.2799,39.0
1606838169.2819,41.0
1606838169.2839,46.0
1606838169.2859,44.0
1606838169.2879,41.0
1606838169.2899,46.0
1606838169.2918,51.0
1606838169.2939,48.0
1606838169.2959,41.0
1606838169.7237,44.0
1606838169.7249,46.0
1606838169.7274,44.0
1606838169.7299,46.0
1606838169.7319,51.0
1606838169.7339,51.0
1606838169.736,48.0
1606838169.738,51.0
1606838169.7399,56.0
1606838169.7419,68.0
1606838169.7439,70.0
1606838169.746,61.0
1606838169.748,51.0
1606838169.7498,46.0
1606838169.7519,41.0
1606838169.7538,41.0
1606838169.7558,53.0
1606838169.7579,85.0
1606838169.7598,166.0
1606838169.7618,308.0
1606838169.7638,459.0
1606838169.7658,562.0
1606838169.7679,660.0
1606838169.7698,902.0
1606838169.7718,1274.0
1606838169.7738,1393.0
1606838169.776,816.0
1606838169.7779,-17.0
1606838169.7798,-244.0
1606838169.7818,-119.0
1606838169.7839,-185.0
1606838169.7858,-234.0
1606838169.7879,-166.0
1606838169.7899,-158.0
1606838169.7918,-176.0
1606838169.7938,-144.0
1606838169.7958,-122.0
1606838169.7979,-119.0
1606838169.7998,-102.0
1606838169.8018,-85.0
1606838169.8038,-75.0
1606838169.8058,-63.0
1606838169.8079,-48.0
1606838169.8099,-39.0
1606838169.8119,-26.0
1606838169.8138,-7.0
1606838169.8158,9.0
1606838169.8179,19.0
1606838169.8198,34.0
1606838169.8218,53.0
1606838169.8238,70.0
1606838169.8258,85.0
1606838169.8279,110.0
1606838169.8298,122.0
1606838169.8318,127.0
1606838169.8338,127.0
1606838169.8358,110.0
1606838169.8379,68.0
1606838169.8398,24.0
1606838169.8418,-7.0
1606838169.8438,-26.0
1606838169.8458,-39.0
1606838169.8479,-46.0
1606838169.8498,-44.0
1606838169.8518,-44.0
1606838169.8538,-46.0
1606838169.8558,-39.0
1606838169.8579,-31.0
1606838169.8598,-26.0
1606838169.8618,-24.0
1606838169.8638,-19.0
1606838169.8658,-14.0
1606838169.8679,-12.0
1606838170.2636,-12.0
1606838170.2645,-9.0
1606838170.267,0.0
1606838170.2697,4.0
1606838170.2719,7.0
1606838170.2737,7.0
1606838170.2758,9.0
1606838170.2777,9.0
1606838170.2796,4.0
1606838170.2816,4.0
1606838170.2836,9.0
1606838170.2856,12.0
1606838170.2878,12.0
1606838170.2896,17.0
1606838170.2915,19.0
1606838170.2935,14.0
1606838170.2955,17.0
1606838170.2976,22.0
1606838170.2995,22.0
1606838170.3015,24.0
1606838170.3035,22.0
1606838170.3055,22.0
1606838170.3075,26.0
1606838170.3096,29.0
1606838170.3115,26.0
1606838170.3135,31.0
1606838170.3155,34.0
1606838170.3175,34.0
1606838170.3195,31.0
1606838170.3215,31.0
1606838170.3235,31.0
1606838170.3255,31.0
1606838170.3275,34.0
1606838170.3297,36.0
1606838170.3316,39.0
1606838170.3335,39.0
1606838170.3355,36.0
1606838170.3375,39.0
1606838170.3395,39.0
1606838170.3415,31.0
1606838170.3435,29.0
1606838170.3455,29.0
1606838170.3475,29.0
1606838170.3496,36.0
1606838170.3517,51.0
1606838170.3536,63.0
1606838170.3555,66.0
1606838170.3575,68.0
1606838170.3595,61.0
1606838170.3615,51.0
1606838170.3635,44.0
1606838170.3655,36.0
1606838170.3675,39.0
1606838170.3695,61.0
1606838170.3715,100.0
1606838170.3737,188.0
1606838170.3756,339.0
1606838170.3775,498.0
1606838170.3796,613.0
1606838170.3816,731.0
1606838170.3835,983.0
1606838170.3855,1337.0
1606838170.3876,1349.0
1606838170.3897,665.0
1606838170.3915,-73.0
1606838170.3935,-185.0
1606838170.3956,-114.0
1606838170.3975,-215.0
1606838170.3995,-224.0
1606838170.4015,-163.0
1606838170.4035,-176.0
1606838170.4055,-178.0
1606838170.4075,-144.0
1606838170.8634,-129.0
1606838170.8643,-122.0
1606838170.8667,-102.0
1606838170.8694,-90.0
1606838170.8714,-85.0
1606838170.8734,-78.0
1606838170.8755,-70.0
1606838170.8774,-56.0
1606838170.8793,-36.0
1606838170.8813,-26.0
1606838170.8833,-17.0
1606838170.8853,4.0
1606838170.8874,24.0
1606838170.8893,39.0
1606838170.8913,61.0
1606838170.8933,85.0
1606838170.8953,100.0
1606838170.8973,112.0
1606838170.8993,122.0
1606838170.9013,124.0
1606838170.9033,107.0
1606838170.9053,68.0
1606838170.9073,24.0
1606838170.9093,-7.0
1606838170.9113,-26.0
1606838170.9133,-39.0
1606838170.9153,-41.0
1606838170.9173,-44.0
1606838170.9193,-41.0
1606838170.9213,-39.0
1606838170.9233,-36.0
1606838170.9253,-29.0
1606838170.9273,-22.0
1606838170.9294,-19.0
1606838170.9313,-14.0
1606838170.9333,-7.0
1606838170.9353,-4.0
1606838170.9373,-4.0
1606838170.9393,0.0
1606838170.9413,7.0
1606838170.9433,4.0
1606838170.9453,4.0
1606838170.9473,12.0
1606838170.9493,17.0
1606838170.9513,14.0
1606838170.9533,14.0
1606838170.9553,19.0
1606838170.9573,24.0
1606838170.9593,26.0
1606838170.9613,29.0
1606838170.9633,29.0
1606838170.9653,26.0
1606838170.9673,22.0
1606838170.9693,26.0
1606838170.9713,29.0
1606838170.9733,24.0
1606838170.9753,24.0
1606838170.9773,26.0
1606838170.9793,26.0
1606838170.9813,24.0
1606838170.9833,26.0
1606838170.9853,26.0
1606838170.9873,24.0
1606838170.9893,26.0
1606838170.9913,26.0
1606838170.9933,24.0
1606838170.9954,24.0
1606838170.9973,26.0
1606838170.9993,24.0
1606838171.0013,24.0
1606838171.0033,29.0
1606838171.0053,29.0
1606838171.0073,26.0
1606838171.4913,31.0
1606838171.4922,36.0
1606838171.4948,31.0
1606838171.4973,31.0
1606838171.4993,36.0
1606838171.5013,39.0
1606838171.5034,31.0
1606838171.5053,24.0
1606838171.5073,24.0
1606838171.5092,22.0
1606838171.5113,14.0
1606838171.5134,17.0
1606838171.5153,36.0
1606838171.5172,53.0
1606838171.5192,58.0
1606838171.5212,61.0
1606838171.5232,56.0
1606838171.5252,48.0
1606838171.5272,36.0
1606838171.5292,31.0
1606838171.5312,34.0
1606838171.5331,46.0
1606838171.5353,75.0
1606838171.5372,154.0
1606838171.5392,303.0
1606838171.5412,471.0
1606838171.5432,601.0
1606838171.5452,714.0
1606838171.5471,934.0
1606838171.5491,1271.0
1606838171.5512,1345.0
1606838171.5532,743.0
1606838171.5552,-7.0
1606838171.5572,-176.0
1606838171.5592,-105.0
1606838171.5613,-198.0
1606838171.5632,-220.0
1606838171.5652,-161.0
1606838171.5672,-168.0
1606838171.5692,-173.0
1606838171.5711,-136.0
1606838171.5732,-119.0
1606838171.5751,-117.0
1606838171.5771,-100.0
1606838171.5793,-90.0
1606838171.5812,-88.0
1606838171.5832,-75.0
1606838171.5852,-58.0
1606838171.5872,-44.0
1606838171.5892,-31.0
1606838171.5911,-19.0
1606838171.5931,0.0
1606838171.5952,12.0
1606838171.5972,22.0
1606838171.5992,39.0
1606838171.6012,68.0
1606838171.6031,85.0
1606838171.6052,97.0
1606838171.6071,114.0
1606838171.6092,127.0
1606838171.6112,129.0
1606838171.6132,112.0
1606838171.6153,80.0
1606838171.6172,39.0
1606838171.6192,2.0
1606838171.6212,-26.0
1606838171.6232,-36.0
1606838171.6252,-36.0
1606838171.6272,-41.0
1606838171.6292,-39.0
1606838171.6312,-29.0
1606838171.6332,-24.0
1606838171.6352,-24.0
1606838171.9732,-22.0
1606838171.9739,-12.0
1606838171.9754,-7.0
1606838171.9774,-2.0
1606838171.9794,2.0
1606838171.9815,4.0
1606838171.9834,7.0
1606838171.9855,9.0
1606838171.9875,7.0
1606838171.9895,9.0
1606838171.9915,17.0
1606838171.9935,14.0
1606838171.9954,12.0
1606838171.9974,17.0
1606838171.9994,22.0
1606838172.0014,17.0
1606838172.0034,7.0
1606838172.0054,9.0
1606838172.0074,9.0
1606838172.0094,4.0
1606838172.0114,2.0
1606838172.0134,9.0
1606838172.0154,12.0
1606838172.0174,4.0
1606838172.0194,4.0
1606838172.0214,9.0
1606838172.0234,12.0
1606838172.0254,12.0
1606838172.0274,12.0
1606838172.0294,7.0
1606838172.0314,4.0
1606838172.0334,4.0
1606838172.0354,7.0
1606838172.0374,9.0
1606838172.0394,12.0
1606838172.0414,9.0
1606838172.0434,4.0
1606838172.0454,4.0
1606838172.0474,9.0
1606838172.0494,9.0
1606838172.0516,9.0
1606838172.0534,14.0
1606838172.0554,19.0
1606838172.0574,19.0
1606838172.0594,17.0
1606838172.0614,19.0
1606838172.0634,19.0
1606838172.0655,17.0
1606838172.0674,17.0
1606838172.0694,19.0
1606838172.0714,22.0
1606838172.0734,22.0
1606838172.0754,34.0
1606838172.0774,56.0
1606838172.0795,66.0
1606838172.0814,61.0
1606838172.0834,58.0
1606838172.0854,48.0
1606838172.0874,39.0
1606838172.0881,31.0
1606838172.0904,31.0
1606838172.0924,41.0
1606838172.0944,70.0
1606838172.0963,139.0
1606838172.0984,269.0
1606838172.1004,435.0
1606838172.1024,567.0
1606838172.1044,662.0
1606838172.1064,860.0
1606838172.1084,1210.0
1606838172.1104,1374.0
1606838172.1124,863.0
1606838172.1144,53.0
1606838172.543,-207.0
1606838172.5439,-112.0
1606838172.5465,-180.0
1606838172.549,-237.0
1606838172.551,-171.0
1606838172.5529,-158.0
1606838172.555,-178.0
1606838172.557,-151.0
1606838172.559,-132.0
1606838172.5609,-132.0
1606838172.5629,-119.0
1606838172.5649,-100.0
1606838172.5669,-90.0
1606838172.5689,-80.0
1606838172.5709,-63.0
1606838172.5729,-48.0
1606838172.5749,-39.0
1606838172.5757,-26.0
1606838172.5781,-9.0
1606838172.58,7.0
1606838172.5819,26.0
1606838172.5839,48.0
1606838172.5859,68.0
1606838172.5879,88.0
1606838172.59,102.0
1606838172.5919,114.0
1606838172.5939,129.0
1606838172.5959,134.0
1606838172.5979,114.0
1606838172.5999,68.0
1606838172.6019,22.0
1606838172.6039,-14.0
1606838172.6047,-41.0
1606838172.6069,-58.0
1606838172.6089,-68.0
1606838172.6109,-70.0
1606838172.6129,-66.0
1606838172.615,-61.0
1606838172.6169,-56.0
1606838172.6189,-48.0
1606838172.6209,-44.0
1606838172.6229,-39.0
1606838172.625,-31.0
1606838172.6269,-26.0
1606838172.6289,-24.0
1606838172.6309,-14.0
1606838172.6329,-7.0
1606838172.6349,-14.0
1606838172.6356,-17.0
1606838172.6379,-2.0
1606838172.6401,7.0
1606838172.642,7.0
1606838172.644,4.0
1606838172.6459,7.0
1606838172.6479,9.0
1606838172.65,12.0
1606838172.6519,17.0
1606838172.6539,22.0
1606838172.6559,22.0
1606838172.6579,19.0
1606838172.6599,17.0
1606838172.6619,17.0
1606838172.6639,19.0
1606838172.6659,17.0
1606838172.6666,17.0
1606838172.6689,19.0
1606838172.6709,17.0
1606838172.6729,12.0
1606838172.6749,14.0
1606838172.6771,17.0
1606838172.679,17.0
1606838172.6809,17.0
1606838172.6829,14.0
1606838173.0836,12.0
1606838173.0846,17.0
1606838173.0871,19.0
1606838173.0898,19.0
1606838173.0917,17.0
1606838173.0924,12.0
1606838173.0948,14.0
1606838173.0968,26.0
1606838173.0987,46.0
1606838173.1006,53.0
1606838173.1026,41.0
1606838173.1046,29.0
1606838173.1066,26.0
1606838173.1086,24.0
1606838173.1105,17.0
1606838173.1125,12.0
1606838173.1146,26.0
1606838173.1166,61.0
1606838173.1186,114.0
1606838173.1206,229.0
1606838173.1226,388.0
1606838173.1232,511.0
1606838173.1256,591.0
1606838173.1277,775.0
1606838173.1296,1132.0
1606838173.1317,1408.0
1606838173.1336,1071.0
1606838173.1356,205.0
1606838173.1376,-256.0
1606838173.1395,-163.0
1606838173.1415,-156.0
1606838173.1436,-237.0
1606838173.1456,-190.0
1606838173.1476,-158.0
1606838173.1496,-176.0
1606838173.1515,-154.0
1606838173.1535,-127.0
1606838173.1543,-124.0
1606838173.1566,-110.0
1606838173.1585,-90.0
1606838173.1605,-80.0
1606838173.1626,-73.0
1606838173.1646,-61.0
1606838173.1665,-41.0
1606838173.1686,-22.0
1606838173.1706,-7.0
1606838173.1725,4.0
1606838173.1747,17.0
1606838173.1766,34.0
1606838173.1785,53.0
1606838173.1806,78.0
1606838173.1825,100.0
1606838173.1845,117.0
1606838173.1853,129.0
1606838173.1876,136.0
1606838173.1896,139.0
1606838173.1916,124.0
1606838173.1936,85.0
1606838173.1955,34.0
1606838173.1976,-12.0
1606838173.1996,-39.0
1606838173.2016,-53.0
1606838173.2036,-58.0
1606838173.2056,-56.0
1606838173.2076,-56.0
1606838173.2096,-56.0
1606838173.2116,-48.0
1606838173.2135,-41.0
1606838173.2155,-39.0
1606838173.2163,-34.0
1606838173.2186,-24.0
1606838173.2206,-19.0
1606838173.2226,-22.0
1606838173.6236,-17.0
1606838173.6248,-9.0
1606838173.6273,-9.0
1606838173.6299,-4.0
1606838173.6319,2.0
1606838173.6339,7.0
1606838173.6359,9.0
1606838173.6379,4.0
1606838173.6398,0.0
1606838173.6418,7.0
1606838173.6438,14.0
1606838173.6445,12.0
1606838173.6459,12.0
1606838173.6479,14.0
1606838173.6498,12.0
1606838173.6518,9.0
1606838173.6538,9.0
1606838173.6557,9.0
1606838173.6578,4.0
1606838173.6597,4.0
1606838173.6618,7.0
1606838173.6638,4.0
1606838173.6657,2.0
1606838173.6678,2.0
1606838173.6697,9.0
1606838173.672,14.0
1606838173.6738,12.0
1606838173.6745,12.0
1606838173.6767,14.0
1606838173.6787,17.0
1606838173.6807,17.0
1606838173.6828,17.0
1606838173.6848,17.0
1606838173.6868,14.0
1606838173.6888,12.0
1606838173.6907,4.0
1606838173.6928,7.0
1606838173.6947,17.0
1606838173.6967,26.0
1606838173.6988,41.0
1606838173.7007,53.0
1606838173.7027,58.0
1606838173.7047,53.0
1606838173.7055,44.0
1606838173.7078,36.0
1606838173.7098,31.0
1606838173.7118,24.0
1606838173.7138,31.0
1606838173.7157,61.0
1606838173.7178,114.0
1606838173.7197,229.0
1606838173.7217,398.0
1606838173.7237,552.0
1606838173.7257,657.0
1606838173.7277,814.0
1606838173.7297,1132.0
1606838173.7317,1420.0
1606838173.7338,1134.0
1606838173.7358,291.0
1606838173.7434,-205.0
1606838173.7458,-144.0
1606838173.7477,-154.0
1606838173.7498,-249.0
1606838173.7517,-205.0
1606838173.7537,-168.0
1606838173.7557,-190.0
1606838173.7578,-171.0
1606838173.7597,-139.0
1606838173.7617,-132.0
1606838173.7637,-122.0
1606838173.7657,-105.0
1606838173.7678,-92.0
1606838173.7697,-80.0
1606838174.1934,-66.0
1606838174.1943,-53.0
1606838174.1968,-41.0
1606838174.1997,-29.0
1606838174.2014,-26.0
1606838174.2034,-22.0
1606838174.2055,-4.0
1606838174.2074,17.0
1606838174.2093,31.0
1606838174.2114,48.0
1606838174.2133,68.0
1606838174.2153,85.0
1606838174.2174,97.0
1606838174.2193,102.0
1606838174.2213,97.0
1606838174.2234,73.0
1606838174.2253,31.0
1606838174.2273,-9.0
1606838174.2293,-36.0
1606838174.2313,-48.0
1606838174.2333,-58.0
1606838174.2353,-63.0
1606838174.2373,-58.0
1606838174.2392,-53.0
1606838174.2413,-48.0
1606838174.2433,-41.0
1606838174.2453,-36.0
1606838174.2473,-31.0
1606838174.2493,-26.0
1606838174.2513,-24.0
1606838174.2533,-17.0
1606838174.2553,-12.0
1606838174.2573,-7.0
1606838174.2593,-7.0
1606838174.2613,-4.0
1606838174.2633,-2.0
1606838174.2653,-2.0
1606838174.2673,2.0
1606838174.2693,7.0
1606838174.2713,4.0
1606838174.2733,2.0
1606838174.2753,4.0
1606838174.2773,12.0
1606838174.2793,17.0
1606838174.2813,14.0
1606838174.2833,17.0
1606838174.2853,19.0
1606838174.2873,19.0
1606838174.2893,22.0
1606838174.2913,24.0
1606838174.2933,26.0
1606838174.2953,26.0
1606838174.2974,22.0
1606838174.2993,24.0
1606838174.3015,26.0
1606838174.3033,22.0
1606838174.3053,22.0
1606838174.3073,24.0
1606838174.3093,22.0
1606838174.3114,22.0
1606838174.3133,24.0
1606838174.3153,24.0
1606838174.3173,26.0
1606838174.3193,29.0
1606838174.3213,29.0
1606838174.3233,29.0
1606838174.3253,31.0
1606838174.3273,29.0
1606838174.3293,31.0
1606838174.3313,31.0
1606838174.3333,29.0
1606838174.3353,26.0
1606838174.3373,22.0
1606838174.8536,17.0
1606838174.8547,9.0
1606838174.8572,7.0
1606838174.8598,14.0
1606838174.8618,26.0
1606838174.8638,36.0
1606838174.8659,36.0
1606838174.8679,39.0
1606838174.8698,39.0
1606838174.8718,26.0
1606838174.8738,19.0
1606838174.8758,17.0
1606838174.8778,12.0
1606838174.8798,24.0
1606838174.8819,63.0
1606838174.8838,134.0
1606838174.886,264.0
1606838174.8878,432.0
1606838174.8898,577.0
1606838174.8919,689.0
1606838174.8939,897.0
1606838174.8958,1244.0
1606838174.8979,1374.0
1606838174.8998,821.0
1606838174.9019,26.0
1606838174.9038,-193.0
1606838174.9058,-117.0
1606838174.9079,-210.0
1606838174.9098,-249.0
1606838174.9118,-183.0
1606838174.9138,-183.0
1606838174.9158,-195.0
1606838174.918,-161.0
1606838174.9198,-144.0
1606838174.9218,-141.0
1606838174.9238,-119.0
1606838174.9258,-100.0
1606838174.9277,-95.0
1606838174.9297,-85.0
1606838174.9317,-66.0
1606838174.9337,-53.0
1606838174.9357,-44.0
1606838174.9378,-31.0
1606838174.9397,-14.0
1606838174.9418,2.0
1606838174.9437,17.0
1606838174.9457,39.0
1606838174.9478,63.0
1606838174.9497,80.0
1606838174.9517,95.0
1606838174.9538,112.0
1606838174.9557,127.0
1606838174.9578,129.0
1606838174.9597,112.0
1606838174.9618,75.0
1606838174.9637,29.0
1606838174.9657,-9.0
1606838174.9678,-36.0
1606838174.9697,-44.0
1606838174.9718,-51.0
1606838174.9737,-56.0
1606838174.9757,-48.0
1606838174.9777,-44.0
1606838174.9797,-46.0
1606838174.9817,-46.0
1606838174.9837,-39.0
1606838174.9858,-39.0
1606838174.9878,-41.0
1606838174.9897,-34.0
1606838174.9917,-29.0
1606838174.9937,-24.0
1606838174.9957,-14.0
1606838174.9978,-12.0
1606838175.3333,-14.0
1606838175.334,-7.0
1606838175.3364,-2.0
1606838175.3391,-4.0
1606838175.341,-2.0
1606838175.343,2.0
1606838175.3451,2.0
1606838175.347,4.0
1606838175.349,9.0
1606838175.351,14.0
1606838175.3533,12.0
1606838175.3551,4.0
1606838175.357,12.0
1606838175.359,14.0
1606838175.361,4.0
1606838175.363,-2.0
1606838175.3651,4.0
1606838175.367,9.0
1606838175.369,2.0
1606838175.371,-4.0
1606838175.373,-2.0
1606838175.375,4.0
1606838175.377,2.0
1606838175.379,2.0
1606838175.381,4.0
1606838175.383,0.0
1606838175.3851,0.0
1606838175.387,4.0
1606838175.3891,9.0
1606838175.391,7.0
1606838175.393,7.0
1606838175.395,9.0
1606838175.397,12.0
1606838175.399,14.0
1606838175.401,14.0
1606838175.403,9.0
1606838175.405,14.0
1606838175.4071,19.0
1606838175.409,14.0
1606838175.411,9.0
1606838175.413,14.0
1606838175.415,17.0
1606838175.417,12.0
1606838175.419,9.0
1606838175.421,17.0
1606838175.423,31.0
1606838175.425,48.0
1606838175.427,56.0
1606838175.429,53.0
1606838175.431,46.0
1606838175.433,36.0
1606838175.4349,29.0
1606838175.437,26.0
1606838175.439,24.0
1606838175.441,36.0
1606838175.443,63.0
1606838175.445,132.0
1606838175.447,264.0
1606838175.449,423.0
1606838175.451,547.0
1606838175.453,652.0
1606838175.4551,865.0
1606838175.457,1232.0
1606838175.459,1367.0
1606838175.461,792.0
1606838175.463,-7.0
1606838175.4651,-212.0
1606838175.467,-112.0
1606838175.469,-198.0
1606838175.471,-239.0
1606838175.473,-171.0
1606838175.475,-168.0
1606838175.477,-180.0
1606838175.9034,-149.0
1606838175.9042,-129.0
1606838175.9066,-129.0
1606838175.9094,-114.0
1606838175.9114,-92.0
1606838175.9133,-83.0
1606838175.9153,-75.0
1606838175.9173,-63.0
1606838175.9193,-56.0
1606838175.9212,-44.0
1606838175.9233,-26.0
1606838175.9253,-14.0
1606838175.9273,-2.0
1606838175.9293,14.0
1606838175.9313,34.0
1606838175.9333,56.0
1606838175.9353,83.0
1606838175.9373,102.0
1606838175.9392,114.0
1606838175.9412,127.0
1606838175.9432,127.0
1606838175.9452,110.0
1606838175.9472,70.0
1606838175.9492,19.0
1606838175.9512,-24.0
1606838175.9532,-53.0
1606838175.9552,-68.0
1606838175.9572,-70.0
1606838175.9592,-66.0
1606838175.9612,-66.0
1606838175.9632,-66.0
1606838175.9652,-53.0
1606838175.9672,-46.0
1606838175.9692,-48.0
1606838175.9712,-44.0
1606838175.9732,-34.0
1606838175.9752,-29.0
1606838175.9772,-26.0
1606838175.9792,-19.0
1606838175.9814,-12.0
1606838175.9833,-9.0
1606838175.9852,-4.0
1606838175.9872,2.0
1606838175.9892,2.0
1606838175.9912,0.0
1606838175.9932,0.0
1606838175.9952,4.0
1606838175.9972,7.0
1606838175.9992,7.0
1606838176.0014,9.0
1606838176.0033,12.0
1606838176.0052,9.0
1606838176.0072,4.0
1606838176.0092,9.0
1606838176.0112,9.0
1606838176.0132,7.0
1606838176.0152,9.0
1606838176.0172,14.0
1606838176.0192,14.0
1606838176.0212,12.0
1606838176.0233,9.0
1606838176.0253,12.0
1606838176.0273,19.0
1606838176.0293,22.0
1606838176.0299,19.0
1606838176.0313,17.0
1606838176.0333,14.0
1606838176.0353,14.0
1606838176.0373,17.0
1606838176.0392,19.0
1606838176.0412,17.0
1606838176.0432,12.0
1606838176.0453,19.0
1606838176.4435,36.0
1606838176.4445,53.0
1606838176.4469,58.0
1606838176.4496,56.0
1606838176.4515,44.0
1606838176.4535,24.0
1606838176.4557,12.0
1606838176.4576,12.0
1606838176.4595,14.0
1606838176.4616,14.0
1606838176.4635,36.0
1606838176.4656,112.0
1606838176.4676,251.0
1606838176.4695,405.0
1606838176.4715,525.0
1606838176.4735,623.0
1606838176.4755,836.0
1606838176.4777,1212.0
1606838176.4795,1406.0
1606838176.4815,902.0
1606838176.4835,31.0
1606838176.4855,-283.0
1606838176.4875,-158.0
1606838176.4895,-200.0
1606838176.4915,-266.0
1606838176.4934,-205.0
1606838176.4955,-188.0
1606838176.4975,-202.0
1606838176.4994,-171.0
1606838176.5014,-149.0
1606838176.5034,-146.0
1606838176.5054,-129.0
1606838176.5074,-114.0
1606838176.5094,-105.0
1606838176.5114,-90.0
1606838176.5135,-75.0
1606838176.5156,-66.0
1606838176.5174,-53.0
1606838176.5194,-36.0
1606838176.5214,-19.0
1606838176.5234,0.0
1606838176.5254,14.0
1606838176.5274,34.0
1606838176.5294,56.0
1606838176.5314,68.0
1606838176.5334,80.0
1606838176.5354,100.0
1606838176.5376,112.0
1606838176.5394,110.0
1606838176.5414,92.0
1606838176.5434,51.0
1606838176.5454,2.0
1606838176.5474,-34.0
1606838176.5495,-58.0
1606838176.5515,-75.0
1606838176.5534,-80.0
1606838176.5554,-78.0
1606838176.5574,-73.0
1606838176.5594,-68.0
1606838176.5615,-61.0
1606838176.5634,-61.0
1606838176.5654,-53.0
1606838176.5674,-44.0
1606838176.5695,-41.0
1606838176.5714,-39.0
1606838176.5735,-31.0
1606838176.5754,-26.0
1606838176.5774,-26.0
1606838176.5796,-26.0
1606838176.5815,-22.0
1606838176.5834,-14.0
1606838176.5854,-9.0
1606838176.5875,-9.0
1606838177.0129,-4.0
1606838177.0137,2.0
1606838177.0162,4.0
1606838177.0189,4.0
1606838177.0208,7.0
1606838177.0228,7.0
1606838177.0248,4.0
1606838177.0268,0.0
1606838177.0288,4.0
1606838177.0308,7.0
1606838177.0327,4.0
1606838177.0348,4.0
1606838177.0368,9.0
1606838177.0388,9.0
1606838177.0407,7.0
1606838177.0427,7.0
1606838177.0448,12.0
1606838177.0468,12.0
1606838177.0487,9.0
1606838177.0507,9.0
1606838177.0527,7.0
1606838177.0549,7.0
1606838177.0567,9.0
1606838177.0588,12.0
1606838177.0607,12.0
1606838177.0628,12.0
1606838177.0647,14.0
1606838177.0667,12.0
1606838177.0688,9.0
1606838177.0708,9.0
1606838177.0727,7.0
1606838177.0748,7.0
1606838177.0767,12.0
1606838177.0787,12.0
1606838177.0807,2.0
1606838177.0827,0.0
1606838177.0847,4.0
1606838177.0867,9.0
1606838177.0887,22.0
1606838177.0907,34.0
1606838177.0927,39.0
1606838177.095,34.0
1606838177.0967,24.0
1606838177.0987,17.0
1606838177.1007,12.0
1606838177.1027,9.0
1606838177.1049,17.0
1606838177.1068,41.0
1606838177.1087,97.0
1606838177.1107,215.0
1606838177.1128,379.0
1606838177.1147,535.0
1606838177.1168,650.0
1606838177.1187,814.0
1606838177.1207,1142.0
1606838177.1227,1433.0
1606838177.1247,1124.0
1606838177.1267,269.0
1606838177.1287,-207.0
1606838177.1307,-154.0
1606838177.1327,-188.0
1606838177.1347,-281.0
1606838177.1367,-229.0
1606838177.1387,-195.0
1606838177.1407,-217.0
1606838177.1427,-198.0
1606838177.1448,-168.0
1606838177.1467,-161.0
1606838177.1487,-149.0
1606838177.1507,-127.0
1606838177.1527,-117.0
1606838177.1547,-107.0
1606838177.1567,-92.0
1606838177.5534,-80.0
1606838177.5543,-70.0
1606838177.5568,-56.0
1606838177.5595,-39.0
1606838177.5614,-24.0
1606838177.5634,-7.0
1606838177.5655,12.0
1606838177.5674,26.0
1606838177.5693,39.0
1606838177.5713,61.0
1606838177.5733,83.0
1606838177.5753,95.0
1606838177.5773,97.0
1606838177.5794,92.0
1606838177.5813,68.0
1606838177.5833,26.0
1606838177.5853,-19.0
1606838177.5873,-48.0
1606838177.5893,-68.0
1606838177.5913,-83.0
1606838177.5933,-83.0
1606838177.5953,-75.0
1606838177.5973,-73.0
1606838177.5993,-73.0
1606838177.6015,-63.0
1606838177.6034,-51.0
1606838177.6053,-48.0
1606838177.6073,-44.0
1606838177.6093,-39.0
1606838177.6113,-36.0
1606838177.6133,-36.0
1606838177.6152,-36.0
1606838177.6172,-29.0
1606838177.6193,-26.0
1606838177.6213,-26.0
1606838177.6233,-19.0
1606838177.6253,-17.0
1606838177.6273,-14.0
1606838177.6293,-12.0
1606838177.6313,-12.0
1606838177.6333,-9.0
1606838177.6353,-4.0
1606838177.6373,0.0
1606838177.6393,4.0
1606838177.6413,9.0
1606838177.6433,9.0
1606838177.6453,7.0
1606838177.6473,7.0
1606838177.6493,12.0
1606838177.6513,17.0
1606838177.6533,14.0
1606838177.6553,7.0
1606838177.6573,2.0
1606838177.6593,9.0
1606838177.6613,12.0
1606838177.6633,7.0
1606838177.6652,9.0
1606838177.6673,12.0
1606838177.6693,12.0
1606838177.6712,14.0
1606838177.6733,17.0
1606838177.6753,12.0
1606838177.6773,9.0
1606838177.6793,14.0
1606838177.6813,14.0
1606838177.6833,7.0
1606838177.6853,9.0
1606838177.6873,14.0
1606838177.6893,14.0
1606838177.6913,12.0
1606838177.6933,17.0
1606838177.6953,17.0
1606838177.6973,14.0
1606838178.1836,17.0
1606838178.1844,19.0
1606838178.1862,19.0
1606838178.1877,17.0
1606838178.1897,14.0
1606838178.1918,9.0
1606838178.1936,12.0
1606838178.1957,17.0
1606838178.1977,12.0
1606838178.1996,4.0
1606838178.2016,7.0
1606838178.2037,17.0
1606838178.2058,29.0
1606838178.2077,41.0
1606838178.2097,51.0
1606838178.2116,48.0
1606838178.2137,36.0
1606838178.2157,26.0
1606838178.2177,31.0
1606838178.2197,26.0
1606838178.2218,22.0
1606838178.2237,36.0
1606838178.2256,70.0
1606838178.2276,144.0
1606838178.2296,283.0
1606838178.2316,459.0
1606838178.2336,594.0
1606838178.2356,701.0
1606838178.2377,921.0
1606838178.2396,1266.0
1606838178.2416,1332.0
1606838178.2436,718.0
1606838178.2456,-31.0
1606838178.2477,-190.0
1606838178.2496,-122.0
1606838178.2516,-222.0
1606838178.2536,-244.0
1606838178.2556,-180.0
1606838178.2577,-188.0
1606838178.2596,-195.0
1606838178.2616,-161.0
1606838178.2636,-149.0
1606838178.2656,-149.0
1606838178.2677,-129.0
1606838178.2696,-112.0
1606838178.2716,-107.0
1606838178.2736,-95.0
1606838178.2756,-78.0
1606838178.2776,-66.0
1606838178.2796,-48.0
1606838178.2816,-34.0
1606838178.2837,-22.0
1606838178.2856,-12.0
1606838178.2878,2.0
1606838178.2897,22.0
1606838178.2916,46.0
1606838178.2936,68.0
1606838178.2956,88.0
1606838178.2976,102.0
1606838178.2996,110.0
1606838178.3016,114.0
1606838178.3036,102.0
1606838178.3056,63.0
1606838178.3077,19.0
1606838178.3096,-12.0
1606838178.3116,-39.0
1606838178.3136,-61.0
1606838178.3156,-68.0
1606838178.3177,-66.0
1606838178.3196,-63.0
1606838178.3216,-63.0
1606838178.3236,-61.0
1606838178.3256,-53.0
1606838178.7233,-46.0
1606838178.7241,-46.0
1606838178.7256,-46.0
1606838178.7277,-41.0
1606838178.7296,-39.0
1606838178.7316,-31.0
1606838178.7336,-24.0
1606838178.7356,-22.0
1606838178.7377,-19.0
1606838178.7396,-19.0
1606838178.7416,-29.0
1606838178.7436,-31.0
1606838178.7455,-24.0
1606838178.7476,-22.0
1606838178.7496,-34.0
1606838178.7516,-34.0
1606838178.7535,-31.0
1606838178.7555,-36.0
1606838178.7576,-34.0
1606838178.7595,-29.0
1606838178.7617,-31.0
1606838178.7636,-29.0
1606838178.7643,-24.0
1606838178.7667,-22.0
1606838178.7686,-17.0
1606838178.7705,-12.0
1606838178.7725,-14.0
1606838178.7745,-14.0
1606838178.7765,-12.0
1606838178.7785,-12.0
1606838178.7805,-17.0
1606838178.7827,-17.0
1606838178.7846,-17.0
1606838178.7866,-19.0
1606838178.7887,-17.0
1606838178.7905,-14.0
1606838178.7925,-12.0
1606838178.7945,-14.0
1606838178.7952,-12.0
1606838178.7977,-4.0
1606838178.7995,-2.0
1606838178.8017,-2.0
1606838178.8035,0.0
1606838178.8055,4.0
1606838178.8076,4.0
1606838178.8095,4.0
1606838178.8116,7.0
1606838178.8135,9.0
1606838178.8155,9.0
1606838178.8176,9.0
1606838178.8195,14.0
1606838178.8215,17.0
1606838178.8235,9.0
1606838178.8255,2.0
1606838178.8262,7.0
1606838178.8285,24.0
1606838178.8305,39.0
1606838178.8325,51.0
1606838178.8345,56.0
1606838178.8365,53.0
1606838178.8385,44.0
1606838178.8405,29.0
1606838178.8425,19.0
1606838178.8445,19.0
1606838178.8465,24.0
1606838178.8486,34.0
1606838178.8505,70.0
1606838178.8525,158.0
1606838178.8545,305.0
1606838178.8565,452.0
1606838178.8572,555.0
1606838178.8595,665.0
1606838178.8616,914.0
1606838179.2632,1288.0
1606838179.2642,1345.0
1606838179.2666,682.0
1606838179.2693,-95.0
1606838179.2713,-227.0
1606838179.2733,-122.0
1606838179.2754,-212.0
1606838179.2773,-239.0
1606838179.2792,-180.0
1606838179.2814,-183.0
1606838179.2832,-188.0
1606838179.2839,-168.0
1606838179.2852,-158.0
1606838179.2872,-149.0
1606838179.2891,-127.0
1606838179.2911,-114.0
1606838179.2932,-110.0
1606838179.2951,-92.0
1606838179.2972,-75.0
1606838179.2992,-68.0
1606838179.3011,-51.0
1606838179.3031,-29.0
1606838179.3051,-19.0
1606838179.3071,-4.0
1606838179.3092,14.0
1606838179.3112,34.0
1606838179.3131,53.0
1606838179.3138,73.0
1606838179.3161,92.0
1606838179.3182,110.0
1606838179.3201,119.0
1606838179.3222,117.0
1606838179.3242,100.0
1606838179.3261,61.0
1606838179.3281,4.0
1606838179.3301,-36.0
1606838179.3322,-61.0
1606838179.3342,-80.0
1606838179.3361,-88.0
1606838179.3382,-83.0
1606838179.3401,-75.0
1606838179.3421,-75.0
1606838179.3441,-68.0
1606838179.3449,-61.0
1606838179.3472,-53.0
1606838179.3491,-51.0
1606838179.3511,-53.0
1606838179.3531,-46.0
1606838179.3551,-39.0
1606838179.3572,-36.0
1606838179.3591,-34.0
1606838179.3611,-26.0
1606838179.3631,-22.0
1606838179.3651,-19.0
1606838179.3671,-19.0
1606838179.3691,-19.0
1606838179.3712,-17.0
1606838179.3731,-17.0
1606838179.3751,-14.0
1606838179.3758,-12.0
1606838179.3783,-12.0
1606838179.3802,-12.0
1606838179.3823,-9.0
1606838179.3842,-4.0
1606838179.3861,-2.0
1606838179.3882,-7.0
1606838179.3901,-9.0
1606838179.3922,-9.0
1606838179.3941,-9.0
1606838179.3962,-9.0
1606838179.3982,-9.0
1606838179.4001,-12.0
1606838179.4008,-12.0
1606838179.8334,-12.0
1606838179.8343,-14.0
1606838179.8367,-14.0
1606838179.8395,-9.0
1606838179.8414,-4.0
1606838179.8434,-7.0
1606838179.8455,-14.0
1606838179.8474,-12.0
1606838179.8493,-9.0
1606838179.8513,-17.0
1606838179.8533,-19.0
1606838179.8554,-17.0
1606838179.8574,-14.0
1606838179.8593,-2.0
1606838179.8613,17.0
1606838179.8621,26.0
1606838179.8643,29.0
1606838179.8663,31.0
1606838179.8683,24.0
1606838179.8703,14.0
1606838179.8723,9.0
1606838179.8743,7.0
1606838179.8763,9.0
1606838179.8783,26.0
1606838179.8803,68.0
1606838179.8823,156.0
1606838179.8843,303.0
1606838179.8863,457.0
1606838179.8883,569.0
1606838179.8903,679.0
1606838179.8923,924.0
1606838179.893,1291.0
1606838179.8953,1374.0
1606838179.8973,748.0
1606838179.8994,-75.0
1606838179.9014,-261.0
1606838179.9034,-139.0
1606838179.9054,-212.0
1606838179.9076,-254.0
1606838179.9093,-190.0
1606838179.9113,-185.0
1606838179.9133,-195.0
1606838179.9153,-166.0
1606838179.9173,-146.0
1606838179.9193,-139.0
1606838179.9213,-122.0
1606838179.9233,-107.0
1606838179.924,-105.0
1606838179.9263,-95.0
1606838179.9283,-78.0
1606838179.9303,-66.0
1606838179.9323,-53.0
1606838179.9343,-36.0
1606838179.9363,-17.0
1606838179.9384,-2.0
1606838179.9403,12.0
1606838179.9423,31.0
1606838179.9443,53.0
1606838179.9463,70.0
1606838179.9484,88.0
1606838179.9503,100.0
1606838179.9523,114.0
1606838179.9543,112.0
1606838179.955,90.0
1606838179.9573,53.0
1606838179.9593,7.0
1606838179.9614,-36.0
1606838179.9633,-66.0
1606838179.9653,-78.0
1606838179.9673,-80.0
1606838179.9693,-83.0
1606838179.9713,-78.0
1606838179.9733,-70.0
1606838180.3733,-68.0
1606838180.3742,-66.0
1606838180.3757,-61.0
1606838180.3764,-51.0
1606838180.3786,-44.0
1606838180.3806,-44.0
1606838180.3826,-44.0
1606838180.3846,-39.0
1606838180.3868,-31.0
1606838180.3887,-34.0
1606838180.3906,-44.0
1606838180.3926,-39.0
1606838180.3946,-31.0
1606838180.3966,-34.0
1606838180.3987,-34.0
1606838180.4006,-22.0
1606838180.4028,-17.0
1606838180.4046,-22.0
1606838180.4066,-17.0
1606838180.4086,-9.0
1606838180.4106,-7.0
1606838180.4126,-4.0
1606838180.4146,-4.0
1606838180.4166,-7.0
1606838180.4186,-9.0
1606838180.4206,-9.0
1606838180.4226,-12.0
1606838180.4246,-14.0
1606838180.4266,-9.0
1606838180.4286,-12.0
1606838180.4306,-12.0
1606838180.4326,-7.0
1606838180.4346,-7.0
1606838180.4366,-7.0
1606838180.4386,-4.0
1606838180.4406,-4.0
1606838180.4426,-2.0
1606838180.4446,0.0
1606838180.4466,0.0
1606838180.4486,0.0
1606838180.4506,2.0
1606838180.4526,2.0
1606838180.4546,2.0
1606838180.4566,9.0
1606838180.4586,12.0
1606838180.4605,9.0
1606838180.4626,12.0
1606838180.4646,12.0
1606838180.4666,12.0
1606838180.4686,17.0
1606838180.4706,22.0
1606838180.4726,19.0
1606838180.4746,17.0
1606838180.4766,14.0
1606838180.4786,19.0
1606838180.4806,34.0
1606838180.4826,48.0
1606838180.4846,58.0
1606838180.4866,58.0
1606838180.4886,46.0
1606838180.4906,31.0
1606838180.4926,29.0
1606838180.4946,29.0
1606838180.4966,26.0
1606838180.4986,31.0
1606838180.5006,56.0
1606838180.5026,117.0
1606838180.5047,237.0
1606838180.5066,401.0
1606838180.5086,552.0
1606838180.5105,665.0
1606838180.5126,821.0
1606838180.5146,1132.0
1606838180.9131,1413.0
1606838180.914,1112.0
1606838180.9165,266.0
1606838180.9191,-205.0
1606838180.9212,-141.0
1606838180.9231,-168.0
1606838180.9252,-271.0
1606838180.9271,-232.0
1606838180.9291,-195.0
1606838180.9311,-210.0
1606838180.9331,-193.0
1606838180.9351,-166.0
1606838180.9371,-158.0
1606838180.939,-144.0
1606838180.941,-129.0
1606838180.943,-117.0
1606838180.9451,-102.0
1606838180.947,-88.0
1606838180.949,-75.0
1606838180.951,-63.0
1606838180.953,-51.0
1606838180.955,-39.0
1606838180.957,-24.0
1606838180.959,-7.0
1606838180.961,14.0
1606838180.963,36.0
1606838180.965,51.0
1606838180.967,61.0
1606838180.969,78.0
1606838180.971,92.0
1606838180.973,97.0
1606838180.975,95.0
1606838180.977,73.0
1606838180.979,34.0
1606838180.981,-9.0
1606838180.983,-39.0
1606838180.985,-58.0
1606838180.987,-70.0
1606838180.9891,-75.0
1606838180.991,-73.0
1606838180.993,-70.0
1606838180.995,-66.0
1606838180.997,-61.0
1606838180.999,-53.0
1606838181.001,-48.0
1606838181.0032,-44.0
1606838181.005,-41.0
1606838181.007,-36.0
1606838181.0091,-29.0
1606838181.0111,-24.0
1606838181.013,-29.0
1606838181.015,-34.0
1606838181.017,-36.0
1606838181.019,-31.0
1606838181.021,-26.0
1606838181.023,-24.0
1606838181.025,-22.0
1606838181.027,-22.0
1606838181.029,-19.0
1606838181.031,-17.0
1606838181.033,-14.0
1606838181.035,-17.0
1606838181.037,-17.0
1606838181.039,-17.0
1606838181.041,-17.0
1606838181.043,-17.0
1606838181.045,-12.0
1606838181.047,-9.0
1606838181.049,-9.0
1606838181.051,-9.0
1606838181.053,-9.0
1606838181.055,-7.0
1606838181.057,-4.0
1606838181.5129,-4.0
1606838181.5138,-4.0
1606838181.5163,-4.0
1606838181.5189,-4.0
1606838181.5209,-9.0
1606838181.5229,-12.0
1606838181.525,-4.0
1606838181.5269,-2.0
1606838181.5289,-9.0
1606838181.5309,-9.0
1606838181.5329,-2.0
1606838181.5349,2.0
1606838181.5369,4.0
1606838181.5388,4.0
1606838181.5408,4.0
1606838181.5428,4.0
1606838181.5448,7.0
1606838181.5468,9.0
1606838181.5489,12.0
1606838181.5508,12.0
1606838181.5528,9.0
1606838181.5548,9.0
1606838181.5568,12.0
1606838181.559,12.0
1606838181.5609,14.0
1606838181.5628,17.0
1606838181.5648,19.0
1606838181.5668,19.0
1606838181.5689,19.0
1606838181.5708,19.0
1606838181.5728,19.0
1606838181.5748,24.0
1606838181.5768,34.0
1606838181.5788,48.0
1606838181.5809,61.0
1606838181.5828,61.0
1606838181.5848,51.0
1606838181.5868,44.0
1606838181.5888,41.0
1606838181.5908,29.0
1606838181.5928,24.0
1606838181.5948,36.0
1606838181.5968,66.0
1606838181.5989,124.0
1606838181.6008,242.0
1606838181.6028,405.0
1606838181.6048,555.0
1606838181.6068,662.0
1606838181.6088,833.0
1606838181.6108,1161.0
1606838181.6128,1401.0
1606838181.6148,1012.0
1606838181.6168,163.0
1606838181.6188,-224.0
1606838181.6208,-136.0
1606838181.6228,-180.0
1606838181.6248,-266.0
1606838181.6268,-205.0
1606838181.6288,-178.0
1606838181.6308,-202.0
1606838181.6328,-180.0
1606838181.6348,-151.0
1606838181.6368,-144.0
1606838181.6388,-132.0
1606838181.6408,-114.0
1606838181.6428,-102.0
1606838181.6448,-97.0
1606838181.6468,-88.0
1606838181.6487,-70.0
1606838181.6507,-56.0
1606838181.6528,-44.0
1606838181.6548,-31.0
1606838181.6568,-14.0
1606838182.1128,4.0
1606838182.114,22.0
1606838182.1162,39.0
1606838182.1188,61.0
1606838182.1208,80.0
1606838182.1229,95.0
1606838182.1249,112.0
1606838182.1268,122.0
1606838182.1287,110.0
1606838182.1308,70.0
1606838182.1327,22.0
1606838182.1347,-14.0
1606838182.1368,-46.0
1606838182.1388,-70.0
1606838182.1407,-83.0
1606838182.1427,-85.0
1606838182.1447,-85.0
1606838182.1467,-78.0
1606838182.1487,-70.0
1606838182.1507,-70.0
1606838182.1527,-68.0
1606838182.1547,-61.0
1606838182.1567,-56.0
1606838182.1587,-48.0
1606838182.1607,-41.0
1606838182.1627,-39.0
1606838182.1647,-39.0
1606838182.1667,-31.0
1606838182.1687,-24.0
1606838182.1707,-24.0
1606838182.1727,-24.0
1606838182.1747,-22.0
1606838182.1767,-22.0
1606838182.1787,-22.0
1606838182.1807,-17.0
1606838182.1827,-17.0
1606838182.1847,-19.0
1606838182.1867,-22.0
1606838182.1887,-24.0
1606838182.1907,-22.0
1606838182.1927,-19.0
1606838182.1947,-17.0
1606838182.1967,-12.0
1606838182.1987,-14.0
1606838182.2007,-22.0
1606838182.2027,-19.0
1606838182.2048,-12.0
1606838182.2067,-7.0
1606838182.2087,-9.0
1606838182.2107,-14.0
1606838182.2127,-14.0
1606838182.2147,-9.0
1606838182.2169,-9.0
1606838182.2188,-2.0
1606838182.2207,4.0
1606838182.2227,4.0
1606838182.2247,2.0
1606838182.2267,0.0
1606838182.2287,2.0
1606838182.2307,9.0
1606838182.2327,12.0
1606838182.2347,12.0
1606838182.2367,14.0
1606838182.2387,14.0
1606838182.2407,9.0
1606838182.2427,12.0
1606838182.2447,22.0
1606838182.2468,22.0
1606838182.2487,14.0
1606838182.2507,14.0
1606838182.2527,22.0
1606838182.2547,29.0
1606838182.2567,41.0
1606838182.6234,58.0
1606838182.6244,66.0
1606838182.6268,58.0
1606838182.6295,41.0
1606838182.6314,36.0
1606838182.6335,31.0
1606838182.6356,19.0
1606838182.6375,19.0
1606838182.6394,34.0
1606838182.6414,61.0
1606838182.6434,122.0
1606838182.6454,249.0
1606838182.6475,410.0
1606838182.6493,525.0
1606838182.6514,606.0
1606838182.6534,821.0
1606838182.6554,1210.0
1606838182.6574,1393.0
1606838182.6594,870.0
1606838182.6614,17.0
1606838182.6634,-264.0
1606838182.6654,-139.0
1606838182.6675,-193.0
1606838182.6694,-259.0
1606838182.6714,-198.0
1606838182.6734,-180.0
1606838182.6753,-200.0
1606838182.6774,-173.0
1606838182.6793,-146.0
1606838182.6813,-141.0
1606838182.6835,-134.0
1606838182.6854,-117.0
1606838182.6874,-102.0
1606838182.6893,-92.0
1606838182.6913,-80.0
1606838182.6933,-68.0
1606838182.6953,-48.0
1606838182.6974,-31.0
1606838182.6993,-19.0
1606838182.7013,-7.0
1606838182.7033,17.0
1606838182.7053,39.0
1606838182.7074,56.0
1606838182.7094,75.0
1606838182.7114,97.0
1606838182.7134,117.0
1606838182.7154,129.0
1606838182.7174,132.0
1606838182.7193,114.0
1606838182.7213,73.0
1606838182.7233,22.0
1606838182.7253,-22.0
1606838182.7273,-51.0
1606838182.7293,-66.0
1606838182.7314,-73.0
1606838182.7333,-78.0
1606838182.7354,-80.0
1606838182.7374,-73.0
1606838182.7394,-63.0
1606838182.7413,-58.0
1606838182.7433,-56.0
1606838182.7453,-53.0
1606838182.7474,-44.0
1606838182.7493,-36.0
1606838182.7514,-39.0
1606838182.7533,-36.0
1606838182.7554,-34.0
1606838182.7574,-34.0
1606838182.7593,-31.0
1606838182.7613,-26.0
1606838182.7633,-24.0
1606838182.7654,-19.0
1606838182.7674,-12.0
1606838183.1632,-9.0
1606838183.1639,-9.0
1606838183.1663,-9.0
1606838183.1689,-4.0
1606838183.1709,0.0
1606838183.1729,0.0
1606838183.175,-7.0
1606838183.1769,-17.0
1606838183.1791,-24.0
1606838183.1809,-29.0
1606838183.1829,-24.0
1606838183.1849,-22.0
1606838183.1869,-24.0
1606838183.1889,-22.0
1606838183.1909,-17.0
1606838183.1929,-17.0
1606838183.1949,-17.0
1606838183.1969,-14.0
1606838183.1989,-14.0
1606838183.2009,-14.0
1606838183.2029,-9.0
1606838183.2049,-9.0
1606838183.2069,-12.0
1606838183.2089,-14.0
1606838183.2109,-14.0
1606838183.2129,-12.0
1606838183.2149,-9.0
1606838183.2169,-9.0
1606838183.2189,-7.0
1606838183.2209,-4.0
1606838183.2229,-4.0
1606838183.2249,-4.0
1606838183.2269,-4.0
1606838183.2289,2.0
1606838183.2309,17.0
1606838183.2329,31.0
1606838183.2349,39.0
1606838183.2369,41.0
1606838183.2389,36.0
1606838183.2409,26.0
1606838183.2429,19.0
1606838183.2449,14.0
1606838183.2469,12.0
1606838183.2489,22.0
1606838183.2509,53.0
1606838183.2529,132.0
1606838183.2549,269.0
1606838183.257,432.0
1606838183.2589,567.0
1606838183.2609,672.0
1606838183.2629,868.0
1606838183.2649,1217.0
1606838183.2669,1420.0
1606838183.2689,946.0
1606838183.2709,78.0
1606838183.2729,-251.0
1606838183.2749,-139.0
1606838183.2769,-198.0
1606838183.2789,-276.0
1606838183.281,-212.0
1606838183.2829,-190.0
1606838183.2849,-210.0
1606838183.2869,-183.0
1606838183.2889,-158.0
1606838183.2909,-151.0
1606838183.2929,-136.0
1606838183.2949,-122.0
1606838183.2969,-112.0
1606838183.2989,-97.0
1606838183.3009,-83.0
1606838183.3029,-70.0
1606838183.3049,-56.0
1606838183.3069,-41.0
1606838183.7633,-29.0
1606838183.7642,-17.0
1606838183.7667,0.0
1606838183.7693,19.0
1606838183.7713,36.0
1606838183.7733,48.0
1606838183.7754,61.0
1606838183.7774,83.0
1606838183.7793,97.0
1606838183.7813,100.0
1606838183.7833,88.0
1606838183.7853,61.0
1606838183.7873,17.0
1606838183.7892,-26.0
1606838183.7912,-63.0
1606838183.7932,-80.0
1606838183.7952,-88.0
1606838183.7972,-92.0
1606838183.7992,-92.0
1606838183.8012,-85.0
1606838183.8031,-80.0
1606838183.8051,-75.0
1606838183.8071,-66.0
1606838183.8091,-63.0
1606838183.8112,-61.0
1606838183.8132,-51.0
1606838183.8151,-46.0
1606838183.8171,-46.0
1606838183.8191,-44.0
1606838183.8212,-39.0
1606838183.8232,-36.0
1606838183.8251,-36.0
1606838183.8271,-31.0
1606838183.8292,-29.0
1606838183.8312,-26.0
1606838183.8332,-24.0
1606838183.8352,-22.0
1606838183.8373,-22.0
1606838183.8392,-19.0
1606838183.8412,-14.0
1606838183.8431,-14.0
1606838183.8451,-14.0
1606838183.8472,-12.0
1606838183.8491,-9.0
1606838183.8513,-12.0
1606838183.8531,-9.0
1606838183.8552,-4.0
1606838183.8571,-7.0
1606838183.8592,-7.0
1606838183.8612,-7.0
1606838183.8632,-7.0
1606838183.8651,-7.0
1606838183.8671,-7.0
1606838183.8691,-4.0
1606838183.8712,-2.0
1606838183.8732,0.0
1606838183.8751,0.0
1606838183.8773,2.0
1606838183.8792,4.0
1606838183.8813,2.0
1606838183.8832,4.0
1606838183.8851,9.0
1606838183.8871,9.0
1606838183.8892,9.0
1606838183.8912,12.0
1606838183.8931,14.0
1606838183.8951,14.0
1606838183.8971,14.0
1606838183.8991,17.0
1606838183.9011,19.0
1606838183.9032,19.0
1606838183.9052,17.0
1606838183.9072,17.0
1606838184.2731,22.0
1606838184.2739,29.0
1606838184.2763,29.0
1606838184.279,24.0
1606838184.281,19.0
1606838184.2829,19.0
1606838184.2851,14.0
1606838184.2869,14.0
1606838184.2889,24.0
1606838184.2909,34.0
1606838184.2929,34.0
1606838184.2949,36.0
1606838184.2969,36.0
1606838184.2989,26.0
1606838184.3009,14.0
1606838184.3031,9.0
1606838184.3049,7.0
1606838184.3069,17.0
1606838184.3089,46.0
1606838184.3109,102.0
1606838184.3129,220.0
1606838184.3149,386.0
1606838184.317,535.0
1606838184.3189,648.0
1606838184.3209,831.0
1606838184.3229,1171.0
1606838184.3249,1401.0
1606838184.3269,1000.0
1606838184.3289,163.0
1606838184.3309,-207.0
1606838184.3329,-132.0
1606838184.3349,-185.0
1606838184.3369,-266.0
1606838184.3389,-212.0
1606838184.3408,-190.0
1606838184.3429,-207.0
1606838184.3449,-180.0
1606838184.3469,-156.0
1606838184.3488,-151.0
1606838184.3509,-139.0
1606838184.3529,-124.0
1606838184.3549,-114.0
1606838184.3569,-97.0
1606838184.3589,-83.0
1606838184.3609,-75.0
1606838184.3629,-66.0
1606838184.3649,-51.0
1606838184.3669,-36.0
1606838184.3689,-19.0
1606838184.3709,0.0
1606838184.3729,19.0
1606838184.3748,39.0
1606838184.3769,58.0
1606838184.3789,80.0
1606838184.3809,97.0
1606838184.3829,112.0
1606838184.3849,117.0
1606838184.3869,107.0
1606838184.3889,80.0
1606838184.3909,41.0
1606838184.3929,2.0
1606838184.3949,-36.0
1606838184.3969,-63.0
1606838184.3988,-78.0
1606838184.4009,-80.0
1606838184.4029,-78.0
1606838184.4051,-75.0
1606838184.407,-70.0
1606838184.4089,-70.0
1606838184.4109,-68.0
1606838184.4129,-61.0
1606838184.4149,-58.0
1606838184.4169,-63.0
1606838184.903,-63.0
1606838184.9043,-53.0
1606838184.9068,-46.0
1606838184.9094,-53.0
1606838184.9113,-61.0
1606838184.9133,-51.0
1606838184.9155,-46.0
1606838184.9174,-51.0
1606838184.9193,-51.0
1606838184.9213,-48.0
1606838184.9233,-48.0
1606838184.9253,-44.0
1606838184.9274,-36.0
1606838184.9294,-31.0
1606838184.9313,-26.0
1606838184.9333,-24.0
1606838184.9352,-22.0
1606838184.9372,-17.0
1606838184.9392,-17.0
1606838184.9412,-17.0
1606838184.9432,-17.0
1606838184.9452,-14.0
1606838184.9472,-9.0
1606838184.9493,-7.0
1606838184.9512,-7.0
1606838184.9532,-7.0
1606838184.9552,-7.0
1606838184.9572,-7.0
1606838184.9592,0.0
1606838184.9612,2.0
1606838184.9632,-2.0
1606838184.9652,-4.0
1606838184.9672,-2.0
1606838184.9692,2.0
1606838184.9712,7.0
1606838184.9732,7.0
1606838184.9753,9.0
1606838184.9772,12.0
1606838184.9792,12.0
1606838184.9812,12.0
1606838184.9832,14.0
1606838184.9852,14.0
1606838184.9873,12.0
1606838184.9892,17.0
1606838184.9914,19.0
1606838184.9933,17.0
1606838184.9952,14.0
1606838184.9972,17.0
1606838184.9992,19.0
1606838185.0012,14.0
1606838185.0032,12.0
1606838185.0053,19.0
1606838185.0073,31.0
1606838185.0092,44.0
1606838185.0112,51.0
1606838185.0133,56.0
1606838185.0139,48.0
1606838185.0162,36.0
1606838185.0182,26.0
1606838185.0202,22.0
1606838185.0223,19.0
1606838185.0242,29.0
1606838185.0262,53.0
1606838185.0282,110.0
1606838185.0303,227.0
1606838185.0322,391.0
1606838185.0342,533.0
1606838185.0362,640.0
1606838185.0383,811.0
1606838185.0402,1134.0
1606838185.0422,1376.0
1606838185.0442,1002.0
1606838185.0449,163.0
1606838185.4434,-232.0
1606838185.4444,-149.0
1606838185.4469,-190.0
1606838185.4495,-271.0
1606838185.4516,-212.0
1606838185.4536,-193.0
1606838185.4556,-215.0
1606838185.4575,-190.0
1606838185.4594,-171.0
1606838185.4614,-173.0
1606838185.4634,-154.0
1606838185.4654,-136.0
1606838185.4661,-134.0
1606838185.4685,-129.0
1606838185.4704,-114.0
1606838185.4724,-97.0
1606838185.4744,-83.0
1606838185.4764,-73.0
1606838185.4784,-56.0
1606838185.4804,-36.0
1606838185.4824,-22.0
1606838185.4844,-9.0
1606838185.4865,9.0
1606838185.4884,36.0
1606838185.4904,58.0
1606838185.4924,70.0
1606838185.4944,83.0
1606838185.4964,92.0
1606838185.4971,85.0
1606838185.4994,58.0
1606838185.5014,19.0
1606838185.5034,-22.0
1606838185.5054,-56.0
1606838185.5074,-75.0
1606838185.5094,-85.0
1606838185.5113,-92.0
1606838185.5134,-97.0
1606838185.5154,-92.0
1606838185.5175,-80.0
1606838185.5193,-75.0
1606838185.5214,-73.0
1606838185.5234,-66.0
1606838185.5254,-63.0
1606838185.5274,-66.0
1606838185.5281,-61.0
1606838185.5294,-53.0
1606838185.5313,-44.0
1606838185.5334,-36.0
1606838185.5354,-34.0
1606838185.5374,-39.0
1606838185.5395,-34.0
1606838185.5414,-29.0
1606838185.5434,-24.0
1606838185.5454,-19.0
1606838185.5474,-24.0
1606838185.5494,-29.0
1606838185.5514,-31.0
1606838185.5534,-36.0
1606838185.5554,-36.0
1606838185.5575,-36.0
1606838185.5581,-34.0
1606838185.5604,-29.0
1606838185.5624,-29.0
1606838185.5644,-29.0
1606838185.5664,-22.0
1606838185.5684,-17.0
1606838185.5704,-22.0
1606838185.5724,-19.0
1606838185.5744,-17.0
1606838185.5764,-17.0
1606838185.5786,-17.0
1606838185.5804,-14.0
1606838185.5824,-12.0
1606838186.0129,-7.0
1606838186.0138,-7.0
1606838186.0157,-7.0
1606838186.0176,0.0
1606838186.0196,2.0
1606838186.0216,0.0
1606838186.0236,2.0
1606838186.0256,2.0
1606838186.0275,0.0
1606838186.0295,-2.0
1606838186.0315,-7.0
1606838186.0335,-2.0
1606838186.0355,12.0
1606838186.0376,26.0
1606838186.0394,34.0
1606838186.0414,34.0
1606838186.0435,26.0
1606838186.0441,14.0
1606838186.0455,9.0
1606838186.0475,7.0
1606838186.0494,4.0
1606838186.0514,19.0
1606838186.0534,56.0
1606838186.0555,134.0
1606838186.0575,271.0
1606838186.0594,425.0
1606838186.0615,535.0
1606838186.0635,638.0
1606838186.0655,875.0
1606838186.0675,1252.0
1606838186.0695,1389.0
1606838186.0715,819.0
1606838186.0735,-34.0
1606838186.0742,-276.0
1606838186.0755,-139.0
1606838186.0775,-193.0
1606838186.0795,-246.0
1606838186.0814,-188.0
1606838186.0835,-178.0
1606838186.0855,-190.0
1606838186.0875,-161.0
1606838186.0894,-141.0
1606838186.0914,-136.0
1606838186.0935,-119.0
1606838186.0955,-102.0
1606838186.0976,-92.0
1606838186.0995,-83.0
1606838186.1014,-70.0
1606838186.1035,-58.0
1606838186.1042,-46.0
1606838186.1065,-36.0
1606838186.1088,-22.0
1606838186.1105,-2.0
1606838186.1125,14.0
1606838186.1144,34.0
1606838186.1165,56.0
1606838186.1185,78.0
1606838186.1205,97.0
1606838186.1225,110.0
1606838186.1245,122.0
1606838186.1265,124.0
1606838186.1285,102.0
1606838186.1305,58.0
1606838186.1325,14.0
1606838186.1332,-29.0
1606838186.1355,-58.0
1606838186.1375,-73.0
1606838186.1395,-83.0
1606838186.1415,-88.0
1606838186.1436,-83.0
1606838186.1455,-75.0
1606838186.1475,-66.0
1606838186.1495,-63.0
1606838186.5533,-66.0
1606838186.5542,-58.0
1606838186.5566,-51.0
1606838186.5594,-51.0
1606838186.5613,-46.0
1606838186.5633,-39.0
1606838186.5654,-46.0
1606838186.5661,-53.0
1606838186.5682,-51.0
1606838186.5702,-44.0
1606838186.5722,-39.0
1606838186.5742,-44.0
1606838186.5762,-46.0
1606838186.5782,-39.0
1606838186.5802,-36.0
1606838186.5822,-34.0
1606838186.5842,-29.0
1606838186.5862,-31.0
1606838186.5882,-34.0
1606838186.5902,-26.0
1606838186.5922,-24.0
1606838186.5941,-24.0
1606838186.5962,-24.0
1606838186.5969,-24.0
1606838186.5982,-26.0
1606838186.6002,-29.0
1606838186.6022,-31.0
1606838186.6042,-29.0
1606838186.6062,-24.0
1606838186.6084,-24.0
1606838186.6102,-24.0
1606838186.6122,-22.0
1606838186.6142,-19.0
1606838186.6162,-19.0
1606838186.6182,-17.0
1606838186.6201,-12.0
1606838186.6222,-12.0
1606838186.6242,-17.0
1606838186.6262,-14.0
1606838186.6275,-12.0
1606838186.6292,-9.0
1606838186.6312,-2.0
1606838186.6333,9.0
1606838186.6353,22.0
1606838186.6372,29.0
1606838186.6392,34.0
1606838186.6412,24.0
1606838186.6432,12.0
1606838186.6452,7.0
1606838186.6472,2.0
1606838186.6492,2.0
1606838186.6512,19.0
1606838186.6532,61.0
1606838186.6552,141.0
1606838186.6572,288.0
1606838186.6592,457.0
1606838186.6612,582.0
1606838186.6632,682.0
1606838186.6652,902.0
1606838186.6672,1256.0
1606838186.6692,1386.0
1606838186.6712,824.0
1606838186.6732,-17.0
1606838186.6752,-261.0
1606838186.6772,-146.0
1606838186.6792,-217.0
1606838186.6812,-271.0
1606838186.6832,-205.0
1606838186.6852,-198.0
1606838186.6872,-215.0
1606838186.6892,-180.0
1606838186.6912,-158.0
1606838186.6932,-156.0
1606838187.0932,-141.0
1606838187.0939,-122.0
1606838187.0964,-110.0
1606838187.099,-97.0
1606838187.101,-88.0
1606838187.103,-78.0
1606838187.1051,-63.0
1606838187.1072,-51.0
1606838187.109,-46.0
1606838187.111,-31.0
1606838187.113,-12.0
1606838187.115,7.0
1606838187.117,24.0
1606838187.119,46.0
1606838187.1209,66.0
1606838187.1229,78.0
1606838187.125,90.0
1606838187.1269,100.0
1606838187.129,90.0
1606838187.131,56.0
1606838187.133,14.0
1606838187.1349,-22.0
1606838187.1369,-48.0
1606838187.139,-66.0
1606838187.1409,-75.0
1606838187.1429,-75.0
1606838187.1449,-70.0
1606838187.1469,-66.0
1606838187.1489,-63.0
1606838187.1509,-61.0
1606838187.153,-53.0
1606838187.1549,-48.0
1606838187.1569,-44.0
1606838187.1589,-36.0
1606838187.1609,-34.0
1606838187.1629,-36.0
1606838187.165,-34.0
1606838187.1669,-24.0
1606838187.1689,-19.0
1606838187.1709,-22.0
1606838187.1729,-22.0
1606838187.1749,-17.0
1606838187.1769,-14.0
1606838187.1789,-12.0
1606838187.1809,-7.0
1606838187.1829,-2.0
1606838187.1849,-4.0
1606838187.1869,-7.0
1606838187.1889,-2.0
1606838187.1909,2.0
1606838187.1929,0.0
1606838187.1949,2.0
1606838187.1969,2.0
1606838187.1989,2.0
1606838187.2009,4.0
1606838187.2029,7.0
1606838187.2049,7.0
1606838187.2069,2.0
1606838187.2091,0.0
1606838187.211,-2.0
1606838187.213,-2.0
1606838187.215,-2.0
1606838187.2169,0.0
1606838187.2189,0.0
1606838187.2209,2.0
1606838187.2229,0.0
1606838187.225,0.0
1606838187.2269,4.0
1606838187.2289,9.0
1606838187.2309,9.0
1606838187.2329,7.0
1606838187.2349,12.0
1606838187.2369,14.0
1606838187.6634,14.0
1606838187.6643,14.0
1606838187.6668,19.0
1606838187.6686,19.0
1606838187.6704,17.0
1606838187.6724,2.0
1606838187.6744,-2.0
1606838187.6764,9.0
1606838187.6784,17.0
1606838187.6804,24.0
1606838187.6823,36.0
1606838187.6844,48.0
1606838187.6863,51.0
1606838187.6884,39.0
1606838187.6903,31.0
1606838187.6923,29.0
1606838187.6943,19.0
1606838187.6963,14.0
1606838187.6983,29.0
1606838187.7004,61.0
1606838187.7023,139.0
1606838187.7043,278.0
1606838187.7063,445.0
1606838187.7083,582.0
1606838187.7103,704.0
1606838187.7124,919.0
1606838187.7143,1259.0
1606838187.7163,1359.0
1606838187.7184,775.0
1606838187.7203,-12.0
1606838187.7223,-205.0
1606838187.7243,-127.0
1606838187.7263,-227.0
1606838187.7283,-264.0
1606838187.7303,-195.0
1606838187.7323,-193.0
1606838187.7345,-205.0
1606838187.7364,-173.0
1606838187.7383,-156.0
1606838187.7403,-151.0
1606838187.7423,-132.0
1606838187.7443,-114.0
1606838187.7463,-102.0
1606838187.7484,-92.0
1606838187.7503,-83.0
1606838187.7523,-70.0
1606838187.7543,-58.0
1606838187.7563,-44.0
1606838187.7583,-26.0
1606838187.7603,-12.0
1606838187.7623,0.0
1606838187.7643,17.0
1606838187.7663,39.0
1606838187.7684,63.0
1606838187.7703,83.0
1606838187.7723,95.0
1606838187.7743,110.0
1606838187.7763,117.0
1606838187.7783,107.0
1606838187.7803,78.0
1606838187.7823,34.0
1606838187.7843,-4.0
1606838187.7863,-31.0
1606838187.7883,-53.0
1606838187.7903,-68.0
1606838187.7923,-68.0
1606838187.7943,-66.0
1606838187.7963,-63.0
1606838187.7984,-58.0
1606838187.8003,-51.0
1606838187.8023,-48.0
1606838187.8043,-44.0
1606838187.8063,-36.0
1606838188.2634,-31.0
1606838188.2643,-26.0
1606838188.2669,-26.0
1606838188.2694,-24.0
1606838188.2714,-19.0
1606838188.2735,-19.0
1606838188.2756,-29.0
1606838188.2775,-34.0
1606838188.2794,-31.0
1606838188.2814,-31.0
1606838188.2834,-34.0
1606838188.2854,-26.0
1606838188.2875,-22.0
1606838188.2894,-14.0
1606838188.2918,-12.0
1606838188.2935,-14.0
1606838188.2954,-12.0
1606838188.2974,-7.0
1606838188.2994,-7.0
1606838188.3014,-7.0
1606838188.3034,-7.0
1606838188.3054,-14.0
1606838188.3075,-19.0
1606838188.3094,-12.0
1606838188.3114,-12.0
1606838188.3134,-14.0
1606838188.3155,-12.0
1606838188.3174,-7.0
1606838188.3196,-7.0
1606838188.3215,-4.0
1606838188.3235,-4.0
1606838188.3254,-4.0
1606838188.3275,-4.0
1606838188.3296,-9.0
1606838188.3314,-9.0
1606838188.3335,-7.0
1606838188.3354,-4.0
1606838188.3361,-2.0
1606838188.3374,-4.0
1606838188.3394,-2.0
1606838188.3414,0.0
1606838188.3433,-4.0
1606838188.3454,-9.0
1606838188.3474,-4.0
1606838188.3493,0.0
1606838188.3513,-2.0
1606838188.3533,-2.0
1606838188.3553,0.0
1606838188.3574,0.0
1606838188.3593,0.0
1606838188.3613,-2.0
1606838188.3633,-7.0
1606838188.3654,0.0
1606838188.366,19.0
1606838188.3674,29.0
1606838188.3693,34.0
1606838188.3713,39.0
1606838188.3734,31.0
1606838188.3753,22.0
1606838188.3774,17.0
1606838188.3794,9.0
1606838188.3813,7.0
1606838188.3833,22.0
1606838188.3853,56.0
1606838188.3874,139.0
1606838188.3895,283.0
1606838188.3914,452.0
1606838188.3933,577.0
1606838188.3953,687.0
1606838188.3961,914.0
1606838188.3984,1259.0
1606838188.4003,1323.0
1606838188.4023,692.0
1606838188.8033,-83.0
1606838188.8042,-234.0
1606838188.8067,-141.0
1606838188.8095,-229.0
1606838188.8113,-256.0
1606838188.8133,-193.0
1606838188.8155,-190.0
1606838188.8174,-202.0
1606838188.8192,-176.0
1606838188.8213,-156.0
1606838188.8233,-144.0
1606838188.824,-132.0
1606838188.8253,-129.0
1606838188.8274,-127.0
1606838188.8292,-117.0
1606838188.8312,-105.0
1606838188.8332,-88.0
1606838188.8352,-70.0
1606838188.8372,-56.0
1606838188.8392,-44.0
1606838188.8412,-31.0
1606838188.8433,-9.0
1606838188.8452,14.0
1606838188.8473,36.0
1606838188.8492,56.0
1606838188.8513,73.0
1606838188.8532,90.0
1606838188.8625,102.0
1606838188.8642,105.0
1606838188.8662,95.0
1606838188.8682,61.0
1606838188.8702,12.0
1606838188.8722,-29.0
1606838188.8742,-56.0
1606838188.8763,-75.0
1606838188.8783,-80.0
1606838188.8803,-80.0
1606838188.8822,-80.0
1606838188.8842,-75.0
1606838188.8862,-70.0
1606838188.8882,-63.0
1606838188.8903,-58.0
1606838188.8909,-51.0
1606838188.8923,-46.0
1606838188.8942,-41.0
1606838188.8962,-39.0
1606838188.8982,-36.0
1606838188.9002,-29.0
1606838188.9022,-19.0
1606838188.9042,-22.0
1606838188.9062,-19.0
1606838188.9082,-14.0
1606838188.9103,-12.0
1606838188.9122,-7.0
1606838188.9142,-7.0
1606838188.9162,-7.0
1606838188.9182,-2.0
1606838188.9202,2.0
1606838188.9209,0.0
1606838188.9222,2.0
1606838188.9242,4.0
1606838188.9262,2.0
1606838188.9282,0.0
1606838188.9302,4.0
1606838188.9322,4.0
1606838188.9342,-2.0
1606838188.9362,-7.0
1606838188.9382,-4.0
1606838188.9402,-2.0
1606838188.9422,0.0
1606838188.9442,0.0
1606838188.9462,-2.0
1606838188.9482,-2.0
1606838189.3434,2.0
1606838189.3444,2.0
1606838189.3468,4.0
1606838189.3495,9.0
1606838189.3514,9.0
1606838189.3534,4.0
1606838189.3556,0.0
1606838189.3575,-4.0
1606838189.3594,-9.0
1606838189.3614,-14.0
1606838189.3634,-17.0
1606838189.3654,-12.0
1606838189.3675,-7.0
1606838189.3693,2.0
1606838189.3713,22.0
1606838189.3721,34.0
1606838189.3744,34.0
1606838189.3764,31.0
1606838189.3784,19.0
1606838189.3804,7.0
1606838189.3825,2.0
1606838189.3845,0.0
1606838189.3864,9.0
1606838189.3884,34.0
1606838189.3903,85.0
1606838189.3923,198.0
1606838189.3944,364.0
1606838189.3964,498.0
1606838189.3984,579.0
1606838189.4004,740.0
1606838189.4023,1078.0
1606838189.4031,1386.0
1606838189.4053,1137.0
1606838189.4074,288.0
1606838189.4093,-269.0
1606838189.4113,-205.0
1606838189.4133,-166.0
1606838189.4154,-261.0
1606838189.4174,-227.0
1606838189.4193,-183.0
1606838189.4213,-202.0
1606838189.4233,-188.0
1606838189.4253,-154.0
1606838189.4274,-146.0
1606838189.4293,-139.0
1606838189.4313,-119.0
1606838189.4334,-107.0
1606838189.4341,-95.0
1606838189.4363,-80.0
1606838189.4384,-66.0
1606838189.4404,-53.0
1606838189.4423,-41.0
1606838189.4443,-29.0
1606838189.4464,-12.0
1606838189.4484,4.0
1606838189.4503,19.0
1606838189.4523,36.0
1606838189.4543,63.0
1606838189.4563,85.0
1606838189.4583,95.0
1606838189.4604,107.0
1606838189.4625,117.0
1606838189.4644,112.0
1606838189.4651,83.0
1606838189.4674,36.0
1606838189.4694,-4.0
1606838189.4714,-34.0
1606838189.4733,-66.0
1606838189.4753,-80.0
1606838189.4774,-75.0
1606838189.4794,-73.0
1606838189.4813,-78.0
1606838189.4835,-75.0
1606838189.9129,-73.0
1606838189.9137,-68.0
1606838189.9158,-63.0
1606838189.9178,-61.0
1606838189.9197,-56.0
1606838189.9204,-53.0
1606838189.9227,-58.0
1606838189.9247,-56.0
1606838189.9267,-44.0
1606838189.9288,-41.0
1606838189.9306,-41.0
1606838189.9326,-34.0
1606838189.9346,-24.0
1606838189.9366,-24.0
1606838189.9387,-24.0
1606838189.9408,-19.0
1606838189.9426,-14.0
1606838189.9446,-17.0
1606838189.9466,-19.0
1606838189.9486,-12.0
1606838189.9506,-7.0
1606838189.9513,-7.0
1606838189.9536,-9.0
1606838189.9556,-4.0
1606838189.9576,-4.0
1606838189.9596,-9.0
1606838189.9616,-14.0
1606838189.9636,-12.0
1606838189.9656,-4.0
1606838189.9676,-4.0
1606838189.9696,-7.0
1606838189.9716,-4.0
1606838189.9736,-2.0
1606838189.9756,0.0
1606838189.9776,0.0
1606838189.9796,0.0
1606838189.9815,-4.0
1606838189.9823,-7.0
1606838189.9836,-7.0
1606838189.9856,-7.0
1606838189.9876,-4.0
1606838189.9896,-4.0
1606838189.9915,-7.0
1606838189.9936,-9.0
1606838189.9956,-7.0
1606838189.9976,0.0
1606838189.9996,7.0
1606838190.0016,17.0
1606838190.0036,26.0
1606838190.0056,31.0
1606838190.0078,26.0
1606838190.0096,17.0
1606838190.0116,9.0
1606838190.0123,4.0
1606838190.0136,-2.0
1606838190.0156,9.0
1606838190.0176,44.0
1606838190.0196,110.0
1606838190.0216,234.0
1606838190.0236,403.0
1606838190.0256,547.0
1606838190.0276,648.0
1606838190.0296,809.0
1606838190.0316,1124.0
1606838190.0336,1408.0
1606838190.0356,1122.0
1606838190.0376,259.0
1606838190.0396,-254.0
1606838190.0416,-188.0
1606838190.0422,-193.0
1606838190.0436,-295.0
1606838190.0456,-249.0
1606838190.0477,-210.0
1606838190.4534,-232.0
1606838190.4543,-212.0
1606838190.4567,-178.0
1606838190.4595,-176.0
1606838190.4615,-168.0
1606838190.4635,-149.0
1606838190.4656,-141.0
1606838190.4675,-144.0
1606838190.4694,-132.0
1606838190.4713,-110.0
1606838190.4721,-102.0
1606838190.4733,-92.0
1606838190.4753,-75.0
1606838190.4774,-58.0
1606838190.4793,-44.0
1606838190.4813,-26.0
1606838190.4833,-4.0
1606838190.4853,14.0
1606838190.4874,34.0
1606838190.4893,51.0
1606838190.4913,66.0
1606838190.4933,78.0
1606838190.4953,75.0
1606838190.4974,53.0
1606838190.4993,17.0
1606838190.5013,-19.0
1606838190.502,-51.0
1606838190.5033,-70.0
1606838190.5056,-78.0
1606838190.5075,-85.0
1606838190.5093,-85.0
1606838190.5113,-80.0
1606838190.5133,-73.0
1606838190.5153,-68.0
1606838190.5174,-66.0
1606838190.5193,-61.0
1606838190.5213,-53.0
1606838190.5233,-51.0
1606838190.5253,-51.0
1606838190.5274,-48.0
1606838190.5293,-41.0
1606838190.5313,-39.0
1606838190.532,-36.0
1606838190.5343,-34.0
1606838190.5363,-29.0
1606838190.5384,-26.0
1606838190.5403,-26.0
1606838190.5423,-26.0
1606838190.5443,-19.0
1606838190.5463,-14.0
1606838190.5484,-17.0
1606838190.5503,-14.0
1606838190.5523,-7.0
1606838190.5543,-4.0
1606838190.5563,-9.0
1606838190.5583,-9.0
1606838190.5603,-4.0
1606838190.5623,-4.0
1606838190.563,-9.0
1606838190.5644,-12.0
1606838190.5663,-7.0
1606838190.5684,-7.0
1606838190.5703,-7.0
1606838190.5723,-2.0
1606838190.5743,-4.0
1606838190.5763,-9.0
1606838190.5783,-7.0
1606838190.5803,-7.0
1606838190.5823,-9.0
1606838190.5843,-9.0
1606838190.5863,-12.0
1606838190.5884,-14.0
1606838190.5903,-9.0
1606838191.0228,-2.0
1606838191.0236,-2.0
1606838191.026,-2.0
1606838191.0288,-2.0
1606838191.0308,-7.0
1606838191.0328,-14.0
1606838191.035,-12.0
1606838191.0368,-7.0
1606838191.0387,-4.0
1606838191.0407,-4.0
1606838191.0427,-4.0
1606838191.0447,-2.0
1606838191.0467,-2.0
1606838191.0486,-2.0
1606838191.0494,0.0
1606838191.0506,0.0
1606838191.0527,0.0
1606838191.0546,14.0
1606838191.0566,36.0
1606838191.0586,46.0
1606838191.0606,44.0
1606838191.0626,36.0
1606838191.0646,29.0
1606838191.0666,19.0
1606838191.0687,14.0
1606838191.0707,14.0
1606838191.0726,29.0
1606838191.0746,58.0
1606838191.0766,127.0
1606838191.0787,256.0
1606838191.0793,427.0
1606838191.0806,569.0
1606838191.0826,670.0
1606838191.0846,833.0
1606838191.0866,1142.0
1606838191.0887,1381.0
1606838191.0906,1031.0
1606838191.0926,195.0
1606838191.0946,-224.0
1606838191.0967,-149.0
1606838191.0986,-190.0
1606838191.1006,-276.0
1606838191.1026,-220.0
1606838191.1046,-195.0
1606838191.1066,-217.0
1606838191.1087,-193.0
1606838191.1093,-166.0
1606838191.1106,-163.0
1606838191.1126,-151.0
1606838191.1146,-129.0
1606838191.1166,-122.0
1606838191.1186,-114.0
1606838191.1206,-100.0
1606838191.1227,-85.0
1606838191.1246,-75.0
1606838191.1266,-68.0
1606838191.1287,-53.0
1606838191.1308,-36.0
1606838191.1327,-22.0
1606838191.1346,-4.0
1606838191.1366,17.0
1606838191.1387,36.0
1606838191.1393,53.0
1606838191.1406,68.0
1606838191.1426,80.0
1606838191.1446,90.0
1606838191.1466,92.0
1606838191.1487,70.0
1606838191.1507,31.0
1606838191.1526,-7.0
1606838191.1547,-36.0
1606838191.1566,-53.0
1606838191.1587,-63.0
1606838191.6532,-70.0
1606838191.6541,-70.0
1606838191.6566,-68.0
1606838191.6593,-68.0
1606838191.6599,-63.0
1606838191.6622,-58.0
1606838191.6642,-61.0
1606838191.6663,-61.0
1606838191.6682,-51.0
1606838191.6701,-46.0
1606838191.6721,-46.0
1606838191.6742,-39.0
1606838191.6761,-31.0
1606838191.6782,-29.0
1606838191.6802,-31.0
1606838191.6821,-29.0
1606838191.6841,-24.0
1606838191.6861,-22.0
1606838191.6882,-19.0
1606838191.6901,-17.0
1606838191.6908,-19.0
1606838191.6921,-22.0
1606838191.6941,-22.0
1606838191.6962,-14.0
1606838191.6982,-9.0
1606838191.7001,-9.0
1606838191.7021,-9.0
1606838191.7041,-9.0
1606838191.7061,-9.0
1606838191.7081,-4.0
1606838191.7101,-2.0
1606838191.7121,-2.0
1606838191.7141,-7.0
1606838191.7161,-9.0
1606838191.7181,-4.0
1606838191.7203,-7.0
1606838191.7209,-12.0
1606838191.7221,-7.0
1606838191.7241,-4.0
1606838191.7261,-7.0
1606838191.7281,-9.0
1606838191.7301,-7.0
1606838191.7321,-2.0
1606838191.7341,-7.0
1606838191.7362,-12.0
1606838191.7382,-9.0
1606838191.7401,0.0
1606838191.7421,2.0
1606838191.7441,0.0
1606838191.7461,0.0
1606838191.7481,4.0
1606838191.7501,7.0
1606838191.7508,4.0
1606838191.7521,2.0
1606838191.7541,4.0
1606838191.7561,12.0
1606838191.7581,12.0
1606838191.7601,9.0
1606838191.7621,12.0
1606838191.7641,17.0
1606838191.7661,14.0
1606838191.7681,14.0
1606838191.7701,12.0
1606838191.7721,12.0
1606838191.7741,17.0
1606838191.7761,29.0
1606838191.7783,46.0
1606838191.7802,53.0
1606838191.7808,56.0
1606838191.7821,51.0
1606838191.7841,41.0
1606838191.7861,29.0
1606838191.7882,24.0
1606838192.1634,22.0
1606838192.1642,31.0
1606838192.1667,56.0
1606838192.1693,117.0
1606838192.1713,239.0
1606838192.1733,405.0
1606838192.1753,552.0
1606838192.1773,655.0
1606838192.1793,804.0
1606838192.18,1095.0
1606838192.1813,1359.0
1606838192.1833,1090.0
1606838192.1852,288.0
1606838192.1875,-193.0
1606838192.1893,-156.0
1606838192.1912,-183.0
1606838192.1932,-273.0
1606838192.1952,-229.0
1606838192.1973,-202.0
1606838192.1992,-220.0
1606838192.2012,-193.0
1606838192.2033,-163.0
1606838192.2053,-163.0
1606838192.2073,-151.0
1606838192.2092,-127.0
1606838192.2099,-117.0
1606838192.2112,-112.0
1606838192.2132,-97.0
1606838192.2152,-80.0
1606838192.2173,-68.0
1606838192.2192,-56.0
1606838192.2212,-41.0
1606838192.2232,-29.0
1606838192.2252,-14.0
1606838192.2273,2.0
1606838192.2292,14.0
1606838192.2312,29.0
1606838192.2332,51.0
1606838192.2352,73.0
1606838192.2373,85.0
1606838192.2392,95.0
1606838192.2399,95.0
1606838192.2422,75.0
1606838192.2442,36.0
1606838192.2462,-4.0
1606838192.2483,-36.0
1606838192.2502,-58.0
1606838192.2522,-70.0
1606838192.2542,-78.0
1606838192.2562,-78.0
1606838192.2582,-78.0
1606838192.2602,-73.0
1606838192.2623,-66.0
1606838192.2643,-56.0
1606838192.2662,-51.0
1606838192.2682,-51.0
1606838192.2702,-46.0
1606838192.2709,-41.0
1606838192.2722,-41.0
1606838192.2743,-36.0
1606838192.2762,-29.0
1606838192.2783,-26.0
1606838192.2802,-24.0
1606838192.2822,-19.0
1606838192.2845,-17.0
1606838192.2864,-19.0
1606838192.2883,-19.0
1606838192.2903,-19.0
1606838192.2923,-17.0
1606838192.2943,-12.0
1606838192.2963,-12.0
1606838192.2982,-12.0
1606838192.3002,-4.0
1606838192.7334,-4.0
1606838192.7343,-12.0
1606838192.7368,-14.0
1606838192.7395,-12.0
1606838192.7415,-14.0
1606838192.7434,-17.0
1606838192.7456,-14.0
1606838192.7475,-17.0
1606838192.7494,-26.0
1606838192.7514,-29.0
1606838192.7534,-22.0
1606838192.7556,-24.0
1606838192.7575,-31.0
1606838192.7594,-26.0
1606838192.7614,-22.0
1606838192.7634,-22.0
1606838192.7641,-22.0
1606838192.7665,-17.0
1606838192.7684,-17.0
1606838192.7703,-17.0
1606838192.7723,-9.0
1606838192.7743,-4.0
1606838192.7763,-2.0
1606838192.7783,-4.0
1606838192.7803,-4.0
1606838192.7824,-2.0
1606838192.7843,2.0
1606838192.7863,7.0
1606838192.7884,-2.0
1606838192.7903,-9.0
1606838192.7923,-7.0
1606838192.793,-2.0
1606838192.7943,12.0
1606838192.7963,36.0
1606838192.7984,41.0
1606838192.8003,29.0
1606838192.8023,24.0
1606838192.8043,22.0
1606838192.8063,9.0
1606838192.8084,0.0
1606838192.8103,0.0
1606838192.8123,14.0
1606838192.8145,46.0
1606838192.8164,110.0
1606838192.8183,239.0
1606838192.8203,403.0
1606838192.8223,520.0
1606838192.823,606.0
1606838192.8243,797.0
1606838192.8263,1154.0
1606838192.8283,1376.0
1606838192.8303,951.0
1606838192.8323,102.0
1606838192.8343,-261.0
1606838192.8363,-151.0
1606838192.8384,-180.0
1606838192.8403,-264.0
1606838192.8423,-205.0
1606838192.8443,-176.0
1606838192.8464,-195.0
1606838192.8484,-171.0
1606838192.8503,-144.0
1606838192.8523,-144.0
1606838192.853,-132.0
1606838192.8543,-112.0
1606838192.8563,-105.0
1606838192.8584,-95.0
1606838192.8603,-80.0
1606838192.8624,-68.0
1606838192.8643,-51.0
1606838192.8663,-36.0
1606838192.8676,-26.0
1606838192.8694,-17.0
1606838193.273,4.0
1606838193.2738,29.0
1606838193.2744,44.0
1606838193.2763,63.0
1606838193.2783,90.0
1606838193.2803,105.0
1606838193.2823,112.0
1606838193.2843,117.0
1606838193.2863,107.0
1606838193.2883,66.0
1606838193.2903,14.0
1606838193.2923,-26.0
1606838193.2943,-63.0
1606838193.2963,-88.0
1606838193.2983,-95.0
1606838193.3002,-97.0
1606838193.3022,-97.0
1606838193.3042,-90.0
1606838193.3048,-85.0
1606838193.3063,-80.0
1606838193.3085,-75.0
1606838193.3103,-68.0
1606838193.3123,-68.0
1606838193.3143,-70.0
1606838193.3162,-58.0
1606838193.3183,-53.0
1606838193.3202,-58.0
1606838193.3222,-56.0
1606838193.3242,-48.0
1606838193.3262,-44.0
1606838193.3282,-41.0
1606838193.3302,-36.0
1606838193.3322,-31.0
1606838193.3342,-31.0
1606838193.3348,-34.0
1606838193.3362,-29.0
1606838193.3383,-26.0
1606838193.3402,-26.0
1606838193.3422,-24.0
1606838193.3442,-22.0
1606838193.3463,-29.0
1606838193.3482,-34.0
1606838193.3502,-29.0
1606838193.3522,-26.0
1606838193.3542,-29.0
1606838193.3562,-29.0
1606838193.3582,-26.0
1606838193.3603,-26.0
1606838193.3622,-29.0
1606838193.3642,-26.0
1606838193.3648,-17.0
1606838193.3663,-14.0
1606838193.3682,-17.0
1606838193.3703,-17.0
1606838193.3722,-14.0
1606838193.3743,-17.0
1606838193.3762,-17.0
1606838193.3782,-19.0
1606838193.3802,-12.0
1606838193.3822,4.0
1606838193.3842,17.0
1606838193.3862,26.0
1606838193.3882,31.0
1606838193.3903,22.0
1606838193.3922,9.0
1606838193.3943,4.0
1606838193.3949,2.0
1606838193.3962,0.0
1606838193.3982,9.0
1606838193.4002,41.0
1606838193.4022,112.0
1606838193.4044,244.0
1606838193.4063,405.0
1606838193.8738,530.0
1606838193.8756,626.0
1606838193.878,814.0
1606838193.8797,1154.0
1606838193.8817,1393.0
1606838193.8837,1009.0
1606838193.8857,132.0
1606838193.8877,-305.0
1606838193.8896,-198.0
1606838193.8904,-202.0
1606838193.8916,-291.0
1606838193.8936,-239.0
1606838193.8957,-205.0
1606838193.8976,-227.0
1606838193.8996,-207.0
1606838193.9016,-180.0
1606838193.9036,-180.0
1606838193.9056,-171.0
1606838193.9076,-146.0
1606838193.9096,-139.0
1606838193.9116,-132.0
1606838193.9136,-112.0
1606838193.9156,-95.0
1606838193.9176,-83.0
1606838193.9196,-68.0
1606838193.9204,-53.0
1606838193.9216,-39.0
1606838193.9236,-19.0
1606838193.9256,2.0
1606838193.9277,19.0
1606838193.9296,31.0
1606838193.9316,51.0
1606838193.9336,75.0
1606838193.9356,92.0
1606838193.9377,97.0
1606838193.9395,80.0
1606838193.9415,51.0
1606838193.9435,7.0
1606838193.9456,-36.0
1606838193.9476,-68.0
1606838193.9496,-85.0
1606838193.9502,-92.0
1606838193.9515,-95.0
1606838193.9535,-90.0
1606838193.9555,-85.0
1606838193.9576,-85.0
1606838193.9595,-78.0
1606838193.9615,-70.0
1606838193.9635,-68.0
1606838193.9657,-68.0
1606838193.9676,-61.0
1606838193.9695,-56.0
1606838193.9716,-53.0
1606838193.9735,-53.0
1606838193.9755,-48.0
1606838193.9776,-41.0
1606838193.9795,-39.0
1606838193.9802,-36.0
1606838193.9815,-31.0
1606838193.9835,-29.0
1606838193.9855,-29.0
1606838193.9875,-24.0
1606838193.9895,-19.0
1606838193.9915,-17.0
1606838193.9935,-17.0
1606838193.9956,-17.0
1606838193.9975,-14.0
1606838193.9995,-14.0
1606838194.0015,-14.0
1606838194.0035,-17.0
1606838194.0055,-19.0
1606838194.0075,-19.0
1606838194.0095,-19.0
1606838194.3828,-19.0
1606838194.3835,-19.0
1606838194.386,-19.0
1606838194.3887,-22.0
1606838194.3906,-22.0
1606838194.3927,-17.0
1606838194.3946,-14.0
1606838194.3966,-17.0
1606838194.3986,-24.0
1606838194.4006,-24.0
1606838194.4026,-24.0
1606838194.4046,-29.0
1606838194.4066,-34.0
1606838194.4085,-29.0
1606838194.4092,-29.0
1606838194.4105,-31.0
1606838194.4125,-26.0
1606838194.4145,-14.0
1606838194.4165,2.0
1606838194.4185,17.0
1606838194.4205,22.0
1606838194.4225,17.0
1606838194.4246,4.0
1606838194.4265,-2.0
1606838194.4285,-7.0
1606838194.4305,-12.0
1606838194.4325,-2.0
1606838194.4347,26.0
1606838194.4366,88.0
1606838194.4386,212.0
1606838194.4391,381.0
1606838194.4405,525.0
1606838194.4425,628.0
1606838194.4445,772.0
1606838194.4466,1068.0
1606838194.4486,1376.0
1606838194.4505,1188.0
1606838194.4525,364.0
1606838194.4546,-234.0
1606838194.4565,-210.0
1606838194.4586,-180.0
1606838194.4605,-288.0
1606838194.4625,-259.0
1606838194.4645,-205.0
1606838194.4666,-224.0
1606838194.4685,-215.0
1606838194.4691,-183.0
1606838194.4705,-173.0
1606838194.4725,-158.0
1606838194.4745,-141.0
1606838194.4765,-132.0
1606838194.4785,-122.0
1606838194.4805,-105.0
1606838194.4825,-92.0
1606838194.4845,-85.0
1606838194.4865,-73.0
1606838194.4886,-58.0
1606838194.4905,-44.0
1606838194.4925,-29.0
1606838194.4945,-12.0
1606838194.4965,4.0
1606838194.4986,24.0
1606838194.4991,41.0
1606838194.5005,58.0
1606838194.5025,73.0
1606838194.5045,85.0
1606838194.5065,85.0
1606838194.5086,63.0
1606838194.5105,26.0
1606838194.5125,-14.0
1606838194.5146,-46.0
1606838194.5165,-66.0
1606838194.5186,-78.0
1606838194.9826,-88.0
1606838194.9834,-92.0
1606838194.9839,-90.0
1606838194.9856,-85.0
1606838194.9876,-85.0
1606838194.9899,-88.0
1606838194.9916,-80.0
1606838194.9936,-73.0
1606838194.9956,-73.0
1606838194.9976,-70.0
1606838194.9995,-61.0
1606838195.0015,-56.0
1606838195.0035,-56.0
1606838195.0055,-48.0
1606838195.0076,-44.0
1606838195.0095,-44.0
1606838195.0115,-41.0
1606838195.0136,-36.0
1606838195.0142,-31.0
1606838195.0155,-26.0
1606838195.0175,-29.0
1606838195.0195,-26.0
1606838195.0215,-22.0
1606838195.0235,-17.0
1606838195.0255,-19.0
1606838195.0275,-22.0
1606838195.0295,-14.0
1606838195.0315,-14.0
1606838195.0335,-14.0
1606838195.0355,-12.0
1606838195.0375,-14.0
1606838195.0395,-19.0
1606838195.0415,-17.0
1606838195.0435,-14.0
1606838195.0441,-14.0
1606838195.0456,-17.0
1606838195.0475,-19.0
1606838195.0495,-12.0
1606838195.0515,-9.0
1606838195.0535,-14.0
1606838195.0555,-14.0
1606838195.0575,-12.0
1606838195.0595,-9.0
1606838195.0615,-9.0
1606838195.0635,-12.0
1606838195.0655,-12.0
1606838195.0675,-9.0
1606838195.0695,-7.0
1606838195.0715,-9.0
1606838195.0735,-7.0
1606838195.0741,-4.0
1606838195.0755,-7.0
1606838195.0775,-4.0
1606838195.0795,0.0
1606838195.0815,2.0
1606838195.0835,0.0
1606838195.0856,-2.0
1606838195.0875,-2.0
1606838195.0895,-4.0
1606838195.0915,-4.0
1606838195.0935,4.0
1606838195.0955,22.0
1606838195.0976,31.0
1606838195.0995,31.0
1606838195.1015,31.0
1606838195.1035,26.0
1606838195.1041,9.0
1606838195.1055,-2.0
1606838195.1075,-7.0
1606838195.1095,-2.0
1606838195.1115,17.0
1606838195.1135,61.0
1606838195.1156,158.0
1606838195.5533,315.0
1606838195.5542,481.0
1606838195.5566,601.0
1606838195.5583,716.0
1606838195.5603,956.0
1606838195.5623,1300.0
1606838195.5643,1323.0
1606838195.5663,643.0
1606838195.5684,-107.0
1606838195.569,-232.0
1606838195.5703,-178.0
1606838195.5723,-293.0
1606838195.5743,-298.0
1606838195.5763,-232.0
1606838195.5782,-244.0
1606838195.5802,-249.0
1606838195.5822,-207.0
1606838195.5842,-193.0
1606838195.5862,-193.0
1606838195.5883,-173.0
1606838195.5902,-154.0
1606838195.5922,-144.0
1606838195.5942,-134.0
1606838195.5962,-122.0
1606838195.5983,-107.0
1606838195.5988,-92.0
1606838195.6002,-83.0
1606838195.6023,-66.0
1606838195.6042,-46.0
1606838195.6062,-31.0
1606838195.6083,-14.0
1606838195.6102,7.0
1606838195.6123,26.0
1606838195.6142,44.0
1606838195.6165,63.0
1606838195.6183,78.0
1606838195.6202,83.0
1606838195.6222,75.0
1606838195.6242,44.0
1606838195.6262,2.0
1606838195.6282,-36.0
1606838195.6289,-61.0
1606838195.6302,-78.0
1606838195.6322,-88.0
1606838195.6342,-92.0
1606838195.6363,-88.0
1606838195.6383,-83.0
1606838195.6403,-80.0
1606838195.6423,-75.0
1606838195.6443,-68.0
1606838195.6463,-63.0
1606838195.6475,-58.0
1606838195.6488,-51.0
1606838195.6496,-44.0
1606838195.6512,-46.0
1606838195.6518,-41.0
1606838195.6531,-36.0
1606838195.6552,-39.0
1606838195.6572,-41.0
1606838195.6592,-36.0
1606838195.6613,-36.0
1606838195.6633,-39.0
1606838195.6653,-34.0
1606838195.6673,-29.0
1606838195.6692,-26.0
1606838195.6712,-24.0
1606838195.6732,-17.0
1606838195.6752,-17.0
1606838195.6772,-22.0
1606838195.6792,-17.0
1606838195.6812,-9.0
1606838195.6818,-9.0
1606838195.6832,-9.0
1606838196.0933,-7.0
1606838196.0942,-4.0
1606838196.0966,-7.0
1606838196.0983,-9.0
1606838196.1003,-4.0
1606838196.1023,-4.0
1606838196.1044,-14.0
1606838196.1063,-24.0
1606838196.1083,-26.0
1606838196.1102,-22.0
1606838196.1124,-19.0
1606838196.1143,-29.0
1606838196.1151,-34.0
1606838196.1174,-31.0
1606838196.1192,-29.0
1606838196.1213,-31.0
1606838196.1232,-36.0
1606838196.1252,-31.0
1606838196.1273,-31.0
1606838196.1292,-34.0
1606838196.1313,-29.0
1606838196.1332,-24.0
1606838196.1352,-26.0
1606838196.1373,-26.0
1606838196.1393,-24.0
1606838196.1413,-22.0
1606838196.1433,-22.0
1606838196.1438,-22.0
1606838196.1452,-17.0
1606838196.1473,-9.0
1606838196.1493,-12.0
1606838196.1513,-17.0
1606838196.1533,-12.0
1606838196.1552,-9.0
1606838196.1572,-12.0
1606838196.1592,-9.0
1606838196.1612,-4.0
1606838196.1632,9.0
1606838196.1652,26.0
1606838196.1672,36.0
1606838196.1692,34.0
1606838196.1712,24.0
1606838196.1732,14.0
1606838196.1738,4.0
1606838196.1752,0.0
1606838196.1772,0.0
1606838196.1792,12.0
1606838196.1812,48.0
1606838196.1832,129.0
1606838196.1852,273.0
1606838196.1872,437.0
1606838196.1892,564.0
1606838196.1912,667.0
1606838196.1932,865.0
1606838196.1952,1195.0
1606838196.1973,1340.0
1606838196.1992,836.0
1606838196.2012,22.0
1606838196.2032,-251.0
1606838196.2038,-166.0
1606838196.2052,-239.0
1606838196.2073,-295.0
1606838196.2092,-234.0
1606838196.2114,-222.0
1606838196.2132,-234.0
1606838196.2152,-205.0
1606838196.2172,-185.0
1606838196.2192,-180.0
1606838196.2212,-163.0
1606838196.2232,-146.0
1606838196.2252,-134.0
1606838196.2272,-119.0
1606838196.2292,-107.0
1606838196.6633,-95.0
1606838196.6643,-83.0
1606838196.6667,-68.0
1606838196.6684,-56.0
1606838196.6703,-44.0
1606838196.6723,-31.0
1606838196.6743,-12.0
1606838196.6764,4.0
1606838196.6784,19.0
1606838196.6803,34.0
1606838196.6824,53.0
1606838196.6843,68.0
1606838196.6863,75.0
1606838196.6884,78.0
1606838196.6903,58.0
1606838196.6923,12.0
1606838196.6943,-29.0
1606838196.6949,-58.0
1606838196.6963,-78.0
1606838196.6983,-85.0
1606838196.7003,-88.0
1606838196.7023,-88.0
1606838196.7043,-85.0
1606838196.7063,-78.0
1606838196.7084,-73.0
1606838196.7103,-70.0
1606838196.7123,-63.0
1606838196.7143,-56.0
1606838196.7162,-53.0
1606838196.7183,-48.0
1606838196.7202,-44.0
1606838196.7222,-36.0
1606838196.7243,-34.0
1606838196.7249,-29.0
1606838196.7262,-24.0
1606838196.7283,-24.0
1606838196.7302,-29.0
1606838196.7322,-26.0
1606838196.7342,-22.0
1606838196.7362,-24.0
1606838196.7383,-22.0
1606838196.7404,-17.0
1606838196.7423,-14.0
1606838196.7443,-12.0
1606838196.7462,-14.0
1606838196.7483,-17.0
1606838196.7503,-14.0
1606838196.7522,-17.0
1606838196.7542,-17.0
1606838196.7548,-9.0
1606838196.7562,-7.0
1606838196.7583,-4.0
1606838196.7602,-2.0
1606838196.7623,0.0
1606838196.7642,-4.0
1606838196.7662,-9.0
1606838196.7683,-12.0
1606838196.7702,-9.0
1606838196.7722,-9.0
1606838196.7742,-12.0
1606838196.7762,-7.0
1606838196.7783,-2.0
1606838196.7802,-2.0
1606838196.7822,-2.0
1606838196.7843,0.0
1606838196.7848,2.0
1606838196.7862,2.0
1606838196.7883,0.0
1606838196.7903,-2.0
1606838196.7922,0.0
1606838196.7942,4.0
1606838196.7963,4.0
1606838196.7983,2.0
1606838197.2034,0.0
1606838197.2044,2.0
1606838197.2068,0.0
1606838197.2095,0.0
1606838197.2114,2.0
1606838197.2135,-2.0
1606838197.2141,-12.0
1606838197.2156,-9.0
1606838197.2175,-2.0
1606838197.2195,0.0
1606838197.2214,12.0
1606838197.2234,22.0
1606838197.2254,22.0
1606838197.2275,12.0
1606838197.2294,4.0
1606838197.2314,0.0
1606838197.2334,-9.0
1606838197.2354,-9.0
1606838197.2374,9.0
1606838197.2396,44.0
1606838197.2414,117.0
1606838197.2434,254.0
1606838197.244,410.0
1606838197.2454,523.0
1606838197.2474,613.0
1606838197.2494,821.0
1606838197.2514,1198.0
1606838197.2534,1408.0
1606838197.2554,929.0
1606838197.2574,48.0
1606838197.2594,-283.0
1606838197.2614,-163.0
1606838197.2634,-205.0
1606838197.2654,-273.0
1606838197.2674,-207.0
1606838197.2694,-193.0
1606838197.2714,-222.0
1606838197.2734,-195.0
1606838197.274,-166.0
1606838197.2754,-161.0
1606838197.2774,-151.0
1606838197.2793,-132.0
1606838197.2813,-117.0
1606838197.2833,-102.0
1606838197.2853,-88.0
1606838197.2874,-78.0
1606838197.2894,-68.0
1606838197.2914,-48.0
1606838197.2934,-31.0
1606838197.2955,-17.0
1606838197.2975,0.0
1606838197.2994,19.0
1606838197.3014,39.0
1606838197.3034,58.0
1606838197.304,78.0
1606838197.3053,97.0
1606838197.3074,112.0
1606838197.3093,119.0
1606838197.3113,105.0
1606838197.3134,66.0
1606838197.3153,17.0
1606838197.3174,-22.0
1606838197.3193,-53.0
1606838197.3214,-78.0
1606838197.3233,-90.0
1606838197.3253,-95.0
1606838197.3274,-102.0
1606838197.3293,-97.0
1606838197.3313,-90.0
1606838197.3334,-83.0
1606838197.3341,-75.0
1606838197.3354,-70.0
1606838197.3374,-66.0
1606838197.7433,-63.0
1606838197.7442,-56.0
1606838197.7467,-56.0
1606838197.7493,-53.0
1606838197.7513,-48.0
1606838197.7533,-44.0
1606838197.7553,-48.0
1606838197.7573,-51.0
1606838197.7593,-41.0
1606838197.7613,-34.0
1606838197.7633,-44.0
1606838197.7653,-46.0
1606838197.7674,-41.0
1606838197.768,-39.0
1606838197.7693,-36.0
1606838197.7713,-36.0
1606838197.7733,-34.0
1606838197.7753,-31.0
1606838197.7773,-34.0
1606838197.7793,-36.0
1606838197.7812,-34.0
1606838197.7832,-31.0
1606838197.7852,-34.0
1606838197.7873,-31.0
1606838197.7893,-26.0
1606838197.7913,-24.0
1606838197.7932,-24.0
1606838197.7952,-22.0
1606838197.7973,-22.0
1606838197.7978,-22.0
1606838197.7993,-29.0
1606838197.8012,-26.0
1606838197.8032,-14.0
1606838197.8052,-17.0
1606838197.8073,-24.0
1606838197.8092,-19.0
1606838197.8113,-9.0
1606838197.8132,-7.0
1606838197.8152,-12.0
1606838197.8173,-12.0
1606838197.8192,-9.0
1606838197.8212,-2.0
1606838197.8232,12.0
1606838197.8252,29.0
1606838197.8273,41.0
1606838197.8278,39.0
1606838197.8292,24.0
1606838197.8312,17.0
1606838197.8334,19.0
1606838197.8353,14.0
1606838197.8373,7.0
1606838197.8393,17.0
1606838197.8412,51.0
1606838197.8432,127.0
1606838197.8452,269.0
1606838197.8473,437.0
1606838197.8493,552.0
1606838197.8513,643.0
1606838197.8532,851.0
1606838197.8552,1217.0
1606838197.8574,1420.0
1606838197.8578,946.0
1606838197.8592,58.0
1606838197.8612,-295.0
1606838197.8632,-171.0
1606838197.8652,-202.0
1606838197.8673,-276.0
1606838197.8693,-217.0
1606838197.8712,-193.0
1606838197.8733,-210.0
1606838197.8753,-188.0
1606838197.8773,-163.0
1606838197.8792,-158.0
1606838198.3434,-144.0
1606838198.3443,-124.0
1606838198.3468,-114.0
1606838198.3494,-110.0
1606838198.3514,-97.0
1606838198.3534,-85.0
1606838198.3555,-73.0
1606838198.3575,-61.0
1606838198.3594,-46.0
1606838198.3614,-34.0
1606838198.3634,-22.0
1606838198.3654,-2.0
1606838198.3675,19.0
1606838198.3694,44.0
1606838198.3714,61.0
1606838198.3734,70.0
1606838198.3754,85.0
1606838198.3761,95.0
1606838198.3775,85.0
1606838198.3794,51.0
1606838198.3814,4.0
1606838198.3834,-39.0
1606838198.3854,-70.0
1606838198.3874,-95.0
1606838198.3894,-105.0
1606838198.3913,-105.0
1606838198.3936,-102.0
1606838198.3954,-100.0
1606838198.3974,-92.0
1606838198.3993,-90.0
1606838198.4014,-88.0
1606838198.4034,-85.0
1606838198.4053,-80.0
1606838198.4059,-75.0
1606838198.4074,-70.0
1606838198.4093,-68.0
1606838198.4114,-63.0
1606838198.4133,-56.0
1606838198.4153,-53.0
1606838198.4174,-51.0
1606838198.4193,-53.0
1606838198.4214,-53.0
1606838198.4233,-46.0
1606838198.4253,-46.0
1606838198.4274,-51.0
1606838198.4293,-48.0
1606838198.4313,-44.0
1606838198.4333,-41.0
1606838198.4353,-39.0
1606838198.4359,-31.0
1606838198.4373,-31.0
1606838198.4393,-34.0
1606838198.4413,-29.0
1606838198.4433,-26.0
1606838198.4453,-26.0
1606838198.4474,-26.0
1606838198.4493,-26.0
1606838198.4513,-26.0
1606838198.4533,-22.0
1606838198.4553,-17.0
1606838198.4573,-14.0
1606838198.4593,-14.0
1606838198.4613,-14.0
1606838198.4633,-14.0
1606838198.4653,-12.0
1606838198.466,-9.0
1606838198.4674,-7.0
1606838198.4693,-4.0
1606838198.4713,-2.0
1606838198.4733,0.0
1606838198.4753,2.0
1606838198.4774,2.0
1606838198.4793,2.0
1606838198.913,2.0
1606838198.9139,2.0
1606838198.9163,0.0
1606838198.9181,2.0
1606838198.9202,7.0
1606838198.922,9.0
1606838198.924,12.0
1606838198.926,14.0
1606838198.9266,9.0
1606838198.9279,-2.0
1606838198.93,-9.0
1606838198.9319,2.0
1606838198.9339,17.0
1606838198.9359,24.0
1606838198.9379,34.0
1606838198.94,36.0
1606838198.9419,26.0
1606838198.9439,19.0
1606838198.9459,17.0
1606838198.948,9.0
1606838198.9499,4.0
1606838198.9519,12.0
1606838198.9539,39.0
1606838198.9559,95.0
1606838198.9565,210.0
1606838198.958,374.0
1606838198.9599,528.0
1606838198.9619,638.0
1606838198.9639,782.0
1606838198.9659,1085.0
1606838198.968,1413.0
1606838198.9699,1227.0
1606838198.9719,401.0
1606838198.9739,-198.0
1606838198.9759,-188.0
1606838198.9779,-171.0
1606838198.9799,-276.0
1606838198.9819,-249.0
1606838198.9839,-200.0
1606838198.9859,-217.0
1606838198.9865,-205.0
1606838198.9879,-176.0
1606838198.9899,-168.0
1606838198.9919,-156.0
1606838198.9939,-136.0
1606838198.9959,-127.0
1606838198.9979,-112.0
1606838198.9999,-95.0
1606838199.0019,-85.0
1606838199.0039,-75.0
1606838199.0059,-61.0
1606838199.0079,-46.0
1606838199.0099,-34.0
1606838199.0119,-19.0
1606838199.0139,2.0
1606838199.0161,22.0
1606838199.0166,36.0
1606838199.0179,56.0
1606838199.0199,80.0
1606838199.0219,95.0
1606838199.0239,105.0
1606838199.0259,107.0
1606838199.0279,92.0
1606838199.0299,53.0
1606838199.0319,9.0
1606838199.0339,-24.0
1606838199.0359,-51.0
1606838199.0379,-70.0
1606838199.0399,-83.0
1606838199.0419,-83.0
1606838199.0439,-75.0
1606838199.0459,-73.0
1606838199.0465,-68.0
1606838199.4532,-66.0
1606838199.4543,-66.0
1606838199.4567,-61.0
1606838199.4594,-51.0
1606838199.4613,-44.0
1606838199.4633,-39.0
1606838199.4655,-41.0
1606838199.4673,-39.0
1606838199.4693,-39.0
1606838199.4713,-39.0
1606838199.4733,-44.0
1606838199.4753,-51.0
1606838199.4774,-48.0
1606838199.4779,-46.0
1606838199.4793,-48.0
1606838199.4813,-44.0
1606838199.4833,-34.0
1606838199.4853,-31.0
1606838199.4873,-36.0
1606838199.4893,-34.0
1606838199.4912,-24.0
1606838199.4932,-24.0
1606838199.4953,-22.0
1606838199.4965,-17.0
1606838199.4982,-19.0
1606838199.5002,-24.0
1606838199.5023,-19.0
1606838199.5042,-14.0
1606838199.5049,-17.0
1606838199.5062,-17.0
1606838199.5083,-12.0
1606838199.5102,-9.0
1606838199.5122,-7.0
1606838199.5145,-7.0
1606838199.5163,-4.0
1606838199.5183,0.0
1606838199.5202,2.0
1606838199.5222,2.0
1606838199.5242,4.0
1606838199.5262,12.0
1606838199.5282,12.0
1606838199.5302,9.0
1606838199.5322,14.0
1606838199.5342,14.0
1606838199.5348,14.0
1606838199.5363,14.0
1606838199.5382,19.0
1606838199.5402,24.0
1606838199.5422,22.0
1606838199.5442,22.0
1606838199.5462,24.0
1606838199.5482,26.0
1606838199.5502,26.0
1606838199.5522,29.0
1606838199.5542,26.0
1606838199.5562,22.0
1606838199.5583,24.0
1606838199.5602,26.0
1606838199.5623,26.0
1606838199.5642,29.0
1606838199.5648,29.0
1606838199.5662,26.0
1606838199.5682,24.0
1606838199.5702,24.0
1606838199.5722,24.0
1606838199.5742,34.0
1606838199.5762,48.0
1606838199.5783,56.0
1606838199.5803,61.0
1606838199.5822,66.0
1606838199.5842,58.0
1606838199.5862,48.0
1606838199.5882,44.0
1606838200.0229,29.0
1606838200.0238,22.0
1606838200.0263,36.0
1606838200.029,66.0
1606838200.031,129.0
1606838200.0329,261.0
1606838200.0349,432.0
1606838200.037,562.0
1606838200.0389,660.0
1606838200.0409,853.0
1606838200.0429,1198.0
1606838200.0452,1379.0
1606838200.047,909.0
1606838200.0488,92.0
1606838200.0508,-217.0
1606838200.0515,-141.0
1606838200.0528,-210.0
1606838200.0548,-269.0
1606838200.0568,-210.0
1606838200.0589,-200.0
1606838200.0609,-215.0
1606838200.0629,-183.0
1606838200.0648,-156.0
1606838200.0668,-151.0
1606838200.0688,-141.0
1606838200.0708,-124.0
1606838200.0728,-110.0
1606838200.0749,-100.0
1606838200.0768,-85.0
1606838200.0789,-70.0
1606838200.0808,-58.0
1606838200.0814,-46.0
1606838200.0828,-34.0
1606838200.0848,-19.0
1606838200.0868,0.0
1606838200.0888,17.0
1606838200.0909,34.0
1606838200.0928,56.0
1606838200.0948,75.0
1606838200.0968,90.0
1606838200.0988,110.0
1606838200.1008,119.0
1606838200.1028,110.0
1606838200.1048,88.0
1606838200.1068,58.0
1606838200.1088,14.0
1606838200.1108,-29.0
1606838200.1114,-53.0
1606838200.1128,-68.0
1606838200.1148,-78.0
1606838200.1168,-80.0
1606838200.1188,-80.0
1606838200.1208,-73.0
1606838200.1228,-66.0
1606838200.1248,-63.0
1606838200.1268,-58.0
1606838200.1289,-51.0
1606838200.1308,-44.0
1606838200.1328,-41.0
1606838200.1348,-39.0
1606838200.1368,-39.0
1606838200.1388,-41.0
1606838200.141,-41.0
1606838200.1414,-36.0
1606838200.1428,-34.0
1606838200.1448,-34.0
1606838200.1468,-34.0
1606838200.1488,-36.0
1606838200.1508,-41.0
1606838200.1528,-36.0
1606838200.1548,-31.0
1606838200.1568,-29.0
1606838200.1588,-24.0
1606838200.563,-22.0
1606838200.5639,-26.0
1606838200.5663,-26.0
1606838200.568,-22.0
1606838200.57,-17.0
1606838200.572,-17.0
1606838200.5727,-19.0
1606838200.574,-17.0
1606838200.576,-22.0
1606838200.5779,-24.0
1606838200.5799,-22.0
1606838200.5819,-24.0
1606838200.584,-19.0
1606838200.5859,-14.0
1606838200.5879,-17.0
1606838200.5899,-19.0
1606838200.5919,-14.0
1606838200.5939,-9.0
1606838200.596,-12.0
1606838200.598,-12.0
1606838200.5999,-4.0
1606838200.6019,0.0
1606838200.6026,0.0
1606838200.6039,-4.0
1606838200.6059,-2.0
1606838200.608,4.0
1606838200.6099,7.0
1606838200.6119,9.0
1606838200.6139,12.0
1606838200.6159,12.0
1606838200.618,12.0
1606838200.6199,12.0
1606838200.6219,7.0
1606838200.6239,4.0
1606838200.6259,9.0
1606838200.6279,14.0
1606838200.6299,9.0
1606838200.6319,4.0
1606838200.6325,9.0
1606838200.6339,12.0
1606838200.6361,24.0
1606838200.638,41.0
1606838200.6399,48.0
1606838200.6419,46.0
1606838200.6439,39.0
1606838200.6459,24.0
1606838200.6479,14.0
1606838200.6499,12.0
1606838200.6519,14.0
1606838200.6539,26.0
1606838200.6559,61.0
1606838200.6579,141.0
1606838200.6599,283.0
1606838200.662,437.0
1606838200.6625,547.0
1606838200.6639,652.0
1606838200.666,892.0
1606838200.668,1269.0
1606838200.6699,1352.0
1606838200.6719,716.0
1606838200.6739,-85.0
1606838200.6759,-246.0
1606838200.678,-134.0
1606838200.6799,-217.0
1606838200.6819,-249.0
1606838200.684,-188.0
1606838200.6859,-198.0
1606838200.688,-205.0
1606838200.6899,-166.0
1606838200.6919,-149.0
1606838200.6925,-151.0
1606838200.6939,-136.0
1606838200.6959,-117.0
1606838201.1028,-107.0
1606838201.1038,-92.0
1606838201.1062,-73.0
1606838201.1089,-63.0
1606838201.1109,-56.0
1606838201.1128,-48.0
1606838201.1148,-39.0
1606838201.1168,-24.0
1606838201.1189,0.0
1606838201.1208,19.0
1606838201.1228,36.0
1606838201.1233,61.0
1606838201.1248,85.0
1606838201.1268,102.0
1606838201.1289,117.0
1606838201.1308,122.0
1606838201.1328,105.0
1606838201.1348,68.0
1606838201.137,24.0
1606838201.1389,-22.0
1606838201.1407,-61.0
1606838201.1427,-88.0
1606838201.1447,-102.0
1606838201.1467,-102.0
1606838201.1487,-92.0
1606838201.1508,-90.0
1606838201.1528,-92.0
1606838201.1534,-85.0
1606838201.1548,-83.0
1606838201.1568,-83.0
1606838201.1587,-78.0
1606838201.1607,-66.0
1606838201.1627,-63.0
1606838201.1647,-68.0
1606838201.1667,-63.0
1606838201.1687,-53.0
1606838201.1708,-51.0
1606838201.1727,-51.0
1606838201.1748,-51.0
1606838201.1767,-44.0
1606838201.1789,-41.0
1606838201.1808,-39.0
1606838201.1827,-29.0
1606838201.1833,-26.0
1606838201.1847,-34.0
1606838201.1868,-29.0
1606838201.1888,-22.0
1606838201.1907,-24.0
1606838201.1927,-24.0
1606838201.1947,-22.0
1606838201.1967,-19.0
1606838201.1988,-22.0
1606838201.2007,-26.0
1606838201.2027,-31.0
1606838201.2047,-26.0
1606838201.2067,-17.0
1606838201.2087,-24.0
1606838201.2107,-29.0
1606838201.2127,-22.0
1606838201.2133,-14.0
1606838201.2147,-19.0
1606838201.2167,-19.0
1606838201.2187,-12.0
1606838201.2208,-7.0
1606838201.2227,-9.0
1606838201.2247,-9.0
1606838201.2267,-7.0
1606838201.2289,-4.0
1606838201.2307,-7.0
1606838201.233,-12.0
1606838201.2348,-9.0
1606838201.2367,0.0
1606838201.2387,14.0
1606838201.7028,29.0
1606838201.7037,41.0
1606838201.7061,39.0
1606838201.708,22.0
1606838201.7099,7.0
1606838201.7118,4.0
1606838201.7138,0.0
1606838201.7158,0.0
1606838201.7179,14.0
1606838201.7198,46.0
1606838201.7218,124.0
1606838201.7238,269.0
1606838201.7258,430.0
1606838201.7278,552.0
1606838201.7298,657.0
1606838201.7318,877.0
1606838201.7338,1242.0
1606838201.7344,1389.0
1606838201.7358,833.0
1606838201.7379,-19.0
1606838201.7398,-281.0
1606838201.7418,-158.0
1606838201.7438,-222.0
1606838201.7458,-273.0
1606838201.7478,-202.0
1606838201.7497,-190.0
1606838201.7517,-210.0
1606838201.7537,-183.0
1606838201.7557,-161.0
1606838201.7578,-154.0
1606838201.7597,-136.0
1606838201.7617,-119.0
1606838201.7638,-110.0
1606838201.7643,-95.0
1606838201.7657,-83.0
1606838201.7678,-68.0
1606838201.7697,-51.0
1606838201.7717,-36.0
1606838201.7737,-29.0
1606838201.7758,-17.0
1606838201.7777,7.0
1606838201.7797,26.0
1606838201.7817,44.0
1606838201.7838,66.0
1606838201.7857,83.0
1606838201.7877,95.0
1606838201.7897,107.0
1606838201.7919,110.0
1606838201.7938,100.0
1606838201.7943,68.0
1606838201.7958,22.0
1606838201.7977,-24.0
1606838201.7997,-61.0
1606838201.8017,-83.0
1606838201.8037,-92.0
1606838201.8057,-97.0
1606838201.8078,-97.0
1606838201.8097,-95.0
1606838201.8117,-88.0
1606838201.8137,-83.0
1606838201.8157,-78.0
1606838201.8178,-70.0
1606838201.8197,-68.0
1606838201.8217,-66.0
1606838201.8238,-58.0
1606838201.8243,-53.0
1606838201.8257,-51.0
1606838201.8278,-51.0
1606838201.8297,-53.0
1606838201.8317,-51.0
1606838201.8337,-46.0
1606838201.8357,-41.0
1606838201.8378,-36.0
1606838202.2727,-34.0
1606838202.2734,-36.0
1606838202.2758,-31.0
1606838202.2786,-24.0
1606838202.2805,-22.0
1606838202.2825,-24.0
1606838202.2831,-19.0
1606838202.2845,-17.0
1606838202.2865,-24.0
1606838202.2885,-31.0
1606838202.2905,-26.0
1606838202.2925,-26.0
1606838202.2944,-29.0
1606838202.2965,-29.0
1606838202.2985,-24.0
1606838202.3004,-24.0
1606838202.3025,-22.0
1606838202.3046,-17.0
1606838202.3065,-17.0
1606838202.3086,-22.0
1606838202.3105,-19.0
1606838202.3125,-14.0
1606838202.313,-7.0
1606838202.3145,-4.0
1606838202.3164,-4.0
1606838202.3187,-2.0
1606838202.3205,0.0
1606838202.3224,0.0
1606838202.3244,-2.0
1606838202.3265,4.0
1606838202.3285,9.0
1606838202.3304,7.0
1606838202.3324,4.0
1606838202.3344,9.0
1606838202.3364,9.0
1606838202.3385,9.0
1606838202.3404,9.0
1606838202.3425,9.0
1606838202.343,4.0
1606838202.3444,0.0
1606838202.3465,0.0
1606838202.3484,14.0
1606838202.3504,31.0
1606838202.3524,39.0
1606838202.3544,39.0
1606838202.3564,41.0
1606838202.3585,34.0
1606838202.3604,22.0
1606838202.3624,14.0
1606838202.3644,9.0
1606838202.3664,14.0
1606838202.3685,39.0
1606838202.3704,85.0
1606838202.3724,190.0
1606838202.373,349.0
1606838202.3744,506.0
1606838202.3764,616.0
1606838202.3784,750.0
1606838202.3804,1029.0
1606838202.3824,1367.0
1606838202.3844,1254.0
1606838202.3864,476.0
1606838202.3884,-166.0
1606838202.3904,-185.0
1606838202.3924,-149.0
1606838202.3944,-261.0
1606838202.3964,-244.0
1606838202.3985,-188.0
1606838202.4004,-207.0
1606838202.4024,-205.0
1606838202.403,-168.0
1606838202.4044,-156.0
1606838202.4064,-151.0
1606838202.8428,-132.0
1606838202.8437,-119.0
1606838202.8462,-114.0
1606838202.8478,-102.0
1606838202.8487,-83.0
1606838202.8509,-75.0
1606838202.8528,-66.0
1606838202.8548,-51.0
1606838202.857,-39.0
1606838202.8588,-31.0
1606838202.8594,-19.0
1606838202.8609,2.0
1606838202.8628,24.0
1606838202.8648,39.0
1606838202.8668,61.0
1606838202.8688,80.0
1606838202.8708,90.0
1606838202.8728,92.0
1606838202.8748,83.0
1606838202.8768,51.0
1606838202.8788,4.0
1606838202.8807,-34.0
1606838202.8827,-58.0
1606838202.8847,-73.0
1606838202.8867,-85.0
1606838202.8888,-92.0
1606838202.8893,-92.0
1606838202.8907,-90.0
1606838202.8927,-88.0
1606838202.8947,-80.0
1606838202.8968,-73.0
1606838202.8987,-73.0
1606838202.9007,-73.0
1606838202.9027,-68.0
1606838202.9047,-63.0
1606838202.9067,-63.0
1606838202.9087,-63.0
1606838202.9107,-63.0
1606838202.9127,-58.0
1606838202.9147,-53.0
1606838202.9167,-53.0
1606838202.9187,-53.0
1606838202.9193,-53.0
1606838202.9207,-46.0
1606838202.9227,-44.0
1606838202.9247,-44.0
1606838202.9267,-41.0
1606838202.9288,-36.0
1606838202.9307,-36.0
1606838202.9327,-34.0
1606838202.9347,-29.0
1606838202.9367,-24.0
1606838202.9387,-22.0
1606838202.9407,-22.0
1606838202.9429,-22.0
1606838202.9449,-22.0
1606838202.9467,-22.0
1606838202.9487,-22.0
1606838202.9493,-17.0
1606838202.9507,-14.0
1606838202.9528,-14.0
1606838202.9547,-17.0
1606838202.9567,-14.0
1606838202.9587,-12.0
1606838202.9607,-9.0
1606838202.9627,-7.0
1606838202.9647,-9.0
1606838202.9667,-12.0
1606838202.9687,-9.0
1606838202.9707,-7.0
1606838202.9727,-2.0
1606838202.9747,-2.0
1606838202.9768,-2.0
1606838203.3827,-2.0
1606838203.3837,0.0
1606838203.3861,0.0
1606838203.3888,2.0
1606838203.3908,2.0
1606838203.3928,2.0
1606838203.395,0.0
1606838203.3967,-2.0
1606838203.3987,-4.0
1606838203.4007,-2.0
1606838203.4027,-4.0
1606838203.4047,-9.0
1606838203.4067,-12.0
1606838203.4087,-9.0
1606838203.4107,-7.0
1606838203.4113,-4.0
1606838203.4128,-2.0
1606838203.4147,0.0
1606838203.4168,-4.0
1606838203.4186,-7.0
1606838203.4206,0.0
1606838203.4226,14.0
1606838203.4246,26.0
1606838203.4266,34.0
1606838203.4288,34.0
1606838203.4306,17.0
1606838203.4326,2.0
1606838203.4347,-2.0
1606838203.4366,-2.0
1606838203.4386,-2.0
1606838203.4406,14.0
1606838203.4412,58.0
1606838203.4428,146.0
1606838203.4447,295.0
1606838203.4467,467.0
1606838203.4486,591.0
1606838203.4506,704.0
1606838203.4527,948.0
1606838203.4547,1303.0
1606838203.4566,1327.0
1606838203.4586,648.0
1606838203.4606,-105.0
1606838203.4626,-217.0
1606838203.4646,-141.0
1606838203.4669,-246.0
1606838203.4686,-261.0
1606838203.4692,-200.0
1606838203.4706,-205.0
1606838203.4726,-205.0
1606838203.4747,-176.0
1606838203.4766,-166.0
1606838203.4787,-156.0
1606838203.4806,-136.0
1606838203.4826,-122.0
1606838203.4846,-112.0
1606838203.4866,-102.0
1606838203.4886,-88.0
1606838203.4906,-78.0
1606838203.4926,-68.0
1606838203.4947,-51.0
1606838203.4966,-36.0
1606838203.4986,-26.0
1606838203.4992,-9.0
1606838203.5006,12.0
1606838203.5026,29.0
1606838203.5046,46.0
1606838203.5066,73.0
1606838203.5086,90.0
1606838203.5106,100.0
1606838203.5126,110.0
