,ecg
1606912196.9301,4205.0
1606912196.9328,6119.0
1606912196.9355,6990.0
1606912196.9381,7950.0
1606912196.9399,8862.0
1606912196.9419,9391.0
1606912196.944,9897.0
1606912196.9459,10428.0
1606912196.9479,10790.0
1606912196.9501,11087.0
1606912196.9523,11393.0
1606912196.9545,11635.0
1606912196.9567,11818.0
1606912196.9588,12001.0
1606912196.96,12173.0
1606912196.9619,12279.0
1606912196.9639,12325.0
1606912196.9659,12474.0
1606912196.968,12954.0
1606912196.9699,13690.0
1606912196.9719,14115.0
1606912196.9739,13736.0
1606912196.9759,12899.0
1606912196.978,12515.0
1606912196.9799,12725.0
1606912196.9818,12822.0
1606912196.9839,12728.0
1606912196.9859,12766.0
1606912196.9878,12817.0
1606912196.9898,12793.0
1606912196.9918,12800.0
1606912196.9938,12819.0
1606912196.9958,12805.0
1606912196.9978,12788.0
1606912196.9998,12771.0
1606912197.0018,12745.0
1606912197.0038,12718.0
1606912197.0058,12696.0
1606912197.0078,12670.0
1606912197.0098,12624.0
1606912197.0118,12583.0
1606912197.0138,12561.0
1606912197.0158,12549.0
1606912197.0178,12520.0
1606912197.0198,12469.0
1606912197.0218,12424.0
1606912197.0238,12387.0
1606912197.0258,12337.0
1606912197.0278,12267.0
1606912197.0297,12197.0
1606912197.0319,12124.0
1606912197.0338,12028.0
1606912197.0357,11922.0
1606912197.0377,11835.0
1606912197.0397,11763.0
1606912197.0417,11673.0
1606912197.0437,11577.0
1606912197.0457,11497.0
1606912197.0477,11422.0
1606912197.0497,11343.0
1606912197.0517,11270.0
1606912197.0537,11200.0
1606912197.0557,11125.0
1606912197.0577,11041.0
1606912197.0597,10966.0
1606912197.0617,10899.0
1606912197.0637,10821.0
1606912197.0657,10737.0
1606912197.0677,10669.0
1606912197.0697,10602.0
1606912197.0717,10508.0
1606912197.0737,10419.0
1606912197.0757,10353.0
1606912197.4988,10283.0
1606912197.4999,10197.0
1606912197.5024,10110.0
1606912197.505,10030.0
1606912197.507,9950.0
1606912197.509,9864.0
1606912197.5111,9781.0
1606912197.513,9724.0
1606912197.515,9656.0
1606912197.517,9533.0
1606912197.5191,9424.0
1606912197.521,9364.0
1606912197.523,9282.0
1606912197.525,9198.0
1606912197.527,9137.0
1606912197.529,9062.0
1606912197.5309,8980.0
1606912197.5329,8918.0
1606912197.5349,8848.0
1606912197.5369,8756.0
1606912197.539,8650.0
1606912197.5409,8556.0
1606912197.5429,8488.0
1606912197.5449,8416.0
1606912197.5469,8331.0
1606912197.549,8254.0
1606912197.5509,8184.0
1606912197.5529,8102.0
1606912197.5551,8022.0
1606912197.5569,7948.0
1606912197.5589,7861.0
1606912197.5609,7743.0
1606912197.5629,7682.0
1606912197.5649,7911.0
1606912197.5669,8454.0
1606912197.5689,8811.0
1606912197.5709,8442.0
1606912197.5729,7528.0
1606912197.5749,6954.0
1606912197.5769,7040.0
1606912197.579,7084.0
1606912197.5809,6891.0
1606912197.5829,6840.0
1606912197.5849,6850.0
1606912197.5869,6758.0
1606912197.5889,6681.0
1606912197.5909,6647.0
1606912197.5929,6575.0
1606912197.5949,6502.0
1606912197.5969,6459.0
1606912197.5989,6401.0
1606912197.6009,6329.0
1606912197.6029,6268.0
1606912197.6049,6213.0
1606912197.6069,6157.0
1606912197.6089,6104.0
1606912197.6109,6046.0
1606912197.6129,5991.0
1606912197.6149,5950.0
1606912197.6169,5909.0
1606912197.6189,5860.0
1606912197.6209,5810.0
1606912197.6229,5752.0
1606912197.6249,5682.0
1606912197.6269,5607.0
1606912197.6289,5537.0
1606912197.6309,5465.0
1606912197.6329,5383.0
1606912197.6349,5296.0
1606912197.6369,5211.0
1606912197.6389,5139.0
1606912197.6409,5071.0
1606912197.6429,5014.0
1606912198.0383,4965.0
1606912198.039,4907.0
1606912198.0414,4845.0
1606912198.0441,4789.0
1606912198.0461,4746.0
1606912198.048,4695.0
1606912198.0503,4642.0
1606912198.0522,4594.0
1606912198.054,4555.0
1606912198.0561,4509.0
1606912198.0581,4444.0
1606912198.06,4384.0
1606912198.0621,4350.0
1606912198.0641,4302.0
1606912198.0661,4237.0
1606912198.068,4191.0
1606912198.07,4152.0
1606912198.0721,4104.0
1606912198.0741,4056.0
1606912198.076,4012.0
1606912198.0781,3971.0
1606912198.0801,3925.0
1606912198.0821,3879.0
1606912198.0842,3838.0
1606912198.0861,3800.0
1606912198.0881,3754.0
1606912198.0901,3701.0
1606912198.0921,3657.0
1606912198.094,3621.0
1606912198.096,3583.0
1606912198.0981,3549.0
1606912198.1,3522.0
1606912198.102,3496.0
1606912198.104,3467.0
1606912198.106,3433.0
1606912198.108,3380.0
1606912198.11,3322.0
1606912198.112,3279.0
1606912198.114,3247.0
1606912198.116,3209.0
1606912198.118,3168.0
1606912198.12,3134.0
1606912198.122,3105.0
1606912198.124,3071.0
1606912198.126,3035.0
1606912198.128,2999.0
1606912198.1301,2953.0
1606912198.132,2883.0
1606912198.134,2888.0
1606912198.136,3199.0
1606912198.138,3793.0
1606912198.1401,4118.0
1606912198.142,3653.0
1606912198.144,2774.0
1606912198.146,2393.0
1606912198.1481,2560.0
1606912198.15,2591.0
1606912198.1522,2461.0
1606912198.1541,2473.0
1606912198.156,2494.0
1606912198.1581,2441.0
1606912198.16,2422.0
1606912198.162,2427.0
1606912198.164,2400.0
1606912198.166,2374.0
1606912198.1681,2362.0
1606912198.17,2347.0
1606912198.172,2321.0
1606912198.174,2299.0
1606912198.176,2282.0
1606912198.1781,2263.0
1606912198.18,2251.0
1606912198.182,2239.0
1606912198.6089,2231.0
1606912198.6101,2227.0
1606912198.6125,2219.0
1606912198.6151,2202.0
1606912198.6171,2188.0
1606912198.6192,2181.0
1606912198.6212,2171.0
1606912198.6231,2140.0
1606912198.6252,2094.0
1606912198.6271,2050.0
1606912198.6291,1983.0
1606912198.6311,1911.0
1606912198.6387,1884.0
1606912198.6403,1865.0
1606912198.6421,1821.0
1606912198.6441,1795.0
1606912198.6461,1778.0
1606912198.6481,1754.0
1606912198.65,1732.0
1606912198.652,1715.0
1606912198.654,1705.0
1606912198.656,1691.0
1606912198.6582,1672.0
1606912198.6601,1652.0
1606912198.662,1643.0
1606912198.664,1626.0
1606912198.666,1607.0
1606912198.6681,1590.0
1606912198.67,1578.0
1606912198.6721,1558.0
1606912198.6744,1537.0
1606912198.6761,1527.0
1606912198.6781,1515.0
1606912198.68,1498.0
1606912198.682,1481.0
1606912198.6842,1464.0
1606912198.6861,1447.0
1606912198.6881,1428.0
1606912198.6902,1409.0
1606912198.6921,1392.0
1606912198.694,1377.0
1606912198.696,1358.0
1606912198.6981,1339.0
1606912198.7,1319.0
1606912198.702,1305.0
1606912198.704,1290.0
1606912198.706,1274.0
1606912198.7082,1257.0
1606912198.7101,1245.0
1606912198.712,1223.0
1606912198.714,1208.0
1606912198.716,1206.0
1606912198.7181,1194.0
1606912198.72,1175.0
1606912198.722,1167.0
1606912198.7243,1170.0
1606912198.7261,1167.0
1606912198.7281,1158.0
1606912198.7301,1155.0
1606912198.732,1141.0
1606912198.734,1105.0
1606912198.736,1071.0
1606912198.7381,1064.0
1606912198.74,1064.0
1606912198.7421,1052.0
1606912198.744,1035.0
1606912198.746,1025.0
1606912198.7481,1015.0
1606912198.75,1006.0
1606912198.752,994.0
1606912198.754,979.0
1606912198.756,941.0
1606912198.7582,919.0
1606912199.149,1122.0
1606912199.15,1674.0
1606912199.1524,2149.0
1606912199.1551,1920.0
1606912199.157,1114.0
1606912199.159,608.0
1606912199.161,716.0
1606912199.163,834.0
1606912199.165,740.0
1606912199.167,731.0
1606912199.169,781.0
1606912199.1709,767.0
1606912199.173,755.0
1606912199.1751,776.0
1606912199.177,776.0
1606912199.179,764.0
1606912199.1809,767.0
1606912199.1829,767.0
1606912199.1849,762.0
1606912199.1869,762.0
1606912199.189,764.0
1606912199.1909,764.0
1606912199.1929,769.0
1606912199.1949,776.0
1606912199.197,784.0
1606912199.1989,791.0
1606912199.2009,803.0
1606912199.2029,810.0
1606912199.2049,810.0
1606912199.2069,808.0
1606912199.209,796.0
1606912199.2109,779.0
1606912199.2129,767.0
1606912199.2149,750.0
1606912199.2169,726.0
1606912199.2189,694.0
1606912199.221,665.0
1606912199.2229,644.0
1606912199.2249,627.0
1606912199.2269,610.0
1606912199.229,600.0
1606912199.2309,591.0
1606912199.2329,583.0
1606912199.2349,581.0
1606912199.2369,586.0
1606912199.239,588.0
1606912199.2414,583.0
1606912199.243,576.0
1606912199.245,576.0
1606912199.2469,579.0
1606912199.249,581.0
1606912199.2509,571.0
1606912199.2529,559.0
1606912199.2549,562.0
1606912199.2569,562.0
1606912199.259,550.0
1606912199.261,542.0
1606912199.2629,542.0
1606912199.2649,538.0
1606912199.2669,530.0
1606912199.269,528.0
1606912199.2709,523.0
1606912199.2729,516.0
1606912199.2749,511.0
1606912199.2771,509.0
1606912199.279,504.0
1606912199.281,497.0
1606912199.2829,494.0
1606912199.2849,492.0
1606912199.2869,487.0
1606912199.2889,484.0
1606912199.2909,482.0
1606912199.293,477.0
1606912199.7183,475.0
1606912199.7192,472.0
1606912199.7217,463.0
1606912199.7243,453.0
1606912199.7263,448.0
1606912199.7283,439.0
1606912199.7302,422.0
1606912199.7322,422.0
1606912199.7342,436.0
1606912199.7362,434.0
1606912199.7382,427.0
1606912199.7402,434.0
1606912199.7423,443.0
1606912199.7442,429.0
1606912199.7462,402.0
1606912199.7482,398.0
1606912199.7502,402.0
1606912199.7521,400.0
1606912199.7542,398.0
1606912199.7561,400.0
1606912199.7582,395.0
1606912199.7601,388.0
1606912199.7622,383.0
1606912199.7641,378.0
1606912199.7662,354.0
1606912199.7682,340.0
1606912199.7701,552.0
1606912199.7722,1131.0
1606912199.7742,1662.0
1606912199.7762,1467.0
1606912199.7782,605.0
1606912199.7801,31.0
1606912199.7823,161.0
1606912199.7842,318.0
1606912199.7862,217.0
1606912199.7883,214.0
1606912199.7902,287.0
1606912199.7921,272.0
1606912199.7942,265.0
1606912199.7961,296.0
1606912199.7982,301.0
1606912199.8001,299.0
1606912199.8023,308.0
1606912199.8042,313.0
1606912199.8061,313.0
1606912199.8082,318.0
1606912199.8101,323.0
1606912199.8121,332.0
1606912199.8142,345.0
1606912199.8162,352.0
1606912199.8182,369.0
1606912199.8202,393.0
1606912199.8222,402.0
1606912199.8242,412.0
1606912199.8262,422.0
1606912199.8282,422.0
1606912199.8301,415.0
1606912199.8321,402.0
1606912199.8341,388.0
1606912199.8362,369.0
1606912199.8381,345.0
1606912199.8402,320.0
1606912199.8421,301.0
1606912199.8441,277.0
1606912199.8461,258.0
1606912199.8482,248.0
1606912199.8502,241.0
1606912199.8521,231.0
1606912199.8542,229.0
1606912199.8562,236.0
1606912199.8582,238.0
1606912199.8602,236.0
1606912199.8622,236.0
1606912200.3472,238.0
1606912200.3482,234.0
1606912200.3507,231.0
1606912200.3533,236.0
1606912200.3554,241.0
1606912200.3573,241.0
1606912200.3593,229.0
1606912200.3613,224.0
1606912200.3633,229.0
1606912200.3653,224.0
1606912200.3673,217.0
1606912200.3692,221.0
1606912200.3712,224.0
1606912200.3733,221.0
1606912200.3752,217.0
1606912200.3772,214.0
1606912200.3793,212.0
1606912200.3813,212.0
1606912200.3833,214.0
1606912200.3852,214.0
1606912200.3874,212.0
1606912200.3892,209.0
1606912200.3912,212.0
1606912200.3932,219.0
1606912200.3952,219.0
1606912200.3972,217.0
1606912200.3992,217.0
1606912200.4012,217.0
1606912200.4032,214.0
1606912200.4052,209.0
1606912200.4072,209.0
1606912200.4092,212.0
1606912200.4112,205.0
1606912200.4132,197.0
1606912200.4152,197.0
1606912200.4172,195.0
1606912200.4192,188.0
1606912200.4212,188.0
1606912200.4232,200.0
1606912200.4252,219.0
1606912200.4272,224.0
1606912200.4293,229.0
1606912200.4312,241.0
1606912200.4332,236.0
1606912200.4352,209.0
1606912200.4372,190.0
1606912200.4392,200.0
1606912200.4412,214.0
1606912200.4433,207.0
1606912200.4452,200.0
1606912200.4472,209.0
1606912200.4492,212.0
1606912200.4512,205.0
1606912200.4532,202.0
1606912200.4552,197.0
1606912200.4572,161.0
1606912200.4592,139.0
1606912200.4612,366.0
1606912200.4632,950.0
1606912200.4652,1491.0
1606912200.4672,1375.0
1606912200.4692,576.0
1606912200.4712,-69.0
1606912200.4732,-9.0
1606912200.4752,156.0
1606912200.4772,48.0
1606912200.4792,21.0
1606912200.4812,96.0
1606912200.4832,89.0
1606912200.4852,79.0
1606912200.4872,113.0
1606912200.4894,127.0
1606912200.4913,120.0
1606912200.8585,130.0
1606912200.8594,139.0
1606912200.8618,142.0
1606912200.8644,149.0
1606912200.8664,156.0
1606912200.8685,161.0
1606912200.8704,171.0
1606912200.8724,185.0
1606912200.8744,200.0
1606912200.8764,212.0
1606912200.8784,231.0
1606912200.8803,241.0
1606912200.8823,243.0
1606912200.8845,248.0
1606912200.8863,248.0
1606912200.8884,238.0
1606912200.8903,226.0
1606912200.8923,212.0
1606912200.8944,190.0
1606912200.8963,164.0
1606912200.8984,142.0
1606912200.9003,127.0
1606912200.9023,115.0
1606912200.9043,108.0
1606912200.9063,106.0
1606912200.9084,98.0
1606912200.9103,94.0
1606912200.9123,96.0
1606912200.9143,98.0
1606912200.9163,101.0
1606912200.9184,101.0
1606912200.9204,103.0
1606912200.9223,113.0
1606912200.9243,118.0
1606912200.9263,120.0
1606912200.9284,125.0
1606912200.9304,127.0
1606912200.9323,125.0
1606912200.9343,123.0
1606912200.9363,125.0
1606912200.9384,130.0
1606912200.9403,132.0
1606912200.9424,130.0
1606912200.9443,123.0
1606912200.9463,123.0
1606912200.9484,127.0
1606912200.9503,130.0
1606912200.9523,125.0
1606912200.9543,125.0
1606912200.9565,125.0
1606912200.9584,120.0
1606912200.9603,118.0
1606912200.9623,123.0
1606912200.9643,127.0
1606912200.9663,125.0
1606912200.9683,125.0
1606912200.9703,123.0
1606912200.9723,118.0
1606912200.9744,120.0
1606912200.9763,125.0
1606912200.9784,130.0
1606912200.9804,130.0
1606912200.9823,127.0
1606912200.9843,127.0
1606912200.9863,135.0
1606912200.9884,139.0
1606912200.9903,142.0
1606912200.9924,139.0
1606912200.9943,137.0
1606912200.9963,132.0
1606912200.9984,125.0
1606912201.0003,125.0
1606912201.0023,137.0
1606912201.429,152.0
1606912201.4298,159.0
1606912201.4323,166.0
1606912201.4349,178.0
1606912201.4369,180.0
1606912201.4389,161.0
1606912201.4409,139.0
1606912201.443,135.0
1606912201.4449,142.0
1606912201.4469,139.0
1606912201.4489,135.0
1606912201.4508,132.0
1606912201.4528,135.0
1606912201.4549,135.0
1606912201.4568,139.0
1606912201.4589,137.0
1606912201.4608,115.0
1606912201.4628,72.0
1606912201.4648,123.0
1606912201.4668,499.0
1606912201.4675,1134.0
1606912201.4698,1457.0
1606912201.4718,1003.0
1606912201.4739,168.0
1606912201.4758,-176.0
1606912201.4779,12.0
1606912201.4799,65.0
1606912201.482,-41.0
1606912201.4839,2.0
1606912201.4858,53.0
1606912201.4879,31.0
1606912201.4898,41.0
1606912201.4918,67.0
1606912201.4938,72.0
1606912201.4958,84.0
1606912201.4979,94.0
1606912201.4985,96.0
1606912201.5008,101.0
1606912201.5028,108.0
1606912201.5048,110.0
1606912201.5068,115.0
1606912201.5089,130.0
1606912201.5108,147.0
1606912201.5128,156.0
1606912201.5148,171.0
1606912201.5168,190.0
1606912201.5188,202.0
1606912201.5208,209.0
1606912201.5228,212.0
1606912201.5248,212.0
1606912201.5269,205.0
1606912201.5289,188.0
1606912201.5296,171.0
1606912201.5318,147.0
1606912201.5338,123.0
1606912201.5358,103.0
1606912201.5379,89.0
1606912201.5398,77.0
1606912201.5418,69.0
1606912201.5438,65.0
1606912201.5458,62.0
1606912201.5479,60.0
1606912201.5498,62.0
1606912201.5518,62.0
1606912201.5538,62.0
1606912201.5558,67.0
1606912201.5579,69.0
1606912201.5586,67.0
1606912201.5608,72.0
1606912201.5628,79.0
1606912201.5648,84.0
1606912201.5668,79.0
1606912201.5688,77.0
1606912201.9684,79.0
1606912201.9691,82.0
1606912201.9715,79.0
1606912201.9742,79.0
1606912201.9762,84.0
1606912201.9784,86.0
1606912201.9803,82.0
1606912201.9822,79.0
1606912201.9841,84.0
1606912201.9861,84.0
1606912201.9869,74.0
1606912201.9883,74.0
1606912201.9902,79.0
1606912201.9922,79.0
1606912201.9941,82.0
1606912201.9961,86.0
1606912201.9981,89.0
1606912202.0001,94.0
1606912202.0022,96.0
1606912202.0042,96.0
1606912202.0061,96.0
1606912202.0081,96.0
1606912202.0101,98.0
1606912202.0121,101.0
1606912202.0141,103.0
1606912202.0161,106.0
1606912202.0168,106.0
1606912202.0191,103.0
1606912202.0211,103.0
1606912202.0231,101.0
1606912202.0251,103.0
1606912202.0272,108.0
1606912202.0292,108.0
1606912202.0311,106.0
1606912202.0331,108.0
1606912202.0352,108.0
1606912202.0372,103.0
1606912202.0391,101.0
1606912202.0411,106.0
1606912202.0431,115.0
1606912202.0451,125.0
1606912202.0471,132.0
1606912202.0479,137.0
1606912202.0501,147.0
1606912202.0522,144.0
1606912202.0542,118.0
1606912202.0561,94.0
1606912202.0582,98.0
1606912202.0601,108.0
1606912202.0621,106.0
1606912202.0641,106.0
1606912202.0661,113.0
1606912202.0682,110.0
1606912202.0701,103.0
1606912202.0721,108.0
1606912202.0741,110.0
1606912202.0763,74.0
1606912202.0783,45.0
1606912202.0788,231.0
1606912202.0811,774.0
1606912202.0831,1339.0
1606912202.0851,1302.0
1606912202.0872,554.0
1606912202.0892,-123.0
1606912202.0911,-123.0
1606912202.0931,55.0
1606912202.0951,-21.0
1606912202.0971,-57.0
1606912202.0992,14.0
1606912202.1012,12.0
1606912202.1033,-4.0
1606912202.1052,21.0
1606912202.1071,33.0
1606912202.5082,31.0
1606912202.5089,48.0
1606912202.5112,60.0
1606912202.514,60.0
1606912202.5159,67.0
1606912202.518,79.0
1606912202.52,77.0
1606912202.5219,77.0
1606912202.5239,89.0
1606912202.5259,108.0
1606912202.5279,123.0
1606912202.5299,132.0
1606912202.5319,149.0
1606912202.5339,164.0
1606912202.5359,171.0
1606912202.5366,171.0
1606912202.5389,166.0
1606912202.5409,159.0
1606912202.5429,144.0
1606912202.5449,123.0
1606912202.5469,96.0
1606912202.5489,77.0
1606912202.5509,57.0
1606912202.5529,41.0
1606912202.5549,33.0
1606912202.5569,33.0
1606912202.5589,31.0
1606912202.5609,28.0
1606912202.5629,26.0
1606912202.5649,26.0
1606912202.5669,26.0
1606912202.5676,31.0
1606912202.5699,38.0
1606912202.5719,45.0
1606912202.574,50.0
1606912202.5759,53.0
1606912202.5779,57.0
1606912202.5799,62.0
1606912202.5819,57.0
1606912202.5839,55.0
1606912202.5859,57.0
1606912202.5879,60.0
1606912202.5899,60.0
1606912202.5919,65.0
1606912202.5939,67.0
1606912202.5959,65.0
1606912202.598,65.0
1606912202.5986,69.0
1606912202.6009,72.0
1606912202.6029,72.0
1606912202.605,72.0
1606912202.6069,72.0
1606912202.6089,74.0
1606912202.6109,77.0
1606912202.6129,77.0
1606912202.6149,77.0
1606912202.6169,77.0
1606912202.6189,77.0
1606912202.6209,77.0
1606912202.6229,79.0
1606912202.6249,82.0
1606912202.6269,79.0
1606912202.6276,79.0
1606912202.6299,86.0
1606912202.6319,89.0
1606912202.6339,82.0
1606912202.6359,79.0
1606912202.6379,84.0
1606912202.6398,89.0
1606912202.6419,91.0
1606912202.6439,91.0
1606912202.6459,91.0
1606912202.648,94.0
1606912203.0788,94.0
1606912203.08,94.0
1606912203.0824,91.0
1606912203.0851,86.0
1606912203.0859,77.0
1606912203.0865,69.0
1606912203.088,72.0
1606912203.0899,89.0
1606912203.0919,101.0
1606912203.0939,103.0
1606912203.0959,110.0
1606912203.0979,125.0
1606912203.1002,120.0
1606912203.102,91.0
1606912203.1039,77.0
1606912203.1059,84.0
1606912203.108,94.0
1606912203.1099,94.0
1606912203.1119,94.0
1606912203.1139,96.0
1606912203.1159,94.0
1606912203.1179,89.0
1606912203.12,89.0
1606912203.1219,77.0
1606912203.1239,41.0
1606912203.1259,41.0
1606912203.128,296.0
1606912203.1299,890.0
1606912203.1319,1389.0
1606912203.1339,1175.0
1606912203.1359,332.0
1606912203.138,-229.0
1606912203.1399,-113.0
1606912203.1419,26.0
1606912203.1439,-79.0
1606912203.146,-82.0
1606912203.1479,-9.0
1606912203.1499,-21.0
1606912203.1519,-26.0
1606912203.1539,4.0
1606912203.1559,7.0
1606912203.1579,7.0
1606912203.1599,31.0
1606912203.162,38.0
1606912203.1639,36.0
1606912203.1659,45.0
1606912203.1679,55.0
1606912203.17,62.0
1606912203.1719,74.0
1606912203.1739,89.0
1606912203.1759,106.0
1606912203.178,123.0
1606912203.1799,139.0
1606912203.1819,152.0
1606912203.1839,166.0
1606912203.1859,176.0
1606912203.1879,173.0
1606912203.1899,168.0
1606912203.1919,156.0
1606912203.1939,139.0
1606912203.1959,120.0
1606912203.1979,96.0
1606912203.1999,69.0
1606912203.202,48.0
1606912203.2039,36.0
1606912203.2059,24.0
1606912203.2079,14.0
1606912203.2099,9.0
1606912203.2119,12.0
1606912203.2139,16.0
1606912203.2159,19.0
1606912203.218,19.0
1606912203.22,19.0
1606912203.679,28.0
1606912203.6799,36.0
1606912203.6825,36.0
1606912203.685,41.0
1606912203.687,48.0
1606912203.6891,45.0
1606912203.6912,38.0
1606912203.693,45.0
1606912203.6952,50.0
1606912203.697,43.0
1606912203.699,38.0
1606912203.701,50.0
1606912203.703,57.0
1606912203.705,55.0
1606912203.707,50.0
1606912203.709,50.0
1606912203.711,50.0
1606912203.713,53.0
1606912203.715,62.0
1606912203.717,62.0
1606912203.719,55.0
1606912203.721,57.0
1606912203.7229,62.0
1606912203.725,53.0
1606912203.727,43.0
1606912203.729,55.0
1606912203.7311,65.0
1606912203.7329,57.0
1606912203.735,57.0
1606912203.737,62.0
1606912203.739,62.0
1606912203.741,65.0
1606912203.7429,69.0
1606912203.745,67.0
1606912203.747,69.0
1606912203.749,74.0
1606912203.7509,69.0
1606912203.7529,65.0
1606912203.7549,72.0
1606912203.757,72.0
1606912203.759,62.0
1606912203.7611,69.0
1606912203.763,91.0
1606912203.7649,96.0
1606912203.7669,86.0
1606912203.7689,94.0
1606912203.7709,115.0
1606912203.7729,108.0
1606912203.7752,77.0
1606912203.7771,60.0
1606912203.779,72.0
1606912203.7809,84.0
1606912203.7829,77.0
1606912203.7849,69.0
1606912203.7869,72.0
1606912203.7889,72.0
1606912203.7909,69.0
1606912203.7929,72.0
1606912203.795,67.0
1606912203.797,28.0
1606912203.799,45.0
1606912203.8009,347.0
1606912203.8029,994.0
1606912203.8049,1418.0
1606912203.8069,996.0
1606912203.809,84.0
1606912203.811,-311.0
1606912203.8129,-86.0
1606912203.8149,2.0
1606912203.8169,-110.0
1606912203.8189,-77.0
1606912203.8209,-19.0
1606912203.8229,-43.0
1606912204.2487,-31.0
1606912204.2496,2.0
1606912204.2521,-2.0
1606912204.2547,-4.0
1606912204.2567,14.0
1606912204.2587,24.0
1606912204.2608,24.0
1606912204.2627,33.0
1606912204.2647,43.0
1606912204.2668,50.0
1606912204.2688,53.0
1606912204.2707,65.0
1606912204.2727,89.0
1606912204.2747,108.0
1606912204.2767,118.0
1606912204.2787,135.0
1606912204.2807,147.0
1606912204.2826,147.0
1606912204.2846,147.0
1606912204.2869,137.0
1606912204.2887,123.0
1606912204.2906,101.0
1606912204.2926,72.0
1606912204.2946,48.0
1606912204.2968,31.0
1606912204.2987,9.0
1606912204.3006,-9.0
1606912204.3026,-16.0
1606912204.3047,-21.0
1606912204.3066,-21.0
1606912204.3087,-21.0
1606912204.3106,-21.0
1606912204.3126,-21.0
1606912204.3146,-19.0
1606912204.3166,-14.0
1606912204.3187,-7.0
1606912204.3206,4.0
1606912204.3226,7.0
1606912204.3246,9.0
1606912204.3266,19.0
1606912204.3286,24.0
1606912204.3306,21.0
1606912204.3326,24.0
1606912204.3346,28.0
1606912204.3366,26.0
1606912204.3386,24.0
1606912204.3406,28.0
1606912204.3426,31.0
1606912204.3447,31.0
1606912204.3466,31.0
1606912204.3486,33.0
1606912204.3506,36.0
1606912204.3526,36.0
1606912204.3546,33.0
1606912204.3567,31.0
1606912204.3587,36.0
1606912204.3606,45.0
1606912204.3627,43.0
1606912204.3646,41.0
1606912204.3666,45.0
1606912204.3686,50.0
1606912204.3706,50.0
1606912204.3726,48.0
1606912204.3746,48.0
1606912204.3766,50.0
1606912204.3786,53.0
1606912204.3806,50.0
1606912204.3826,45.0
1606912204.3846,50.0
1606912204.3866,55.0
1606912204.3888,53.0
1606912204.3907,55.0
1606912204.3926,55.0
1606912204.7884,50.0
1606912204.7893,45.0
1606912204.7917,45.0
1606912204.7944,45.0
1606912204.7964,55.0
1606912204.7984,69.0
1606912204.8004,79.0
1606912204.8023,86.0
1606912204.8043,96.0
1606912204.8063,94.0
1606912204.8083,69.0
1606912204.8103,50.0
1606912204.8123,41.0
1606912204.8143,45.0
1606912204.8162,53.0
1606912204.8183,48.0
1606912204.8202,45.0
1606912204.8223,48.0
1606912204.8243,55.0
1606912204.8263,53.0
1606912204.8283,43.0
1606912204.8303,12.0
1606912204.8323,-9.0
1606912204.8342,190.0
1606912204.8362,757.0
1606912204.8383,1336.0
1606912204.8402,1295.0
1606912204.8422,523.0
1606912204.8442,-190.0
1606912204.8462,-202.0
1606912204.8483,-16.0
1606912204.8502,-103.0
1606912204.8523,-142.0
1606912204.8542,-60.0
1606912204.8563,-55.0
1606912204.8583,-72.0
1606912204.8603,-41.0
1606912204.8622,-26.0
1606912204.8643,-28.0
1606912204.8662,-19.0
1606912204.8683,-4.0
1606912204.8702,2.0
1606912204.8723,7.0
1606912204.8742,12.0
1606912204.8763,21.0
1606912204.8783,38.0
1606912204.8802,55.0
1606912204.8822,67.0
1606912204.8844,79.0
1606912204.8863,101.0
1606912204.8883,118.0
1606912204.8902,135.0
1606912204.8922,149.0
1606912204.8942,149.0
1606912204.8962,142.0
1606912204.8983,132.0
1606912204.9002,120.0
1606912204.9023,96.0
1606912204.9043,65.0
1606912204.9062,41.0
1606912204.9083,28.0
1606912204.9103,14.0
1606912204.9123,0.0
1606912204.9142,-4.0
1606912204.9163,-4.0
1606912204.9183,-4.0
1606912204.9203,-4.0
1606912204.9222,-4.0
1606912204.9243,-4.0
1606912204.9263,0.0
1606912204.9282,7.0
1606912204.9303,9.0
1606912204.9323,12.0
1606912205.3585,14.0
1606912205.3593,14.0
1606912205.3609,14.0
1606912205.3629,24.0
1606912205.3649,31.0
1606912205.3669,26.0
1606912205.3689,28.0
1606912205.3708,36.0
1606912205.3728,31.0
1606912205.3748,21.0
1606912205.3768,21.0
1606912205.3788,28.0
1606912205.3808,28.0
1606912205.3828,28.0
1606912205.3848,36.0
1606912205.3868,38.0
1606912205.3888,38.0
1606912205.3908,38.0
1606912205.3928,36.0
1606912205.3949,38.0
1606912205.3968,43.0
1606912205.3988,43.0
1606912205.4008,43.0
1606912205.4028,45.0
1606912205.4048,45.0
1606912205.4067,43.0
1606912205.4089,45.0
1606912205.4108,50.0
1606912205.4128,50.0
1606912205.4148,48.0
1606912205.4168,50.0
1606912205.4188,48.0
1606912205.4208,41.0
1606912205.4228,43.0
1606912205.4248,60.0
1606912205.4268,69.0
1606912205.4288,74.0
1606912205.4308,84.0
1606912205.4328,98.0
1606912205.4348,91.0
1606912205.4368,67.0
1606912205.4388,53.0
1606912205.4408,60.0
1606912205.4428,69.0
1606912205.4448,65.0
1606912205.4468,62.0
1606912205.4488,67.0
1606912205.4508,69.0
1606912205.4528,65.0
1606912205.4548,65.0
1606912205.4568,53.0
1606912205.4588,12.0
1606912205.4608,9.0
1606912205.4628,270.0
1606912205.4648,871.0
1606912205.4668,1370.0
1606912205.4688,1170.0
1606912205.4708,342.0
1606912205.4728,-238.0
1606912205.4747,-139.0
1606912205.4768,0.0
1606912205.4788,-103.0
1606912205.4808,-101.0
1606912205.4828,-26.0
1606912205.4848,-43.0
1606912205.4869,-48.0
1606912205.4888,-7.0
1606912205.4908,-2.0
1606912205.4928,-14.0
1606912205.4948,-4.0
1606912205.4968,7.0
1606912205.4988,9.0
1606912205.5008,14.0
1606912205.8987,26.0
1606912205.8995,36.0
1606912205.9007,43.0
1606912205.9027,57.0
1606912205.905,77.0
1606912205.9068,94.0
1606912205.9085,101.0
1606912205.9107,118.0
1606912205.9126,135.0
1606912205.9146,137.0
1606912205.9166,127.0
1606912205.9185,120.0
1606912205.9206,115.0
1606912205.9226,106.0
1606912205.9246,79.0
1606912205.9266,48.0
1606912205.9285,24.0
1606912205.9305,7.0
1606912205.9325,-9.0
1606912205.9345,-16.0
1606912205.9365,-14.0
1606912205.9385,-16.0
1606912205.9405,-24.0
1606912205.9425,-21.0
1606912205.9445,-12.0
1606912205.9465,-12.0
1606912205.9485,-14.0
1606912205.9506,-7.0
1606912205.9525,0.0
1606912205.9545,4.0
1606912205.9565,7.0
1606912205.9585,9.0
1606912205.9606,14.0
1606912205.9626,24.0
1606912205.9645,31.0
1606912205.9665,31.0
1606912205.9685,31.0
1606912205.9705,38.0
1606912205.9725,41.0
1606912205.9745,43.0
1606912205.9765,45.0
1606912205.9786,43.0
1606912205.9805,43.0
1606912205.9826,45.0
1606912205.9846,45.0
1606912205.9865,45.0
1606912205.9885,50.0
1606912205.9905,55.0
1606912205.9925,50.0
1606912205.9946,50.0
1606912205.9966,53.0
1606912205.9986,55.0
1606912206.0005,57.0
1606912206.0025,60.0
1606912206.0045,57.0
1606912206.0067,60.0
1606912206.0086,62.0
1606912206.0105,60.0
1606912206.0125,60.0
1606912206.0146,65.0
1606912206.0165,65.0
1606912206.0185,55.0
1606912206.0205,50.0
1606912206.0226,57.0
1606912206.0245,55.0
1606912206.0266,50.0
1606912206.0285,62.0
1606912206.0306,84.0
1606912206.0326,86.0
1606912206.0345,91.0
1606912206.0365,110.0
1606912206.0385,101.0
1606912206.0406,69.0
1606912206.4381,50.0
1606912206.439,55.0
1606912206.4415,69.0
1606912206.4441,69.0
1606912206.446,67.0
1606912206.4481,65.0
1606912206.4502,60.0
1606912206.452,55.0
1606912206.454,57.0
1606912206.456,55.0
1606912206.4581,21.0
1606912206.4599,7.0
1606912206.462,217.0
1606912206.4639,803.0
1606912206.4659,1382.0
1606912206.468,1242.0
1606912206.47,352.0
1606912206.472,-304.0
1606912206.4739,-197.0
1606912206.4759,-2.0
1606912206.478,-91.0
1606912206.4799,-108.0
1606912206.482,-28.0
1606912206.4839,-41.0
1606912206.4859,-53.0
1606912206.488,-12.0
1606912206.49,-2.0
1606912206.4919,-9.0
1606912206.4939,9.0
1606912206.4959,21.0
1606912206.498,21.0
1606912206.4999,33.0
1606912206.5019,50.0
1606912206.5041,55.0
1606912206.506,65.0
1606912206.508,84.0
1606912206.5099,103.0
1606912206.5119,123.0
1606912206.5139,142.0
1606912206.5159,161.0
1606912206.518,171.0
1606912206.5199,178.0
1606912206.5219,183.0
1606912206.5239,183.0
1606912206.5259,171.0
1606912206.528,144.0
1606912206.5299,108.0
1606912206.5319,74.0
1606912206.5339,48.0
1606912206.5359,24.0
1606912206.538,2.0
1606912206.5399,-14.0
1606912206.5419,-26.0
1606912206.5439,-31.0
1606912206.5459,-33.0
1606912206.548,-33.0
1606912206.5499,-33.0
1606912206.5519,-41.0
1606912206.5539,-38.0
1606912206.5559,-24.0
1606912206.558,-9.0
1606912206.5599,-4.0
1606912206.5619,-2.0
1606912206.5639,2.0
1606912206.5659,2.0
1606912206.5679,7.0
1606912206.5699,12.0
1606912206.5719,14.0
1606912206.5739,24.0
1606912206.5759,28.0
1606912206.578,24.0
1606912206.5799,19.0
1606912206.5819,28.0
1606912207.0381,36.0
1606912207.039,28.0
1606912207.0416,24.0
1606912207.0442,26.0
1606912207.0461,19.0
1606912207.0481,9.0
1606912207.0501,14.0
1606912207.0521,24.0
1606912207.0541,21.0
1606912207.0561,14.0
1606912207.058,21.0
1606912207.0602,33.0
1606912207.0621,33.0
1606912207.0641,31.0
1606912207.066,36.0
1606912207.0681,38.0
1606912207.07,36.0
1606912207.0721,36.0
1606912207.0741,41.0
1606912207.076,43.0
1606912207.0781,43.0
1606912207.08,41.0
1606912207.082,41.0
1606912207.084,43.0
1606912207.086,41.0
1606912207.088,33.0
1606912207.09,31.0
1606912207.092,38.0
1606912207.094,50.0
1606912207.096,62.0
1606912207.098,72.0
1606912207.1,82.0
1606912207.102,86.0
1606912207.104,77.0
1606912207.106,55.0
1606912207.108,45.0
1606912207.11,50.0
1606912207.112,57.0
1606912207.114,55.0
1606912207.116,50.0
1606912207.118,48.0
1606912207.12,53.0
1606912207.122,55.0
1606912207.124,55.0
1606912207.126,45.0
1606912207.128,7.0
1606912207.13,-4.0
1606912207.132,246.0
1606912207.134,875.0
1606912207.136,1428.0
1606912207.138,1235.0
1606912207.14,349.0
1606912207.142,-282.0
1606912207.144,-176.0
1606912207.146,-16.0
1606912207.1481,-135.0
1606912207.15,-142.0
1606912207.152,-57.0
1606912207.154,-72.0
1606912207.156,-82.0
1606912207.158,-43.0
1606912207.16,-31.0
1606912207.1622,-36.0
1606912207.1641,-21.0
1606912207.166,-9.0
1606912207.168,-7.0
1606912207.17,0.0
1606912207.172,9.0
1606912207.174,21.0
1606912207.176,33.0
1606912207.178,45.0
1606912207.18,57.0
1606912207.182,74.0
1606912207.5783,96.0
1606912207.5791,115.0
1606912207.5815,125.0
1606912207.5841,137.0
1606912207.5861,142.0
1606912207.5882,137.0
1606912207.5901,123.0
1606912207.5921,103.0
1606912207.5941,79.0
1606912207.5961,45.0
1606912207.5982,9.0
1606912207.6001,-12.0
1606912207.6021,-24.0
1606912207.6041,-38.0
1606912207.6061,-43.0
1606912207.6081,-38.0
1606912207.6101,-36.0
1606912207.6121,-41.0
1606912207.6141,-41.0
1606912207.6161,-33.0
1606912207.6229,-31.0
1606912207.6371,-28.0
1606912207.6507,-24.0
1606912207.6631,-16.0
1606912207.6771,-14.0
1606912207.6907,-9.0
1606912207.7051,-2.0
1606912207.7194,2.0
1606912207.7335,2.0
1606912207.7474,7.0
1606912207.7615,14.0
1606912207.7763,16.0
1606912207.7906,16.0
1606912207.8051,16.0
1606912207.8194,19.0
1606912207.8336,24.0
1606912207.8479,24.0
1606912207.8618,24.0
1606912207.8761,26.0
1606912207.8903,24.0
1606912207.9046,16.0
1606912207.9184,16.0
1606912207.9327,24.0
1606912207.9445,26.0
1606912207.9586,26.0
1606912207.9728,24.0
1606912207.9868,26.0
1606912208.0009,28.0
1606912208.015,28.0
1606912208.0284,28.0
1606912208.0412,28.0
1606912208.0542,31.0
1606912208.0672,33.0
1606912208.0803,33.0
1606912208.0941,36.0
1606912208.1088,38.0
1606912208.1227,33.0
1606912208.1354,36.0
1606912208.1484,43.0
1606912208.1624,41.0
1606912208.1766,41.0
1606912208.1907,43.0
1606912208.2021,43.0
1606912208.2163,43.0
1606912208.2287,43.0
1606912208.2428,41.0
1606912208.2571,38.0
1606912208.2704,43.0
1606912208.2846,55.0
1606912208.2982,69.0
1606912208.3121,77.0
1606912208.3262,77.0
1606912208.3379,74.0
1606912208.3496,72.0
1606912208.3603,74.0
1606912208.3717,74.0
1606912208.3829,62.0
1606912208.3937,53.0
1606912208.4027,43.0
1606912208.4139,33.0
1606912208.4249,28.0
1606912208.4359,36.0
1606912208.447,36.0
1606912208.4583,31.0
1606912208.4697,36.0
1606912208.4813,43.0
1606912208.488,26.0
1606912208.4909,-19.0
1606912208.4931,-24.0
1606912208.4951,238.0
1606912208.4971,863.0
1606912208.4994,1421.0
1606912208.5011,1281.0
1606912208.5031,436.0
1606912208.5038,-243.0
1606912208.5061,-193.0
1606912208.5081,-28.0
1606912208.5101,-135.0
1606912208.5121,-154.0
1606912208.5141,-72.0
1606912208.5162,-79.0
1606912208.5182,-84.0
1606912208.5201,-45.0
1606912208.5222,-38.0
1606912208.5242,-43.0
1606912208.5261,-31.0
1606912208.5282,-28.0
1606912208.5302,-28.0
1606912208.5322,-16.0
1606912208.5341,-12.0
1606912208.5348,-12.0
1606912208.5371,-2.0
1606912208.5393,14.0
1606912208.5411,33.0
1606912208.5431,50.0
1606912208.5451,69.0
1606912208.5471,91.0
1606912208.5492,113.0
1606912208.5511,125.0
1606912208.5531,130.0
1606912208.5551,130.0
1606912208.5571,123.0
1606912208.5591,103.0
1606912208.5611,77.0
1606912208.5631,53.0
1606912208.5652,26.0
1606912208.5658,2.0
1606912208.5671,-14.0
1606912208.5691,-24.0
1606912208.5711,-28.0
1606912208.5731,-33.0
1606912208.5751,-28.0
1606912208.5771,-24.0
1606912208.5791,-26.0
1606912208.5812,-28.0
1606912208.5831,-26.0
1606912208.5851,-21.0
1606912208.5871,-21.0
1606912208.5891,-19.0
1606912208.5911,-16.0
1606912208.5931,-12.0
1606912208.5951,-9.0
1606912208.596,-4.0
1606912208.5982,-2.0
1606912208.6001,0.0
1606912208.6021,2.0
1606912208.6883,2.0
1606912208.6889,7.0
1606912208.6912,14.0
1606912208.6939,16.0
1606912208.6959,19.0
1606912208.698,21.0
1606912208.6999,21.0
1606912208.7019,19.0
1606912208.7039,14.0
1606912208.7059,12.0
1606912208.7066,19.0
1606912208.7089,19.0
1606912208.7108,16.0
1606912208.7129,19.0
1606912208.715,21.0
1606912208.7169,19.0
1606912208.7189,19.0
1606912208.7209,21.0
1606912208.7229,24.0
1606912208.7249,26.0
1606912208.7269,28.0
1606912208.7289,31.0
1606912208.7309,33.0
1606912208.7329,36.0
1606912208.7349,33.0
1606912208.7357,26.0
1606912208.7379,26.0
1606912208.7398,26.0
1606912208.7419,24.0
1606912208.7439,24.0
1606912208.7459,28.0
1606912208.7481,28.0
1606912208.7499,31.0
1606912208.7519,48.0
1606912208.7539,65.0
1606912208.7558,65.0
1606912208.7579,65.0
1606912208.7599,62.0
1606912208.7619,57.0
1606912208.764,57.0
1606912208.7659,60.0
1606912208.7666,50.0
1606912208.7689,43.0
1606912208.7709,38.0
1606912208.7729,33.0
1606912208.7749,38.0
1606912208.7769,43.0
1606912208.7792,36.0
1606912208.781,36.0
1606912208.7829,38.0
1606912208.7849,36.0
1606912208.7869,26.0
1606912208.7889,-12.0
1606912208.7909,-12.0
1606912208.7929,263.0
1606912208.7949,890.0
1606912208.797,1416.0
1606912208.7977,1218.0
1606912208.7989,354.0
1606912208.8009,-267.0
1606912208.8029,-173.0
1606912208.8049,-28.0
1606912208.8069,-144.0
1606912208.8089,-147.0
1606912208.8109,-67.0
1606912208.8129,-84.0
1606912208.8149,-94.0
1606912208.8168,-55.0
1606912208.8189,-43.0
1606912208.8209,-43.0
1606912208.8229,-28.0
1606912208.825,-24.0
1606912208.8269,-21.0
1606912209.2586,-7.0
1606912209.2595,2.0
1606912209.262,7.0
1606912209.2647,21.0
1606912209.2666,36.0
1606912209.2686,41.0
1606912209.2705,50.0
1606912209.2725,82.0
1606912209.2745,110.0
1606912209.2765,125.0
1606912209.2786,139.0
1606912209.2805,147.0
1606912209.2825,139.0
1606912209.2845,125.0
1606912209.2865,118.0
1606912209.2872,96.0
1606912209.2895,60.0
1606912209.2915,24.0
1606912209.2936,-7.0
1606912209.2956,-31.0
1606912209.2975,-41.0
1606912209.2995,-38.0
1606912209.3015,-38.0
1606912209.3036,-41.0
1606912209.3055,-41.0
1606912209.3077,-38.0
1606912209.3095,-31.0
1606912209.3116,-26.0
1606912209.3135,-28.0
1606912209.3155,-28.0
1606912209.3175,-21.0
1606912209.3182,-16.0
1606912209.3205,-16.0
1606912209.3225,-16.0
1606912209.3245,-7.0
1606912209.3265,-2.0
1606912209.3286,0.0
1606912209.3305,7.0
1606912209.3325,16.0
1606912209.3345,16.0
1606912209.3365,16.0
1606912209.3385,21.0
1606912209.3405,24.0
1606912209.3425,24.0
1606912209.3447,24.0
1606912209.3465,24.0
1606912209.3485,28.0
1606912209.3492,33.0
1606912209.3514,31.0
1606912209.3537,26.0
1606912209.3556,28.0
1606912209.3575,31.0
1606912209.3595,26.0
1606912209.3615,26.0
1606912209.3635,33.0
1606912209.3655,31.0
1606912209.3675,28.0
1606912209.3695,31.0
1606912209.3715,38.0
1606912209.3735,38.0
1606912209.3754,38.0
1606912209.3775,41.0
1606912209.3795,41.0
1606912209.3815,41.0
1606912209.3835,43.0
1606912209.3855,43.0
1606912209.3875,38.0
1606912209.3895,41.0
1606912209.3915,48.0
1606912209.3936,50.0
1606912209.3956,43.0
1606912209.3975,41.0
1606912209.3995,55.0
1606912209.7985,72.0
1606912209.7995,79.0
1606912209.802,74.0
1606912209.8049,69.0
1606912209.8066,72.0
1606912209.8086,72.0
1606912209.8107,57.0
1606912209.8125,38.0
1606912209.8145,33.0
1606912209.8165,26.0
1606912209.8186,4.0
1606912209.8205,4.0
1606912209.8225,19.0
1606912209.8245,16.0
1606912209.8266,9.0
1606912209.8286,12.0
1606912209.8305,24.0
1606912209.8325,24.0
1606912209.8345,2.0
1606912209.8365,-36.0
1606912209.8386,26.0
1606912209.8405,424.0
1606912209.8426,1105.0
1606912209.8446,1442.0
1606912209.8465,897.0
1606912209.8486,-31.0
1606912209.8505,-359.0
1606912209.8525,-115.0
1606912209.8546,-60.0
1606912209.8565,-176.0
1606912209.8586,-123.0
1606912209.8606,-62.0
1606912209.8625,-86.0
1606912209.8645,-79.0
1606912209.8665,-50.0
1606912209.8685,-48.0
1606912209.8705,-41.0
1606912209.8725,-26.0
1606912209.8745,-21.0
1606912209.8766,-12.0
1606912209.8785,0.0
1606912209.8805,9.0
1606912209.8825,19.0
1606912209.8845,33.0
1606912209.8865,53.0
1606912209.8885,67.0
1606912209.8905,84.0
1606912209.8926,108.0
1606912209.8945,135.0
1606912209.8965,149.0
1606912209.8985,156.0
1606912209.9005,161.0
1606912209.9025,156.0
1606912209.9045,142.0
1606912209.9067,120.0
1606912209.9086,86.0
1606912209.9106,48.0
1606912209.9125,14.0
1606912209.9145,-7.0
1606912209.9165,-24.0
1606912209.9185,-33.0
1606912209.9205,-38.0
1606912209.9225,-43.0
1606912209.9245,-43.0
1606912209.9266,-43.0
1606912209.9285,-43.0
1606912209.9305,-38.0
1606912209.9325,-31.0
1606912209.9345,-26.0
1606912209.9365,-21.0
1606912209.9385,-21.0
1606912209.9405,-14.0
1606912209.9426,-4.0
1606912210.3987,-4.0
1606912210.3996,-7.0
1606912210.402,-7.0
1606912210.4047,-16.0
1606912210.4067,-24.0
1606912210.4087,-19.0
1606912210.4107,-14.0
1606912210.4126,-12.0
1606912210.4146,-12.0
1606912210.4166,-12.0
1606912210.4187,-4.0
1606912210.4206,0.0
1606912210.4226,0.0
1606912210.4248,0.0
1606912210.4267,4.0
1606912210.4287,4.0
1606912210.4306,4.0
1606912210.4326,7.0
1606912210.4346,7.0
1606912210.4366,9.0
1606912210.4386,12.0
1606912210.4406,14.0
1606912210.4426,16.0
1606912210.4446,21.0
1606912210.4466,24.0
1606912210.4486,24.0
1606912210.4506,24.0
1606912210.4526,19.0
1606912210.4546,21.0
1606912210.4566,28.0
1606912210.4586,26.0
1606912210.4606,24.0
1606912210.4628,28.0
1606912210.4646,28.0
1606912210.4666,24.0
1606912210.4686,24.0
1606912210.4706,28.0
1606912210.4726,31.0
1606912210.4746,33.0
1606912210.4766,31.0
1606912210.4786,31.0
1606912210.4807,31.0
1606912210.4826,36.0
1606912210.4845,48.0
1606912210.4865,60.0
1606912210.4886,62.0
1606912210.4907,62.0
1606912210.4926,60.0
1606912210.4946,53.0
1606912210.4965,57.0
1606912210.4986,55.0
1606912210.5006,41.0
1606912210.5027,36.0
1606912210.5046,36.0
1606912210.5066,31.0
1606912210.5086,33.0
1606912210.5106,33.0
1606912210.5126,33.0
1606912210.5145,31.0
1606912210.5166,31.0
1606912210.5187,33.0
1606912210.5205,21.0
1606912210.5226,-26.0
1606912210.5247,-43.0
1606912210.5267,200.0
1606912210.5286,810.0
1606912210.5306,1389.0
1606912210.5325,1315.0
1606912210.5346,494.0
1606912210.5367,-248.0
1606912210.5387,-241.0
1606912210.5406,-50.0
1606912210.5426,-144.0
1606912210.9683,-176.0
1606912210.9692,-89.0
1606912210.9717,-94.0
1606912210.9744,-110.0
1606912210.9763,-72.0
1606912210.9784,-57.0
1606912210.9804,-57.0
1606912210.9823,-43.0
1606912210.9843,-38.0
1606912210.9863,-43.0
1606912210.9885,-36.0
1606912210.9903,-16.0
1606912210.9923,-9.0
1606912210.9943,-4.0
1606912210.9963,12.0
1606912210.9983,28.0
1606912211.0002,45.0
1606912211.0022,67.0
1606912211.0043,91.0
1606912211.0063,113.0
1606912211.0083,127.0
1606912211.0102,137.0
1606912211.0122,137.0
1606912211.0142,132.0
1606912211.0162,118.0
1606912211.0183,91.0
1606912211.0202,62.0
1606912211.0223,36.0
1606912211.0242,12.0
1606912211.0262,-7.0
1606912211.0283,-19.0
1606912211.0302,-26.0
1606912211.0322,-31.0
1606912211.0342,-26.0
1606912211.0362,-21.0
1606912211.0383,-21.0
1606912211.0403,-24.0
1606912211.0422,-21.0
1606912211.0442,-19.0
1606912211.0462,-14.0
1606912211.0483,-14.0
1606912211.0502,-12.0
1606912211.0523,-4.0
1606912211.0543,-2.0
1606912211.0563,-2.0
1606912211.0583,0.0
1606912211.0602,4.0
1606912211.0622,7.0
1606912211.0642,7.0
1606912211.0662,14.0
1606912211.0683,19.0
1606912211.0704,16.0
1606912211.0723,16.0
1606912211.0742,24.0
1606912211.0762,26.0
1606912211.0783,26.0
1606912211.0803,26.0
1606912211.0822,26.0
1606912211.0842,28.0
1606912211.0862,28.0
1606912211.0883,24.0
1606912211.0905,24.0
1606912211.0923,26.0
1606912211.0942,24.0
1606912211.0962,21.0
1606912211.0983,26.0
1606912211.1002,31.0
1606912211.1022,31.0
1606912211.1043,31.0
1606912211.1063,33.0
1606912211.1083,33.0
1606912211.1102,31.0
1606912211.1122,31.0
1606912211.5079,36.0
1606912211.5086,36.0
1606912211.5111,33.0
1606912211.5137,33.0
1606912211.5158,36.0
1606912211.5178,36.0
1606912211.5197,38.0
1606912211.5218,38.0
1606912211.5237,41.0
1606912211.5257,41.0
1606912211.5277,31.0
1606912211.5296,26.0
1606912211.5317,26.0
1606912211.5336,21.0
1606912211.5356,21.0
1606912211.5378,36.0
1606912211.5397,50.0
1606912211.5416,55.0
1606912211.5436,53.0
1606912211.5456,50.0
1606912211.5477,48.0
1606912211.5496,50.0
1606912211.5516,50.0
1606912211.5537,43.0
1606912211.5556,33.0
1606912211.5577,24.0
1606912211.5596,19.0
1606912211.5616,26.0
1606912211.5636,28.0
1606912211.5657,21.0
1606912211.5677,19.0
1606912211.5697,16.0
1606912211.5717,16.0
1606912211.5736,14.0
1606912211.5756,-9.0
1606912211.5777,-53.0
1606912211.5796,82.0
1606912211.5816,598.0
1606912211.5836,1249.0
1606912211.5859,1406.0
1606912211.5877,745.0
1606912211.5896,-98.0
1606912211.5916,-284.0
1606912211.5936,-69.0
1606912211.5956,-94.0
1606912211.5977,-180.0
1606912211.5996,-106.0
1606912211.6016,-79.0
1606912211.6038,-108.0
1606912211.6056,-82.0
1606912211.6077,-55.0
1606912211.6096,-55.0
1606912211.6116,-45.0
1606912211.6136,-33.0
1606912211.6156,-36.0
1606912211.6177,-31.0
1606912211.6197,-19.0
1606912211.6216,-12.0
1606912211.6236,0.0
1606912211.6256,14.0
1606912211.6277,28.0
1606912211.6296,41.0
1606912211.6316,62.0
1606912211.6336,89.0
1606912211.6356,108.0
1606912211.6378,123.0
1606912211.6396,135.0
1606912211.6416,135.0
1606912211.6436,127.0
1606912211.6456,120.0
1606912211.6477,103.0
1606912211.6496,77.0
1606912211.6517,43.0
1606912212.0786,16.0
1606912212.0796,0.0
1606912212.082,-12.0
1606912212.0847,-24.0
1606912212.0867,-28.0
1606912212.0887,-28.0
1606912212.0908,-33.0
1606912212.0926,-43.0
1606912212.0946,-48.0
1606912212.0966,-43.0
1606912212.0987,-38.0
1606912212.1007,-36.0
1606912212.1027,-28.0
1606912212.1046,-21.0
1606912212.1066,-19.0
1606912212.1086,-14.0
1606912212.1106,-9.0
1606912212.1127,-12.0
1606912212.1146,-12.0
1606912212.1165,-7.0
1606912212.1186,-4.0
1606912212.1205,0.0
1606912212.1226,4.0
1606912212.1246,7.0
1606912212.1266,4.0
1606912212.1286,7.0
1606912212.1305,9.0
1606912212.1325,14.0
1606912212.1346,19.0
1606912212.1366,24.0
1606912212.1387,24.0
1606912212.1406,21.0
1606912212.1425,21.0
1606912212.1445,21.0
1606912212.1465,21.0
1606912212.1486,21.0
1606912212.1506,24.0
1606912212.1526,24.0
1606912212.1545,24.0
1606912212.1565,26.0
1606912212.1586,28.0
1606912212.1605,28.0
1606912212.1626,26.0
1606912212.1645,24.0
1606912212.1666,28.0
1606912212.1687,31.0
1606912212.1706,28.0
1606912212.1726,28.0
1606912212.1746,28.0
1606912212.1765,24.0
1606912212.1786,21.0
1606912212.1805,24.0
1606912212.1825,26.0
1606912212.1846,28.0
1606912212.1866,28.0
1606912212.1886,26.0
1606912212.1905,24.0
1606912212.1925,26.0
1606912212.1945,26.0
1606912212.1965,31.0
1606912212.1986,38.0
1606912212.2006,48.0
1606912212.2026,55.0
1606912212.2046,65.0
1606912212.2065,65.0
1606912212.2086,55.0
1606912212.2106,43.0
1606912212.2125,45.0
1606912212.2147,45.0
1606912212.2166,31.0
1606912212.2186,16.0
1606912212.2206,9.0
1606912212.2226,12.0
1606912212.6183,19.0
1606912212.6191,24.0
1606912212.6215,24.0
1606912212.6242,21.0
1606912212.6261,19.0
1606912212.6282,19.0
1606912212.6302,9.0
1606912212.6322,-31.0
1606912212.6342,-28.0
1606912212.6361,255.0
1606912212.6382,895.0
1606912212.6401,1385.0
1606912212.6422,1100.0
1606912212.6441,207.0
1606912212.6461,-328.0
1606912212.6481,-166.0
1606912212.6502,-36.0
1606912212.6521,-156.0
1606912212.6541,-144.0
1606912212.6561,-72.0
1606912212.6581,-89.0
1606912212.6601,-86.0
1606912212.6621,-53.0
1606912212.6641,-50.0
1606912212.6662,-53.0
1606912212.6681,-36.0
1606912212.6701,-16.0
1606912212.6721,-12.0
1606912212.6741,-7.0
1606912212.6761,-2.0
1606912212.6781,7.0
1606912212.6801,19.0
1606912212.6822,33.0
1606912212.6841,53.0
1606912212.6861,72.0
1606912212.6882,91.0
1606912212.6901,115.0
1606912212.6921,137.0
1606912212.6941,142.0
1606912212.6961,142.0
1606912212.6982,149.0
1606912212.7002,144.0
1606912212.7021,120.0
1606912212.7041,94.0
1606912212.7061,65.0
1606912212.7081,33.0
1606912212.7103,4.0
1606912212.7122,-12.0
1606912212.7141,-24.0
1606912212.7162,-33.0
1606912212.7181,-38.0
1606912212.7201,-41.0
1606912212.7223,-45.0
1606912212.7242,-38.0
1606912212.7262,-28.0
1606912212.7281,-31.0
1606912212.7301,-31.0
1606912212.7322,-21.0
1606912212.7341,-16.0
1606912212.7361,-12.0
1606912212.7382,-7.0
1606912212.7401,-7.0
1606912212.7421,-7.0
1606912212.7441,-2.0
1606912212.7461,0.0
1606912212.7481,2.0
1606912212.7502,2.0
1606912212.7521,0.0
1606912212.7541,2.0
1606912212.7561,9.0
1606912212.7581,7.0
1606912212.7601,2.0
1606912212.7621,9.0
1606912213.1887,16.0
1606912213.1896,14.0
1606912213.1922,12.0
1606912213.1947,12.0
1606912213.1967,9.0
1606912213.1987,2.0
1606912213.2006,-2.0
1606912213.2026,4.0
1606912213.2046,12.0
1606912213.2066,7.0
1606912213.2087,0.0
1606912213.2106,4.0
1606912213.2126,12.0
1606912213.2148,14.0
1606912213.2166,12.0
1606912213.2186,12.0
1606912213.2206,12.0
1606912213.2226,7.0
1606912213.2246,12.0
1606912213.2266,19.0
1606912213.2286,19.0
1606912213.2307,12.0
1606912213.2326,9.0
1606912213.2346,9.0
1606912213.2367,14.0
1606912213.2387,14.0
1606912213.2406,16.0
1606912213.2426,19.0
1606912213.2446,16.0
1606912213.2466,12.0
1606912213.2487,24.0
1606912213.2506,43.0
1606912213.2526,45.0
1606912213.2546,36.0
1606912213.2566,28.0
1606912213.2586,31.0
1606912213.2606,31.0
1606912213.2627,24.0
1606912213.2646,14.0
1606912213.2666,9.0
1606912213.2686,4.0
1606912213.2706,0.0
1606912213.2726,2.0
1606912213.2746,7.0
1606912213.2766,4.0
1606912213.2786,7.0
1606912213.2807,9.0
1606912213.2826,9.0
1606912213.2846,7.0
1606912213.2866,-14.0
1606912213.2886,-53.0
1606912213.2906,94.0
1606912213.2989,632.0
1606912213.3006,1276.0
1606912213.3026,1322.0
1606912213.3047,545.0
1606912213.3066,-234.0
1606912213.3086,-284.0
1606912213.3106,-62.0
1606912213.3126,-118.0
1606912213.3147,-178.0
1606912213.3166,-91.0
1606912213.3186,-74.0
1606912213.3206,-103.0
1606912213.3226,-79.0
1606912213.3246,-55.0
1606912213.3266,-53.0
1606912213.3286,-43.0
1606912213.3306,-36.0
1606912213.3326,-31.0
1606912213.3346,-19.0
1606912213.3366,-12.0
1606912213.3386,-4.0
1606912213.7582,9.0
1606912213.7593,26.0
1606912213.7621,36.0
1606912213.7644,48.0
1606912213.7664,72.0
1606912213.7684,94.0
1606912213.7704,110.0
1606912213.7723,118.0
1606912213.7744,123.0
1606912213.7765,125.0
1606912213.7783,118.0
1606912213.7803,103.0
1606912213.7823,82.0
1606912213.7842,50.0
1606912213.7862,19.0
1606912213.7883,-4.0
1606912213.7902,-19.0
1606912213.7922,-36.0
1606912213.7944,-48.0
1606912213.7963,-48.0
1606912213.7983,-43.0
1606912213.8002,-45.0
1606912213.8022,-50.0
1606912213.8042,-48.0
1606912213.8063,-45.0
1606912213.8083,-45.0
1606912213.8102,-41.0
1606912213.8124,-36.0
1606912213.8143,-28.0
1606912213.8163,-24.0
1606912213.8183,-21.0
1606912213.8203,-16.0
1606912213.8223,-12.0
1606912213.8244,-9.0
1606912213.8262,-14.0
1606912213.8283,-14.0
1606912213.8303,-9.0
1606912213.8322,-7.0
1606912213.8342,-12.0
1606912213.8362,-12.0
1606912213.8383,-7.0
1606912213.8402,-4.0
1606912213.8423,0.0
1606912213.8443,0.0
1606912213.8463,-7.0
1606912213.8483,-9.0
1606912213.8502,-2.0
1606912213.8522,2.0
1606912213.8544,4.0
1606912213.8562,7.0
1606912213.8583,4.0
1606912213.8603,4.0
1606912213.8623,7.0
1606912213.8644,9.0
1606912213.8663,14.0
1606912213.8683,16.0
1606912213.8702,14.0
1606912213.8722,12.0
1606912213.8742,12.0
1606912213.8762,12.0
1606912213.8784,12.0
1606912213.8803,12.0
1606912213.8822,14.0
1606912213.8843,14.0
1606912213.8862,14.0
1606912213.8883,14.0
1606912213.8903,12.0
1606912213.8922,16.0
1606912213.8943,19.0
1606912213.8963,19.0
1606912213.8983,19.0
1606912213.9002,19.0
1606912213.9022,16.0
1606912214.3886,16.0
1606912214.3895,31.0
1606912214.391,48.0
1606912214.393,43.0
1606912214.395,36.0
1606912214.3969,36.0
1606912214.3989,33.0
1606912214.4009,26.0
1606912214.4028,14.0
1606912214.4049,4.0
1606912214.4068,4.0
1606912214.4089,-2.0
1606912214.4109,-9.0
1606912214.4128,-4.0
1606912214.4148,2.0
1606912214.4168,0.0
1606912214.4188,-4.0
1606912214.4208,-2.0
1606912214.4228,2.0
1606912214.4249,-12.0
1606912214.4269,-62.0
1606912214.4289,-43.0
1606912214.4308,277.0
1606912214.4328,921.0
1606912214.4348,1392.0
1606912214.4368,1129.0
1606912214.4388,260.0
1606912214.4408,-311.0
1606912214.4429,-183.0
1606912214.4449,-53.0
1606912214.4468,-176.0
1606912214.4491,-166.0
1606912214.4508,-86.0
1606912214.4528,-103.0
1606912214.4548,-108.0
1606912214.4568,-74.0
1606912214.4589,-67.0
1606912214.4609,-65.0
1606912214.4628,-48.0
1606912214.4648,-41.0
1606912214.4668,-38.0
1606912214.4688,-28.0
1606912214.4708,-19.0
1606912214.4716,-14.0
1606912214.4738,-4.0
1606912214.4759,12.0
1606912214.4779,28.0
1606912214.4798,45.0
1606912214.4818,67.0
1606912214.4838,89.0
1606912214.4858,106.0
1606912214.4878,118.0
1606912214.4898,123.0
1606912214.4918,120.0
1606912214.4939,113.0
1606912214.4958,101.0
1606912214.4979,79.0
1606912214.4999,53.0
1606912214.5018,24.0
1606912214.5025,4.0
1606912214.5048,-7.0
1606912214.5068,-21.0
1606912214.5091,-31.0
1606912214.5109,-36.0
1606912214.5128,-31.0
1606912214.5148,-31.0
1606912214.5168,-31.0
1606912214.5188,-31.0
1606912214.5208,-28.0
1606912214.5228,-24.0
1606912214.5248,-24.0
1606912214.5269,-21.0
1606912214.5288,-16.0
1606912214.8682,-14.0
1606912214.8689,-12.0
1606912214.8707,-7.0
1606912214.873,-4.0
1606912214.8751,-4.0
1606912214.877,-2.0
1606912214.879,-2.0
1606912214.8809,-4.0
1606912214.8829,-2.0
1606912214.8851,-2.0
1606912214.887,-4.0
1606912214.889,-7.0
1606912214.891,-4.0
1606912214.893,-12.0
1606912214.8949,-14.0
1606912214.8969,-7.0
1606912214.899,-12.0
1606912214.9009,-21.0
1606912214.9016,-16.0
1606912214.904,-7.0
1606912214.9059,-7.0
1606912214.9081,-9.0
1606912214.9099,-7.0
1606912214.9119,-2.0
1606912214.9139,0.0
1606912214.9159,0.0
1606912214.918,-2.0
1606912214.9199,0.0
1606912214.9219,2.0
1606912214.924,2.0
1606912214.926,4.0
1606912214.928,4.0
1606912214.9299,4.0
1606912214.9319,4.0
1606912214.9326,7.0
1606912214.9349,9.0
1606912214.9369,9.0
1606912214.939,7.0
1606912214.941,9.0
1606912214.9429,14.0
1606912214.9449,14.0
1606912214.9469,16.0
1606912214.949,28.0
1606912214.9509,43.0
1606912214.9529,50.0
1606912214.9549,53.0
1606912214.957,50.0
1606912214.959,41.0
1606912214.9609,38.0
1606912214.9629,36.0
1606912214.9636,26.0
1606912214.9659,19.0
1606912214.968,14.0
1606912214.9699,9.0
1606912214.9719,12.0
1606912214.9741,14.0
1606912214.976,14.0
1606912214.978,14.0
1606912214.9799,12.0
1606912214.9819,9.0
1606912214.9841,4.0
1606912214.986,-33.0
1606912214.988,-43.0
1606912214.99,202.0
1606912214.992,805.0
1606912214.9939,1353.0
1606912214.9946,1211.0
1606912214.9969,364.0
1606912214.999,-282.0
1606912215.0009,-205.0
1606912215.003,-41.0
1606912215.0049,-144.0
1606912215.007,-164.0
1606912215.4987,-79.0
1606912215.4996,-82.0
1606912215.5012,-96.0
1606912215.5032,-74.0
1606912215.5052,-67.0
1606912215.5072,-60.0
1606912215.508,-50.0
1606912215.51,-50.0
1606912215.512,-41.0
1606912215.514,-26.0
1606912215.516,-21.0
1606912215.5182,-16.0
1606912215.52,-4.0
1606912215.5221,14.0
1606912215.5241,28.0
1606912215.526,45.0
1606912215.528,69.0
1606912215.5301,89.0
1606912215.532,103.0
1606912215.534,120.0
1606912215.536,130.0
1606912215.5367,130.0
1606912215.5391,125.0
1606912215.541,110.0
1606912215.543,84.0
1606912215.545,53.0
1606912215.5471,26.0
1606912215.5491,0.0
1606912215.551,-19.0
1606912215.553,-28.0
1606912215.5551,-38.0
1606912215.557,-43.0
1606912215.559,-41.0
1606912215.561,-41.0
1606912215.563,-43.0
1606912215.565,-41.0
1606912215.567,-36.0
1606912215.5678,-31.0
1606912215.5704,-26.0
1606912215.5721,-21.0
1606912215.5741,-16.0
1606912215.576,-16.0
1606912215.5781,-14.0
1606912215.58,-9.0
1606912215.582,-7.0
1606912215.584,-2.0
1606912215.586,0.0
1606912215.5881,-4.0
1606912215.5901,0.0
1606912215.592,7.0
1606912215.594,7.0
1606912215.596,7.0
1606912215.5981,7.0
1606912215.5987,4.0
1606912215.601,7.0
1606912215.603,12.0
1606912215.6051,12.0
1606912215.6071,12.0
1606912215.609,16.0
1606912215.611,14.0
1606912215.613,9.0
1606912215.615,12.0
1606912215.6171,19.0
1606912215.6191,19.0
1606912215.6211,19.0
1606912215.6231,16.0
1606912215.625,16.0
1606912215.627,19.0
1606912215.629,19.0
1606912215.6297,12.0
1606912215.632,12.0
1606912215.634,16.0
1606912215.636,16.0
1606912215.9784,19.0
1606912215.9792,19.0
1606912215.9816,21.0
1606912215.9843,16.0
1606912215.9863,16.0
1606912215.9883,31.0
1606912215.9903,48.0
1606912215.9922,55.0
1606912215.9942,48.0
1606912215.9962,41.0
1606912215.9982,36.0
1606912216.0002,28.0
1606912216.0009,16.0
1606912216.0033,12.0
1606912216.0052,9.0
1606912216.0072,-7.0
1606912216.0094,-12.0
1606912216.0113,-4.0
1606912216.0133,-2.0
1606912216.0152,-9.0
1606912216.0172,-9.0
1606912216.0192,-4.0
1606912216.0214,-7.0
1606912216.0233,-26.0
1606912216.0252,-60.0
1606912216.0272,-2.0
1606912216.0292,393.0
1606912216.0312,1071.0
1606912216.0332,1375.0
1606912216.0352,801.0
1606912216.0373,-96.0
1606912216.0392,-374.0
1606912216.0412,-125.0
1606912216.0432,-77.0
1606912216.0452,-188.0
1606912216.0472,-130.0
1606912216.0492,-72.0
1606912216.0512,-98.0
1606912216.0532,-89.0
1606912216.0552,-60.0
1606912216.0572,-57.0
1606912216.0592,-55.0
1606912216.0612,-36.0
1606912216.0632,-28.0
1606912216.0652,-26.0
1606912216.0672,-14.0
1606912216.0692,-2.0
1606912216.0713,7.0
1606912216.0732,21.0
1606912216.0752,41.0
1606912216.0772,55.0
1606912216.0792,72.0
1606912216.0812,96.0
1606912216.0832,123.0
1606912216.0852,139.0
1606912216.0873,147.0
1606912216.0892,149.0
1606912216.0912,144.0
1606912216.0932,130.0
1606912216.0952,106.0
1606912216.0972,77.0
1606912216.0992,41.0
1606912216.1012,4.0
1606912216.1032,-19.0
1606912216.1052,-36.0
1606912216.1072,-50.0
1606912216.1092,-57.0
1606912216.1113,-53.0
1606912216.1132,-55.0
1606912216.1152,-60.0
1606912216.1172,-55.0
1606912216.1192,-50.0
1606912216.1212,-50.0
1606912216.5786,-48.0
1606912216.5795,-38.0
1606912216.582,-33.0
1606912216.5847,-31.0
1606912216.5867,-31.0
1606912216.5888,-33.0
1606912216.5907,-24.0
1606912216.5926,-19.0
1606912216.5946,-24.0
1606912216.5966,-21.0
1606912216.5987,-16.0
1606912216.6006,-19.0
1606912216.6027,-16.0
1606912216.6046,-12.0
1606912216.6066,-12.0
1606912216.6086,-12.0
1606912216.6106,-12.0
1606912216.6126,-12.0
1606912216.6146,-4.0
1606912216.6166,-2.0
1606912216.6187,-4.0
1606912216.6206,-7.0
1606912216.6226,-4.0
1606912216.6245,-2.0
1606912216.6266,0.0
1606912216.6286,4.0
1606912216.6305,4.0
1606912216.6325,2.0
1606912216.6346,2.0
1606912216.6366,2.0
1606912216.6386,4.0
1606912216.6405,4.0
1606912216.6426,2.0
1606912216.6445,0.0
1606912216.6465,0.0
1606912216.6486,0.0
1606912216.6506,2.0
1606912216.6526,2.0
1606912216.6545,4.0
1606912216.6565,4.0
1606912216.6585,4.0
1606912216.6605,9.0
1606912216.6625,26.0
1606912216.6645,41.0
1606912216.6666,41.0
1606912216.6688,41.0
1606912216.6706,38.0
1606912216.6725,28.0
1606912216.6745,28.0
1606912216.6765,28.0
1606912216.6786,19.0
1606912216.6805,7.0
1606912216.6825,0.0
1606912216.6846,0.0
1606912216.6865,2.0
1606912216.6886,0.0
1606912216.6905,0.0
1606912216.6925,4.0
1606912216.6945,4.0
1606912216.6965,0.0
1606912216.6985,-19.0
1606912216.7006,-62.0
1606912216.7026,-2.0
1606912216.7045,395.0
1606912216.7065,1059.0
1606912216.7085,1413.0
1606912216.7105,965.0
1606912216.7125,69.0
1606912216.7145,-335.0
1606912216.7165,-142.0
1606912216.7186,-84.0
1606912216.7207,-209.0
1606912216.7225,-161.0
1606912217.1781,-98.0
1606912217.179,-123.0
1606912217.1815,-113.0
1606912217.1842,-79.0
1606912217.1861,-77.0
1606912217.1882,-79.0
1606912217.1902,-69.0
1606912217.1923,-62.0
1606912217.1942,-55.0
1606912217.1961,-53.0
1606912217.1982,-53.0
1606912217.2002,-45.0
1606912217.2022,-28.0
1606912217.2041,-14.0
1606912217.2061,4.0
1606912217.2081,24.0
1606912217.2101,45.0
1606912217.2121,65.0
1606912217.2142,84.0
1606912217.2162,101.0
1606912217.2181,103.0
1606912217.2201,98.0
1606912217.2221,91.0
1606912217.2243,74.0
1606912217.2261,48.0
1606912217.2281,21.0
1606912217.23,-4.0
1606912217.2321,-24.0
1606912217.2341,-33.0
1606912217.236,-45.0
1606912217.2381,-50.0
1606912217.24,-50.0
1606912217.242,-48.0
1606912217.244,-45.0
1606912217.246,-43.0
1606912217.248,-38.0
1606912217.2501,-36.0
1606912217.252,-36.0
1606912217.2541,-33.0
1606912217.256,-28.0
1606912217.258,-26.0
1606912217.26,-24.0
1606912217.262,-19.0
1606912217.264,-14.0
1606912217.2661,-12.0
1606912217.2681,-14.0
1606912217.27,-9.0
1606912217.272,-7.0
1606912217.274,-12.0
1606912217.276,-12.0
1606912217.2781,-7.0
1606912217.28,-4.0
1606912217.2821,-2.0
1606912217.2841,0.0
1606912217.286,-2.0
1606912217.288,-2.0
1606912217.29,0.0
1606912217.292,0.0
1606912217.294,2.0
1606912217.296,4.0
1606912217.2981,4.0
1606912217.3001,4.0
1606912217.302,7.0
1606912217.3041,9.0
1606912217.306,9.0
1606912217.308,9.0
1606912217.31,14.0
1606912217.312,16.0
1606912217.314,14.0
1606912217.3161,12.0
1606912217.3181,12.0
1606912217.32,16.0
1606912217.322,19.0
1606912217.6886,19.0
1606912217.6897,19.0
1606912217.692,19.0
1606912217.6946,21.0
1606912217.6966,21.0
1606912217.6986,16.0
1606912217.7006,19.0
1606912217.7025,36.0
1606912217.7045,55.0
1606912217.7065,57.0
1606912217.7085,50.0
1606912217.7105,43.0
1606912217.7126,36.0
1606912217.7146,31.0
1606912217.7165,21.0
1606912217.7187,4.0
1606912217.7205,0.0
1606912217.7226,-2.0
1606912217.7246,-4.0
1606912217.7265,-2.0
1606912217.7286,0.0
1606912217.7306,-2.0
1606912217.7325,-2.0
1606912217.7345,4.0
1606912217.7365,9.0
1606912217.7385,-9.0
1606912217.7405,-60.0
1606912217.7425,-9.0
1606912217.7445,366.0
1606912217.7466,1023.0
1606912217.7486,1404.0
1606912217.7505,991.0
1606912217.7525,108.0
1606912217.7545,-320.0
1606912217.7565,-139.0
1606912217.7585,-67.0
1606912217.7605,-190.0
1606912217.7626,-152.0
1606912217.7646,-89.0
1606912217.7665,-115.0
1606912217.7685,-108.0
1606912217.7705,-82.0
1606912217.7725,-79.0
1606912217.7745,-69.0
1606912217.7765,-53.0
1606912217.7785,-50.0
1606912217.7806,-50.0
1606912217.7825,-38.0
1606912217.7845,-28.0
1606912217.7865,-19.0
1606912217.7885,-4.0
1606912217.7904,12.0
1606912217.7927,26.0
1606912217.7945,45.0
1606912217.7966,69.0
1606912217.7986,96.0
1606912217.8005,115.0
1606912217.8025,123.0
1606912217.8045,125.0
1606912217.8065,125.0
1606912217.8085,118.0
1606912217.8105,98.0
1606912217.8125,72.0
1606912217.8146,43.0
1606912217.8165,12.0
1606912217.8185,-9.0
1606912217.8205,-26.0
1606912217.8225,-36.0
1606912217.8245,-43.0
1606912217.8265,-45.0
1606912217.8285,-45.0
1606912217.8306,-43.0
1606912217.8325,-38.0
1606912218.2586,-45.0
1606912218.2596,-45.0
1606912218.2621,-33.0
1606912218.2647,-24.0
1606912218.2667,-31.0
1606912218.2687,-31.0
1606912218.2709,-24.0
1606912218.2727,-21.0
1606912218.2746,-26.0
1606912218.2766,-26.0
1606912218.2787,-19.0
1606912218.2806,-19.0
1606912218.2826,-19.0
1606912218.2846,-4.0
1606912218.2866,-4.0
1606912218.2886,-12.0
1606912218.2906,-7.0
1606912218.2926,-2.0
1606912218.2946,0.0
1606912218.2966,4.0
1606912218.2986,4.0
1606912218.3005,0.0
1606912218.3025,4.0
1606912218.3046,12.0
1606912218.3067,12.0
1606912218.3085,14.0
1606912218.3106,12.0
1606912218.3126,14.0
1606912218.3146,16.0
1606912218.3166,14.0
1606912218.3187,14.0
1606912218.3206,19.0
1606912218.3226,19.0
1606912218.3245,14.0
1606912218.3265,9.0
1606912218.3286,14.0
1606912218.3305,21.0
1606912218.3325,19.0
1606912218.3345,12.0
1606912218.3365,14.0
1606912218.3385,19.0
1606912218.3405,24.0
1606912218.3425,38.0
1606912218.3447,50.0
1606912218.3466,50.0
1606912218.3486,57.0
1606912218.3505,55.0
1606912218.3526,45.0
1606912218.3546,43.0
1606912218.3565,41.0
1606912218.3585,31.0
1606912218.3605,21.0
1606912218.3626,21.0
1606912218.3645,21.0
1606912218.3665,16.0
1606912218.3686,19.0
1606912218.3705,21.0
1606912218.3725,24.0
1606912218.3745,26.0
1606912218.3765,19.0
1606912218.3787,-2.0
1606912218.3805,-33.0
1606912218.3825,43.0
1606912218.3845,468.0
1606912218.3865,1153.0
1606912218.3885,1411.0
1606912218.3905,760.0
1606912218.3925,-147.0
1606912218.3947,-364.0
1606912218.3966,-96.0
1606912218.3987,-77.0
1606912218.4006,-180.0
1606912218.4025,-113.0
1606912218.7981,-69.0
1606912218.7991,-101.0
1606912218.8016,-79.0
1606912218.8043,-48.0
1606912218.8062,-53.0
1606912218.8081,-57.0
1606912218.8102,-43.0
1606912218.8122,-26.0
1606912218.8143,-14.0
1606912218.8162,-12.0
1606912218.8181,-7.0
1606912218.8201,9.0
1606912218.8221,21.0
1606912218.8241,33.0
1606912218.8262,57.0
1606912218.8282,84.0
1606912218.8301,103.0
1606912218.8321,123.0
1606912218.8341,144.0
1606912218.8361,156.0
1606912218.8381,156.0
1606912218.8401,152.0
1606912218.8422,135.0
1606912218.8441,103.0
1606912218.8461,74.0
1606912218.8481,43.0
1606912218.8501,2.0
1606912218.8521,-31.0
1606912218.8541,-57.0
1606912218.8561,-77.0
1606912218.8581,-79.0
1606912218.8602,-72.0
1606912218.8621,-77.0
1606912218.8641,-82.0
1606912218.8661,-74.0
1606912218.8681,-72.0
1606912218.8701,-72.0
1606912218.8721,-53.0
1606912218.8741,-43.0
1606912218.8762,-48.0
1606912218.8782,-45.0
1606912218.8801,-31.0
1606912218.8821,-26.0
1606912218.8841,-21.0
1606912218.8861,-12.0
1606912218.8881,-7.0
1606912218.8901,-7.0
1606912218.8921,-7.0
1606912218.8942,-7.0
1606912218.8961,2.0
1606912218.8981,2.0
1606912218.9001,-4.0
1606912218.9021,-7.0
1606912218.9042,-4.0
1606912218.9061,-2.0
1606912218.9081,-4.0
1606912218.9102,-2.0
1606912218.9121,0.0
1606912218.9141,0.0
1606912218.9162,0.0
1606912218.9182,2.0
1606912218.9201,0.0
1606912218.9221,0.0
1606912218.9241,4.0
1606912218.9262,7.0
1606912218.9282,4.0
1606912218.9301,2.0
1606912218.9321,4.0
1606912218.9341,9.0
1606912218.9361,9.0
1606912218.9381,9.0
1606912218.9401,12.0
1606912218.9422,16.0
1606912219.3377,14.0
1606912219.3384,12.0
1606912219.3395,19.0
1606912219.3416,33.0
1606912219.3435,48.0
1606912219.3455,50.0
1606912219.3476,38.0
1606912219.3497,26.0
1606912219.3516,26.0
1606912219.3535,31.0
1606912219.3555,24.0
1606912219.3575,16.0
1606912219.3595,12.0
1606912219.3615,4.0
1606912219.3634,4.0
1606912219.3654,7.0
1606912219.3675,7.0
1606912219.3694,7.0
1606912219.3714,4.0
1606912219.3735,2.0
1606912219.3755,-2.0
1606912219.3775,-16.0
1606912219.3794,-60.0
1606912219.3814,-24.0
1606912219.3834,352.0
1606912219.3854,1059.0
1606912219.3875,1469.0
1606912219.3895,986.0
1606912219.3915,24.0
1606912219.3934,-386.0
1606912219.3954,-152.0
1606912219.3975,-72.0
1606912219.3994,-197.0
1606912219.4014,-152.0
1606912219.4034,-86.0
1606912219.4054,-118.0
1606912219.4076,-106.0
1606912219.4097,-67.0
1606912219.4115,-72.0
1606912219.4134,-79.0
1606912219.4154,-62.0
1606912219.4175,-50.0
1606912219.4194,-41.0
1606912219.4215,-33.0
1606912219.4235,-28.0
1606912219.4255,-16.0
1606912219.4275,0.0
1606912219.4295,16.0
1606912219.4314,33.0
1606912219.4334,53.0
1606912219.4354,74.0
1606912219.4375,94.0
1606912219.4394,110.0
1606912219.4415,127.0
1606912219.4434,132.0
1606912219.4454,127.0
1606912219.4475,118.0
1606912219.4494,96.0
1606912219.4514,65.0
1606912219.4534,33.0
1606912219.4554,7.0
1606912219.4577,-19.0
1606912219.4595,-41.0
1606912219.4614,-50.0
1606912219.4634,-55.0
1606912219.4654,-60.0
1606912219.4675,-60.0
1606912219.4694,-55.0
1606912219.4714,-53.0
1606912219.4735,-55.0
1606912219.4755,-53.0
1606912219.4776,-48.0
1606912219.4794,-43.0
1606912219.9392,-41.0
1606912219.9402,-36.0
1606912219.9427,-28.0
1606912219.9453,-28.0
1606912219.9473,-36.0
1606912219.9492,-36.0
1606912219.9513,-24.0
1606912219.9532,-21.0
1606912219.9553,-21.0
1606912219.9573,-19.0
1606912219.9592,-21.0
1606912219.9612,-24.0
1606912219.9632,-24.0
1606912219.9652,-21.0
1606912219.9672,-21.0
1606912219.9694,-21.0
1606912219.9713,-16.0
1606912219.9733,-12.0
1606912219.9752,-9.0
1606912219.9772,-9.0
1606912219.9792,-7.0
1606912219.9812,-4.0
1606912219.9832,-7.0
1606912219.9852,-2.0
1606912219.9872,0.0
1606912219.9893,2.0
1606912219.9912,0.0
1606912219.9931,2.0
1606912219.9953,2.0
1606912219.9972,4.0
1606912219.9992,7.0
1606912220.0012,7.0
1606912220.0032,4.0
1606912220.0053,9.0
1606912220.0072,7.0
1606912220.0092,2.0
1606912220.0112,4.0
1606912220.0132,14.0
1606912220.0152,28.0
1606912220.0172,36.0
1606912220.0192,38.0
1606912220.0212,41.0
1606912220.0233,36.0
1606912220.0252,28.0
1606912220.0272,33.0
1606912220.0292,33.0
1606912220.0312,19.0
1606912220.0332,9.0
1606912220.0352,12.0
1606912220.0372,9.0
1606912220.0392,12.0
1606912220.0412,12.0
1606912220.0432,12.0
1606912220.0452,14.0
1606912220.0472,14.0
1606912220.0492,12.0
1606912220.0512,-2.0
1606912220.0532,-55.0
1606912220.0553,-2.0
1606912220.0572,402.0
1606912220.0592,1080.0
1606912220.0612,1467.0
1606912220.0632,1056.0
1606912220.0652,139.0
1606912220.0672,-325.0
1606912220.0692,-144.0
1606912220.0714,-69.0
1606912220.0733,-197.0
1606912220.0752,-156.0
1606912220.0772,-89.0
1606912220.0792,-118.0
1606912220.0812,-110.0
1606912220.0832,-74.0
1606912220.5082,-74.0
1606912220.5091,-77.0
1606912220.5116,-65.0
1606912220.5142,-60.0
1606912220.5162,-62.0
1606912220.5182,-55.0
1606912220.5202,-45.0
1606912220.5222,-36.0
1606912220.5241,-26.0
1606912220.5261,-26.0
1606912220.5281,-12.0
1606912220.5301,16.0
1606912220.5321,38.0
1606912220.5341,57.0
1606912220.5361,79.0
1606912220.5382,96.0
1606912220.5402,101.0
1606912220.5421,98.0
1606912220.5441,91.0
1606912220.5461,74.0
1606912220.5481,45.0
1606912220.5501,14.0
1606912220.5521,-7.0
1606912220.5542,-21.0
1606912220.5561,-38.0
1606912220.5581,-53.0
1606912220.5601,-55.0
1606912220.5621,-53.0
1606912220.5641,-53.0
1606912220.5661,-50.0
1606912220.5681,-50.0
1606912220.5702,-48.0
1606912220.5721,-48.0
1606912220.5741,-53.0
1606912220.5761,-50.0
1606912220.5781,-43.0
1606912220.5801,-41.0
1606912220.5821,-38.0
1606912220.5841,-26.0
1606912220.5861,-24.0
1606912220.5882,-28.0
1606912220.5901,-24.0
1606912220.5921,-14.0
1606912220.5941,-9.0
1606912220.5963,-7.0
1606912220.5982,-12.0
1606912220.6001,-4.0
1606912220.6021,9.0
1606912220.6042,12.0
1606912220.6061,7.0
1606912220.6081,9.0
1606912220.61,12.0
1606912220.6121,7.0
1606912220.6141,9.0
1606912220.6161,16.0
1606912220.6181,16.0
1606912220.6202,14.0
1606912220.6221,14.0
1606912220.6241,16.0
1606912220.6261,14.0
1606912220.6281,14.0
1606912220.6301,21.0
1606912220.6321,21.0
1606912220.6341,21.0
1606912220.6362,21.0
1606912220.6381,19.0
1606912220.6401,14.0
1606912220.6421,19.0
1606912220.6441,21.0
1606912220.6461,19.0
1606912220.6481,21.0
1606912220.6501,16.0
1606912220.6523,9.0
1606912221.0486,16.0
1606912221.0496,36.0
1606912221.0521,48.0
1606912221.0548,50.0
1606912221.0567,53.0
1606912221.0586,48.0
1606912221.0606,38.0
1606912221.0626,41.0
1606912221.0646,43.0
1606912221.0666,31.0
1606912221.0673,12.0
1606912221.0696,0.0
1606912221.0715,7.0
1606912221.0735,16.0
1606912221.0756,14.0
1606912221.0777,7.0
1606912221.0795,9.0
1606912221.0815,19.0
1606912221.0835,19.0
1606912221.0856,-4.0
1606912221.0876,-48.0
1606912221.0895,-2.0
1606912221.0917,371.0
1606912221.0936,1059.0
1606912221.0955,1474.0
1606912221.0976,1025.0
1606912221.0982,77.0
1606912221.0995,-364.0
1606912221.1017,-154.0
1606912221.1036,-67.0
1606912221.1056,-190.0
1606912221.1077,-147.0
1606912221.1096,-84.0
1606912221.1116,-115.0
1606912221.1135,-103.0
1606912221.1155,-60.0
1606912221.1176,-55.0
1606912221.1196,-57.0
1606912221.1216,-45.0
1606912221.1236,-38.0
1606912221.1255,-36.0
1606912221.1276,-26.0
1606912221.1282,-14.0
1606912221.1295,0.0
1606912221.1315,14.0
1606912221.1335,26.0
1606912221.1357,36.0
1606912221.1376,62.0
1606912221.1395,96.0
1606912221.1415,115.0
1606912221.1436,130.0
1606912221.1455,152.0
1606912221.1476,156.0
1606912221.1495,147.0
1606912221.1516,137.0
1606912221.1535,120.0
1606912221.1556,82.0
1606912221.1576,36.0
1606912221.1582,7.0
1606912221.1606,-14.0
1606912221.1625,-36.0
1606912221.1645,-53.0
1606912221.1666,-62.0
1606912221.1686,-65.0
1606912221.1705,-69.0
1606912221.1726,-72.0
1606912221.1745,-67.0
1606912221.1765,-57.0
1606912221.1787,-60.0
1606912221.1806,-72.0
1606912221.1826,-67.0
1606912221.1846,-43.0
1606912221.1866,-38.0
1606912221.619,-45.0
1606912221.6204,-38.0
1606912221.6229,-26.0
1606912221.6256,-19.0
1606912221.6276,-12.0
1606912221.6295,-7.0
1606912221.6317,-7.0
1606912221.6335,-12.0
1606912221.6355,-19.0
1606912221.6376,-16.0
1606912221.6394,-4.0
1606912221.6413,-4.0
1606912221.6434,-4.0
1606912221.6453,0.0
1606912221.6461,-4.0
1606912221.6484,-12.0
1606912221.6505,-4.0
1606912221.6523,0.0
1606912221.6543,-7.0
1606912221.6563,-9.0
1606912221.6583,-2.0
1606912221.6603,2.0
1606912221.6623,2.0
1606912221.6643,9.0
1606912221.6664,14.0
1606912221.6684,9.0
1606912221.6703,9.0
1606912221.6723,14.0
1606912221.6743,14.0
1606912221.6763,9.0
1606912221.677,9.0
1606912221.6793,14.0
1606912221.6814,16.0
1606912221.6834,12.0
1606912221.6853,12.0
1606912221.6873,16.0
1606912221.6893,36.0
1606912221.6913,57.0
1606912221.6933,55.0
1606912221.6954,50.0
1606912221.6975,48.0
1606912221.6994,41.0
1606912221.7013,36.0
1606912221.7033,38.0
1606912221.7053,31.0
1606912221.7073,19.0
1606912221.708,14.0
1606912221.7093,14.0
1606912221.7113,9.0
1606912221.7133,9.0
1606912221.7154,19.0
1606912221.7176,16.0
1606912221.7194,9.0
1606912221.7213,14.0
1606912221.7233,16.0
1606912221.7254,-16.0
1606912221.7273,-53.0
1606912221.7293,113.0
1606912221.7313,692.0
1606912221.7334,1372.0
1606912221.7353,1380.0
1606912221.7373,509.0
1606912221.738,-304.0
1606912221.7393,-308.0
1606912221.7413,-57.0
1606912221.7433,-127.0
1606912221.7453,-193.0
1606912221.7474,-101.0
1606912221.7494,-86.0
1606912221.7514,-118.0
1606912221.7534,-84.0
1606912221.7553,-48.0
1606912221.7574,-53.0
1606912222.1586,-55.0
1606912222.1596,-41.0
1606912222.162,-31.0
1606912222.1648,-24.0
1606912222.1658,-14.0
1606912222.1678,-7.0
1606912222.1696,-2.0
1606912222.1717,9.0
1606912222.1736,24.0
1606912222.1756,38.0
1606912222.1776,60.0
1606912222.1797,94.0
1606912222.1817,118.0
1606912222.1836,135.0
1606912222.1856,149.0
1606912222.1876,149.0
1606912222.1895,137.0
1606912222.1915,120.0
1606912222.1935,94.0
1606912222.1956,55.0
1606912222.1963,16.0
1606912222.1987,-12.0
1606912222.2005,-31.0
1606912222.2025,-50.0
1606912222.2045,-67.0
1606912222.2066,-67.0
1606912222.2086,-62.0
1606912222.2105,-65.0
1606912222.2125,-69.0
1606912222.2148,-65.0
1606912222.2166,-65.0
1606912222.2186,-65.0
1606912222.2206,-57.0
1606912222.2226,-50.0
1606912222.2246,-43.0
1606912222.2265,-38.0
1606912222.2273,-33.0
1606912222.2296,-28.0
1606912222.2317,-24.0
1606912222.2336,-24.0
1606912222.2355,-19.0
1606912222.2376,-19.0
1606912222.2396,-14.0
1606912222.2416,-9.0
1606912222.2435,-9.0
1606912222.2455,-7.0
1606912222.2477,-2.0
1606912222.2496,-2.0
1606912222.2515,-7.0
1606912222.2535,-9.0
1606912222.2556,-14.0
1606912222.2563,-19.0
1606912222.2586,-16.0
1606912222.2605,-7.0
1606912222.2626,-4.0
1606912222.2646,-9.0
1606912222.2665,-7.0
1606912222.2686,0.0
1606912222.2706,-2.0
1606912222.2726,-2.0
1606912222.2746,-2.0
1606912222.2765,0.0
1606912222.2786,0.0
1606912222.2807,-2.0
1606912222.2826,0.0
1606912222.2845,4.0
1606912222.2865,4.0
1606912222.2885,0.0
1606912222.2905,0.0
1606912222.2925,2.0
1606912222.2945,-2.0
1606912222.2966,-7.0
1606912222.2986,-2.0
1606912222.7292,4.0
1606912222.7303,2.0
1606912222.7328,-2.0
1606912222.7353,-2.0
1606912222.7373,-2.0
1606912222.7393,4.0
1606912222.7415,16.0
1606912222.7436,21.0
1606912222.7455,21.0
1606912222.7473,24.0
1606912222.7493,19.0
1606912222.7513,14.0
1606912222.7533,16.0
1606912222.7553,12.0
1606912222.7573,4.0
1606912222.7592,0.0
1606912222.7614,-7.0
1606912222.7634,-7.0
1606912222.7653,0.0
1606912222.7673,0.0
1606912222.7692,-4.0
1606912222.7712,-2.0
1606912222.7732,-2.0
1606912222.7752,-4.0
1606912222.7774,-19.0
1606912222.7793,-67.0
1606912222.7812,-72.0
1606912222.7832,214.0
1606912222.7852,866.0
1606912222.7872,1435.0
1606912222.7893,1312.0
1606912222.7913,441.0
1606912222.7932,-299.0
1606912222.7953,-253.0
1606912222.7973,-77.0
1606912222.7992,-202.0
1606912222.8012,-226.0
1606912222.8032,-137.0
1606912222.8052,-147.0
1606912222.8072,-154.0
1606912222.8092,-118.0
1606912222.8113,-110.0
1606912222.8133,-118.0
1606912222.8152,-106.0
1606912222.8172,-94.0
1606912222.8192,-86.0
1606912222.8212,-82.0
1606912222.8232,-72.0
1606912222.8252,-62.0
1606912222.8272,-53.0
1606912222.8293,-41.0
1606912222.8312,-24.0
1606912222.8332,-4.0
1606912222.8352,14.0
1606912222.8372,41.0
1606912222.8392,67.0
1606912222.8413,84.0
1606912222.8432,94.0
1606912222.8455,98.0
1606912222.8474,96.0
1606912222.8492,82.0
1606912222.8512,55.0
1606912222.8532,24.0
1606912222.8552,-4.0
1606912222.8572,-28.0
1606912222.8592,-48.0
1606912222.8613,-62.0
1606912222.8633,-69.0
1606912222.8652,-74.0
1606912222.8672,-74.0
1606912222.8693,-72.0
1606912222.8713,-72.0
1606912222.8732,-72.0
1606912223.2688,-65.0
1606912223.2697,-60.0
1606912223.2722,-65.0
1606912223.2748,-67.0
1606912223.2769,-62.0
1606912223.2789,-57.0
1606912223.2809,-60.0
1606912223.2828,-62.0
1606912223.2848,-60.0
1606912223.2868,-53.0
1606912223.2887,-53.0
1606912223.2907,-50.0
1606912223.2928,-43.0
1606912223.2948,-36.0
1606912223.2968,-28.0
1606912223.2988,-28.0
1606912223.3008,-28.0
1606912223.3027,-24.0
1606912223.3048,-21.0
1606912223.3069,-24.0
1606912223.3089,-19.0
1606912223.3108,-19.0
1606912223.3127,-19.0
1606912223.3147,-21.0
1606912223.3167,-21.0
1606912223.3187,-16.0
1606912223.3207,-12.0
1606912223.3227,-12.0
1606912223.3247,-16.0
1606912223.3268,-12.0
1606912223.3287,-9.0
1606912223.3307,-9.0
1606912223.3327,-7.0
1606912223.3347,-4.0
1606912223.3367,-7.0
1606912223.3387,-7.0
1606912223.3409,-12.0
1606912223.3427,-16.0
1606912223.3447,-14.0
1606912223.3467,-12.0
1606912223.3487,-7.0
1606912223.3507,-2.0
1606912223.3527,-2.0
1606912223.3547,-2.0
1606912223.3567,0.0
1606912223.3587,0.0
1606912223.3608,-2.0
1606912223.3627,0.0
1606912223.3647,4.0
1606912223.3667,2.0
1606912223.3687,-2.0
1606912223.3707,-2.0
1606912223.3727,9.0
1606912223.3747,24.0
1606912223.3768,28.0
1606912223.3787,26.0
1606912223.3807,31.0
1606912223.3827,26.0
1606912223.3847,19.0
1606912223.3867,24.0
1606912223.3887,24.0
1606912223.3907,12.0
1606912223.3928,2.0
1606912223.3947,-2.0
1606912223.3967,-7.0
1606912223.3987,0.0
1606912223.4007,7.0
1606912223.4027,2.0
1606912223.4047,0.0
1606912223.4067,2.0
1606912223.4088,4.0
1606912223.4107,0.0
1606912223.4127,-38.0
1606912223.8687,-82.0
1606912223.8696,69.0
1606912223.8721,593.0
1606912223.8749,1252.0
1606912223.8768,1430.0
1606912223.8787,764.0
1606912223.8809,-125.0
1606912223.8827,-335.0
1606912223.8847,-110.0
1606912223.8867,-139.0
1606912223.8887,-231.0
1606912223.8907,-156.0
1606912223.8928,-125.0
1606912223.8947,-147.0
1606912223.8969,-120.0
1606912223.8987,-98.0
1606912223.9007,-103.0
1606912223.9027,-86.0
1606912223.9047,-65.0
1606912223.9066,-62.0
1606912223.9087,-60.0
1606912223.9108,-45.0
1606912223.9127,-33.0
1606912223.9146,-26.0
1606912223.9167,-14.0
1606912223.9187,4.0
1606912223.9207,24.0
1606912223.9227,41.0
1606912223.9248,55.0
1606912223.9267,79.0
1606912223.9287,108.0
1606912223.9307,123.0
1606912223.9327,127.0
1606912223.9346,132.0
1606912223.9367,125.0
1606912223.9386,98.0
1606912223.9408,69.0
1606912223.9427,43.0
1606912223.9447,12.0
1606912223.9467,-16.0
1606912223.9486,-36.0
1606912223.9506,-48.0
1606912223.9526,-53.0
1606912223.9546,-55.0
1606912223.9566,-55.0
1606912223.9587,-48.0
1606912223.9606,-41.0
1606912223.9626,-48.0
1606912223.9646,-43.0
1606912223.9666,-36.0
1606912223.9687,-38.0
1606912223.9706,-43.0
1606912223.9727,-36.0
1606912223.9748,-31.0
1606912223.9768,-31.0
1606912223.9787,-31.0
1606912223.9806,-26.0
1606912223.9826,-19.0
1606912223.9846,-9.0
1606912223.9866,-7.0
1606912223.9887,-9.0
1606912223.9907,-7.0
1606912223.9927,0.0
1606912223.9946,2.0
1606912223.9953,4.0
1606912223.9979,4.0
1606912223.9998,7.0
1606912224.0016,9.0
1606912224.0038,12.0
1606912224.0057,14.0
1606912224.0077,19.0
1606912224.0097,16.0
1606912224.0118,12.0
1606912224.4381,16.0
1606912224.4389,24.0
1606912224.4413,21.0
1606912224.4424,14.0
1606912224.4439,16.0
1606912224.4459,21.0
1606912224.448,19.0
1606912224.45,16.0
1606912224.4519,19.0
1606912224.4539,21.0
1606912224.456,12.0
1606912224.458,12.0
1606912224.4599,16.0
1606912224.4619,19.0
1606912224.4639,21.0
1606912224.4659,21.0
1606912224.4679,16.0
1606912224.4699,19.0
1606912224.4719,16.0
1606912224.4725,9.0
1606912224.4739,12.0
1606912224.4759,12.0
1606912224.4779,9.0
1606912224.4798,14.0
1606912224.4818,31.0
1606912224.4838,50.0
1606912224.486,50.0
1606912224.4879,45.0
1606912224.4899,43.0
1606912224.4919,38.0
1606912224.4939,43.0
1606912224.4959,45.0
1606912224.4979,31.0
1606912224.4999,12.0
1606912224.5018,0.0
1606912224.5025,0.0
1606912224.5038,4.0
1606912224.5059,4.0
1606912224.5079,4.0
1606912224.5099,9.0
1606912224.5119,9.0
1606912224.5138,7.0
1606912224.5158,12.0
1606912224.5181,4.0
1606912224.5199,-43.0
1606912224.5219,-16.0
1606912224.524,354.0
1606912224.526,1068.0
1606912224.5279,1503.0
1606912224.5298,1039.0
1606912224.5318,57.0
1606912224.5325,-383.0
1606912224.5338,-149.0
1606912224.5359,-50.0
1606912224.5379,-178.0
1606912224.5399,-139.0
1606912224.5418,-69.0
1606912224.5439,-96.0
1606912224.5458,-86.0
1606912224.5479,-45.0
1606912224.5498,-45.0
1606912224.5518,-48.0
1606912224.5538,-28.0
1606912224.5559,-16.0
1606912224.5579,-12.0
1606912224.5599,-4.0
1606912224.5618,2.0
1606912224.5625,12.0
1606912224.5638,28.0
1606912224.5658,45.0
1606912224.5679,60.0
1606912224.5698,79.0
1606912224.5719,106.0
1606912224.9787,130.0
1606912224.9797,156.0
1606912224.9821,173.0
1606912224.9848,176.0
1606912224.9868,176.0
1606912224.9887,168.0
1606912224.9908,144.0
1606912224.9927,113.0
1606912224.9947,79.0
1606912224.9968,45.0
1606912224.9973,4.0
1606912224.9987,-26.0
1606912225.0006,-38.0
1606912225.0027,-48.0
1606912225.0047,-55.0
1606912225.0067,-57.0
1606912225.0086,-60.0
1606912225.0108,-60.0
1606912225.0127,-57.0
1606912225.0147,-55.0
1606912225.0166,-45.0
1606912225.0189,-36.0
1606912225.0207,-31.0
1606912225.0227,-31.0
1606912225.0247,-26.0
1606912225.0266,-19.0
1606912225.0274,-12.0
1606912225.0286,-9.0
1606912225.0306,-9.0
1606912225.0326,-9.0
1606912225.0346,-7.0
1606912225.0368,-2.0
1606912225.0387,0.0
1606912225.0406,-4.0
1606912225.0426,-4.0
1606912225.0446,-2.0
1606912225.0466,-2.0
1606912225.0487,-2.0
1606912225.0506,0.0
1606912225.0527,4.0
1606912225.0547,4.0
1606912225.0566,2.0
1606912225.0574,4.0
1606912225.0586,9.0
1606912225.0606,9.0
1606912225.0626,7.0
1606912225.0646,7.0
1606912225.0666,7.0
1606912225.0687,9.0
1606912225.0707,12.0
1606912225.0727,14.0
1606912225.0747,14.0
1606912225.0766,14.0
1606912225.0788,14.0
1606912225.0806,12.0
1606912225.0826,7.0
1606912225.0847,9.0
1606912225.0867,9.0
1606912225.0875,4.0
1606912225.0886,7.0
1606912225.0906,9.0
1606912225.0926,7.0
1606912225.0946,7.0
1606912225.0966,12.0
1606912225.0987,14.0
1606912225.1006,12.0
1606912225.1027,7.0
1606912225.1047,4.0
1606912225.1066,14.0
1606912225.1086,28.0
1606912225.1106,31.0
1606912225.1127,31.0
1606912225.1148,31.0
1606912225.5183,28.0
1606912225.519,26.0
1606912225.5213,28.0
1606912225.524,21.0
1606912225.526,14.0
1606912225.5281,7.0
1606912225.53,-7.0
1606912225.532,-16.0
1606912225.534,-16.0
1606912225.536,-16.0
1606912225.538,-14.0
1606912225.54,-7.0
1606912225.542,-7.0
1606912225.544,-9.0
1606912225.5447,-21.0
1606912225.546,-67.0
1606912225.548,-65.0
1606912225.55,236.0
1606912225.552,890.0
1606912225.554,1433.0
1606912225.5559,1252.0
1606912225.558,369.0
1606912225.5599,-311.0
1606912225.562,-226.0
1606912225.564,-62.0
1606912225.5659,-188.0
1606912225.568,-195.0
1606912225.5699,-108.0
1606912225.572,-123.0
1606912225.574,-130.0
1606912225.5747,-89.0
1606912225.576,-77.0
1606912225.578,-74.0
1606912225.5799,-60.0
1606912225.582,-53.0
1606912225.5839,-50.0
1606912225.5859,-41.0
1606912225.5879,-31.0
1606912225.5899,-24.0
1606912225.5919,-12.0
1606912225.5939,2.0
1606912225.5959,16.0
1606912225.598,31.0
1606912225.5999,53.0
1606912225.602,82.0
1606912225.6039,106.0
1606912225.6046,120.0
1606912225.6059,130.0
1606912225.608,130.0
1606912225.6099,120.0
1606912225.6121,110.0
1606912225.614,89.0
1606912225.616,57.0
1606912225.618,31.0
1606912225.6199,7.0
1606912225.622,-16.0
1606912225.6239,-31.0
1606912225.626,-36.0
1606912225.628,-38.0
1606912225.6299,-43.0
1606912225.6319,-43.0
1606912225.634,-38.0
1606912225.6346,-33.0
1606912225.6359,-33.0
1606912225.638,-33.0
1606912225.6399,-33.0
1606912225.6419,-33.0
1606912225.6439,-28.0
1606912225.6459,-21.0
1606912225.648,-19.0
1606912225.65,-21.0
1606912225.6519,-24.0
1606912225.654,-21.0
1606912226.0887,-14.0
1606912226.0898,-12.0
1606912226.0922,-12.0
1606912226.095,-7.0
1606912226.0969,-7.0
1606912226.0977,-16.0
1606912226.0989,-14.0
1606912226.101,-7.0
1606912226.1029,-7.0
1606912226.1049,-12.0
1606912226.1069,-7.0
1606912226.1088,0.0
1606912226.1108,2.0
1606912226.1128,0.0
1606912226.1148,2.0
1606912226.1168,4.0
1606912226.1188,4.0
1606912226.1208,4.0
1606912226.1228,7.0
1606912226.1248,7.0
1606912226.1268,12.0
1606912226.1275,16.0
1606912226.1297,16.0
1606912226.1317,14.0
1606912226.1338,9.0
1606912226.1358,9.0
1606912226.1378,14.0
1606912226.1398,16.0
1606912226.1419,14.0
1606912226.1438,12.0
1606912226.1457,14.0
1606912226.1477,19.0
1606912226.1497,21.0
1606912226.1518,16.0
1606912226.1538,19.0
1606912226.1557,26.0
1606912226.1564,21.0
1606912226.1578,14.0
1606912226.1597,16.0
1606912226.1617,21.0
1606912226.1638,12.0
1606912226.1658,7.0
1606912226.1678,12.0
1606912226.1697,9.0
1606912226.1718,9.0
1606912226.1738,31.0
1606912226.1757,45.0
1606912226.1778,38.0
1606912226.1797,33.0
1606912226.1817,38.0
1606912226.1838,38.0
1606912226.1858,36.0
1606912226.1864,31.0
1606912226.1877,21.0
1606912226.1898,12.0
1606912226.1917,9.0
1606912226.1937,9.0
1606912226.1957,14.0
1606912226.1978,12.0
1606912226.1998,7.0
1606912226.2017,12.0
1606912226.2037,16.0
1606912226.2057,14.0
1606912226.2078,-2.0
1606912226.2098,-53.0
1606912226.2117,-36.0
1606912226.2137,308.0
1606912226.2157,994.0
1606912226.2164,1459.0
1606912226.2178,1097.0
1606912226.2197,166.0
1606912226.2218,-345.0
1606912226.2237,-168.0
1606912226.6288,-62.0
1606912226.6301,-195.0
1606912226.6325,-171.0
1606912226.6352,-96.0
1606912226.6372,-113.0
1606912226.6392,-110.0
1606912226.6415,-82.0
1606912226.6432,-82.0
1606912226.6451,-77.0
1606912226.6459,-62.0
1606912226.6472,-53.0
1606912226.6491,-41.0
1606912226.6511,-38.0
1606912226.6531,-33.0
1606912226.6551,-21.0
1606912226.6571,-9.0
1606912226.6591,2.0
1606912226.6611,31.0
1606912226.6631,53.0
1606912226.6651,67.0
1606912226.667,91.0
1606912226.669,118.0
1606912226.6711,132.0
1606912226.673,142.0
1606912226.675,144.0
1606912226.6757,137.0
1606912226.677,123.0
1606912226.679,96.0
1606912226.681,60.0
1606912226.683,26.0
1606912226.685,0.0
1606912226.687,-26.0
1606912226.689,-43.0
1606912226.6911,-53.0
1606912226.6931,-55.0
1606912226.695,-55.0
1606912226.697,-60.0
1606912226.6991,-57.0
1606912226.701,-55.0
1606912226.703,-55.0
1606912226.705,-53.0
1606912226.7057,-48.0
1606912226.707,-43.0
1606912226.709,-38.0
1606912226.711,-28.0
1606912226.713,-24.0
1606912226.715,-24.0
1606912226.717,-19.0
1606912226.719,-12.0
1606912226.7211,-12.0
1606912226.723,-9.0
1606912226.7251,-7.0
1606912226.727,-14.0
1606912226.729,-14.0
1606912226.731,-4.0
1606912226.733,0.0
1606912226.735,-2.0
1606912226.7358,-9.0
1606912226.7371,-14.0
1606912226.7391,-9.0
1606912226.741,-7.0
1606912226.743,-7.0
1606912226.745,-4.0
1606912226.7471,-4.0
1606912226.749,-9.0
1606912226.751,-7.0
1606912226.753,-2.0
1606912226.755,0.0
1606912226.757,2.0
1606912226.7591,-2.0
1606912226.7611,-4.0
1606912226.7631,-2.0
1606912226.765,0.0
1606912227.2286,-2.0
1606912227.2298,-2.0
1606912227.2322,0.0
1606912227.2349,-4.0
1606912227.2369,-16.0
1606912227.2389,-12.0
1606912227.2409,-2.0
1606912227.243,0.0
1606912227.244,0.0
1606912227.246,0.0
1606912227.2479,-2.0
1606912227.2498,-2.0
1606912227.2518,0.0
1606912227.2525,-2.0
1606912227.2539,-4.0
1606912227.2558,-7.0
1606912227.258,0.0
1606912227.2598,16.0
1606912227.2618,26.0
1606912227.2638,28.0
1606912227.2658,28.0
1606912227.2678,21.0
1606912227.2698,16.0
1606912227.2718,12.0
1606912227.2738,7.0
1606912227.2758,-4.0
1606912227.2778,-12.0
1606912227.2798,-9.0
1606912227.2818,-4.0
1606912227.2824,0.0
1606912227.2838,2.0
1606912227.2858,0.0
1606912227.2878,0.0
1606912227.2898,2.0
1606912227.2918,0.0
1606912227.2939,-26.0
1606912227.2959,-62.0
1606912227.2978,74.0
1606912227.2998,605.0
1606912227.3018,1288.0
1606912227.3038,1392.0
1606912227.3058,617.0
1606912227.3078,-229.0
1606912227.3097,-318.0
1606912227.3118,-72.0
1606912227.3124,-120.0
1606912227.3138,-200.0
1606912227.3158,-110.0
1606912227.3178,-84.0
1606912227.3198,-120.0
1606912227.3218,-98.0
1606912227.3238,-74.0
1606912227.3258,-72.0
1606912227.3278,-62.0
1606912227.3298,-50.0
1606912227.3318,-48.0
1606912227.3338,-38.0
1606912227.3358,-28.0
1606912227.3378,-16.0
1606912227.3398,-7.0
1606912227.3418,7.0
1606912227.3424,21.0
1606912227.3439,33.0
1606912227.3458,55.0
1606912227.3479,86.0
1606912227.3498,113.0
1606912227.3518,125.0
1606912227.3538,132.0
1606912227.3558,139.0
1606912227.3579,135.0
1606912227.3598,123.0
1606912227.3618,103.0
1606912227.3638,72.0
1606912227.7986,36.0
1606912227.7995,7.0
1606912227.8012,-14.0
1606912227.8036,-31.0
1606912227.8056,-43.0
1606912227.8076,-53.0
1606912227.8095,-57.0
1606912227.8115,-57.0
1606912227.8135,-65.0
1606912227.8155,-69.0
1606912227.8175,-62.0
1606912227.8195,-57.0
1606912227.8215,-53.0
1606912227.8237,-53.0
1606912227.8255,-50.0
1606912227.8276,-38.0
1606912227.8295,-31.0
1606912227.8315,-28.0
1606912227.8321,-26.0
1606912227.8335,-26.0
1606912227.8355,-28.0
1606912227.8376,-26.0
1606912227.8395,-24.0
1606912227.8415,-24.0
1606912227.8435,-26.0
1606912227.8454,-26.0
1606912227.8475,-24.0
1606912227.8495,-19.0
1606912227.8514,-14.0
1606912227.8534,-12.0
1606912227.8554,-14.0
1606912227.8575,-14.0
1606912227.8595,-16.0
1606912227.8616,-16.0
1606912227.8622,-12.0
1606912227.8636,-7.0
1606912227.8657,-7.0
1606912227.8675,-9.0
1606912227.8695,-4.0
1606912227.8717,-2.0
1606912227.8735,-4.0
1606912227.8755,-9.0
1606912227.8776,-12.0
1606912227.8796,-19.0
1606912227.8815,-19.0
1606912227.8835,-19.0
1606912227.8855,-21.0
1606912227.8875,-21.0
1606912227.8895,-16.0
1606912227.8915,-12.0
1606912227.8921,-12.0
1606912227.8936,-12.0
1606912227.8955,-12.0
1606912227.8975,-9.0
1606912227.8995,-4.0
1606912227.9014,-4.0
1606912227.9035,-9.0
1606912227.9055,-12.0
1606912227.9075,-12.0
1606912227.9095,-14.0
1606912227.9114,-12.0
1606912227.9134,-4.0
1606912227.9154,4.0
1606912227.9175,16.0
1606912227.9197,24.0
1606912227.9202,24.0
1606912227.9215,19.0
1606912227.9235,16.0
1606912227.9255,16.0
1606912227.9274,16.0
1606912227.9294,7.0
1606912227.9315,0.0
1606912227.9334,-2.0
1606912228.3384,-2.0
1606912228.3392,0.0
1606912228.3403,2.0
1606912228.3422,2.0
1606912228.3442,0.0
1606912228.3449,0.0
1606912228.3462,0.0
1606912228.3482,-12.0
1606912228.3502,-62.0
1606912228.3522,-60.0
1606912228.3542,241.0
1606912228.3562,890.0
1606912228.3583,1411.0
1606912228.3602,1216.0
1606912228.3621,345.0
1606912228.3642,-306.0
1606912228.3662,-214.0
1606912228.3682,-62.0
1606912228.3701,-193.0
1606912228.3721,-195.0
1606912228.3741,-106.0
1606912228.3748,-123.0
1606912228.3762,-130.0
1606912228.3782,-89.0
1606912228.3801,-77.0
1606912228.3821,-82.0
1606912228.3841,-67.0
1606912228.3861,-53.0
1606912228.3881,-53.0
1606912228.3901,-48.0
1606912228.3921,-38.0
1606912228.3941,-28.0
1606912228.3961,-19.0
1606912228.3982,-7.0
1606912228.4001,2.0
1606912228.4022,16.0
1606912228.4041,28.0
1606912228.4048,45.0
1606912228.4061,72.0
1606912228.4082,96.0
1606912228.4101,103.0
1606912228.4121,103.0
1606912228.4143,101.0
1606912228.4162,91.0
1606912228.4182,74.0
1606912228.4201,48.0
1606912228.4221,19.0
1606912228.4242,-2.0
1606912228.4261,-19.0
1606912228.4282,-33.0
1606912228.4301,-43.0
1606912228.4321,-45.0
1606912228.4342,-48.0
1606912228.4349,-45.0
1606912228.4362,-43.0
1606912228.4382,-38.0
1606912228.4402,-36.0
1606912228.4422,-36.0
1606912228.4441,-31.0
1606912228.4461,-26.0
1606912228.4482,-26.0
1606912228.4501,-24.0
1606912228.4521,-21.0
1606912228.4541,-19.0
1606912228.4561,-21.0
1606912228.4582,-16.0
1606912228.4602,-12.0
1606912228.4621,-14.0
1606912228.4642,-16.0
1606912228.4724,-14.0
1606912228.4742,-12.0
1606912228.4761,-12.0
1606912228.4781,-9.0
1606912228.9082,-4.0
1606912228.9091,-2.0
1606912228.9115,-2.0
1606912228.9142,-2.0
1606912228.9162,-2.0
1606912228.9182,-2.0
1606912228.9202,-7.0
1606912228.9221,-12.0
1606912228.9241,-12.0
1606912228.9261,-7.0
1606912228.9282,-7.0
1606912228.9288,-9.0
1606912228.93,-7.0
1606912228.9321,-4.0
1606912228.9341,-7.0
1606912228.9361,-9.0
1606912228.9381,-4.0
1606912228.9401,-2.0
1606912228.9421,-7.0
1606912228.9441,-4.0
1606912228.9462,-2.0
1606912228.9482,0.0
1606912228.9501,4.0
1606912228.9521,4.0
1606912228.9541,4.0
1606912228.9561,7.0
1606912228.9581,7.0
1606912228.9588,2.0
1606912228.9601,-4.0
1606912228.9621,-4.0
1606912228.9641,-2.0
1606912228.9661,-7.0
1606912228.9669,-4.0
1606912228.9691,-2.0
1606912228.9712,0.0
1606912228.9731,14.0
1606912228.9751,26.0
1606912228.9771,28.0
1606912228.9791,28.0
1606912228.9811,28.0
1606912228.9831,26.0
1606912228.9851,26.0
1606912228.9857,24.0
1606912228.9871,14.0
1606912228.9891,4.0
1606912228.9911,0.0
1606912228.9931,2.0
1606912228.9951,9.0
1606912228.997,9.0
1606912228.9991,4.0
1606912229.001,7.0
1606912229.003,14.0
1606912229.0051,12.0
1606912229.0071,-4.0
1606912229.0091,-50.0
1606912229.0111,-33.0
1606912229.0131,282.0
1606912229.0151,928.0
1606912229.0157,1416.0
1606912229.0171,1148.0
1606912229.0191,260.0
1606912229.021,-318.0
1606912229.0231,-188.0
1606912229.0251,-60.0
1606912229.0271,-178.0
1606912229.0291,-161.0
1606912229.0311,-89.0
1606912229.033,-108.0
1606912229.0351,-108.0
1606912229.0371,-69.0
1606912229.0391,-62.0
1606912229.0412,-57.0
1606912229.0431,-48.0
1606912229.5081,-43.0
1606912229.509,-38.0
1606912229.5114,-28.0
1606912229.5141,-19.0
1606912229.516,-9.0
1606912229.5181,0.0
1606912229.5201,12.0
1606912229.522,21.0
1606912229.524,31.0
1606912229.526,50.0
1606912229.5281,82.0
1606912229.53,101.0
1606912229.532,110.0
1606912229.534,120.0
1606912229.536,125.0
1606912229.5367,118.0
1606912229.538,103.0
1606912229.54,84.0
1606912229.542,53.0
1606912229.544,16.0
1606912229.546,-9.0
1606912229.548,-26.0
1606912229.55,-38.0
1606912229.552,-48.0
1606912229.554,-57.0
1606912229.556,-60.0
1606912229.558,-55.0
1606912229.56,-50.0
1606912229.562,-53.0
1606912229.564,-50.0
1606912229.566,-43.0
1606912229.5666,-43.0
1606912229.568,-41.0
1606912229.5699,-28.0
1606912229.5719,-16.0
1606912229.5739,-21.0
1606912229.5759,-24.0
1606912229.578,-16.0
1606912229.5799,-12.0
1606912229.5819,-9.0
1606912229.5839,-12.0
1606912229.5859,-14.0
1606912229.5879,-9.0
1606912229.5899,-7.0
1606912229.5919,-4.0
1606912229.5939,-2.0
1606912229.5959,0.0
1606912229.5966,0.0
1606912229.598,0.0
1606912229.6001,2.0
1606912229.602,2.0
1606912229.604,4.0
1606912229.6059,7.0
1606912229.6079,4.0
1606912229.6099,0.0
1606912229.6119,0.0
1606912229.6139,0.0
1606912229.6159,2.0
1606912229.618,14.0
1606912229.6199,14.0
1606912229.6219,2.0
1606912229.6239,4.0
1606912229.6259,12.0
1606912229.6266,9.0
1606912229.628,7.0
1606912229.6299,4.0
1606912229.6319,2.0
1606912229.6339,4.0
1606912229.6359,7.0
1606912229.6379,9.0
1606912229.6399,9.0
1606912229.6419,9.0
1606912229.6439,12.0
1606912230.0185,16.0
1606912230.0193,16.0
1606912230.0217,9.0
1606912230.0244,9.0
1606912230.0264,12.0
1606912230.0272,14.0
1606912230.0283,19.0
1606912230.0304,24.0
1606912230.0323,26.0
1606912230.0343,16.0
1606912230.0363,7.0
1606912230.0383,7.0
1606912230.0403,2.0
1606912230.0423,-16.0
1606912230.0443,-28.0
1606912230.0463,-31.0
1606912230.0484,-28.0
1606912230.0503,-26.0
1606912230.0523,-24.0
1606912230.0543,-24.0
1606912230.0563,-19.0
1606912230.0569,-16.0
1606912230.0583,-16.0
1606912230.0603,-33.0
1606912230.0623,-65.0
1606912230.0643,55.0
1606912230.0663,562.0
1606912230.0685,1235.0
1606912230.0703,1331.0
1606912230.0723,557.0
1606912230.0743,-265.0
1606912230.0763,-328.0
1606912230.0783,-74.0
1606912230.0803,-120.0
1606912230.0823,-195.0
1606912230.0843,-106.0
1606912230.0863,-84.0
1606912230.0869,-113.0
1606912230.0883,-82.0
1606912230.0903,-50.0
1606912230.0923,-55.0
1606912230.0943,-53.0
1606912230.0963,-36.0
1606912230.0983,-24.0
1606912230.1004,-19.0
1606912230.1024,-12.0
1606912230.1043,-2.0
1606912230.1063,9.0
1606912230.1083,21.0
1606912230.1103,38.0
1606912230.1123,57.0
1606912230.1143,82.0
1606912230.1163,110.0
1606912230.117,130.0
1606912230.1183,147.0
1606912230.1203,154.0
1606912230.1223,154.0
1606912230.1243,152.0
1606912230.1263,142.0
1606912230.1283,118.0
1606912230.1303,89.0
1606912230.1323,55.0
1606912230.1343,19.0
1606912230.1363,-9.0
1606912230.1383,-31.0
1606912230.1403,-38.0
1606912230.1423,-38.0
1606912230.1443,-48.0
1606912230.1463,-55.0
1606912230.1469,-50.0
1606912230.1483,-45.0
1606912230.1503,-45.0
1606912230.1523,-45.0
1606912230.6188,-43.0
1606912230.62,-36.0
1606912230.6224,-28.0
1606912230.6251,-26.0
1606912230.627,-26.0
1606912230.6293,-31.0
1606912230.6311,-33.0
1606912230.633,-31.0
1606912230.635,-28.0
1606912230.637,-28.0
1606912230.6377,-28.0
1606912230.639,-24.0
1606912230.641,-16.0
1606912230.643,-19.0
1606912230.645,-26.0
1606912230.647,-21.0
1606912230.649,-14.0
1606912230.651,-12.0
1606912230.653,-12.0
1606912230.655,-12.0
1606912230.657,-12.0
1606912230.6591,-9.0
1606912230.661,-7.0
1606912230.663,-7.0
1606912230.665,-4.0
1606912230.667,-2.0
1606912230.6675,-4.0
1606912230.6689,0.0
1606912230.6709,7.0
1606912230.6729,4.0
1606912230.675,2.0
1606912230.6769,4.0
1606912230.6789,2.0
1606912230.6809,-7.0
1606912230.6829,-7.0
1606912230.6849,-2.0
1606912230.687,0.0
1606912230.689,-2.0
1606912230.6909,-2.0
1606912230.6929,0.0
1606912230.6949,0.0
1606912230.6969,0.0
1606912230.6975,-2.0
1606912230.6989,4.0
1606912230.7009,19.0
1606912230.7029,26.0
1606912230.7049,28.0
1606912230.7069,26.0
1606912230.7089,19.0
1606912230.7109,19.0
1606912230.7129,21.0
1606912230.7149,12.0
1606912230.7169,2.0
1606912230.7189,-2.0
1606912230.7209,-9.0
1606912230.7229,-9.0
1606912230.7251,-2.0
1606912230.727,-2.0
1606912230.7275,-4.0
1606912230.7289,0.0
1606912230.7309,0.0
1606912230.7329,-2.0
1606912230.7349,-26.0
1606912230.7369,-72.0
1606912230.7389,33.0
1606912230.7409,513.0
1606912230.7429,1184.0
1606912230.7449,1411.0
1606912230.7469,805.0
1606912230.7489,-72.0
1606912230.7509,-330.0
1606912230.7529,-113.0
1606912230.7549,-113.0
1606912231.1585,-217.0
1606912231.1594,-144.0
1606912231.1618,-98.0
1606912231.1645,-127.0
1606912231.1665,-110.0
1606912231.1685,-74.0
1606912231.1705,-72.0
1606912231.1725,-69.0
1606912231.1745,-60.0
1606912231.1765,-53.0
1606912231.1785,-45.0
1606912231.1805,-45.0
1606912231.1825,-43.0
1606912231.1845,-33.0
1606912231.1865,-19.0
1606912231.1884,-7.0
1606912231.1904,9.0
1606912231.191,31.0
1606912231.1924,50.0
1606912231.1944,69.0
1606912231.1964,86.0
1606912231.1985,98.0
1606912231.2004,101.0
1606912231.2024,96.0
1606912231.2044,86.0
1606912231.2064,72.0
1606912231.2084,50.0
1606912231.2105,24.0
1606912231.2124,0.0
1606912231.2144,-16.0
1606912231.2164,-33.0
1606912231.2184,-45.0
1606912231.2204,-50.0
1606912231.221,-50.0
1606912231.2226,-50.0
1606912231.2244,-50.0
1606912231.2264,-45.0
1606912231.2284,-43.0
1606912231.2304,-41.0
1606912231.2323,-36.0
1606912231.2344,-33.0
1606912231.2364,-28.0
1606912231.2384,-21.0
1606912231.2404,-21.0
1606912231.2424,-21.0
1606912231.2444,-16.0
1606912231.2464,-14.0
1606912231.2484,-14.0
1606912231.2504,-12.0
1606912231.251,-12.0
1606912231.2523,-16.0
1606912231.2544,-19.0
1606912231.2563,-14.0
1606912231.2584,-12.0
1606912231.2604,-9.0
1606912231.2623,-9.0
1606912231.2644,-12.0
1606912231.2664,-12.0
1606912231.2684,-9.0
1606912231.2704,-7.0
1606912231.2724,-4.0
1606912231.2743,-2.0
1606912231.2764,-4.0
1606912231.2784,-7.0
1606912231.2804,-9.0
1606912231.281,-9.0
1606912231.2824,-4.0
1606912231.2844,-4.0
1606912231.2864,-4.0
1606912231.2884,0.0
1606912231.2904,0.0
1606912231.2923,-2.0
1606912231.2943,0.0
1606912231.7285,4.0
1606912231.7294,2.0
1606912231.7319,0.0
1606912231.7345,4.0
1606912231.7365,7.0
1606912231.7371,4.0
1606912231.7385,4.0
1606912231.7405,2.0
1606912231.7425,-2.0
1606912231.7445,-7.0
1606912231.7465,7.0
1606912231.7486,24.0
1606912231.7507,24.0
1606912231.7525,21.0
1606912231.7545,21.0
1606912231.7565,14.0
1606912231.7584,12.0
1606912231.7604,16.0
1606912231.7624,7.0
1606912231.7644,-2.0
1606912231.7664,-9.0
1606912231.767,-14.0
1606912231.7685,-9.0
1606912231.7704,-7.0
1606912231.7724,-12.0
1606912231.7744,-14.0
1606912231.7764,-9.0
1606912231.7784,-12.0
1606912231.7804,-31.0
1606912231.7824,-77.0
1606912231.7844,-24.0
1606912231.7864,359.0
1606912231.7884,1018.0
1606912231.7904,1385.0
1606912231.7924,962.0
1606912231.7944,82.0
1606912231.7964,-337.0
1606912231.797,-152.0
1606912231.7984,-82.0
1606912231.8004,-200.0
1606912231.8024,-159.0
1606912231.8044,-98.0
1606912231.8064,-125.0
1606912231.8084,-115.0
1606912231.8104,-79.0
1606912231.8124,-79.0
1606912231.8144,-82.0
1606912231.8164,-67.0
1606912231.8184,-62.0
1606912231.8204,-60.0
1606912231.8224,-50.0
1606912231.8244,-38.0
1606912231.8265,-28.0
1606912231.8272,-16.0
1606912231.8284,-9.0
1606912231.8304,4.0
1606912231.8324,21.0
1606912231.8344,38.0
1606912231.8364,60.0
1606912231.8384,79.0
1606912231.8404,86.0
1606912231.8424,89.0
1606912231.8444,91.0
1606912231.8465,86.0
1606912231.8485,74.0
1606912231.8504,60.0
1606912231.8524,33.0
1606912231.8544,2.0
1606912231.8564,-19.0
1606912231.857,-28.0
1606912231.8584,-38.0
1606912231.8604,-45.0
1606912231.8624,-53.0
1606912232.2683,-53.0
1606912232.2692,-45.0
1606912232.2716,-48.0
1606912232.2743,-48.0
1606912232.2763,-43.0
1606912232.2784,-41.0
1606912232.2803,-41.0
1606912232.2822,-33.0
1606912232.2842,-26.0
1606912232.2862,-31.0
1606912232.2882,-36.0
1606912232.2902,-36.0
1606912232.2908,-31.0
1606912232.2922,-31.0
1606912232.2942,-28.0
1606912232.2962,-28.0
1606912232.2982,-24.0
1606912232.3004,-19.0
1606912232.3022,-19.0
1606912232.3042,-19.0
1606912232.3062,-14.0
1606912232.3082,-7.0
1606912232.3102,-7.0
1606912232.3122,-4.0
1606912232.3142,-4.0
1606912232.3162,-4.0
1606912232.3182,-4.0
1606912232.3188,-2.0
1606912232.3202,-2.0
1606912232.3222,-4.0
1606912232.3242,-2.0
1606912232.3262,2.0
1606912232.3282,4.0
1606912232.3301,0.0
1606912232.3321,0.0
1606912232.3341,4.0
1606912232.3361,4.0
1606912232.3382,4.0
1606912232.3402,7.0
1606912232.3421,7.0
1606912232.3441,4.0
1606912232.3463,4.0
1606912232.3482,7.0
1606912232.3488,7.0
1606912232.3501,2.0
1606912232.3522,7.0
1606912232.3541,19.0
1606912232.3561,36.0
1606912232.3582,43.0
1606912232.3602,41.0
1606912232.3621,31.0
1606912232.3641,24.0
1606912232.3661,24.0
1606912232.3681,21.0
1606912232.3701,12.0
1606912232.3721,4.0
1606912232.3742,0.0
1606912232.3762,-7.0
1606912232.3782,-7.0
1606912232.3788,2.0
1606912232.3801,4.0
1606912232.3822,2.0
1606912232.3841,2.0
1606912232.3861,0.0
1606912232.3882,0.0
1606912232.3901,-28.0
1606912232.3922,-55.0
1606912232.3941,147.0
1606912232.3961,731.0
1606912232.3982,1302.0
1606912232.4002,1179.0
1606912232.4022,323.0
1606912232.4041,-340.0
1606912232.8081,-258.0
1606912232.809,-67.0
1606912232.8114,-164.0
1606912232.8142,-183.0
1606912232.8162,-98.0
1606912232.8182,-106.0
1606912232.8202,-123.0
1606912232.8221,-91.0
1606912232.8241,-79.0
1606912232.8262,-82.0
1606912232.8281,-69.0
1606912232.8301,-57.0
1606912232.8321,-48.0
1606912232.8341,-38.0
1606912232.8361,-28.0
1606912232.8381,-21.0
1606912232.8387,-4.0
1606912232.8401,12.0
1606912232.8421,21.0
1606912232.8443,36.0
1606912232.8461,65.0
1606912232.8481,91.0
1606912232.85,106.0
1606912232.852,118.0
1606912232.854,127.0
1606912232.856,127.0
1606912232.8581,123.0
1606912232.86,110.0
1606912232.862,82.0
1606912232.864,45.0
1606912232.866,14.0
1606912232.868,-4.0
1606912232.8686,-26.0
1606912232.87,-50.0
1606912232.872,-60.0
1606912232.874,-65.0
1606912232.876,-69.0
1606912232.8781,-69.0
1606912232.88,-67.0
1606912232.882,-65.0
1606912232.884,-62.0
1606912232.886,-62.0
1606912232.888,-57.0
1606912232.8901,-48.0
1606912232.892,-38.0
1606912232.894,-33.0
1606912232.896,-33.0
1606912232.898,-28.0
1606912232.8986,-24.0
1606912232.9,-24.0
1606912232.902,-21.0
1606912232.904,-16.0
1606912232.906,-9.0
1606912232.9081,-9.0
1606912232.91,-16.0
1606912232.912,-12.0
1606912232.914,-7.0
1606912232.916,-9.0
1606912232.9181,-7.0
1606912232.92,-9.0
1606912232.922,-16.0
1606912232.924,-12.0
1606912232.926,-7.0
1606912232.9281,-9.0
1606912232.9286,-9.0
1606912232.93,-12.0
1606912232.932,-9.0
1606912232.934,2.0
1606912232.936,2.0
1606912232.938,-4.0
1606912232.9402,-4.0
1606912232.9421,-2.0
1606912232.944,-2.0
1606912233.3785,2.0
1606912233.3793,9.0
1606912233.3818,4.0
1606912233.3844,-2.0
1606912233.385,-4.0
1606912233.3864,-7.0
1606912233.3884,0.0
1606912233.3904,19.0
1606912233.3924,31.0
1606912233.3944,33.0
1606912233.3964,31.0
1606912233.3985,24.0
1606912233.4003,21.0
1606912233.4024,28.0
1606912233.4043,24.0
1606912233.4063,7.0
1606912233.4084,2.0
1606912233.4103,4.0
1606912233.4123,7.0
1606912233.4144,7.0
1606912233.4149,0.0
1606912233.4163,-7.0
1606912233.4184,-7.0
1606912233.4203,-2.0
1606912233.4223,0.0
1606912233.4243,-16.0
1606912233.4264,-53.0
1606912233.4284,24.0
1606912233.4303,456.0
1606912233.4323,1138.0
1606912233.4343,1389.0
1606912233.4364,745.0
1606912233.4383,-154.0
1606912233.4403,-376.0
1606912233.4423,-118.0
1606912233.4443,-101.0
1606912233.4449,-202.0
1606912233.4463,-135.0
1606912233.4484,-94.0
1606912233.4503,-125.0
1606912233.4523,-101.0
1606912233.4543,-67.0
1606912233.4563,-72.0
1606912233.4583,-67.0
1606912233.4603,-53.0
1606912233.4623,-45.0
1606912233.4643,-41.0
1606912233.4663,-28.0
1606912233.4685,-21.0
1606912233.4704,-12.0
1606912233.4723,4.0
1606912233.4743,24.0
1606912233.4749,36.0
1606912233.4763,48.0
1606912233.4783,72.0
1606912233.4803,96.0
1606912233.4823,113.0
1606912233.4843,123.0
1606912233.4863,125.0
1606912233.4883,115.0
1606912233.4903,106.0
1606912233.4923,91.0
1606912233.4943,62.0
1606912233.4963,24.0
1606912233.4983,-2.0
1606912233.5003,-24.0
1606912233.5023,-43.0
1606912233.5044,-55.0
1606912233.5049,-57.0
1606912233.5063,-62.0
1606912233.5083,-65.0
1606912233.5103,-65.0
1606912233.5123,-62.0
1606912233.9786,-55.0
1606912233.9796,-50.0
1606912233.982,-48.0
1606912233.9847,-45.0
1606912233.9867,-43.0
1606912233.9887,-38.0
1606912233.9908,-36.0
1606912233.9927,-36.0
1606912233.9947,-28.0
1606912233.9967,-26.0
1606912233.9986,-28.0
1606912233.9992,-31.0
1606912234.0006,-31.0
1606912234.0026,-31.0
1606912234.0046,-28.0
1606912234.0066,-26.0
1606912234.0086,-21.0
1606912234.0106,-24.0
1606912234.0126,-24.0
1606912234.0146,-19.0
1606912234.0166,-16.0
1606912234.0187,-16.0
1606912234.0206,-16.0
1606912234.0226,-12.0
1606912234.0246,-7.0
1606912234.0266,-9.0
1606912234.0288,-14.0
1606912234.0292,-16.0
1606912234.0306,-9.0
1606912234.0326,-7.0
1606912234.0346,-9.0
1606912234.0366,-9.0
1606912234.0386,-7.0
1606912234.0406,-7.0
1606912234.0426,-2.0
1606912234.0446,2.0
1606912234.0466,0.0
1606912234.0486,-2.0
1606912234.0506,-2.0
1606912234.0526,0.0
1606912234.0546,2.0
1606912234.0566,2.0
1606912234.0586,2.0
1606912234.0592,-4.0
1606912234.0606,-4.0
1606912234.0626,12.0
1606912234.0646,33.0
1606912234.0666,38.0
1606912234.0686,33.0
1606912234.0706,33.0
1606912234.0726,26.0
1606912234.0746,26.0
1606912234.0766,26.0
1606912234.0786,19.0
1606912234.0806,14.0
1606912234.0826,9.0
1606912234.0846,2.0
1606912234.0866,4.0
1606912234.0886,9.0
1606912234.0892,9.0
1606912234.0906,9.0
1606912234.0925,9.0
1606912234.0946,12.0
1606912234.0965,-2.0
1606912234.0986,-53.0
1606912234.1006,-41.0
1606912234.1026,275.0
1606912234.1046,924.0
1606912234.1066,1409.0
1606912234.1086,1167.0
1606912234.1106,296.0
1606912234.1126,-304.0
1606912234.1146,-190.0
1606912234.5184,-48.0
1606912234.5193,-176.0
1606912234.5217,-183.0
1606912234.5244,-106.0
1606912234.5266,-120.0
1606912234.5283,-127.0
1606912234.5304,-89.0
1606912234.5323,-79.0
1606912234.5343,-82.0
1606912234.5363,-69.0
1606912234.5383,-67.0
1606912234.5403,-72.0
1606912234.5423,-60.0
1606912234.5443,-50.0
1606912234.5463,-48.0
1606912234.5483,-38.0
1606912234.5489,-21.0
1606912234.5503,-4.0
1606912234.5523,9.0
1606912234.5543,28.0
1606912234.5563,48.0
1606912234.5583,67.0
1606912234.5603,82.0
1606912234.5623,89.0
1606912234.5643,91.0
1606912234.5663,86.0
1606912234.5683,74.0
1606912234.5702,55.0
1606912234.5722,33.0
1606912234.5742,7.0
1606912234.5762,-14.0
1606912234.5782,-31.0
1606912234.5788,-43.0
1606912234.5802,-50.0
1606912234.5822,-53.0
1606912234.5842,-55.0
1606912234.5862,-50.0
1606912234.5882,-45.0
1606912234.5902,-48.0
1606912234.5922,-50.0
1606912234.5942,-45.0
1606912234.5962,-41.0
1606912234.5983,-41.0
1606912234.6003,-38.0
1606912234.6023,-33.0
1606912234.6042,-28.0
1606912234.6062,-26.0
1606912234.6083,-24.0
1606912234.6089,-21.0
1606912234.6102,-21.0
1606912234.6122,-24.0
1606912234.6142,-21.0
1606912234.6162,-14.0
1606912234.6183,-14.0
1606912234.6202,-14.0
1606912234.6224,-9.0
1606912234.6243,-7.0
1606912234.6263,-12.0
1606912234.6283,-7.0
1606912234.6302,2.0
1606912234.6322,2.0
1606912234.6342,-4.0
1606912234.6362,-2.0
1606912234.6383,0.0
1606912234.6389,2.0
1606912234.6402,2.0
1606912234.6423,0.0
1606912234.6442,-2.0
1606912234.6462,0.0
1606912234.6483,4.0
1606912234.6503,2.0
1606912234.6522,2.0
1606912234.6542,9.0
1606912235.0886,12.0
1606912235.0895,4.0
1606912235.092,2.0
1606912235.0946,7.0
1606912235.0966,7.0
1606912235.0987,7.0
1606912235.0994,12.0
1606912235.1007,9.0
1606912235.1026,-7.0
1606912235.1045,-9.0
1606912235.1066,-2.0
1606912235.1086,-2.0
1606912235.1105,7.0
1606912235.1125,26.0
1606912235.1145,31.0
1606912235.1165,28.0
1606912235.1185,26.0
1606912235.1205,24.0
1606912235.1225,21.0
1606912235.1245,24.0
1606912235.1265,16.0
1606912235.1285,9.0
1606912235.1291,0.0
1606912235.1305,-7.0
1606912235.1325,2.0
1606912235.1345,7.0
1606912235.1365,0.0
1606912235.1385,0.0
1606912235.1405,4.0
1606912235.1425,7.0
1606912235.1445,-12.0
1606912235.1465,-65.0
1606912235.1485,-36.0
1606912235.1506,306.0
1606912235.1525,967.0
1606912235.1545,1411.0
1606912235.1565,1064.0
1606912235.1585,171.0
1606912235.1591,-323.0
1606912235.1605,-164.0
1606912235.1625,-67.0
1606912235.1644,-190.0
1606912235.1665,-164.0
1606912235.1685,-91.0
1606912235.1705,-115.0
1606912235.1725,-120.0
1606912235.1745,-84.0
1606912235.1765,-79.0
1606912235.1785,-82.0
1606912235.1804,-62.0
1606912235.1825,-50.0
1606912235.1844,-50.0
1606912235.1864,-41.0
1606912235.1885,-24.0
1606912235.1891,-19.0
1606912235.1904,-14.0
1606912235.1925,0.0
1606912235.1945,19.0
1606912235.1964,36.0
1606912235.1984,57.0
1606912235.2004,79.0
1606912235.2025,94.0
1606912235.2045,106.0
1606912235.2065,118.0
1606912235.2085,118.0
1606912235.2105,110.0
1606912235.2124,98.0
1606912235.2145,74.0
1606912235.2165,41.0
1606912235.2185,12.0
1606912235.2191,-14.0
1606912235.2205,-33.0
1606912235.2225,-41.0
1606912235.6586,-48.0
1606912235.6595,-60.0
1606912235.6619,-65.0
1606912235.6647,-67.0
1606912235.6666,-69.0
1606912235.6686,-65.0
1606912235.6708,-57.0
1606912235.6726,-53.0
1606912235.6746,-53.0
1606912235.6766,-62.0
1606912235.6772,-60.0
1606912235.6788,-48.0
1606912235.6806,-43.0
1606912235.6825,-43.0
1606912235.6845,-41.0
1606912235.6865,-36.0
1606912235.6885,-28.0
1606912235.6905,-26.0
1606912235.6925,-28.0
1606912235.6946,-31.0
1606912235.6965,-26.0
1606912235.6986,-19.0
1606912235.7005,-14.0
1606912235.7025,-12.0
1606912235.7045,-14.0
1606912235.7065,-16.0
1606912235.7072,-12.0
1606912235.7086,-7.0
1606912235.7105,-7.0
1606912235.7125,-7.0
1606912235.7145,-4.0
1606912235.7165,-4.0
1606912235.7185,-4.0
1606912235.7205,-4.0
1606912235.7225,0.0
1606912235.7245,0.0
1606912235.7265,-2.0
1606912235.7285,2.0
1606912235.7305,7.0
1606912235.7325,9.0
1606912235.7345,9.0
1606912235.7365,2.0
1606912235.7372,-2.0
1606912235.7385,4.0
1606912235.7405,7.0
1606912235.7425,4.0
1606912235.7445,9.0
1606912235.7465,14.0
1606912235.7485,16.0
1606912235.7505,33.0
1606912235.7525,45.0
1606912235.7545,41.0
1606912235.7565,31.0
1606912235.7586,28.0
1606912235.7605,31.0
1606912235.7625,28.0
1606912235.7645,19.0
1606912235.7665,7.0
1606912235.7672,-2.0
1606912235.7685,2.0
1606912235.7705,9.0
1606912235.7725,4.0
1606912235.7746,0.0
1606912235.7765,2.0
1606912235.7785,2.0
1606912235.7805,-2.0
1606912235.7825,-4.0
1606912235.7845,-31.0
1606912235.7865,-33.0
1606912235.7886,248.0
1606912235.7905,909.0
1606912235.7925,1406.0
1606912235.7945,1059.0
1606912236.1986,101.0
1606912236.1996,-415.0
1606912236.202,-202.0
1606912236.2047,-57.0
1606912236.2067,-188.0
1606912236.2087,-176.0
1606912236.2108,-89.0
1606912236.2127,-106.0
1606912236.2147,-118.0
1606912236.2166,-86.0
1606912236.2186,-84.0
1606912236.2206,-86.0
1606912236.2226,-62.0
1606912236.2246,-53.0
1606912236.2266,-55.0
1606912236.2286,-43.0
1606912236.2292,-24.0
1606912236.2306,-12.0
1606912236.2326,-2.0
1606912236.2346,12.0
1606912236.2366,33.0
1606912236.2386,57.0
1606912236.2406,74.0
1606912236.2426,101.0
1606912236.2446,123.0
1606912236.2466,130.0
1606912236.2486,139.0
1606912236.2506,144.0
1606912236.2526,130.0
1606912236.2546,106.0
1606912236.2566,82.0
1606912236.2586,48.0
1606912236.2592,9.0
1606912236.2605,-19.0
1606912236.2626,-41.0
1606912236.2645,-57.0
1606912236.2665,-67.0
1606912236.2686,-77.0
1606912236.2706,-74.0
1606912236.2725,-72.0
1606912236.2747,-79.0
1606912236.2766,-77.0
1606912236.2785,-69.0
1606912236.2805,-67.0
1606912236.2826,-65.0
1606912236.2846,-53.0
1606912236.2865,-43.0
1606912236.2885,-36.0
1606912236.2892,-28.0
1606912236.2905,-26.0
1606912236.2925,-24.0
1606912236.2946,-14.0
1606912236.2965,-12.0
1606912236.2986,-19.0
1606912236.3005,-26.0
1606912236.3025,-19.0
1606912236.3045,-9.0
1606912236.3066,-14.0
1606912236.3086,-19.0
1606912236.3105,-16.0
1606912236.3125,-14.0
1606912236.3146,-21.0
1606912236.3166,-28.0
1606912236.3186,-21.0
1606912236.3191,-14.0
1606912236.3205,-21.0
1606912236.3225,-21.0
1606912236.3245,-7.0
1606912236.3265,-7.0
1606912236.3285,-16.0
1606912236.3306,-14.0
1606912236.3325,-12.0
1606912236.3345,-16.0
1606912236.738,-19.0
1606912236.7387,-12.0
1606912236.741,-9.0
1606912236.7438,-9.0
1606912236.7457,-12.0
1606912236.7463,-9.0
1606912236.7478,-4.0
1606912236.7498,-12.0
1606912236.7517,-24.0
1606912236.7537,-21.0
1606912236.7557,-14.0
1606912236.7577,-9.0
1606912236.7597,2.0
1606912236.7617,16.0
1606912236.7637,24.0
1606912236.7657,21.0
1606912236.7677,14.0
1606912236.7697,16.0
1606912236.7718,21.0
1606912236.7737,14.0
1606912236.7757,2.0
1606912236.7763,-4.0
1606912236.7777,-9.0
1606912236.7797,-14.0
1606912236.7817,-12.0
1606912236.7837,-4.0
1606912236.7857,-4.0
1606912236.7876,-12.0
1606912236.7896,-7.0
1606912236.7917,-2.0
1606912236.7937,-24.0
1606912236.7956,-74.0
1606912236.7977,-7.0
1606912236.7996,422.0
1606912236.8016,1122.0
1606912236.8036,1445.0
1606912236.8056,892.0
1606912236.8063,-28.0
1606912236.8077,-359.0
1606912236.8097,-135.0
1606912236.8116,-103.0
1606912236.8136,-221.0
1606912236.8156,-161.0
1606912236.8177,-110.0
1606912236.8196,-139.0
1606912236.8217,-123.0
1606912236.8236,-91.0
1606912236.8257,-91.0
1606912236.8277,-84.0
1606912236.8297,-69.0
1606912236.8316,-67.0
1606912236.8337,-62.0
1606912236.8356,-53.0
1606912236.8363,-45.0
1606912236.8377,-36.0
1606912236.8396,-24.0
1606912236.8416,-12.0
1606912236.8437,4.0
1606912236.8457,26.0
1606912236.8477,48.0
1606912236.8496,69.0
1606912236.8516,89.0
1606912236.8536,101.0
1606912236.8556,98.0
1606912236.8577,94.0
1606912236.8597,89.0
1606912236.8617,72.0
1606912236.8636,48.0
1606912236.8657,21.0
1606912236.8664,-4.0
1606912236.8677,-28.0
1606912236.8697,-48.0
1606912236.8716,-57.0
1606912237.3383,-62.0
1606912237.3391,-67.0
1606912237.3411,-67.0
1606912237.3431,-67.0
1606912237.3451,-72.0
1606912237.3471,-77.0
1606912237.3491,-72.0
1606912237.3511,-60.0
1606912237.3531,-60.0
1606912237.3551,-60.0
1606912237.3557,-53.0
1606912237.3571,-48.0
1606912237.359,-43.0
1606912237.361,-33.0
1606912237.3631,-31.0
1606912237.3657,-31.0
1606912237.3677,-31.0
1606912237.3731,-31.0
1606912237.3742,-28.0
1606912237.3761,-28.0
1606912237.3781,-26.0
1606912237.38,-26.0
1606912237.382,-24.0
1606912237.384,-24.0
1606912237.386,-21.0
1606912237.388,-21.0
1606912237.3886,-19.0
1606912237.39,-16.0
1606912237.3919,-16.0
1606912237.394,-16.0
1606912237.396,-14.0
1606912237.398,-9.0
1606912237.4,-7.0
1606912237.402,-7.0
1606912237.404,-9.0
1606912237.406,-7.0
1606912237.408,-4.0
1606912237.41,-2.0
1606912237.4114,-4.0
1606912237.413,-7.0
1606912237.415,-4.0
1606912237.417,-2.0
1606912237.4176,0.0
1606912237.419,0.0
1606912237.421,0.0
1606912237.423,0.0
1606912237.425,-2.0
1606912237.4272,-9.0
1606912237.429,-9.0
1606912237.431,-4.0
1606912237.433,-2.0
1606912237.435,2.0
1606912237.437,14.0
1606912237.439,21.0
1606912237.441,21.0
1606912237.4426,24.0
1606912237.449,26.0
1606912237.453,21.0
1606912237.455,21.0
1606912237.457,19.0
1606912237.459,7.0
1606912237.461,2.0
1606912237.463,-4.0
1606912237.465,-9.0
1606912237.467,-4.0
1606912237.4676,-2.0
1606912237.469,-2.0
1606912237.471,2.0
1606912237.473,4.0
1606912237.475,2.0
1606912237.477,-19.0
1606912237.479,-69.0
1606912237.481,-21.0
1606912237.8783,364.0
1606912237.879,1035.0
1606912237.8806,1447.0
1606912237.8826,1080.0
1606912237.8846,173.0
1606912237.8865,-335.0
1606912237.8886,-176.0
1606912237.8892,-86.0
1606912237.8906,-217.0
1606912237.8926,-188.0
1606912237.8946,-127.0
1606912237.8965,-154.0
1606912237.8986,-144.0
1606912237.9005,-115.0
1606912237.9025,-115.0
1606912237.9045,-108.0
1606912237.9065,-89.0
1606912237.9086,-84.0
1606912237.9105,-79.0
1606912237.9125,-69.0
1606912237.9145,-62.0
1606912237.9165,-53.0
1606912237.9186,-43.0
1606912237.9191,-26.0
1606912237.9205,-4.0
1606912237.9227,14.0
1606912237.9246,28.0
1606912237.9265,55.0
1606912237.9286,79.0
1606912237.9305,89.0
1606912237.9325,94.0
1606912237.9345,96.0
1606912237.9365,89.0
1606912237.9385,74.0
1606912237.9405,60.0
1606912237.9425,36.0
1606912237.9445,7.0
1606912237.9465,-16.0
1606912237.9485,-38.0
1606912237.9491,-55.0
1606912237.9505,-65.0
1606912237.9525,-67.0
1606912237.9545,-65.0
1606912237.9565,-62.0
1606912237.9585,-62.0
1606912237.9605,-65.0
1606912237.9625,-60.0
1606912237.9645,-55.0
1606912237.9665,-55.0
1606912237.9685,-57.0
1606912237.9705,-53.0
1606912237.9725,-45.0
1606912237.9745,-43.0
1606912237.9765,-38.0
1606912237.9785,-31.0
1606912237.9791,-31.0
1606912237.9805,-33.0
1606912237.9825,-31.0
1606912237.9845,-26.0
1606912237.9865,-21.0
1606912237.9885,-21.0
1606912237.9905,-19.0
1606912237.9925,-14.0
1606912237.9945,-9.0
1606912237.9965,-9.0
1606912237.9985,-7.0
1606912238.0005,-2.0
1606912238.0025,-2.0
1606912238.0045,-4.0
1606912238.0065,-4.0
1606912238.0086,-2.0
1606912238.0091,-2.0
1606912238.0105,-4.0
1606912238.4482,-2.0
1606912238.4487,0.0
1606912238.451,2.0
1606912238.4539,4.0
1606912238.4558,0.0
1606912238.4577,0.0
1606912238.4597,2.0
1606912238.4617,-4.0
1606912238.4637,-12.0
1606912238.4657,-7.0
1606912238.4677,-4.0
1606912238.4697,-7.0
1606912238.4717,-4.0
1606912238.4737,-2.0
1606912238.4757,0.0
1606912238.4777,0.0
1606912238.4797,0.0
1606912238.4803,2.0
1606912238.4817,14.0
1606912238.4837,26.0
1606912238.4857,33.0
1606912238.4877,41.0
1606912238.4897,38.0
1606912238.4917,26.0
1606912238.4937,26.0
1606912238.4957,26.0
1606912238.4977,14.0
1606912238.4997,7.0
1606912238.5017,7.0
1606912238.5038,2.0
1606912238.5057,0.0
1606912238.5077,2.0
1606912238.5098,-2.0
1606912238.5103,-7.0
1606912238.5117,-4.0
1606912238.5137,-2.0
1606912238.5157,-9.0
1606912238.5177,-38.0
1606912238.5197,-77.0
1606912238.5217,60.0
1606912238.5237,569.0
1606912238.5257,1228.0
1606912238.5277,1392.0
1606912238.5297,719.0
1606912238.5317,-137.0
1606912238.5337,-308.0
1606912238.5357,-89.0
1606912238.5377,-125.0
1606912238.5397,-214.0
1606912238.5403,-139.0
1606912238.5417,-108.0
1606912238.5437,-132.0
1606912238.5457,-106.0
1606912238.5477,-82.0
1606912238.5498,-82.0
1606912238.5517,-74.0
1606912238.5537,-62.0
1606912238.5557,-55.0
1606912238.5578,-45.0
1606912238.5597,-36.0
1606912238.5617,-28.0
1606912238.5638,-16.0
1606912238.5658,-7.0
1606912238.5677,7.0
1606912238.5697,28.0
1606912238.5703,45.0
1606912238.5717,60.0
1606912238.5737,82.0
1606912238.5757,101.0
1606912238.5777,113.0
1606912238.5797,120.0
1606912238.5817,123.0
1606912238.5837,113.0
1606912238.9885,91.0
1606912238.9895,60.0
1606912238.9919,31.0
1606912238.9946,2.0
1606912238.9966,-21.0
1606912238.9985,-36.0
1606912239.0006,-45.0
1606912239.0026,-62.0
1606912239.0032,-74.0
1606912239.0045,-69.0
1606912239.0065,-65.0
1606912239.0086,-67.0
1606912239.0105,-67.0
1606912239.0125,-57.0
1606912239.0145,-45.0
1606912239.0165,-45.0
1606912239.0185,-50.0
1606912239.0205,-43.0
1606912239.0225,-33.0
1606912239.0245,-36.0
1606912239.0264,-36.0
1606912239.0285,-31.0
1606912239.0304,-28.0
1606912239.0324,-21.0
1606912239.0331,-21.0
1606912239.0345,-28.0
1606912239.0365,-26.0
1606912239.0384,-16.0
1606912239.0405,-14.0
1606912239.0425,-16.0
1606912239.0445,-14.0
1606912239.0465,-14.0
1606912239.0486,-14.0
1606912239.0505,-12.0
1606912239.0525,-7.0
1606912239.0546,-4.0
1606912239.0564,-4.0
1606912239.0584,-4.0
1606912239.0604,-2.0
1606912239.0624,-7.0
1606912239.0631,-2.0
1606912239.0644,7.0
1606912239.0664,9.0
1606912239.0685,4.0
1606912239.0704,4.0
1606912239.0725,4.0
1606912239.0744,7.0
1606912239.0764,9.0
1606912239.0785,12.0
1606912239.0804,14.0
1606912239.0824,14.0
1606912239.0845,14.0
1606912239.0864,14.0
1606912239.0884,12.0
1606912239.0904,14.0
1606912239.0924,21.0
1606912239.0931,36.0
1606912239.0944,53.0
1606912239.0965,55.0
1606912239.0985,45.0
1606912239.1006,38.0
1606912239.1025,38.0
1606912239.1044,38.0
1606912239.1064,31.0
1606912239.1084,16.0
1606912239.1104,2.0
1606912239.1124,-2.0
1606912239.1144,7.0
1606912239.1164,12.0
1606912239.1184,9.0
1606912239.1204,7.0
1606912239.121,7.0
1606912239.1224,7.0
1606912239.5586,7.0
1606912239.5595,-9.0
1606912239.5619,-48.0
1606912239.5646,62.0
1606912239.5666,557.0
1606912239.5686,1233.0
1606912239.5707,1365.0
1606912239.5726,605.0
1606912239.5746,-258.0
1606912239.5766,-359.0
1606912239.5787,-94.0
1606912239.5792,-120.0
1606912239.5805,-205.0
1606912239.5825,-125.0
1606912239.5845,-91.0
1606912239.5865,-113.0
1606912239.5885,-96.0
1606912239.5905,-82.0
1606912239.5925,-84.0
1606912239.5945,-67.0
1606912239.5965,-55.0
1606912239.5986,-55.0
1606912239.6005,-41.0
1606912239.6025,-21.0
1606912239.6045,-12.0
1606912239.6065,-7.0
1606912239.6085,7.0
1606912239.6091,26.0
1606912239.6105,50.0
1606912239.6125,72.0
1606912239.6145,94.0
1606912239.6165,115.0
1606912239.6185,137.0
1606912239.6205,152.0
1606912239.6225,154.0
1606912239.6245,147.0
1606912239.6265,137.0
1606912239.6285,113.0
1606912239.6305,74.0
1606912239.6325,38.0
1606912239.6345,4.0
1606912239.6365,-26.0
1606912239.6384,-43.0
1606912239.6391,-57.0
1606912239.6405,-72.0
1606912239.6425,-72.0
1606912239.6445,-65.0
1606912239.6465,-65.0
1606912239.6485,-72.0
1606912239.6505,-74.0
1606912239.6525,-67.0
1606912239.6545,-60.0
1606912239.6565,-60.0
1606912239.6585,-50.0
1606912239.6605,-38.0
1606912239.6625,-33.0
1606912239.6645,-31.0
1606912239.6665,-24.0
1606912239.6685,-16.0
1606912239.6691,-14.0
