,ecg
1607020135.2181,154.0
1607020135.2207,1066.0
1607020135.2234,3500.0
1607020135.226,6052.0
1607020135.2282,7371.0
1607020135.2303,8345.0
1607020135.2326,9490.0
1607020135.2349,10289.0
1607020135.237,10864.0
1607020135.2391,11475.0
1607020135.2408,11955.0
1607020135.2427,12306.0
1607020135.2448,12653.0
1607020135.2468,12948.0
1607020135.2489,13159.0
1607020135.2513,13340.0
1607020135.2534,13478.0
1607020135.2556,13559.0
1607020135.2577,13613.0
1607020135.2597,13611.0
1607020135.2608,13580.0
1607020135.2627,13566.0
1607020135.2648,13535.0
1607020135.2668,13504.0
1607020135.2689,13506.0
1607020135.2707,13511.0
1607020135.2727,13495.0
1607020135.2747,13483.0
1607020135.2767,13483.0
1607020135.2788,13471.0
1607020135.2807,13437.0
1607020135.2827,13414.0
1607020135.2847,13402.0
1607020135.2867,13369.0
1607020135.2887,13309.0
1607020135.2907,13266.0
1607020135.2927,13233.0
1607020135.2947,13181.0
1607020135.2967,13117.0
1607020135.2987,13064.0
1607020135.3007,13012.0
1607020135.3027,12943.0
1607020135.3047,12872.0
1607020135.3067,12805.0
1607020135.3087,12753.0
1607020135.3107,12696.0
1607020135.3127,12601.0
1607020135.3147,12511.0
1607020135.3168,12454.0
1607020135.3187,12385.0
1607020135.3208,12309.0
1607020135.3227,12228.0
1607020135.3246,12135.0
1607020135.3266,12050.0
1607020135.3287,11974.0
1607020135.3306,11902.0
1607020135.3326,11829.0
1607020135.3347,11736.0
1607020135.3366,11641.0
1607020135.3387,11570.0
1607020135.3406,11494.0
1607020135.3426,11399.0
1607020135.3446,11311.0
1607020135.3466,11232.0
1607020135.3487,11142.0
1607020135.3506,11047.0
1607020135.3526,10961.0
1607020135.3546,10888.0
1607020135.3566,10819.0
1607020135.3587,10757.0
1607020135.3606,10690.0
1607020135.3626,10605.0
1607020135.3646,10505.0
1607020135.7871,10398.0
1607020135.788,10296.0
1607020135.7904,10199.0
1607020135.7931,10104.0
1607020135.7951,10018.0
1607020135.7971,9935.0
1607020135.7992,9852.0
1607020135.8011,9766.0
1607020135.8031,9683.0
1607020135.8051,9612.0
1607020135.8071,9531.0
1607020135.8092,9381.0
1607020135.8111,9186.0
1607020135.8131,9105.0
1607020135.8151,9277.0
1607020135.817,9768.0
1607020135.8191,10403.0
1607020135.821,10282.0
1607020135.823,8963.0
1607020135.825,7965.0
1607020135.827,8295.0
1607020135.8291,8663.0
1607020135.831,8431.0
1607020135.833,8305.0
1607020135.835,8345.0
1607020135.837,8255.0
1607020135.8391,8155.0
1607020135.841,8112.0
1607020135.8432,8046.0
1607020135.8451,7970.0
1607020135.847,7913.0
1607020135.8491,7848.0
1607020135.851,7780.0
1607020135.853,7718.0
1607020135.855,7658.0
1607020135.857,7594.0
1607020135.8591,7535.0
1607020135.861,7492.0
1607020135.863,7444.0
1607020135.865,7383.0
1607020135.867,7323.0
1607020135.8691,7278.0
1607020135.871,7228.0
1607020135.873,7162.0
1607020135.875,7102.0
1607020135.877,7048.0
1607020135.879,6981.0
1607020135.881,6898.0
1607020135.883,6810.0
1607020135.885,6713.0
1607020135.887,6587.0
1607020135.889,6437.0
1607020135.8911,6294.0
1607020135.893,6156.0
1607020135.895,6026.0
1607020135.897,5924.0
1607020135.899,5840.0
1607020135.901,5762.0
1607020135.903,5691.0
1607020135.905,5634.0
1607020135.907,5584.0
1607020135.909,5534.0
1607020135.911,5479.0
1607020135.913,5422.0
1607020135.915,5372.0
1607020135.917,5320.0
1607020135.919,5268.0
1607020135.921,5220.0
1607020135.923,5168.0
1607020135.925,5109.0
1607020135.927,5056.0
1607020135.929,5006.0
1607020135.9311,4959.0
1607020136.327,4907.0
1607020136.3277,4852.0
1607020136.3302,4797.0
1607020136.3328,4747.0
1607020136.3348,4697.0
1607020136.3368,4643.0
1607020136.3391,4600.0
1607020136.3409,4555.0
1607020136.3428,4493.0
1607020136.3448,4429.0
1607020136.3468,4389.0
1607020136.3488,4353.0
1607020136.3508,4293.0
1607020136.3528,4229.0
1607020136.3548,4189.0
1607020136.3568,4153.0
1607020136.3588,4106.0
1607020136.3608,4056.0
1607020136.3628,4018.0
1607020136.3648,3975.0
1607020136.3669,3925.0
1607020136.3688,3882.0
1607020136.3708,3847.0
1607020136.3727,3806.0
1607020136.3748,3761.0
1607020136.3768,3716.0
1607020136.3788,3676.0
1607020136.3808,3635.0
1607020136.3828,3588.0
1607020136.3848,3547.0
1607020136.3868,3516.0
1607020136.3888,3493.0
1607020136.3908,3476.0
1607020136.3928,3462.0
1607020136.3947,3424.0
1607020136.3967,3371.0
1607020136.3988,3322.0
1607020136.4008,3267.0
1607020136.4027,3217.0
1607020136.4048,3181.0
1607020136.4068,3143.0
1607020136.4089,3105.0
1607020136.4108,3074.0
1607020136.4128,3039.0
1607020136.4148,3001.0
1607020136.4168,2975.0
1607020136.4189,2944.0
1607020136.4208,2877.0
1607020136.4228,2768.0
1607020136.4248,2706.0
1607020136.4268,2851.0
1607020136.4288,3314.0
1607020136.4308,3987.0
1607020136.4328,4127.0
1607020136.4348,3074.0
1607020136.4368,1996.0
1607020136.4388,2198.0
1607020136.4409,2687.0
1607020136.4428,2545.0
1607020136.4448,2419.0
1607020136.4468,2523.0
1607020136.4488,2499.0
1607020136.4508,2426.0
1607020136.4528,2440.0
1607020136.4548,2435.0
1607020136.4568,2395.0
1607020136.4588,2383.0
1607020136.4608,2378.0
1607020136.4628,2354.0
1607020136.4648,2343.0
1607020136.4668,2335.0
1607020136.4688,2326.0
1607020136.4708,2321.0
1607020136.8663,2314.0
1607020136.8671,2305.0
1607020136.8689,2302.0
1607020136.8709,2302.0
1607020136.8729,2300.0
1607020136.8749,2297.0
1607020136.8769,2293.0
1607020136.8789,2286.0
1607020136.8809,2274.0
1607020136.8829,2252.0
1607020136.8849,2219.0
1607020136.8869,2186.0
1607020136.8889,2141.0
1607020136.8909,2067.0
1607020136.8928,1981.0
1607020136.8948,1889.0
1607020136.8968,1791.0
1607020136.8989,1708.0
1607020136.9008,1642.0
1607020136.9028,1594.0
1607020136.9048,1561.0
1607020136.9068,1539.0
1607020136.9089,1523.0
1607020136.9108,1508.0
1607020136.9128,1492.0
1607020136.9148,1480.0
1607020136.9168,1475.0
1607020136.9189,1468.0
1607020136.9208,1456.0
1607020136.9228,1447.0
1607020136.9248,1435.0
1607020136.9268,1425.0
1607020136.9289,1423.0
1607020136.9309,1413.0
1607020136.9328,1397.0
1607020136.935,1385.0
1607020136.9369,1380.0
1607020136.9389,1366.0
1607020136.9408,1349.0
1607020136.9428,1335.0
1607020136.9448,1323.0
1607020136.9468,1314.0
1607020136.9489,1302.0
1607020136.9508,1287.0
1607020136.9528,1273.0
1607020136.9548,1259.0
1607020136.9568,1252.0
1607020136.9589,1247.0
1607020136.9608,1233.0
1607020136.9628,1216.0
1607020136.9648,1207.0
1607020136.9668,1192.0
1607020136.9689,1181.0
1607020136.9708,1169.0
1607020136.9728,1159.0
1607020136.9748,1154.0
1607020136.9768,1147.0
1607020136.9789,1133.0
1607020136.9808,1126.0
1607020136.9828,1114.0
1607020136.9848,1097.0
1607020136.9868,1083.0
1607020136.9889,1076.0
1607020136.9909,1064.0
1607020136.9928,1059.0
1607020136.9948,1059.0
1607020136.9968,1043.0
1607020136.9989,1021.0
1607020137.001,1012.0
1607020137.0029,1002.0
1607020137.0048,986.0
1607020137.0068,986.0
1607020137.0089,1002.0
1607020137.4367,1014.0
1607020137.4376,1021.0
1607020137.4401,1021.0
1607020137.4427,1005.0
1607020137.4447,979.0
1607020137.4467,952.0
1607020137.4487,922.0
1607020137.4506,902.0
1607020137.4526,898.0
1607020137.4546,891.0
1607020137.4566,879.0
1607020137.4587,874.0
1607020137.4606,869.0
1607020137.4628,860.0
1607020137.4646,848.0
1607020137.4666,810.0
1607020137.4686,729.0
1607020137.4706,698.0
1607020137.4726,895.0
1607020137.4746,1413.0
1607020137.4766,2076.0
1607020137.4786,2160.0
1607020137.4806,1052.0
1607020137.4826,-59.0
1607020137.4846,197.0
1607020137.4866,803.0
1607020137.4886,746.0
1607020137.4906,641.0
1607020137.4926,758.0
1607020137.4946,762.0
1607020137.4966,717.0
1607020137.4986,755.0
1607020137.5006,779.0
1607020137.5026,760.0
1607020137.5046,765.0
1607020137.5066,779.0
1607020137.5087,784.0
1607020137.5106,796.0
1607020137.5126,810.0
1607020137.5146,817.0
1607020137.5166,829.0
1607020137.5186,836.0
1607020137.5206,845.0
1607020137.5226,869.0
1607020137.5246,886.0
1607020137.5266,895.0
1607020137.5286,907.0
1607020137.5306,919.0
1607020137.5326,931.0
1607020137.5346,941.0
1607020137.5366,941.0
1607020137.5386,924.0
1607020137.5406,905.0
1607020137.5426,876.0
1607020137.5446,826.0
1607020137.5466,758.0
1607020137.5487,670.0
1607020137.5506,572.0
1607020137.5526,496.0
1607020137.5546,449.0
1607020137.5566,408.0
1607020137.5586,382.0
1607020137.5606,380.0
1607020137.5626,380.0
1607020137.5648,373.0
1607020137.5667,373.0
1607020137.5687,387.0
1607020137.5706,401.0
1607020137.5726,403.0
1607020137.5746,403.0
1607020137.5766,406.0
1607020137.5786,411.0
1607020137.5806,413.0
1607020137.9763,413.0
1607020137.977,415.0
1607020137.9795,418.0
1607020137.9821,413.0
1607020137.9841,411.0
1607020137.9861,408.0
1607020137.9881,403.0
1607020137.99,392.0
1607020137.992,382.0
1607020137.994,382.0
1607020137.996,382.0
1607020137.998,375.0
1607020138.0001,373.0
1607020138.002,377.0
1607020138.0041,375.0
1607020138.0061,370.0
1607020138.008,373.0
1607020138.0101,373.0
1607020138.012,368.0
1607020138.014,363.0
1607020138.016,361.0
1607020138.0181,363.0
1607020138.0201,368.0
1607020138.022,363.0
1607020138.0241,361.0
1607020138.026,363.0
1607020138.0282,365.0
1607020138.03,356.0
1607020138.032,349.0
1607020138.034,344.0
1607020138.036,342.0
1607020138.0381,346.0
1607020138.04,373.0
1607020138.042,406.0
1607020138.044,418.0
1607020138.046,408.0
1607020138.048,394.0
1607020138.0501,377.0
1607020138.0521,351.0
1607020138.054,330.0
1607020138.0561,325.0
1607020138.058,325.0
1607020138.0603,327.0
1607020138.0621,327.0
1607020138.064,323.0
1607020138.066,325.0
1607020138.068,330.0
1607020138.0701,325.0
1607020138.072,268.0
1607020138.074,185.0
1607020138.076,211.0
1607020138.078,518.0
1607020138.08,1152.0
1607020138.082,1786.0
1607020138.0841,1501.0
1607020138.086,185.0
1607020138.088,-506.0
1607020138.0901,21.0
1607020138.092,382.0
1607020138.094,228.0
1607020138.096,228.0
1607020138.098,327.0
1607020138.1001,297.0
1607020138.102,289.0
1607020138.1041,335.0
1607020138.106,337.0
1607020138.108,330.0
1607020138.1101,354.0
1607020138.112,370.0
1607020138.114,375.0
1607020138.116,387.0
1607020138.1181,403.0
1607020138.12,420.0
1607020138.5767,434.0
1607020138.5776,451.0
1607020138.5801,463.0
1607020138.5827,480.0
1607020138.5847,499.0
1607020138.5867,515.0
1607020138.5886,532.0
1607020138.5906,558.0
1607020138.5927,570.0
1607020138.5946,567.0
1607020138.5966,567.0
1607020138.5987,563.0
1607020138.6006,537.0
1607020138.6026,496.0
1607020138.6046,441.0
1607020138.6066,363.0
1607020138.6087,275.0
1607020138.6106,201.0
1607020138.6126,147.0
1607020138.6146,109.0
1607020138.6168,85.0
1607020138.6187,73.0
1607020138.6206,73.0
1607020138.6226,78.0
1607020138.6246,85.0
1607020138.6267,92.0
1607020138.6286,102.0
1607020138.6306,111.0
1607020138.6326,121.0
1607020138.6346,123.0
1607020138.6366,128.0
1607020138.6386,137.0
1607020138.6407,140.0
1607020138.6426,142.0
1607020138.6446,149.0
1607020138.6466,154.0
1607020138.6487,156.0
1607020138.6506,161.0
1607020138.6526,166.0
1607020138.6546,166.0
1607020138.6566,163.0
1607020138.6587,166.0
1607020138.6606,168.0
1607020138.6626,168.0
1607020138.6646,168.0
1607020138.6666,168.0
1607020138.6687,168.0
1607020138.6706,166.0
1607020138.6726,166.0
1607020138.6746,171.0
1607020138.6766,173.0
1607020138.6786,166.0
1607020138.6806,166.0
1607020138.6826,173.0
1607020138.6846,173.0
1607020138.6866,171.0
1607020138.6886,171.0
1607020138.6906,168.0
1607020138.6926,163.0
1607020138.6946,163.0
1607020138.6966,163.0
1607020138.6986,166.0
1607020138.7006,185.0
1607020138.7026,218.0
1607020138.7046,242.0
1607020138.7066,240.0
1607020138.7087,225.0
1607020138.7106,206.0
1607020138.7126,180.0
1607020138.7146,163.0
1607020138.7166,166.0
1607020138.7188,168.0
1607020138.7206,163.0
1607020139.1162,166.0
1607020139.117,163.0
1607020139.1195,163.0
1607020139.122,168.0
1607020139.124,166.0
1607020139.126,123.0
1607020139.128,42.0
1607020139.13,54.0
1607020139.1319,323.0
1607020139.134,910.0
1607020139.136,1546.0
1607020139.1379,1368.0
1607020139.14,147.0
1607020139.142,-584.0
1607020139.144,-111.0
1607020139.1459,256.0
1607020139.148,85.0
1607020139.1499,68.0
1607020139.152,187.0
1607020139.1539,159.0
1607020139.1559,135.0
1607020139.1579,185.0
1607020139.16,199.0
1607020139.1619,194.0
1607020139.164,216.0
1607020139.1659,235.0
1607020139.1679,240.0
1607020139.17,254.0
1607020139.1719,273.0
1607020139.1739,285.0
1607020139.1759,301.0
1607020139.178,325.0
1607020139.18,346.0
1607020139.1819,361.0
1607020139.1839,382.0
1607020139.1859,408.0
1607020139.1879,427.0
1607020139.1899,444.0
1607020139.1919,458.0
1607020139.1939,468.0
1607020139.1959,465.0
1607020139.1979,453.0
1607020139.2,434.0
1607020139.202,403.0
1607020139.2039,346.0
1607020139.2059,270.0
1607020139.2079,192.0
1607020139.21,121.0
1607020139.212,61.0
1607020139.2141,21.0
1607020139.216,0.0
1607020139.2179,-9.0
1607020139.22,-16.0
1607020139.2219,-14.0
1607020139.2239,-2.0
1607020139.2259,7.0
1607020139.228,16.0
1607020139.23,26.0
1607020139.2319,35.0
1607020139.2339,38.0
1607020139.2359,38.0
1607020139.2379,42.0
1607020139.24,52.0
1607020139.2419,59.0
1607020139.2439,64.0
1607020139.2459,68.0
1607020139.2479,73.0
1607020139.25,76.0
1607020139.2519,80.0
1607020139.2539,85.0
1607020139.2559,87.0
1607020139.2579,87.0
1607020139.26,90.0
1607020139.6866,90.0
1607020139.6876,90.0
1607020139.6901,95.0
1607020139.6927,97.0
1607020139.6947,95.0
1607020139.6967,97.0
1607020139.6988,97.0
1607020139.7006,87.0
1607020139.7026,83.0
1607020139.7046,90.0
1607020139.7066,90.0
1607020139.7087,85.0
1607020139.7107,83.0
1607020139.7126,90.0
1607020139.7147,99.0
1607020139.7166,121.0
1607020139.7187,159.0
1607020139.7206,178.0
1607020139.7226,166.0
1607020139.7246,147.0
1607020139.7266,133.0
1607020139.7286,121.0
1607020139.7306,111.0
1607020139.7326,109.0
1607020139.7346,106.0
1607020139.7366,109.0
1607020139.7385,114.0
1607020139.7408,114.0
1607020139.7426,114.0
1607020139.7446,116.0
1607020139.7453,102.0
1607020139.7476,42.0
1607020139.7496,-19.0
1607020139.7516,59.0
1607020139.7536,422.0
1607020139.7556,1066.0
1607020139.7576,1530.0
1607020139.7596,943.0
1607020139.7616,-308.0
1607020139.7636,-579.0
1607020139.7656,38.0
1607020139.7676,199.0
1607020139.7696,14.0
1607020139.7716,71.0
1607020139.7736,152.0
1607020139.7756,106.0
1607020139.7763,114.0
1607020139.7787,161.0
1607020139.7806,163.0
1607020139.7826,161.0
1607020139.7846,187.0
1607020139.7866,201.0
1607020139.7886,204.0
1607020139.7906,213.0
1607020139.7926,235.0
1607020139.7946,251.0
1607020139.7966,266.0
1607020139.7986,289.0
1607020139.8006,316.0
1607020139.8026,335.0
1607020139.8046,351.0
1607020139.8066,370.0
1607020139.8073,387.0
1607020139.8096,403.0
1607020139.8116,425.0
1607020139.8136,437.0
1607020139.8156,434.0
1607020139.8176,418.0
1607020139.8196,392.0
1607020139.8216,349.0
1607020139.8236,289.0
1607020139.8256,209.0
1607020139.8276,123.0
1607020140.2563,52.0
1607020140.2573,9.0
1607020140.2597,-19.0
1607020140.261,-38.0
1607020140.2623,-45.0
1607020140.2646,-42.0
1607020140.2664,-40.0
1607020140.2684,-33.0
1607020140.2702,-28.0
1607020140.2722,-26.0
1607020140.2742,-11.0
1607020140.2762,2.0
1607020140.2783,4.0
1607020140.2803,14.0
1607020140.2823,28.0
1607020140.2843,28.0
1607020140.2862,28.0
1607020140.2882,40.0
1607020140.2902,47.0
1607020140.2909,47.0
1607020140.2933,52.0
1607020140.2952,61.0
1607020140.2972,61.0
1607020140.2993,57.0
1607020140.3013,61.0
1607020140.3032,68.0
1607020140.3053,71.0
1607020140.3072,71.0
1607020140.3093,73.0
1607020140.3112,71.0
1607020140.3132,68.0
1607020140.3152,73.0
1607020140.3172,78.0
1607020140.3193,78.0
1607020140.3213,73.0
1607020140.3219,68.0
1607020140.3242,71.0
1607020140.3262,76.0
1607020140.3284,102.0
1607020140.3303,140.0
1607020140.3322,156.0
1607020140.3342,154.0
1607020140.3362,147.0
1607020140.3382,125.0
1607020140.3402,95.0
1607020140.3423,78.0
1607020140.3442,85.0
1607020140.3462,95.0
1607020140.3482,92.0
1607020140.3503,90.0
1607020140.3522,95.0
1607020140.3529,102.0
1607020140.3552,106.0
1607020140.3572,97.0
1607020140.3593,47.0
1607020140.3612,-16.0
1607020140.3635,66.0
1607020140.3653,451.0
1607020140.3672,1093.0
1607020140.3693,1535.0
1607020140.3712,964.0
1607020140.3732,-377.0
1607020140.3752,-812.0
1607020140.3772,-156.0
1607020140.3793,173.0
1607020140.3812,42.0
1607020140.3835,68.0
1607020140.3852,149.0
1607020140.3872,123.0
1607020140.3892,121.0
1607020140.3912,156.0
1607020140.3933,161.0
1607020140.3952,168.0
1607020140.7964,185.0
1607020140.7973,197.0
1607020140.7998,211.0
1607020140.8024,235.0
1607020140.8043,249.0
1607020140.8064,251.0
1607020140.8084,263.0
1607020140.8103,289.0
1607020140.8123,308.0
1607020140.813,318.0
1607020140.8153,335.0
1607020140.8173,370.0
1607020140.8193,392.0
1607020140.8213,396.0
1607020140.8232,403.0
1607020140.8252,420.0
1607020140.8273,418.0
1607020140.8293,394.0
1607020140.8313,365.0
1607020140.8333,330.0
1607020140.8353,266.0
1607020140.8373,180.0
1607020140.8393,95.0
1607020140.8413,19.0
1607020140.8433,-30.0
1607020140.844,-57.0
1607020140.8463,-71.0
1607020140.8483,-78.0
1607020140.8503,-78.0
1607020140.8523,-73.0
1607020140.8543,-59.0
1607020140.8562,-42.0
1607020140.8583,-30.0
1607020140.8603,-26.0
1607020140.8625,-16.0
1607020140.8644,-2.0
1607020140.8662,4.0
1607020140.8683,0.0
1607020140.8703,0.0
1607020140.8723,9.0
1607020140.8743,16.0
1607020140.875,16.0
1607020140.8773,23.0
1607020140.8793,33.0
1607020140.8813,35.0
1607020140.8834,30.0
1607020140.8853,30.0
1607020140.8873,35.0
1607020140.8893,35.0
1607020140.8913,38.0
1607020140.8933,47.0
1607020140.8953,49.0
1607020140.8973,45.0
1607020140.8993,42.0
1607020140.9013,45.0
1607020140.9033,42.0
1607020140.9052,42.0
1607020140.906,45.0
1607020140.9073,47.0
1607020140.9093,61.0
1607020140.9113,92.0
1607020140.9133,118.0
1607020140.9153,133.0
1607020140.9173,125.0
1607020140.9193,99.0
1607020140.9213,73.0
1607020140.9233,68.0
1607020140.9253,73.0
1607020140.9273,73.0
1607020140.9293,76.0
1607020140.9313,78.0
1607020140.9333,76.0
1607020140.9353,78.0
1607020141.3362,87.0
1607020141.3372,78.0
1607020141.3396,30.0
1607020141.3423,-40.0
1607020141.3444,-19.0
1607020141.3462,275.0
1607020141.3483,893.0
1607020141.3502,1504.0
1607020141.3522,1235.0
1607020141.3542,-54.0
1607020141.3562,-774.0
1607020141.3581,-259.0
1607020141.3603,149.0
1607020141.3622,9.0
1607020141.3642,-4.0
1607020141.3662,99.0
1607020141.3682,76.0
1607020141.3701,59.0
1607020141.3722,104.0
1607020141.3741,114.0
1607020141.3761,114.0
1607020141.3781,140.0
1607020141.3801,152.0
1607020141.3821,159.0
1607020141.3841,180.0
1607020141.3861,197.0
1607020141.3881,211.0
1607020141.3901,232.0
1607020141.3921,251.0
1607020141.3941,263.0
1607020141.3961,280.0
1607020141.3981,304.0
1607020141.4001,327.0
1607020141.4021,344.0
1607020141.4042,356.0
1607020141.4061,368.0
1607020141.4081,375.0
1607020141.4101,370.0
1607020141.4121,354.0
1607020141.4141,327.0
1607020141.4161,287.0
1607020141.4182,223.0
1607020141.4201,147.0
1607020141.4221,66.0
1607020141.4241,-2.0
1607020141.4261,-47.0
1607020141.4282,-76.0
1607020141.4301,-92.0
1607020141.4321,-104.0
1607020141.4341,-104.0
1607020141.4361,-92.0
1607020141.4381,-80.0
1607020141.4401,-68.0
1607020141.4421,-61.0
1607020141.4441,-52.0
1607020141.4461,-40.0
1607020141.4481,-33.0
1607020141.4501,-28.0
1607020141.4521,-21.0
1607020141.4541,-7.0
1607020141.4561,-2.0
1607020141.4581,-2.0
1607020141.4601,4.0
1607020141.4622,14.0
1607020141.4642,14.0
1607020141.4661,9.0
1607020141.4681,14.0
1607020141.4701,21.0
1607020141.4721,23.0
1607020141.4741,21.0
1607020141.4761,23.0
1607020141.4781,28.0
1607020141.4801,33.0
1607020141.9364,35.0
1607020141.9372,38.0
1607020141.9397,38.0
1607020141.9424,33.0
1607020141.9443,28.0
1607020141.9463,26.0
1607020141.9485,26.0
1607020141.9504,23.0
1607020141.9523,23.0
1607020141.9543,33.0
1607020141.9564,61.0
1607020141.9584,97.0
1607020141.9603,114.0
1607020141.9623,114.0
1607020141.9642,102.0
1607020141.9663,80.0
1607020141.9683,57.0
1607020141.9702,57.0
1607020141.9723,64.0
1607020141.9742,61.0
1607020141.9762,61.0
1607020141.9783,64.0
1607020141.9802,59.0
1607020141.9822,61.0
1607020141.9842,68.0
1607020141.9862,52.0
1607020141.9882,-19.0
1607020141.9902,-80.0
1607020141.9922,33.0
1607020141.9942,463.0
1607020141.9962,1173.0
1607020141.9982,1582.0
1607020142.0002,807.0
1607020142.0022,-465.0
1607020142.0042,-563.0
1607020142.0062,59.0
1607020142.0083,109.0
1607020142.0103,-57.0
1607020142.0122,42.0
1607020142.0142,92.0
1607020142.0162,40.0
1607020142.0184,71.0
1607020142.0203,111.0
1607020142.0222,102.0
1607020142.0242,106.0
1607020142.0262,130.0
1607020142.0282,140.0
1607020142.0302,152.0
1607020142.0323,173.0
1607020142.0342,190.0
1607020142.0362,201.0
1607020142.0382,218.0
1607020142.0402,240.0
1607020142.0422,261.0
1607020142.0442,282.0
1607020142.0462,304.0
1607020142.0482,325.0
1607020142.0502,344.0
1607020142.0522,356.0
1607020142.0542,368.0
1607020142.0562,375.0
1607020142.0582,368.0
1607020142.0602,349.0
1607020142.0622,316.0
1607020142.0642,266.0
1607020142.0662,197.0
1607020142.0682,116.0
1607020142.0702,38.0
1607020142.0722,-23.0
1607020142.0742,-61.0
1607020142.0762,-90.0
1607020142.0782,-106.0
1607020142.0802,-106.0
1607020142.5062,-102.0
1607020142.5071,-97.0
1607020142.5096,-87.0
1607020142.5122,-76.0
1607020142.5142,-66.0
1607020142.5162,-57.0
1607020142.5183,-45.0
1607020142.5202,-40.0
1607020142.5222,-40.0
1607020142.5242,-40.0
1607020142.5262,-35.0
1607020142.5282,-23.0
1607020142.5301,-16.0
1607020142.5321,-14.0
1607020142.5341,-11.0
1607020142.5361,-11.0
1607020142.5381,-9.0
1607020142.5401,-7.0
1607020142.5422,0.0
1607020142.5444,2.0
1607020142.5462,4.0
1607020142.5483,4.0
1607020142.5501,7.0
1607020142.5521,14.0
1607020142.5541,19.0
1607020142.5561,19.0
1607020142.5581,19.0
1607020142.5601,26.0
1607020142.5621,28.0
1607020142.5641,30.0
1607020142.5661,30.0
1607020142.5682,28.0
1607020142.5701,26.0
1607020142.5721,28.0
1607020142.5741,28.0
1607020142.5761,30.0
1607020142.5781,35.0
1607020142.5801,40.0
1607020142.5821,61.0
1607020142.5841,97.0
1607020142.5861,118.0
1607020142.5881,114.0
1607020142.5901,102.0
1607020142.5921,87.0
1607020142.5941,68.0
1607020142.5961,57.0
1607020142.5981,54.0
1607020142.6001,57.0
1607020142.6021,59.0
1607020142.6041,59.0
1607020142.6061,59.0
1607020142.6081,61.0
1607020142.6101,66.0
1607020142.6121,59.0
1607020142.6141,7.0
1607020142.6161,-68.0
1607020142.6182,-30.0
1607020142.6201,282.0
1607020142.6221,917.0
1607020142.6241,1492.0
1607020142.6261,1093.0
1607020142.6281,-173.0
1607020142.6301,-648.0
1607020142.6321,-85.0
1607020142.6341,152.0
1607020142.6361,-33.0
1607020142.6381,2.0
1607020142.6402,97.0
1607020142.6421,54.0
1607020142.6441,57.0
1607020142.6462,106.0
1607020142.6482,106.0
1607020142.6501,106.0
1607020143.0461,128.0
1607020143.0469,137.0
1607020143.0494,147.0
1607020143.0519,168.0
1607020143.0539,187.0
1607020143.0559,201.0
1607020143.058,213.0
1607020143.0599,225.0
1607020143.0619,242.0
1607020143.0639,263.0
1607020143.0659,278.0
1607020143.0679,297.0
1607020143.0699,318.0
1607020143.0719,332.0
1607020143.0739,342.0
1607020143.0759,351.0
1607020143.0779,354.0
1607020143.0799,342.0
1607020143.0819,318.0
1607020143.0839,278.0
1607020143.0859,218.0
1607020143.0879,144.0
1607020143.0899,66.0
1607020143.0919,0.0
1607020143.0939,-47.0
1607020143.0959,-76.0
1607020143.0979,-95.0
1607020143.0999,-104.0
1607020143.1019,-102.0
1607020143.1039,-95.0
1607020143.1059,-90.0
1607020143.1079,-76.0
1607020143.1099,-59.0
1607020143.1119,-54.0
1607020143.1139,-49.0
1607020143.1159,-35.0
1607020143.1179,-26.0
1607020143.1199,-28.0
1607020143.1219,-21.0
1607020143.1239,-4.0
1607020143.1259,0.0
1607020143.1279,-2.0
1607020143.1299,0.0
1607020143.1319,4.0
1607020143.1339,14.0
1607020143.1359,16.0
1607020143.1379,11.0
1607020143.1399,16.0
1607020143.1421,21.0
1607020143.1439,23.0
1607020143.1459,23.0
1607020143.1479,23.0
1607020143.1499,26.0
1607020143.1519,33.0
1607020143.1539,33.0
1607020143.1559,33.0
1607020143.1579,33.0
1607020143.1599,30.0
1607020143.1619,40.0
1607020143.1639,49.0
1607020143.1659,42.0
1607020143.1679,38.0
1607020143.1699,45.0
1607020143.1719,52.0
1607020143.1739,54.0
1607020143.1759,54.0
1607020143.1779,52.0
1607020143.1799,52.0
1607020143.1819,59.0
1607020143.1839,64.0
1607020143.1859,64.0
1607020143.1879,66.0
1607020143.1899,64.0
1607020143.6162,59.0
1607020143.6173,61.0
1607020143.6198,61.0
1607020143.6225,57.0
1607020143.6244,54.0
1607020143.6263,57.0
1607020143.6285,54.0
1607020143.6303,59.0
1607020143.6323,85.0
1607020143.6343,116.0
1607020143.6364,125.0
1607020143.6384,116.0
1607020143.6403,97.0
1607020143.6423,78.0
1607020143.6444,66.0
1607020143.6463,61.0
1607020143.6484,59.0
1607020143.6503,64.0
1607020143.6523,71.0
1607020143.6543,66.0
1607020143.6563,66.0
1607020143.6584,78.0
1607020143.6602,80.0
1607020143.6622,52.0
1607020143.6642,-14.0
1607020143.6662,-45.0
1607020143.6685,125.0
1607020143.6703,598.0
1607020143.6722,1259.0
1607020143.6742,1463.0
1607020143.6762,487.0
1607020143.6783,-712.0
1607020143.6802,-594.0
1607020143.6822,64.0
1607020143.6842,92.0
1607020143.6862,-21.0
1607020143.6883,83.0
1607020143.6902,109.0
1607020143.6922,64.0
1607020143.6943,99.0
1607020143.6962,130.0
1607020143.6983,128.0
1607020143.7002,144.0
1607020143.7023,166.0
1607020143.7042,168.0
1607020143.7062,175.0
1607020143.7083,192.0
1607020143.7102,206.0
1607020143.7122,223.0
1607020143.7143,244.0
1607020143.7162,259.0
1607020143.7183,270.0
1607020143.7202,294.0
1607020143.7222,313.0
1607020143.7242,327.0
1607020143.7262,346.0
1607020143.7283,368.0
1607020143.7303,375.0
1607020143.7322,375.0
1607020143.7343,375.0
1607020143.7362,363.0
1607020143.7383,335.0
1607020143.7402,294.0
1607020143.7422,232.0
1607020143.7442,149.0
1607020143.7462,64.0
1607020143.7483,-7.0
1607020143.7503,-57.0
1607020143.7522,-92.0
1607020143.7542,-109.0
1607020143.7563,-109.0
1607020143.7583,-109.0
1607020143.7602,-109.0
1607020144.1562,-95.0
1607020144.1571,-78.0
1607020144.1596,-68.0
1607020144.1621,-64.0
1607020144.1644,-57.0
1607020144.1662,-49.0
1607020144.1682,-40.0
1607020144.1701,-35.0
1607020144.1721,-38.0
1607020144.1741,-40.0
1607020144.1761,-30.0
1607020144.1781,-23.0
1607020144.1801,-23.0
1607020144.1821,-14.0
1607020144.1841,-7.0
1607020144.1861,-9.0
1607020144.1881,-14.0
1607020144.1901,-11.0
1607020144.1921,-4.0
1607020144.1941,-2.0
1607020144.1961,0.0
1607020144.1981,2.0
1607020144.2001,7.0
1607020144.2021,7.0
1607020144.2041,7.0
1607020144.2061,14.0
1607020144.2081,21.0
1607020144.2101,16.0
1607020144.2121,16.0
1607020144.2141,23.0
1607020144.2161,30.0
1607020144.2181,28.0
1607020144.2201,28.0
1607020144.2221,33.0
1607020144.2241,35.0
1607020144.2261,33.0
1607020144.2281,30.0
1607020144.2301,35.0
1607020144.2321,45.0
1607020144.2341,40.0
1607020144.2361,40.0
1607020144.2381,45.0
1607020144.2401,42.0
1607020144.2421,42.0
1607020144.2441,54.0
1607020144.2461,57.0
1607020144.2481,45.0
1607020144.2501,40.0
1607020144.2521,45.0
1607020144.2541,40.0
1607020144.2561,35.0
1607020144.2581,47.0
1607020144.2601,73.0
1607020144.2621,99.0
1607020144.2641,114.0
1607020144.2662,114.0
1607020144.2681,104.0
1607020144.2701,85.0
1607020144.2721,64.0
1607020144.2741,49.0
1607020144.2761,49.0
1607020144.2781,54.0
1607020144.2801,52.0
1607020144.2821,52.0
1607020144.2841,54.0
1607020144.2861,57.0
1607020144.2881,64.0
1607020144.2901,49.0
1607020144.2921,-11.0
1607020144.2941,-78.0
1607020144.2961,-7.0
1607020144.2981,356.0
1607020144.3001,1021.0
1607020144.696,1537.0
1607020144.6967,976.0
1607020144.6992,-354.0
1607020144.7018,-710.0
1607020144.7038,-83.0
1607020144.7058,114.0
1607020144.7078,-66.0
1607020144.7098,-9.0
1607020144.7117,76.0
1607020144.7137,33.0
1607020144.7158,35.0
1607020144.7178,83.0
1607020144.7198,87.0
1607020144.7218,92.0
1607020144.7237,116.0
1607020144.7258,128.0
1607020144.7277,135.0
1607020144.7298,152.0
1607020144.7317,173.0
1607020144.7337,192.0
1607020144.7357,211.0
1607020144.7377,225.0
1607020144.7397,242.0
1607020144.7417,266.0
1607020144.7437,292.0
1607020144.7457,311.0
1607020144.7477,327.0
1607020144.7498,342.0
1607020144.7517,351.0
1607020144.7537,358.0
1607020144.7557,358.0
1607020144.7578,346.0
1607020144.7598,325.0
1607020144.762,287.0
1607020144.7638,225.0
1607020144.7657,152.0
1607020144.7677,73.0
1607020144.7697,0.0
1607020144.7717,-49.0
1607020144.7738,-83.0
1607020144.7757,-106.0
1607020144.7777,-116.0
1607020144.7798,-114.0
1607020144.7817,-109.0
1607020144.7837,-99.0
1607020144.7857,-90.0
1607020144.7877,-80.0
1607020144.7897,-71.0
1607020144.7917,-64.0
1607020144.7937,-57.0
1607020144.7958,-49.0
1607020144.7977,-47.0
1607020144.7998,-42.0
1607020144.8017,-35.0
1607020144.8037,-30.0
1607020144.8058,-26.0
1607020144.8077,-19.0
1607020144.8098,-16.0
1607020144.8117,-16.0
1607020144.8137,-16.0
1607020144.8157,-16.0
1607020144.8177,-16.0
1607020144.8197,-11.0
1607020144.8217,-7.0
1607020144.8237,-2.0
1607020144.8257,-2.0
1607020144.8277,-2.0
1607020144.8297,0.0
1607020144.8317,7.0
1607020144.8337,9.0
1607020144.8357,7.0
1607020144.8377,7.0
1607020144.8398,9.0
1607020145.3263,11.0
1607020145.3275,14.0
1607020145.33,11.0
1607020145.3326,4.0
1607020145.3346,7.0
1607020145.3366,16.0
1607020145.3388,16.0
1607020145.3406,14.0
1607020145.3426,19.0
1607020145.3446,21.0
1607020145.3466,23.0
1607020145.3489,26.0
1607020145.3506,30.0
1607020145.3525,33.0
1607020145.3545,30.0
1607020145.3565,30.0
1607020145.3585,35.0
1607020145.3605,35.0
1607020145.3625,33.0
1607020145.3644,33.0
1607020145.3665,33.0
1607020145.3684,30.0
1607020145.3704,28.0
1607020145.3725,26.0
1607020145.3745,23.0
1607020145.3765,23.0
1607020145.3785,30.0
1607020145.3804,42.0
1607020145.3825,71.0
1607020145.3845,99.0
1607020145.3865,104.0
1607020145.3885,92.0
1607020145.3905,80.0
1607020145.3925,64.0
1607020145.3946,47.0
1607020145.4021,42.0
1607020145.4034,45.0
1607020145.4054,45.0
1607020145.4074,47.0
1607020145.4095,47.0
1607020145.4115,52.0
1607020145.4135,57.0
1607020145.4154,52.0
1607020145.4175,14.0
1607020145.4194,-66.0
1607020145.4214,-78.0
1607020145.4234,135.0
1607020145.4255,672.0
1607020145.4275,1363.0
1607020145.4295,1378.0
1607020145.4315,242.0
1607020145.4334,-655.0
1607020145.4354,-287.0
1607020145.4374,149.0
1607020145.4395,-11.0
1607020145.4414,-64.0
1607020145.4434,66.0
1607020145.4455,49.0
1607020145.4475,21.0
1607020145.4495,73.0
1607020145.4514,90.0
1607020145.4534,83.0
1607020145.4556,104.0
1607020145.4575,123.0
1607020145.4595,130.0
1607020145.4615,144.0
1607020145.4634,163.0
1607020145.4654,175.0
1607020145.4675,192.0
1607020145.4695,213.0
1607020145.4714,232.0
1607020145.4734,251.0
1607020145.4754,275.0
1607020145.8662,297.0
1607020145.8671,313.0
1607020145.8689,332.0
1607020145.8709,349.0
1607020145.8729,358.0
1607020145.8749,361.0
1607020145.8769,356.0
1607020145.8789,342.0
1607020145.8809,313.0
1607020145.8828,263.0
1607020145.8848,192.0
1607020145.8868,111.0
1607020145.8888,28.0
1607020145.8908,-38.0
1607020145.8928,-78.0
1607020145.8948,-106.0
1607020145.8968,-123.0
1607020145.8988,-128.0
1607020145.9008,-123.0
1607020145.9028,-116.0
1607020145.9048,-109.0
1607020145.9068,-99.0
1607020145.9088,-90.0
1607020145.9108,-80.0
1607020145.9128,-73.0
1607020145.9148,-66.0
1607020145.9168,-57.0
1607020145.9188,-52.0
1607020145.9207,-47.0
1607020145.9228,-38.0
1607020145.9248,-30.0
1607020145.9268,-33.0
1607020145.9289,-28.0
1607020145.9308,-19.0
1607020145.9327,-14.0
1607020145.9348,-14.0
1607020145.9368,-14.0
1607020145.9388,-16.0
1607020145.9408,-21.0
1607020145.9427,-16.0
1607020145.9449,-14.0
1607020145.9468,-16.0
1607020145.9488,-19.0
1607020145.9508,-16.0
1607020145.9528,-19.0
1607020145.9547,-19.0
1607020145.9568,-11.0
1607020145.9589,-7.0
1607020145.9608,-7.0
1607020145.9628,-7.0
1607020145.9648,-4.0
1607020145.9668,-2.0
1607020145.9688,2.0
1607020145.9708,7.0
1607020145.9715,7.0
1607020145.9738,9.0
1607020145.9757,11.0
1607020145.9778,14.0
1607020145.9798,14.0
1607020145.9819,16.0
1607020145.9838,21.0
1607020145.9858,23.0
1607020145.9878,23.0
1607020145.9898,26.0
1607020145.9918,33.0
1607020145.9938,33.0
1607020145.9958,33.0
1607020145.9978,33.0
1607020145.9999,33.0
1607020146.0018,35.0
1607020146.0025,38.0
1607020146.0047,35.0
1607020146.0068,33.0
1607020146.4061,28.0
1607020146.4071,26.0
1607020146.4096,26.0
1607020146.4122,33.0
1607020146.4142,49.0
1607020146.4162,76.0
1607020146.4183,99.0
1607020146.4201,106.0
1607020146.422,90.0
1607020146.4241,61.0
1607020146.4262,40.0
1607020146.4281,33.0
1607020146.4288,33.0
1607020146.431,35.0
1607020146.433,35.0
1607020146.4351,38.0
1607020146.437,40.0
1607020146.439,42.0
1607020146.4412,47.0
1607020146.4431,42.0
1607020146.445,4.0
1607020146.4471,-64.0
1607020146.449,-57.0
1607020146.451,197.0
1607020146.453,750.0
1607020146.455,1368.0
1607020146.457,1221.0
1607020146.4577,54.0
1607020146.46,-674.0
1607020146.462,-225.0
1607020146.464,144.0
1607020146.4661,-26.0
1607020146.4681,-52.0
1607020146.47,66.0
1607020146.472,47.0
1607020146.474,28.0
1607020146.476,73.0
1607020146.4781,83.0
1607020146.48,83.0
1607020146.482,109.0
1607020146.484,125.0
1607020146.486,128.0
1607020146.488,144.0
1607020146.4887,163.0
1607020146.4912,178.0
1607020146.4931,194.0
1607020146.495,211.0
1607020146.497,230.0
1607020146.4991,251.0
1607020146.501,270.0
1607020146.503,289.0
1607020146.505,313.0
1607020146.507,325.0
1607020146.5091,335.0
1607020146.511,356.0
1607020146.513,365.0
1607020146.515,351.0
1607020146.517,330.0
1607020146.5191,308.0
1607020146.5197,268.0
1607020146.522,199.0
1607020146.524,116.0
1607020146.5261,33.0
1607020146.528,-33.0
1607020146.53,-71.0
1607020146.532,-97.0
1607020146.534,-114.0
1607020146.536,-125.0
1607020146.5381,-125.0
1607020146.5402,-114.0
1607020146.5421,-102.0
1607020146.544,-95.0
1607020146.546,-90.0
1607020147.0061,-83.0
1607020147.007,-73.0
1607020147.0095,-61.0
1607020147.0121,-54.0
1607020147.0141,-49.0
1607020147.0161,-47.0
1607020147.0182,-47.0
1607020147.02,-47.0
1607020147.022,-38.0
1607020147.024,-26.0
1607020147.026,-33.0
1607020147.028,-40.0
1607020147.03,-30.0
1607020147.0319,-21.0
1607020147.034,-23.0
1607020147.0359,-21.0
1607020147.0367,-11.0
1607020147.039,-11.0
1607020147.041,-16.0
1607020147.043,-9.0
1607020147.0449,-2.0
1607020147.047,-2.0
1607020147.049,-4.0
1607020147.051,-9.0
1607020147.053,-11.0
1607020147.055,-4.0
1607020147.057,0.0
1607020147.0589,0.0
1607020147.061,7.0
1607020147.063,9.0
1607020147.065,7.0
1607020147.067,16.0
1607020147.0677,26.0
1607020147.07,19.0
1607020147.072,16.0
1607020147.0739,21.0
1607020147.0761,21.0
1607020147.0781,26.0
1607020147.08,33.0
1607020147.082,33.0
1607020147.0839,28.0
1607020147.086,28.0
1607020147.088,33.0
1607020147.09,38.0
1607020147.092,38.0
1607020147.0939,38.0
1607020147.0959,38.0
1607020147.0981,33.0
1607020147.0987,33.0
1607020147.1,35.0
1607020147.1019,42.0
1607020147.104,71.0
1607020147.106,104.0
1607020147.108,116.0
1607020147.11,102.0
1607020147.112,78.0
1607020147.114,54.0
1607020147.116,38.0
1607020147.118,38.0
1607020147.12,45.0
1607020147.122,40.0
1607020147.1239,35.0
1607020147.126,45.0
1607020147.1281,57.0
1607020147.1286,49.0
1607020147.13,38.0
1607020147.1319,16.0
1607020147.134,-35.0
1607020147.1361,-40.0
1607020147.138,190.0
1607020147.14,717.0
1607020147.142,1297.0
1607020147.144,1242.0
1607020147.546,121.0
1607020147.547,-862.0
1607020147.5494,-537.0
1607020147.5521,68.0
1607020147.554,54.0
1607020147.5561,-16.0
1607020147.5568,87.0
1607020147.559,87.0
1607020147.5609,49.0
1607020147.5629,90.0
1607020147.5649,114.0
1607020147.567,97.0
1607020147.5689,106.0
1607020147.5709,130.0
1607020147.5729,140.0
1607020147.5749,142.0
1607020147.5769,154.0
1607020147.579,173.0
1607020147.5809,190.0
1607020147.583,201.0
1607020147.585,220.0
1607020147.5869,244.0
1607020147.5876,268.0
1607020147.5899,287.0
1607020147.5919,304.0
1607020147.5942,318.0
1607020147.5961,339.0
1607020147.598,356.0
1607020147.5999,354.0
1607020147.602,344.0
1607020147.6039,332.0
1607020147.6059,306.0
1607020147.6079,261.0
1607020147.6099,197.0
1607020147.6119,111.0
1607020147.6139,23.0
1607020147.6159,-42.0
1607020147.6179,-87.0
1607020147.6187,-121.0
1607020147.621,-144.0
1607020147.6229,-149.0
1607020147.6249,-147.0
1607020147.6269,-149.0
1607020147.629,-140.0
1607020147.6309,-118.0
1607020147.6329,-109.0
1607020147.6349,-111.0
1607020147.6369,-104.0
1607020147.6389,-90.0
1607020147.6409,-76.0
1607020147.6429,-68.0
1607020147.6449,-68.0
1607020147.6469,-68.0
1607020147.6489,-59.0
1607020147.6509,-52.0
1607020147.6529,-52.0
1607020147.6549,-49.0
1607020147.6569,-49.0
1607020147.6589,-47.0
1607020147.6609,-40.0
1607020147.6629,-33.0
1607020147.6649,-30.0
1607020147.667,-33.0
1607020147.6689,-30.0
1607020147.6709,-21.0
1607020147.6729,-21.0
1607020147.6749,-23.0
1607020147.6769,-19.0
1607020147.6789,-14.0
1607020147.6809,-16.0
1607020147.683,-14.0
1607020147.685,-7.0
1607020147.6869,-2.0
1607020148.0863,-4.0
1607020148.087,-4.0
1607020148.0894,2.0
1607020148.0922,7.0
1607020148.0941,4.0
1607020148.096,2.0
1607020148.0982,4.0
1607020148.1001,4.0
1607020148.102,-7.0
1607020148.104,-16.0
1607020148.106,-16.0
1607020148.108,-11.0
1607020148.11,-2.0
1607020148.112,21.0
1607020148.114,57.0
1607020148.116,76.0
1607020148.118,66.0
1607020148.12,52.0
1607020148.122,35.0
1607020148.124,21.0
1607020148.126,11.0
1607020148.128,14.0
1607020148.13,16.0
1607020148.132,19.0
1607020148.134,16.0
1607020148.136,16.0
1607020148.138,23.0
1607020148.14,28.0
1607020148.142,11.0
1607020148.144,-38.0
1607020148.146,-90.0
1607020148.148,-11.0
1607020148.15,349.0
1607020148.152,983.0
1607020148.154,1437.0
1607020148.156,855.0
1607020148.158,-420.0
1607020148.16,-729.0
1607020148.162,-106.0
1607020148.164,99.0
1607020148.166,-61.0
1607020148.168,-9.0
1607020148.17,66.0
1607020148.172,28.0
1607020148.174,40.0
1607020148.176,83.0
1607020148.178,78.0
1607020148.18,80.0
1607020148.182,104.0
1607020148.184,118.0
1607020148.186,128.0
1607020148.188,142.0
1607020148.19,156.0
1607020148.192,171.0
1607020148.1942,190.0
1607020148.1961,209.0
1607020148.198,228.0
1607020148.2,249.0
1607020148.202,273.0
1607020148.204,294.0
1607020148.206,318.0
1607020148.208,337.0
1607020148.21,349.0
1607020148.212,351.0
1607020148.214,344.0
1607020148.216,332.0
1607020148.218,311.0
1607020148.22,266.0
1607020148.222,204.0
1607020148.224,125.0
1607020148.226,38.0
1607020148.228,-35.0
1607020148.23,-87.0
1607020148.6864,-123.0
1607020148.6874,-149.0
1607020148.6898,-156.0
1607020148.6924,-159.0
1607020148.6944,-152.0
1607020148.6964,-144.0
1607020148.6985,-142.0
1607020148.7004,-133.0
1607020148.7024,-118.0
1607020148.7044,-111.0
1607020148.7064,-106.0
1607020148.7085,-97.0
1607020148.7104,-90.0
1607020148.7124,-87.0
1607020148.7144,-85.0
1607020148.7164,-76.0
1607020148.7184,-68.0
1607020148.7204,-66.0
1607020148.7224,-61.0
1607020148.7244,-57.0
1607020148.7264,-54.0
1607020148.7284,-52.0
1607020148.7304,-49.0
1607020148.7324,-45.0
1607020148.7344,-42.0
1607020148.7364,-42.0
1607020148.7384,-42.0
1607020148.7404,-38.0
1607020148.7424,-33.0
1607020148.7444,-35.0
1607020148.7464,-35.0
1607020148.7484,-26.0
1607020148.7506,-23.0
1607020148.7524,-26.0
1607020148.7544,-21.0
1607020148.7564,-16.0
1607020148.7584,-14.0
1607020148.7604,-16.0
1607020148.7623,-16.0
1607020148.7643,-16.0
1607020148.7664,-14.0
1607020148.7683,-7.0
1607020148.7703,2.0
1607020148.7723,26.0
1607020148.7743,61.0
1607020148.7763,78.0
1607020148.7784,71.0
1607020148.7803,57.0
1607020148.7823,40.0
1607020148.7843,23.0
1607020148.7863,11.0
1607020148.7884,11.0
1607020148.7903,16.0
1607020148.7923,19.0
1607020148.7943,21.0
1607020148.7963,21.0
1607020148.7984,23.0
1607020148.8003,23.0
1607020148.8023,11.0
1607020148.8043,-35.0
1607020148.8063,-99.0
1607020148.8084,-35.0
1607020148.8103,308.0
1607020148.8123,933.0
1607020148.8143,1418.0
1607020148.8164,898.0
1607020148.8183,-349.0
1607020148.8203,-691.0
1607020148.8223,-92.0
1607020148.8244,104.0
1607020148.8263,-73.0
1607020148.8284,-21.0
1607020148.8304,61.0
1607020149.2264,19.0
1607020149.2272,26.0
1607020149.229,71.0
1607020149.2309,71.0
1607020149.2329,76.0
1607020149.2349,99.0
1607020149.2369,111.0
1607020149.2389,116.0
1607020149.2409,130.0
1607020149.2429,149.0
1607020149.2451,166.0
1607020149.2469,175.0
1607020149.2489,187.0
1607020149.2509,211.0
1607020149.2529,232.0
1607020149.2549,251.0
1607020149.2568,278.0
1607020149.2589,299.0
1607020149.2609,316.0
1607020149.2629,330.0
1607020149.2649,337.0
1607020149.2669,335.0
1607020149.2688,325.0
1607020149.2709,299.0
1607020149.2728,259.0
1607020149.2749,199.0
1607020149.2769,123.0
1607020149.2788,40.0
1607020149.2809,-30.0
1607020149.2828,-83.0
1607020149.2849,-114.0
1607020149.2869,-135.0
1607020149.2889,-142.0
1607020149.2908,-142.0
1607020149.2928,-137.0
1607020149.2948,-128.0
1607020149.2968,-114.0
1607020149.2988,-106.0
1607020149.3009,-102.0
1607020149.3028,-97.0
1607020149.3048,-83.0
1607020149.3068,-71.0
1607020149.3088,-68.0
1607020149.3108,-64.0
1607020149.3129,-57.0
1607020149.3148,-49.0
1607020149.3168,-47.0
1607020149.3189,-42.0
1607020149.3209,-38.0
1607020149.3229,-35.0
1607020149.3249,-35.0
1607020149.3269,-35.0
1607020149.3289,-33.0
1607020149.3309,-30.0
1607020149.3329,-28.0
1607020149.3349,-23.0
1607020149.3369,-19.0
1607020149.3389,-21.0
1607020149.3409,-21.0
1607020149.3429,-21.0
1607020149.3449,-23.0
1607020149.3471,-23.0
1607020149.3495,-23.0
1607020149.3508,-21.0
1607020149.3529,-19.0
1607020149.3548,-21.0
1607020149.3569,-23.0
1607020149.3588,-21.0
1607020149.3608,-14.0
1607020149.3628,-4.0
1607020149.3648,19.0
1607020149.3669,57.0
1607020149.3688,76.0
1607020149.7965,61.0
1607020149.7978,38.0
1607020149.8004,26.0
1607020149.8028,14.0
1607020149.8048,2.0
1607020149.8068,2.0
1607020149.8088,7.0
1607020149.8108,7.0
1607020149.8128,0.0
1607020149.8148,-2.0
1607020149.8168,2.0
1607020149.8188,4.0
1607020149.8207,-14.0
1607020149.8227,-73.0
1607020149.8247,-128.0
1607020149.8267,-16.0
1607020149.8288,396.0
1607020149.8307,1045.0
1607020149.8327,1402.0
1607020149.8347,667.0
1607020149.8367,-537.0
1607020149.8388,-634.0
1607020149.8407,-9.0
1607020149.8427,78.0
1607020149.8447,-85.0
1607020149.8467,-2.0
1607020149.8487,59.0
1607020149.8507,11.0
1607020149.8527,30.0
1607020149.8547,71.0
1607020149.8567,66.0
1607020149.8587,73.0
1607020149.8607,95.0
1607020149.8627,109.0
1607020149.8647,121.0
1607020149.8667,137.0
1607020149.8687,152.0
1607020149.8707,168.0
1607020149.8727,182.0
1607020149.8748,201.0
1607020149.8767,220.0
1607020149.8787,242.0
1607020149.8807,263.0
1607020149.8827,280.0
1607020149.8847,299.0
1607020149.8867,318.0
1607020149.8888,330.0
1607020149.8907,335.0
1607020149.8927,332.0
1607020149.8947,316.0
1607020149.8967,292.0
1607020149.8987,247.0
1607020149.9007,175.0
1607020149.9027,97.0
1607020149.9047,19.0
1607020149.9067,-49.0
1607020149.9087,-95.0
1607020149.9107,-121.0
1607020149.9127,-137.0
1607020149.9147,-144.0
1607020149.9167,-140.0
1607020149.9188,-130.0
1607020149.9207,-121.0
1607020149.9227,-111.0
1607020149.9247,-102.0
1607020149.9267,-90.0
1607020149.9288,-80.0
1607020149.9307,-73.0
1607020149.9327,-68.0
1607020149.9347,-61.0
1607020149.9367,-52.0
1607020149.9387,-47.0
1607020149.9407,-42.0
1607020150.3361,-40.0
1607020150.337,-40.0
1607020150.3395,-38.0
1607020150.342,-30.0
1607020150.3441,-26.0
1607020150.3461,-28.0
1607020150.3482,-30.0
1607020150.3501,-23.0
1607020150.3521,-19.0
1607020150.354,-26.0
1607020150.356,-30.0
1607020150.3581,-28.0
1607020150.36,-28.0
1607020150.362,-33.0
1607020150.364,-30.0
1607020150.366,-26.0
1607020150.3681,-16.0
1607020150.3702,7.0
1607020150.3721,45.0
1607020150.3741,64.0
1607020150.376,52.0
1607020150.3781,35.0
1607020150.38,11.0
1607020150.382,-4.0
1607020150.384,-4.0
1607020150.386,-2.0
1607020150.388,0.0
1607020150.39,0.0
1607020150.392,2.0
1607020150.394,4.0
1607020150.396,9.0
1607020150.3981,14.0
1607020150.4,-9.0
1607020150.402,-78.0
1607020150.404,-111.0
1607020150.406,71.0
1607020150.4081,548.0
1607020150.41,1171.0
1607020150.412,1287.0
1607020150.414,304.0
1607020150.416,-731.0
1607020150.4181,-518.0
1607020150.42,64.0
1607020150.422,28.0
1607020150.424,-85.0
1607020150.426,19.0
1607020150.4281,40.0
1607020150.43,0.0
1607020150.432,33.0
1607020150.434,61.0
1607020150.436,54.0
1607020150.4381,71.0
1607020150.44,92.0
1607020150.442,99.0
1607020150.444,111.0
1607020150.446,130.0
1607020150.448,147.0
1607020150.45,163.0
1607020150.452,182.0
1607020150.454,199.0
1607020150.456,216.0
1607020150.4581,237.0
1607020150.46,259.0
1607020150.462,275.0
1607020150.464,297.0
1607020150.466,313.0
1607020150.4681,323.0
1607020150.47,318.0
1607020150.4722,313.0
1607020150.4741,301.0
1607020150.4761,270.0
1607020150.4781,209.0
1607020150.48,133.0
1607020150.8764,52.0
1607020150.8773,-21.0
1607020150.8789,-78.0
1607020150.8808,-111.0
1607020150.8828,-128.0
1607020150.8848,-140.0
1607020150.8868,-154.0
1607020150.8888,-152.0
1607020150.8908,-137.0
1607020150.8928,-125.0
1607020150.8948,-118.0
1607020150.8968,-104.0
1607020150.8988,-92.0
1607020150.9008,-87.0
1607020150.9029,-83.0
1607020150.9048,-76.0
1607020150.9068,-64.0
1607020150.9088,-59.0
1607020150.9108,-54.0
1607020150.9127,-47.0
1607020150.9148,-45.0
1607020150.9167,-40.0
1607020150.9188,-38.0
1607020150.9207,-40.0
1607020150.9227,-42.0
1607020150.9248,-40.0
1607020150.9268,-38.0
1607020150.9288,-30.0
1607020150.9307,-21.0
1607020150.9327,-4.0
1607020150.9348,21.0
1607020150.9367,47.0
1607020150.9388,47.0
1607020150.9408,26.0
1607020150.9427,-2.0
1607020150.9448,-14.0
1607020150.9467,-9.0
1607020150.9488,-7.0
1607020150.9508,-11.0
1607020150.9527,-11.0
1607020150.9547,-2.0
1607020150.9567,0.0
1607020150.9588,-2.0
1607020150.9607,0.0
1607020150.9627,-14.0
1607020150.9647,-68.0
1607020150.9669,-71.0
1607020150.9688,171.0
1607020150.9707,696.0
1607020150.9727,1242.0
1607020150.9747,1190.0
1607020150.9768,111.0
1607020150.9788,-900.0
1607020150.9808,-622.0
1607020150.9827,23.0
1607020150.9847,40.0
1607020150.9868,-57.0
1607020150.9888,42.0
1607020150.9908,64.0
1607020150.9927,26.0
1607020150.9947,57.0
1607020150.9967,85.0
1607020150.9988,80.0
1607020151.0007,95.0
1607020151.0027,114.0
1607020151.0047,116.0
1607020151.0067,133.0
1607020151.0088,152.0
1607020151.0108,163.0
1607020151.0127,180.0
1607020151.0147,201.0
1607020151.0167,216.0
1607020151.0187,235.0
1607020151.4465,259.0
1607020151.4475,282.0
1607020151.4499,301.0
1607020151.4526,311.0
1607020151.4545,311.0
1607020151.4565,313.0
1607020151.4586,318.0
1607020151.4605,306.0
1607020151.4626,278.0
1607020151.4645,237.0
1607020151.4665,175.0
1607020151.4684,92.0
1607020151.4705,7.0
1607020151.4724,-57.0
1607020151.4745,-102.0
1607020151.4764,-133.0
1607020151.4786,-156.0
1607020151.4805,-166.0
1607020151.4824,-161.0
1607020151.4844,-152.0
1607020151.4864,-142.0
1607020151.4885,-128.0
1607020151.4904,-114.0
1607020151.4924,-106.0
1607020151.4946,-97.0
1607020151.4965,-85.0
1607020151.4985,-73.0
1607020151.5004,-73.0
1607020151.5024,-71.0
1607020151.5044,-57.0
1607020151.5064,-52.0
1607020151.5085,-59.0
1607020151.5104,-54.0
1607020151.5124,-45.0
1607020151.5145,-45.0
1607020151.5165,-49.0
1607020151.5184,-47.0
1607020151.5204,-38.0
1607020151.5224,-35.0
1607020151.5244,-35.0
1607020151.5264,-26.0
1607020151.5285,-2.0
1607020151.5305,30.0
1607020151.5325,45.0
1607020151.5344,40.0
1607020151.5364,23.0
1607020151.5385,0.0
1607020151.5404,-14.0
1607020151.5425,-11.0
1607020151.5444,-7.0
1607020151.5464,-7.0
1607020151.5484,-7.0
1607020151.5504,-4.0
1607020151.5524,2.0
1607020151.5544,11.0
1607020151.5564,9.0
1607020151.5585,-19.0
1607020151.5604,-78.0
1607020151.5624,-66.0
1607020151.5644,192.0
1607020151.5664,736.0
1607020151.5684,1292.0
1607020151.5704,1147.0
1607020151.5724,0.0
1607020151.5744,-848.0
1607020151.5764,-446.0
1607020151.5785,83.0
1607020151.5804,11.0
1607020151.5824,-54.0
1607020151.5844,45.0
1607020151.5864,42.0
1607020151.5885,21.0
1607020151.5904,64.0
1607020152.0463,80.0
1607020152.0473,73.0
1607020152.0501,92.0
1607020152.0525,109.0
1607020152.0544,116.0
1607020152.0564,121.0
1607020152.0583,133.0
1607020152.0604,152.0
1607020152.0623,171.0
1607020152.0643,180.0
1607020152.0664,199.0
1607020152.0684,225.0
1607020152.0703,247.0
1607020152.0723,266.0
1607020152.0743,282.0
1607020152.0763,297.0
1607020152.0784,306.0
1607020152.0803,308.0
1607020152.0823,304.0
1607020152.0843,292.0
1607020152.0863,270.0
1607020152.0883,228.0
1607020152.0903,161.0
1607020152.0923,80.0
1607020152.0943,-2.0
1607020152.0963,-64.0
1607020152.0983,-102.0
1607020152.1003,-133.0
1607020152.1023,-152.0
1607020152.1043,-152.0
1607020152.1063,-142.0
1607020152.1083,-137.0
1607020152.1103,-128.0
1607020152.1123,-114.0
1607020152.1143,-104.0
1607020152.1163,-97.0
1607020152.1183,-87.0
1607020152.1203,-78.0
1607020152.1223,-73.0
1607020152.1243,-73.0
1607020152.1263,-71.0
1607020152.1283,-61.0
1607020152.1303,-57.0
1607020152.1323,-54.0
1607020152.1343,-54.0
1607020152.1363,-54.0
1607020152.1383,-49.0
1607020152.1403,-47.0
1607020152.1423,-52.0
1607020152.1443,-49.0
1607020152.1463,-42.0
1607020152.1483,-45.0
1607020152.1503,-49.0
1607020152.1525,-47.0
1607020152.1543,-45.0
1607020152.1563,-47.0
1607020152.1583,-52.0
1607020152.1603,-35.0
1607020152.1623,-2.0
1607020152.1643,26.0
1607020152.1663,38.0
1607020152.1683,40.0
1607020152.1703,30.0
1607020152.1723,7.0
1607020152.1743,-16.0
1607020152.1763,-14.0
1607020152.1783,-4.0
1607020152.1803,-4.0
1607020152.1823,-7.0
1607020152.1843,-7.0
1607020152.1864,-4.0
1607020152.1883,2.0
1607020152.1903,2.0
1607020152.5865,-30.0
1607020152.5875,-106.0
1607020152.59,-118.0
1607020152.5926,109.0
1607020152.5946,665.0
1607020152.5953,1314.0
1607020152.5975,1245.0
1607020152.5995,83.0
1607020152.6014,-769.0
1607020152.6034,-356.0
1607020152.6055,99.0
1607020152.6074,-42.0
1607020152.6095,-95.0
1607020152.6114,26.0
1607020152.6134,11.0
1607020152.6154,-16.0
1607020152.6174,28.0
1607020152.6194,45.0
1607020152.6214,40.0
1607020152.6234,59.0
1607020152.6254,78.0
1607020152.6261,87.0
1607020152.6285,104.0
1607020152.6304,125.0
1607020152.6324,137.0
1607020152.6344,154.0
1607020152.6364,173.0
1607020152.6385,192.0
1607020152.6404,213.0
1607020152.6424,235.0
1607020152.6444,254.0
1607020152.6466,270.0
1607020152.6486,287.0
1607020152.6504,294.0
1607020152.6524,297.0
1607020152.6544,297.0
1607020152.6564,289.0
1607020152.6571,266.0
1607020152.6595,223.0
1607020152.6614,168.0
1607020152.6634,97.0
1607020152.6654,19.0
1607020152.6674,-42.0
1607020152.6694,-87.0
1607020152.6714,-116.0
1607020152.6735,-133.0
1607020152.6754,-137.0
1607020152.6774,-133.0
1607020152.6795,-121.0
1607020152.6814,-114.0
1607020152.6834,-106.0
1607020152.6854,-97.0
1607020152.6874,-85.0
1607020152.6882,-80.0
1607020152.6904,-76.0
1607020152.6924,-68.0
1607020152.6944,-61.0
1607020152.6965,-61.0
1607020152.6985,-59.0
1607020152.7004,-54.0
1607020152.7024,-47.0
1607020152.7044,-47.0
1607020152.7064,-49.0
1607020152.7085,-49.0
1607020152.7104,-45.0
1607020152.7124,-42.0
1607020152.7144,-40.0
1607020152.7164,-38.0
1607020152.7184,-38.0
1607020152.7191,-35.0
1607020152.7204,-30.0
1607020152.7224,-28.0
1607020152.7244,-28.0
1607020153.1563,-26.0
1607020153.1573,-21.0
1607020153.1598,-21.0
1607020153.1624,-21.0
1607020153.1644,-21.0
1607020153.1664,-19.0
1607020153.1682,-19.0
1607020153.1702,-28.0
1607020153.1723,-35.0
1607020153.1745,-38.0
1607020153.1751,-38.0
1607020153.1773,-35.0
1607020153.1793,-30.0
1607020153.1812,-19.0
1607020153.1832,9.0
1607020153.1852,42.0
1607020153.1872,57.0
1607020153.1892,49.0
1607020153.1912,33.0
1607020153.1932,16.0
1607020153.1952,0.0
1607020153.1972,-7.0
1607020153.1992,-9.0
1607020153.2012,-7.0
1607020153.2032,-4.0
1607020153.2052,-2.0
1607020153.2059,2.0
1607020153.2072,7.0
1607020153.2093,4.0
1607020153.2112,-21.0
1607020153.2132,-90.0
1607020153.2153,-128.0
1607020153.2172,38.0
1607020153.2192,520.0
1607020153.2212,1185.0
1607020153.2232,1340.0
1607020153.2252,363.0
1607020153.2273,-660.0
1607020153.2293,-456.0
1607020153.2312,76.0
1607020153.2332,11.0
1607020153.2352,-87.0
1607020153.2359,23.0
1607020153.2372,35.0
1607020153.2392,0.0
1607020153.2412,42.0
1607020153.2432,64.0
1607020153.2453,57.0
1607020153.2473,76.0
1607020153.2493,97.0
1607020153.2513,102.0
1607020153.2532,114.0
1607020153.2552,133.0
1607020153.2572,144.0
1607020153.2593,161.0
1607020153.2613,178.0
1607020153.2633,194.0
1607020153.264,213.0
1607020153.2653,235.0
1607020153.2674,254.0
1607020153.2695,273.0
1607020153.2714,285.0
1607020153.2733,297.0
1607020153.2753,304.0
1607020153.2772,306.0
1607020153.2793,301.0
1607020153.2812,285.0
1607020153.2833,259.0
1607020153.2853,218.0
1607020153.2872,152.0
1607020153.2893,76.0
1607020153.2912,7.0
1607020153.2932,-45.0
1607020153.6965,-85.0
1607020153.6975,-111.0
1607020153.6999,-128.0
1607020153.7025,-130.0
1607020153.7045,-125.0
1607020153.7065,-118.0
1607020153.7086,-109.0
1607020153.7104,-99.0
1607020153.7124,-97.0
1607020153.7145,-97.0
1607020153.7164,-90.0
1607020153.7184,-80.0
1607020153.7204,-78.0
1607020153.7224,-76.0
1607020153.7244,-66.0
1607020153.7264,-59.0
1607020153.7271,-59.0
1607020153.7295,-57.0
1607020153.7314,-54.0
1607020153.7334,-49.0
1607020153.7354,-45.0
1607020153.7374,-45.0
1607020153.7394,-42.0
1607020153.7414,-38.0
1607020153.7434,-35.0
1607020153.7454,-35.0
1607020153.7474,-30.0
1607020153.7495,-28.0
1607020153.7514,-26.0
1607020153.7534,-26.0
1607020153.7554,-26.0
1607020153.7574,-26.0
1607020153.7581,-26.0
1607020153.7594,-23.0
1607020153.7614,-14.0
1607020153.7634,-11.0
1607020153.7654,-16.0
1607020153.7674,-19.0
1607020153.7696,-11.0
1607020153.7715,-7.0
1607020153.7734,-4.0
1607020153.7754,-4.0
1607020153.7774,-4.0
1607020153.7794,-2.0
1607020153.7814,-2.0
1607020153.7834,0.0
1607020153.7854,4.0
1607020153.7874,4.0
1607020153.7882,2.0
1607020153.7905,7.0
1607020153.7924,11.0
1607020153.7944,11.0
1607020153.7964,11.0
1607020153.7985,19.0
1607020153.8004,21.0
1607020153.8024,14.0
1607020153.8044,14.0
1607020153.8064,23.0
1607020153.8085,26.0
1607020153.8104,19.0
1607020153.8124,21.0
1607020153.8144,30.0
1607020153.8164,28.0
1607020153.8185,23.0
1607020153.8198,30.0
1607020153.8214,30.0
1607020153.8234,23.0
1607020153.8254,16.0
1607020153.8274,19.0
1607020153.8295,33.0
1607020153.8314,64.0
1607020153.8334,92.0
1607020153.8354,95.0
1607020154.2665,85.0
1607020154.2674,73.0
1607020154.2699,54.0
1607020154.2725,35.0
1607020154.2745,21.0
1607020154.2765,16.0
1607020154.2785,14.0
1607020154.2805,21.0
1607020154.2825,28.0
1607020154.2845,28.0
1607020154.2865,30.0
1607020154.2885,26.0
1607020154.2905,-11.0
1607020154.2925,-80.0
1607020154.2945,-59.0
1607020154.2965,220.0
1607020154.2987,798.0
1607020154.3005,1378.0
1607020154.3025,1116.0
1607020154.3044,-128.0
1607020154.3064,-781.0
1607020154.3085,-240.0
1607020154.3105,135.0
1607020154.3125,-30.0
1607020154.3145,-35.0
1607020154.3165,73.0
1607020154.3185,30.0
1607020154.3205,16.0
1607020154.3225,80.0
1607020154.3245,85.0
1607020154.3265,71.0
1607020154.3285,99.0
1607020154.3304,121.0
1607020154.3324,118.0
1607020154.3344,130.0
1607020154.3364,154.0
1607020154.3385,166.0
1607020154.3404,178.0
1607020154.3424,199.0
1607020154.3444,216.0
1607020154.3464,230.0
1607020154.3485,247.0
1607020154.3505,268.0
1607020154.3524,285.0
1607020154.3544,299.0
1607020154.3564,313.0
1607020154.3585,323.0
1607020154.3604,325.0
1607020154.3625,316.0
1607020154.3644,301.0
1607020154.3664,275.0
1607020154.3684,230.0
1607020154.3704,173.0
1607020154.3724,102.0
1607020154.3744,23.0
1607020154.3764,-45.0
1607020154.3785,-87.0
1607020154.3804,-111.0
1607020154.3824,-130.0
1607020154.3844,-142.0
1607020154.3864,-147.0
1607020154.3885,-135.0
1607020154.3904,-123.0
1607020154.3924,-116.0
1607020154.3944,-106.0
1607020154.3964,-95.0
1607020154.3985,-85.0
1607020154.4007,-85.0
1607020154.4025,-87.0
1607020154.4044,-78.0
1607020154.4064,-68.0
1607020154.4085,-68.0
1607020154.4104,-64.0
1607020154.806,-57.0
1607020154.807,-52.0
1607020154.8095,-49.0
1607020154.812,-49.0
1607020154.814,-54.0
1607020154.816,-52.0
1607020154.8183,-45.0
1607020154.82,-47.0
1607020154.822,-52.0
1607020154.824,-49.0
1607020154.826,-49.0
1607020154.8281,-45.0
1607020154.83,-35.0
1607020154.832,-30.0
1607020154.834,-35.0
1607020154.836,-33.0
1607020154.838,-28.0
1607020154.84,-23.0
1607020154.842,-21.0
1607020154.844,-21.0
1607020154.846,-16.0
1607020154.848,-11.0
1607020154.85,-11.0
1607020154.8519,-9.0
1607020154.854,-7.0
1607020154.856,-4.0
1607020154.858,-2.0
1607020154.86,-2.0
1607020154.8619,-2.0
1607020154.8639,0.0
1607020154.866,4.0
1607020154.868,4.0
1607020154.8699,7.0
1607020154.8719,11.0
1607020154.874,14.0
1607020154.876,9.0
1607020154.878,11.0
1607020154.8799,19.0
1607020154.8819,19.0
1607020154.884,16.0
1607020154.8859,14.0
1607020154.8881,16.0
1607020154.89,19.0
1607020154.8919,14.0
1607020154.8939,14.0
1607020154.8961,14.0
1607020154.8981,11.0
1607020154.9,11.0
1607020154.902,23.0
1607020154.9039,47.0
1607020154.906,78.0
1607020154.908,92.0
1607020154.9099,80.0
1607020154.9119,64.0
1607020154.914,42.0
1607020154.9159,28.0
1607020154.9179,23.0
1607020154.9199,19.0
1607020154.9219,16.0
1607020154.924,19.0
1607020154.926,21.0
1607020154.928,23.0
1607020154.9299,28.0
1607020154.9319,26.0
1607020154.9339,0.0
1607020154.9359,-68.0
1607020154.938,-109.0
1607020154.94,40.0
1607020154.9419,503.0
1607020154.9439,1171.0
1607020154.9459,1418.0
1607020154.948,513.0
1607020154.95,-662.0
1607020155.406,-598.0
1607020155.407,14.0
1607020155.4094,42.0
1607020155.412,-80.0
1607020155.414,9.0
1607020155.4161,38.0
1607020155.4182,2.0
1607020155.42,38.0
1607020155.422,61.0
1607020155.424,54.0
1607020155.426,73.0
1607020155.428,95.0
1607020155.43,99.0
1607020155.432,114.0
1607020155.434,135.0
1607020155.436,149.0
1607020155.438,163.0
1607020155.44,178.0
1607020155.442,194.0
1607020155.444,213.0
1607020155.446,235.0
1607020155.448,254.0
1607020155.45,273.0
1607020155.4522,289.0
1607020155.4541,304.0
1607020155.456,313.0
1607020155.458,316.0
1607020155.46,308.0
1607020155.4619,294.0
1607020155.464,270.0
1607020155.466,235.0
1607020155.468,178.0
1607020155.4699,99.0
1607020155.4719,23.0
1607020155.4739,-35.0
1607020155.4759,-85.0
1607020155.478,-118.0
1607020155.4799,-135.0
1607020155.4819,-140.0
1607020155.4839,-142.0
1607020155.4859,-137.0
1607020155.488,-130.0
1607020155.4899,-121.0
1607020155.4919,-109.0
1607020155.4939,-99.0
1607020155.496,-95.0
1607020155.498,-95.0
1607020155.4999,-87.0
1607020155.502,-78.0
1607020155.5039,-73.0
1607020155.5059,-76.0
1607020155.508,-76.0
1607020155.51,-68.0
1607020155.512,-61.0
1607020155.514,-57.0
1607020155.516,-54.0
1607020155.518,-54.0
1607020155.52,-49.0
1607020155.5219,-45.0
1607020155.5239,-42.0
1607020155.526,-42.0
1607020155.528,-38.0
1607020155.53,-38.0
1607020155.5319,-38.0
1607020155.534,-33.0
1607020155.5359,-28.0
1607020155.538,-26.0
1607020155.54,-28.0
1607020155.5419,-21.0
1607020155.5439,-14.0
1607020155.5459,-14.0
1607020155.548,-16.0
1607020155.55,-14.0
1607020155.976,-11.0
1607020155.9768,-14.0
1607020155.9778,-14.0
1607020155.9795,-14.0
1607020155.9815,-9.0
1607020155.9835,-7.0
1607020155.9855,-7.0
1607020155.9875,-7.0
1607020155.9895,-9.0
1607020155.9915,-19.0
1607020155.9935,-21.0
1607020155.9955,-11.0
1607020155.9976,-9.0
1607020155.9995,-11.0
1607020156.0016,-9.0
1607020156.0035,-4.0
1607020156.0057,-4.0
1607020156.0075,-2.0
1607020156.0095,0.0
1607020156.0115,2.0
1607020156.0136,4.0
1607020156.0155,2.0
1607020156.0175,0.0
1607020156.0195,0.0
1607020156.0215,0.0
1607020156.0236,4.0
1607020156.0256,26.0
1607020156.0275,57.0
1607020156.0295,78.0
1607020156.0315,78.0
1607020156.0335,64.0
1607020156.0355,47.0
1607020156.0376,28.0
1607020156.0395,19.0
1607020156.0416,21.0
1607020156.0435,23.0
1607020156.0455,23.0
1607020156.0475,21.0
1607020156.0495,19.0
1607020156.0515,19.0
1607020156.0535,21.0
1607020156.0555,11.0
1607020156.0575,-38.0
1607020156.0595,-104.0
1607020156.0616,-54.0
1607020156.0635,270.0
1607020156.0655,905.0
1607020156.0675,1456.0
1607020156.0695,1007.0
1607020156.0715,-259.0
1607020156.0736,-670.0
1607020156.0755,-92.0
1607020156.0779,106.0
1607020156.0797,-83.0
1607020156.0815,-30.0
1607020156.0835,57.0
1607020156.0856,9.0
1607020156.0875,14.0
1607020156.0895,61.0
1607020156.0915,59.0
1607020156.0935,64.0
1607020156.0955,95.0
1607020156.0976,106.0
1607020156.0995,114.0
1607020156.1016,128.0
1607020156.1035,144.0
1607020156.1056,156.0
1607020156.1075,175.0
1607020156.1096,192.0
1607020156.1115,206.0
1607020156.1135,228.0
1607020156.1155,249.0
1607020156.1175,268.0
1607020156.5166,287.0
1607020156.5176,306.0
1607020156.52,313.0
1607020156.5228,318.0
1607020156.5246,320.0
1607020156.5266,313.0
1607020156.5288,292.0
1607020156.5306,254.0
1607020156.5326,204.0
1607020156.5346,137.0
1607020156.5366,54.0
1607020156.5386,-23.0
1607020156.5406,-80.0
1607020156.5426,-116.0
1607020156.5446,-140.0
1607020156.5466,-152.0
1607020156.5485,-154.0
1607020156.5505,-156.0
1607020156.5525,-152.0
1607020156.5546,-142.0
1607020156.5566,-130.0
1607020156.5586,-121.0
1607020156.5605,-114.0
1607020156.5625,-106.0
1607020156.5645,-97.0
1607020156.5665,-92.0
1607020156.5685,-87.0
1607020156.5705,-78.0
1607020156.5725,-66.0
1607020156.5745,-61.0
1607020156.5767,-61.0
1607020156.5787,-61.0
1607020156.5805,-64.0
1607020156.5825,-59.0
1607020156.5845,-54.0
1607020156.5865,-52.0
1607020156.5886,-47.0
1607020156.5905,-45.0
1607020156.5925,-45.0
1607020156.5945,-40.0
1607020156.5965,-38.0
1607020156.5986,-38.0
1607020156.6009,-33.0
1607020156.6026,-30.0
1607020156.6045,-28.0
1607020156.6065,-26.0
1607020156.6086,-23.0
1607020156.6105,-21.0
1607020156.6125,-16.0
1607020156.6145,-16.0
1607020156.6165,-14.0
1607020156.6186,-9.0
1607020156.6207,-9.0
1607020156.6227,-4.0
1607020156.6247,0.0
1607020156.6267,-2.0
1607020156.6286,-2.0
1607020156.6307,2.0
1607020156.6326,7.0
1607020156.6347,9.0
1607020156.6367,11.0
1607020156.6387,11.0
1607020156.6406,11.0
1607020156.6425,11.0
1607020156.6445,7.0
1607020156.6466,4.0
1607020156.6486,7.0
1607020156.6505,9.0
1607020156.6525,7.0
1607020156.6545,7.0
1607020156.6566,11.0
1607020156.6586,33.0
1607020156.6606,66.0
1607020157.0564,85.0
1607020157.0574,83.0
1607020157.0598,68.0
1607020157.0624,54.0
1607020157.0644,38.0
1607020157.0664,21.0
1607020157.0684,19.0
1607020157.0704,16.0
1607020157.0726,14.0
1607020157.0744,16.0
1607020157.0764,21.0
1607020157.0784,21.0
1607020157.0804,21.0
1607020157.0824,11.0
1607020157.0844,-40.0
1607020157.0864,-102.0
1607020157.0884,-21.0
1607020157.0903,337.0
1607020157.0924,948.0
1607020157.0943,1383.0
1607020157.0963,819.0
1607020157.0984,-380.0
1607020157.1003,-639.0
1607020157.1024,-59.0
1607020157.1044,85.0
1607020157.1064,-85.0
1607020157.1085,-23.0
1607020157.1103,52.0
1607020157.1124,9.0
1607020157.1143,19.0
1607020157.1164,59.0
1607020157.1184,59.0
1607020157.1203,64.0
1607020157.1223,87.0
1607020157.1243,99.0
1607020157.1263,106.0
1607020157.1284,121.0
1607020157.1303,137.0
1607020157.1323,152.0
1607020157.1343,168.0
1607020157.1363,190.0
1607020157.1384,206.0
1607020157.1404,223.0
1607020157.1425,244.0
1607020157.1443,268.0
1607020157.1463,282.0
1607020157.1484,299.0
1607020157.1503,308.0
1607020157.1523,313.0
1607020157.1543,311.0
1607020157.1563,301.0
1607020157.1584,278.0
1607020157.1603,242.0
1607020157.1623,192.0
1607020157.1643,121.0
1607020157.1663,38.0
1607020157.1683,-33.0
1607020157.1703,-83.0
1607020157.1723,-118.0
1607020157.1745,-144.0
1607020157.1764,-156.0
1607020157.1784,-156.0
1607020157.1803,-152.0
1607020157.1823,-142.0
1607020157.1843,-128.0
1607020157.1863,-118.0
1607020157.1884,-114.0
1607020157.1904,-104.0
1607020157.1923,-92.0
1607020157.1944,-87.0
1607020157.1963,-80.0
1607020157.1984,-73.0
1607020157.2004,-71.0
1607020157.6258,-64.0
1607020157.6268,-54.0
1607020157.6293,-49.0
1607020157.632,-49.0
1607020157.6339,-49.0
1607020157.6359,-52.0
1607020157.638,-49.0
1607020157.6398,-42.0
1607020157.6418,-40.0
1607020157.6438,-40.0
1607020157.6459,-35.0
1607020157.6478,-33.0
1607020157.6498,-38.0
1607020157.6518,-35.0
1607020157.6538,-30.0
1607020157.6557,-28.0
1607020157.658,-30.0
1607020157.6598,-33.0
1607020157.6618,-33.0
1607020157.6638,-28.0
1607020157.6658,-16.0
1607020157.6679,-11.0
1607020157.6698,-16.0
1607020157.6718,-14.0
1607020157.6738,-7.0
1607020157.6758,-4.0
1607020157.6779,-2.0
1607020157.6798,0.0
1607020157.6818,-2.0
1607020157.6838,0.0
1607020157.6858,11.0
1607020157.6878,9.0
1607020157.6898,0.0
1607020157.6918,-2.0
1607020157.6939,4.0
1607020157.6959,7.0
1607020157.6979,19.0
1607020157.7,47.0
1607020157.7018,73.0
1607020157.7038,85.0
1607020157.7058,80.0
1607020157.7078,57.0
1607020157.7098,35.0
1607020157.7118,26.0
1607020157.7138,23.0
1607020157.7158,21.0
1607020157.7179,16.0
1607020157.7198,11.0
1607020157.7218,9.0
1607020157.7238,21.0
1607020157.7258,33.0
1607020157.7279,26.0
1607020157.7298,-14.0
1607020157.7318,-73.0
1607020157.7338,-61.0
1607020157.7358,182.0
1607020157.7379,710.0
1607020157.7398,1287.0
1607020157.7418,1204.0
1607020157.7438,64.0
1607020157.7458,-836.0
1607020157.7478,-449.0
1607020157.7498,95.0
1607020157.7518,16.0
1607020157.7538,-57.0
1607020157.7558,59.0
1607020157.7578,68.0
1607020157.7598,35.0
1607020157.7618,71.0
1607020157.7638,90.0
1607020157.7658,83.0
1607020157.7679,99.0
1607020157.7698,121.0
1607020158.1663,133.0
1607020158.1671,149.0
1607020158.1695,163.0
1607020158.1721,171.0
1607020158.1741,187.0
1607020158.1761,204.0
1607020158.1782,206.0
1607020158.1802,216.0
1607020158.1821,249.0
1607020158.1841,270.0
1607020158.1861,280.0
1607020158.1881,301.0
1607020158.1901,323.0
1607020158.192,327.0
1607020158.194,325.0
1607020158.1962,325.0
1607020158.1981,316.0
1607020158.2,285.0
1607020158.2021,230.0
1607020158.204,159.0
1607020158.206,83.0
1607020158.208,-2.0
1607020158.2101,-78.0
1607020158.212,-123.0
1607020158.2141,-144.0
1607020158.2161,-156.0
1607020158.2181,-166.0
1607020158.22,-166.0
1607020158.222,-156.0
1607020158.224,-147.0
1607020158.2261,-140.0
1607020158.2281,-123.0
1607020158.23,-114.0
1607020158.2321,-118.0
1607020158.2341,-114.0
1607020158.2361,-95.0
1607020158.2382,-85.0
1607020158.24,-87.0
1607020158.242,-83.0
1607020158.244,-68.0
1607020158.246,-66.0
1607020158.2481,-68.0
1607020158.2501,-66.0
1607020158.2521,-59.0
1607020158.254,-54.0
1607020158.256,-47.0
1607020158.2581,-45.0
1607020158.2601,-45.0
1607020158.2621,-42.0
1607020158.264,-35.0
1607020158.2661,-28.0
1607020158.2681,-33.0
1607020158.27,-38.0
1607020158.2722,-38.0
1607020158.2741,-33.0
1607020158.2761,-19.0
1607020158.2782,-11.0
1607020158.2802,-19.0
1607020158.2821,-21.0
1607020158.284,-16.0
1607020158.286,-11.0
1607020158.2881,-9.0
1607020158.29,-9.0
1607020158.292,-16.0
1607020158.294,-19.0
1607020158.296,-4.0
1607020158.2983,23.0
1607020158.3001,54.0
1607020158.302,66.0
1607020158.304,61.0
1607020158.306,59.0
1607020158.3081,40.0
1607020158.31,9.0
1607020158.7661,2.0
1607020158.767,7.0
1607020158.7695,0.0
1607020158.7722,-2.0
1607020158.7741,-7.0
1607020158.7761,-2.0
1607020158.7781,9.0
1607020158.7801,9.0
1607020158.7822,-9.0
1607020158.7841,-57.0
1607020158.7861,-104.0
1607020158.7881,16.0
1607020158.79,463.0
1607020158.792,1109.0
1607020158.794,1421.0
1607020158.7961,665.0
1607020158.7981,-648.0
1607020158.8,-872.0
1607020158.802,-180.0
1607020158.804,71.0
1607020158.806,-35.0
1607020158.8081,14.0
1607020158.81,73.0
1607020158.812,40.0
1607020158.814,59.0
1607020158.8161,99.0
1607020158.818,95.0
1607020158.82,92.0
1607020158.822,116.0
1607020158.824,125.0
1607020158.826,135.0
1607020158.8281,156.0
1607020158.83,178.0
1607020158.832,190.0
1607020158.834,201.0
1607020158.836,223.0
1607020158.8381,244.0
1607020158.84,263.0
1607020158.842,285.0
1607020158.844,301.0
1607020158.846,323.0
1607020158.8481,349.0
1607020158.85,354.0
1607020158.852,342.0
1607020158.8542,342.0
1607020158.8547,342.0
1607020158.856,316.0
1607020158.8581,266.0
1607020158.86,199.0
1607020158.862,114.0
1607020158.864,23.0
1607020158.866,-52.0
1607020158.868,-104.0
1607020158.87,-133.0
1607020158.872,-149.0
1607020158.874,-163.0
1607020158.876,-161.0
1607020158.878,-147.0
1607020158.88,-142.0
1607020158.882,-135.0
1607020158.884,-125.0
1607020158.8847,-123.0
1607020158.886,-111.0
1607020158.8881,-95.0
1607020158.89,-87.0
1607020158.892,-87.0
1607020158.894,-80.0
1607020158.896,-78.0
1607020158.8981,-78.0
1607020158.9,-68.0
1607020158.9021,-57.0
1607020158.904,-64.0
1607020158.906,-64.0
1607020159.3963,-54.0
1607020159.3974,-57.0
1607020159.3998,-54.0
1607020159.4025,-42.0
1607020159.4044,-38.0
1607020159.4064,-40.0
1607020159.4085,-42.0
1607020159.4104,-47.0
1607020159.4124,-54.0
1607020159.4144,-54.0
1607020159.4164,-52.0
1607020159.4184,-54.0
1607020159.4204,-49.0
1607020159.4224,-45.0
1607020159.4244,-47.0
1607020159.4263,-21.0
1607020159.4284,19.0
1607020159.429,33.0
1607020159.4314,30.0
1607020159.4334,23.0
1607020159.4355,0.0
1607020159.4373,-26.0
1607020159.4395,-26.0
1607020159.4414,-19.0
1607020159.4433,-21.0
1607020159.4454,-21.0
1607020159.4473,-16.0
1607020159.4494,-14.0
1607020159.4514,-7.0
1607020159.4533,-4.0
1607020159.4553,-16.0
1607020159.4573,-61.0
1607020159.4581,-123.0
1607020159.4593,-40.0
1607020159.4613,363.0
1607020159.4634,1040.0
1607020159.4653,1485.0
1607020159.4674,831.0
1607020159.4693,-532.0
1607020159.4713,-850.0
1607020159.4733,-178.0
1607020159.4753,66.0
1607020159.4773,-71.0
1607020159.4793,-16.0
1607020159.4813,59.0
1607020159.4834,23.0
1607020159.4856,26.0
1607020159.4873,61.0
1607020159.4881,71.0
1607020159.4903,78.0
1607020159.4924,97.0
1607020159.4943,109.0
1607020159.4963,118.0
1607020159.4983,137.0
1607020159.5004,161.0
1607020159.5024,178.0
1607020159.5043,194.0
1607020159.5063,211.0
1607020159.5084,228.0
1607020159.5103,251.0
1607020159.5123,275.0
1607020159.5143,292.0
1607020159.5164,306.0
1607020159.5184,330.0
1607020159.519,349.0
1607020159.5203,346.0
1607020159.5223,335.0
1607020159.5243,320.0
1607020159.5263,289.0
1607020159.5283,242.0
1607020159.5303,166.0
1607020159.5323,76.0
1607020159.5344,-4.0
1607020159.8761,-68.0
1607020159.8769,-121.0
1607020159.8782,-154.0
1607020159.8802,-163.0
1607020159.8822,-166.0
1607020159.8829,-163.0
1607020159.8853,-154.0
1607020159.8872,-147.0
1607020159.8891,-140.0
1607020159.8911,-123.0
1607020159.8931,-116.0
1607020159.8952,-109.0
1607020159.8971,-102.0
1607020159.8992,-102.0
1607020159.9012,-102.0
1607020159.9031,-87.0
1607020159.9051,-80.0
1607020159.9071,-87.0
1607020159.9092,-87.0
1607020159.9111,-76.0
1607020159.9131,-71.0
1607020159.9138,-68.0
1607020159.9152,-61.0
1607020159.9172,-57.0
1607020159.9191,-54.0
1607020159.9211,-57.0
1607020159.9232,-54.0
1607020159.9251,-52.0
1607020159.9271,-52.0
1607020159.9292,-49.0
1607020159.9311,-47.0
1607020159.9332,-42.0
1607020159.9352,-45.0
1607020159.9371,-49.0
1607020159.9391,-47.0
1607020159.9411,-30.0
1607020159.9431,-9.0
1607020159.9438,14.0
1607020159.9451,33.0
1607020159.9471,40.0
1607020159.9492,33.0
1607020159.9512,7.0
1607020159.9531,-21.0
1607020159.9551,-26.0
1607020159.9571,-16.0
1607020159.9591,-16.0
1607020159.9611,-16.0
1607020159.9631,-14.0
1607020159.9651,-7.0
1607020159.9672,0.0
1607020159.9691,0.0
1607020159.9713,-38.0
1607020159.9732,-118.0
1607020159.9739,-152.0
1607020159.9761,35.0
1607020159.9782,575.0
1607020159.9801,1321.0
1607020159.9822,1475.0
1607020159.9843,368.0
1607020159.9861,-753.0
1607020159.9882,-513.0
1607020159.9901,45.0
1607020159.9921,-38.0
1607020159.9942,-125.0
1607020159.9961,0.0
1607020159.9981,4.0
1607020160.0002,-33.0
1607020160.0023,11.0
1607020160.0041,33.0
1607020160.0048,26.0
1607020160.0072,47.0
1607020160.0092,68.0
1607020160.0111,76.0
1607020160.4463,87.0
1607020160.4473,106.0
1607020160.4498,118.0
1607020160.4525,137.0
1607020160.4544,161.0
1607020160.4564,180.0
1607020160.4583,197.0
1607020160.4603,216.0
1607020160.4624,242.0
1607020160.4643,268.0
1607020160.4663,287.0
1607020160.4747,299.0
1607020160.4763,313.0
1607020160.4783,316.0
1607020160.4803,301.0
1607020160.4823,278.0
1607020160.4844,242.0
1607020160.4869,182.0
1607020160.4889,95.0
1607020160.4903,7.0
1607020160.4923,-61.0
1607020160.4943,-114.0
1607020160.4963,-149.0
1607020160.4983,-168.0
1607020160.5004,-178.0
1607020160.5023,-175.0
1607020160.5042,-171.0
1607020160.5063,-163.0
1607020160.5083,-149.0
1607020160.5105,-135.0
1607020160.5123,-130.0
1607020160.5143,-123.0
1607020160.5163,-111.0
1607020160.5183,-106.0
1607020160.5203,-104.0
1607020160.5223,-95.0
1607020160.5243,-85.0
1607020160.5263,-78.0
1607020160.5283,-73.0
1607020160.5303,-68.0
1607020160.5323,-61.0
1607020160.5344,-59.0
1607020160.5363,-54.0
1607020160.5383,-52.0
1607020160.5403,-52.0
1607020160.5423,-54.0
1607020160.5443,-49.0
1607020160.5463,-47.0
1607020160.5483,-47.0
1607020160.5504,-45.0
1607020160.5524,-40.0
1607020160.5543,-38.0
1607020160.5563,-35.0
1607020160.5583,-33.0
1607020160.5603,-30.0
1607020160.5623,-26.0
1607020160.5643,-23.0
1607020160.5663,-21.0
1607020160.5684,-21.0
1607020160.5703,-21.0
1607020160.5723,-26.0
1607020160.5743,-26.0
1607020160.5763,-23.0
1607020160.5783,-16.0
1607020160.5803,2.0
1607020160.5823,33.0
1607020160.5844,57.0
1607020160.5863,54.0
1607020160.5883,42.0
1607020160.5903,33.0
1607020160.5923,21.0
1607020160.5943,7.0
1607020160.5963,-2.0
1607020160.9862,0.0
1607020160.9869,2.0
1607020160.9893,4.0
1607020160.9919,7.0
1607020160.9939,7.0
1607020160.9959,7.0
1607020160.9981,4.0
1607020161.0002,-38.0
1607020161.002,-130.0
1607020161.004,-140.0
1607020161.0059,109.0
1607020161.008,705.0
1607020161.0099,1418.0
1607020161.0119,1311.0
1607020161.0139,73.0
1607020161.016,-717.0
1607020161.018,-259.0
1607020161.0199,106.0
1607020161.0219,-87.0
1607020161.0239,-104.0
1607020161.026,21.0
1607020161.028,-9.0
1607020161.0299,-23.0
1607020161.0319,28.0
1607020161.034,38.0
1607020161.0359,30.0
1607020161.0379,54.0
1607020161.0399,71.0
1607020161.0419,78.0
1607020161.0439,97.0
1607020161.0459,114.0
1607020161.0479,123.0
1607020161.0499,140.0
1607020161.052,161.0
1607020161.0539,180.0
1607020161.0559,199.0
1607020161.0579,220.0
1607020161.0599,240.0
1607020161.0619,259.0
1607020161.0639,278.0
1607020161.066,292.0
1607020161.068,301.0
1607020161.0699,306.0
1607020161.0719,299.0
1607020161.0739,275.0
1607020161.0759,237.0
1607020161.0779,180.0
1607020161.0799,99.0
1607020161.0819,19.0
1607020161.084,-47.0
1607020161.0859,-104.0
1607020161.0879,-140.0
1607020161.0899,-159.0
1607020161.0919,-168.0
1607020161.0939,-168.0
1607020161.0959,-163.0
1607020161.0979,-152.0
1607020161.1,-142.0
1607020161.1022,-135.0
1607020161.1039,-128.0
1607020161.1059,-116.0
1607020161.1079,-106.0
1607020161.1099,-97.0
1607020161.1119,-90.0
1607020161.1139,-83.0
1607020161.116,-78.0
1607020161.1181,-73.0
1607020161.12,-64.0
1607020161.122,-54.0
1607020161.124,-52.0
1607020161.1259,-52.0
1607020161.1279,-49.0
1607020161.1299,-47.0
1607020161.5863,-42.0
1607020161.5872,-42.0
1607020161.5897,-40.0
1607020161.5923,-35.0
1607020161.5943,-35.0
1607020161.5963,-45.0
1607020161.5984,-47.0
1607020161.6005,-35.0
1607020161.6024,-33.0
1607020161.6043,-38.0
1607020161.6063,-35.0
1607020161.6082,-28.0
1607020161.6102,-26.0
1607020161.6123,-23.0
1607020161.6142,-21.0
1607020161.6163,-21.0
1607020161.6183,-21.0
1607020161.6202,-19.0
1607020161.6222,-14.0
1607020161.6242,-11.0
1607020161.6262,-11.0
1607020161.6283,-9.0
1607020161.6302,-4.0
1607020161.6323,-2.0
1607020161.6343,-2.0
1607020161.6362,0.0
1607020161.6382,4.0
1607020161.6402,7.0
1607020161.6422,7.0
1607020161.6442,7.0
1607020161.6462,4.0
1607020161.6482,4.0
1607020161.6503,7.0
1607020161.6522,9.0
1607020161.6542,9.0
1607020161.6563,11.0
1607020161.6585,14.0
1607020161.6603,14.0
1607020161.6623,16.0
1607020161.6643,19.0
1607020161.6662,16.0
1607020161.6683,14.0
1607020161.6703,16.0
1607020161.6722,14.0
1607020161.6742,9.0
1607020161.6762,16.0
1607020161.6782,30.0
1607020161.6802,47.0
1607020161.6822,68.0
1607020161.6843,80.0
1607020161.6862,71.0
1607020161.6882,57.0
1607020161.6902,40.0
1607020161.6922,23.0
1607020161.6942,14.0
1607020161.6962,16.0
1607020161.6982,19.0
1607020161.7003,19.0
1607020161.7023,21.0
1607020161.7042,26.0
1607020161.7062,26.0
1607020161.7082,26.0
1607020161.7102,4.0
1607020161.7122,-71.0
1607020161.7142,-121.0
1607020161.7162,14.0
1607020161.7183,465.0
1607020161.7202,1178.0
1607020161.7222,1461.0
1607020161.7242,556.0
1607020161.7262,-546.0
1607020161.7283,-430.0
1607020161.7302,85.0
1607020162.1562,2.0
1607020162.1571,-116.0
1607020162.1596,4.0
1607020162.1622,21.0
1607020162.1642,-21.0
1607020162.1662,21.0
1607020162.1684,47.0
1607020162.1701,40.0
1607020162.1721,57.0
1607020162.1729,73.0
1607020162.1741,73.0
1607020162.1761,83.0
1607020162.1782,104.0
1607020162.1801,121.0
1607020162.1823,133.0
1607020162.1842,156.0
1607020162.1861,180.0
1607020162.1881,192.0
1607020162.1901,209.0
1607020162.1921,232.0
1607020162.1941,261.0
1607020162.1961,278.0
1607020162.1981,289.0
1607020162.2002,304.0
1607020162.2022,311.0
1607020162.2027,306.0
1607020162.2041,299.0
1607020162.2061,282.0
1607020162.2081,249.0
1607020162.2101,192.0
1607020162.2121,114.0
1607020162.2141,30.0
1607020162.2162,-38.0
1607020162.2181,-85.0
1607020162.2201,-121.0
1607020162.2221,-142.0
1607020162.2242,-147.0
1607020162.2261,-144.0
1607020162.2282,-144.0
1607020162.2301,-140.0
1607020162.2308,-123.0
1607020162.2321,-111.0
1607020162.2342,-104.0
1607020162.2361,-95.0
1607020162.2381,-87.0
1607020162.2401,-83.0
1607020162.2421,-73.0
1607020162.2442,-66.0
1607020162.2461,-64.0
1607020162.2481,-59.0
1607020162.2502,-57.0
1607020162.2522,-54.0
1607020162.2541,-47.0
1607020162.2561,-42.0
1607020162.2581,-47.0
1607020162.2601,-40.0
1607020162.2608,-30.0
1607020162.2621,-35.0
1607020162.2641,-40.0
1607020162.2661,-35.0
1607020162.2682,-26.0
1607020162.2701,-28.0
1607020162.2721,-30.0
1607020162.2741,-21.0
1607020162.2761,-11.0
1607020162.2783,-14.0
1607020162.2801,-21.0
1607020162.2821,-19.0
1607020162.2842,-14.0
1607020162.2861,-7.0
1607020162.2881,-4.0
1607020162.2901,-11.0
1607020162.2908,-11.0
1607020162.7262,-2.0
1607020162.7272,2.0
1607020162.7297,-4.0
1607020162.7323,-7.0
1607020162.7343,-4.0
1607020162.7364,0.0
1607020162.7383,4.0
1607020162.7402,4.0
1607020162.7423,7.0
1607020162.7442,9.0
1607020162.7462,9.0
1607020162.7482,2.0
1607020162.7503,-2.0
1607020162.7524,0.0
1607020162.7528,4.0
1607020162.7542,2.0
1607020162.7562,2.0
1607020162.7582,2.0
1607020162.7602,7.0
1607020162.7622,9.0
1607020162.7642,7.0
1607020162.7662,7.0
1607020162.7683,11.0
1607020162.7702,16.0
1607020162.7722,14.0
1607020162.7742,11.0
1607020162.7762,11.0
1607020162.7782,11.0
1607020162.7802,9.0
1607020162.7822,14.0
1607020162.7828,16.0
1607020162.7843,14.0
1607020162.7862,9.0
1607020162.7882,11.0
1607020162.7902,16.0
1607020162.7922,19.0
1607020162.7942,21.0
1607020162.7962,21.0
1607020162.7982,19.0
1607020162.8003,19.0
1607020162.8023,23.0
1607020162.8042,21.0
1607020162.8062,16.0
1607020162.8084,11.0
1607020162.8103,16.0
1607020162.8122,30.0
1607020162.8128,47.0
1607020162.8142,68.0
1607020162.8162,92.0
1607020162.8183,95.0
1607020162.8202,73.0
1607020162.8222,49.0
1607020162.8242,35.0
1607020162.8262,30.0
1607020162.8282,28.0
1607020162.8302,30.0
1607020162.8322,38.0
1607020162.8343,38.0
1607020162.8362,35.0
1607020162.8382,49.0
1607020162.8402,52.0
1607020162.8422,16.0
1607020162.8428,-49.0
1607020162.8442,-92.0
1607020162.8462,14.0
1607020162.8482,415.0
1607020162.8503,1095.0
1607020162.8523,1535.0
1607020162.8542,815.0
1607020162.8562,-541.0
1607020162.8583,-753.0
1607020162.8602,-71.0
1607020162.8622,90.0
1607020163.2357,-68.0
1607020163.2367,7.0
1607020163.2391,76.0
1607020163.2403,33.0
1607020163.2418,45.0
1607020163.2438,83.0
1607020163.2458,85.0
1607020163.2479,97.0
1607020163.2497,116.0
1607020163.2518,118.0
1607020163.2537,125.0
1607020163.2557,149.0
1607020163.2578,159.0
1607020163.2597,161.0
1607020163.2617,182.0
1607020163.2637,211.0
1607020163.2657,223.0
1607020163.2679,235.0
1607020163.2697,254.0
1607020163.2703,275.0
1607020163.2717,301.0
1607020163.2739,323.0
1607020163.2757,339.0
1607020163.2777,346.0
1607020163.2797,342.0
1607020163.2817,332.0
1607020163.2838,316.0
1607020163.2857,292.0
1607020163.2878,242.0
1607020163.2899,161.0
1607020163.2917,76.0
1607020163.2937,0.0
1607020163.2957,-66.0
1607020163.2978,-111.0
1607020163.2998,-137.0
1607020163.3003,-159.0
1607020163.3017,-166.0
1607020163.3037,-156.0
1607020163.3057,-149.0
1607020163.3077,-137.0
1607020163.3097,-121.0
1607020163.3117,-116.0
1607020163.3136,-111.0
1607020163.3157,-99.0
1607020163.3178,-92.0
1607020163.3197,-87.0
1607020163.3217,-80.0
1607020163.3236,-73.0
1607020163.3256,-71.0
1607020163.3277,-68.0
1607020163.3297,-64.0
1607020163.3304,-68.0
1607020163.3317,-68.0
1607020163.3337,-61.0
1607020163.3357,-57.0
1607020163.3378,-59.0
1607020163.3397,-59.0
1607020163.3417,-57.0
1607020163.3437,-52.0
1607020163.3457,-45.0
1607020163.3477,-42.0
1607020163.3497,-49.0
1607020163.3517,-47.0
1607020163.3537,-30.0
1607020163.3557,-33.0
1607020163.3577,-47.0
1607020163.3597,-35.0
1607020163.3603,-23.0
1607020163.3617,-26.0
1607020163.3636,-26.0
1607020163.3657,-21.0
1607020163.3678,-23.0
1607020163.3698,-16.0
1607020163.8355,-7.0
1607020163.8365,-9.0
1607020163.839,-19.0
1607020163.8416,-19.0
1607020163.8435,-9.0
1607020163.8457,-9.0
1607020163.8477,-21.0
1607020163.8495,-21.0
1607020163.8515,-9.0
1607020163.8535,-9.0
1607020163.8542,-14.0
1607020163.8555,-7.0
1607020163.8564,-7.0
1607020163.8579,-16.0
1607020163.8595,-11.0
1607020163.8615,2.0
1607020163.8634,4.0
1607020163.8654,-2.0
1607020163.8676,-7.0
1607020163.8694,-2.0
1607020163.8714,4.0
1607020163.8734,2.0
1607020163.8754,-2.0
1607020163.8774,0.0
1607020163.8781,4.0
1607020163.8794,23.0
1607020163.8815,54.0
1607020163.8835,76.0
1607020163.8855,78.0
1607020163.8874,64.0
1607020163.8894,45.0
1607020163.8914,28.0
1607020163.8934,19.0
1607020163.8955,19.0
1607020163.8974,16.0
1607020163.8994,19.0
1607020163.9016,26.0
1607020163.9035,30.0
1607020163.9055,26.0
1607020163.9074,26.0
1607020163.9081,23.0
1607020163.9094,-23.0
1607020163.9114,-95.0
1607020163.9134,-47.0
1607020163.9154,280.0
1607020163.9175,917.0
1607020163.9195,1497.0
1607020163.9215,1095.0
1607020163.9235,-266.0
1607020163.9254,-855.0
1607020163.9276,-261.0
1607020163.9295,85.0
1607020163.9314,-54.0
1607020163.9335,-38.0
1607020163.9356,47.0
1607020163.9374,21.0
1607020163.9381,23.0
1607020163.9394,61.0
1607020163.9414,68.0
1607020163.9434,73.0
1607020163.9454,90.0
1607020163.9474,102.0
1607020163.9495,111.0
1607020163.9515,130.0
1607020163.9535,149.0
1607020163.9554,166.0
1607020163.9574,178.0
1607020163.9596,185.0
1607020163.9614,199.0
1607020163.9634,223.0
1607020163.9654,242.0
1607020163.9661,263.0
1607020163.9675,287.0
1607020164.346,304.0
1607020164.3467,318.0
1607020164.3492,332.0
1607020164.3518,337.0
1607020164.3537,323.0
1607020164.3557,299.0
1607020164.3578,266.0
1607020164.3597,209.0
1607020164.3617,128.0
1607020164.3637,38.0
1607020164.3657,-47.0
1607020164.3664,-123.0
1607020164.3678,-168.0
1607020164.3697,-190.0
1607020164.3717,-201.0
1607020164.3737,-204.0
1607020164.3757,-204.0
1607020164.3777,-197.0
1607020164.3797,-185.0
1607020164.3817,-171.0
1607020164.3838,-156.0
1607020164.3857,-144.0
1607020164.3877,-135.0
1607020164.3897,-128.0
1607020164.3917,-121.0
1607020164.3937,-109.0
1607020164.3957,-99.0
1607020164.3963,-95.0
1607020164.3979,-85.0
1607020164.3997,-80.0
1607020164.4017,-76.0
1607020164.4037,-73.0
1607020164.4057,-68.0
1607020164.4077,-64.0
1607020164.4097,-61.0
1607020164.4117,-64.0
1607020164.4137,-59.0
1607020164.4157,-54.0
1607020164.4179,-57.0
1607020164.4197,-57.0
1607020164.4218,-49.0
1607020164.4237,-47.0
1607020164.4257,-47.0
1607020164.4263,-40.0
1607020164.4277,-38.0
1607020164.4297,-35.0
1607020164.4317,-33.0
1607020164.4338,-33.0
1607020164.4357,-28.0
1607020164.4377,-23.0
1607020164.4397,-21.0
1607020164.4417,-21.0
1607020164.4437,-21.0
1607020164.4457,-19.0
1607020164.4477,-19.0
1607020164.4497,-16.0
1607020164.4518,-9.0
1607020164.4537,-7.0
1607020164.4557,-7.0
1607020164.4563,-11.0
1607020164.4577,-11.0
1607020164.4597,-9.0
1607020164.4617,-9.0
1607020164.4637,-7.0
1607020164.4658,-4.0
1607020164.4678,-4.0
1607020164.4697,-9.0
1607020164.4717,-11.0
1607020164.4737,-14.0
1607020164.4757,-14.0
1607020164.4777,-11.0
1607020164.4797,7.0
1607020164.4817,40.0
1607020164.9163,64.0
1607020164.9173,61.0
1607020164.9198,45.0
1607020164.9224,30.0
1607020164.9244,9.0
1607020164.9264,-9.0
1607020164.9285,-11.0
1607020164.9303,-7.0
1607020164.9324,-7.0
1607020164.9344,-7.0
1607020164.9363,-2.0
1607020164.9383,-2.0
1607020164.9403,2.0
1607020164.9423,0.0
1607020164.9443,-38.0
1607020164.9463,-114.0
1607020164.947,-116.0
1607020164.9483,121.0
1607020164.9503,708.0
1607020164.9523,1437.0
1607020164.9543,1380.0
1607020164.9563,135.0
1607020164.9583,-741.0
1607020164.9602,-299.0
1607020164.9623,111.0
1607020164.9643,-87.0
1607020164.9663,-123.0
1607020164.9684,14.0
1607020164.9703,-14.0
1607020164.9724,-38.0
1607020164.9744,21.0
1607020164.9763,35.0
1607020164.9769,26.0
1607020164.9783,45.0
1607020164.9803,66.0
1607020164.9822,76.0
1607020164.9844,92.0
1607020164.9863,109.0
1607020164.9883,123.0
1607020164.9902,140.0
1607020164.9922,159.0
1607020164.9943,180.0
1607020164.9962,204.0
1607020164.9983,228.0
1607020165.0004,251.0
1607020165.0024,275.0
1607020165.0043,299.0
1607020165.0063,316.0
1607020165.007,330.0
1607020165.0083,337.0
1607020165.0103,335.0
1607020165.0123,313.0
1607020165.0143,275.0
1607020165.0163,220.0
1607020165.0184,149.0
1607020165.0203,64.0
1607020165.0222,-19.0
1607020165.0244,-90.0
1607020165.0263,-144.0
1607020165.0283,-178.0
1607020165.0302,-190.0
1607020165.0323,-192.0
1607020165.0343,-190.0
1607020165.0363,-185.0
1607020165.0369,-175.0
1607020165.0383,-166.0
1607020165.0403,-154.0
1607020165.0423,-144.0
1607020165.0442,-133.0
1607020165.0462,-125.0
1607020165.0483,-118.0
1607020165.0504,-111.0
1607020165.0523,-102.0
1607020165.5463,-95.0
1607020165.5475,-87.0
1607020165.5499,-80.0
1607020165.5526,-76.0
1607020165.5546,-71.0
1607020165.5566,-73.0
1607020165.5588,-73.0
1607020165.5594,-66.0
1607020165.5606,-61.0
1607020165.5626,-64.0
1607020165.5646,-59.0
1607020165.5666,-54.0
1607020165.5686,-52.0
1607020165.5705,-52.0
1607020165.5725,-49.0
1607020165.5745,-45.0
1607020165.5765,-42.0
1607020165.5785,-42.0
1607020165.5805,-40.0
1607020165.5826,-35.0
1607020165.5846,-35.0
1607020165.5865,-38.0
1607020165.5885,-33.0
1607020165.5892,-26.0
1607020165.5905,-23.0
1607020165.5925,-23.0
1607020165.5945,-23.0
1607020165.5965,-21.0
1607020165.5985,-16.0
1607020165.6006,-16.0
1607020165.6025,-11.0
1607020165.6045,-9.0
1607020165.6065,-9.0
1607020165.6085,-11.0
1607020165.6105,-9.0
1607020165.6126,-9.0
1607020165.6146,-11.0
1607020165.6166,-14.0
1607020165.6185,-9.0
1607020165.6191,7.0
1607020165.6206,35.0
1607020165.6225,61.0
1607020165.6245,66.0
1607020165.6265,57.0
1607020165.6285,40.0
1607020165.6305,19.0
1607020165.6325,0.0
1607020165.6346,-4.0
1607020165.6365,-2.0
1607020165.6385,-2.0
1607020165.6405,-4.0
1607020165.6425,-4.0
1607020165.6445,-2.0
1607020165.6465,2.0
1607020165.6485,2.0
1607020165.6492,-30.0
1607020165.6505,-102.0
1607020165.6525,-114.0
1607020165.6545,99.0
1607020165.6565,617.0
1607020165.6585,1278.0
1607020165.6605,1297.0
1607020165.6625,199.0
1607020165.6645,-705.0
1607020165.6666,-361.0
1607020165.6686,99.0
1607020165.6705,-38.0
1607020165.6725,-102.0
1607020165.6745,21.0
1607020165.6765,11.0
1607020165.6785,-16.0
1607020165.6791,33.0
1607020165.6805,49.0
1607020166.086,40.0
1607020166.0867,64.0
1607020166.0891,83.0
1607020166.0918,85.0
1607020166.0937,97.0
1607020166.0957,116.0
1607020166.0979,125.0
1607020166.0997,140.0
1607020166.1018,154.0
1607020166.1038,168.0
1607020166.1057,185.0
1607020166.1064,204.0
1607020166.1078,225.0
1607020166.1099,251.0
1607020166.1118,268.0
1607020166.1137,278.0
1607020166.1157,294.0
1607020166.1178,306.0
1607020166.1197,304.0
1607020166.1217,292.0
1607020166.1237,263.0
1607020166.1257,213.0
1607020166.1279,144.0
1607020166.1297,66.0
1607020166.1317,-14.0
1607020166.1338,-85.0
1607020166.1343,-135.0
1607020166.1357,-163.0
1607020166.1377,-180.0
1607020166.1397,-185.0
1607020166.1417,-182.0
1607020166.1437,-175.0
1607020166.1457,-168.0
1607020166.1477,-156.0
1607020166.1497,-144.0
1607020166.1518,-133.0
1607020166.1537,-123.0
1607020166.1557,-116.0
1607020166.1577,-111.0
1607020166.1597,-106.0
1607020166.1617,-102.0
1607020166.1637,-95.0
1607020166.1644,-90.0
1607020166.1657,-85.0
1607020166.1678,-76.0
1607020166.1697,-68.0
1607020166.1717,-64.0
1607020166.1737,-61.0
1607020166.1757,-54.0
1607020166.1777,-52.0
1607020166.1797,-54.0
1607020166.1817,-52.0
1607020166.1837,-45.0
1607020166.1857,-45.0
1607020166.1877,-42.0
1607020166.1897,-40.0
1607020166.1917,-40.0
1607020166.1937,-33.0
1607020166.1943,-26.0
1607020166.1957,-26.0
1607020166.1977,-28.0
1607020166.1997,-28.0
1607020166.2017,-26.0
1607020166.2037,-23.0
1607020166.2059,-19.0
1607020166.2078,-16.0
1607020166.2097,-14.0
1607020166.2117,-11.0
1607020166.2137,-9.0
1607020166.2158,-7.0
1607020166.2178,-9.0
1607020166.2197,-11.0
1607020166.2217,-14.0
1607020166.6262,-19.0
1607020166.6271,-16.0
1607020166.6295,-2.0
1607020166.6324,23.0
1607020166.6342,52.0
1607020166.6363,66.0
1607020166.6381,61.0
1607020166.6401,40.0
1607020166.6422,11.0
1607020166.6441,-2.0
1607020166.6461,-4.0
1607020166.6481,-7.0
1607020166.6502,-14.0
1607020166.6523,-16.0
1607020166.6541,-9.0
1607020166.6562,-4.0
1607020166.6582,-2.0
1607020166.6588,-2.0
1607020166.6601,-21.0
1607020166.6622,-80.0
1607020166.6642,-116.0
1607020166.6661,38.0
1607020166.6681,487.0
1607020166.6702,1135.0
1607020166.6721,1404.0
1607020166.6741,537.0
1607020166.6761,-686.0
1607020166.6781,-677.0
1607020166.6801,-7.0
1607020166.6821,57.0
1607020166.6842,-97.0
1607020166.6861,-4.0
1607020166.6881,45.0
1607020166.6887,2.0
1607020166.6901,26.0
1607020166.6921,54.0
1607020166.6941,49.0
1607020166.6961,68.0
1607020166.6981,97.0
1607020166.7001,102.0
1607020166.7021,106.0
1607020166.7041,128.0
1607020166.7062,149.0
1607020166.7082,166.0
1607020166.7101,180.0
1607020166.7113,197.0
1607020166.713,218.0
1607020166.715,242.0
1607020166.7158,266.0
1607020166.7171,287.0
1607020166.719,308.0
1607020166.721,327.0
1607020166.7231,344.0
1607020166.725,356.0
1607020166.727,356.0
1607020166.7291,342.0
1607020166.7311,308.0
1607020166.7331,268.0
1607020166.7351,206.0
1607020166.737,114.0
1607020166.7391,23.0
1607020166.741,-49.0
1607020166.743,-111.0
1607020166.745,-149.0
1607020166.7457,-173.0
1607020166.747,-187.0
1607020166.7491,-187.0
1607020166.7512,-178.0
1607020166.7531,-163.0
1607020166.755,-149.0
1607020166.757,-140.0
1607020166.7591,-135.0
1607020166.761,-123.0
1607020167.1663,-116.0
1607020167.1673,-104.0
1607020167.1697,-95.0
1607020167.1724,-92.0
1607020167.1743,-87.0
1607020167.175,-83.0
1607020167.1763,-78.0
1607020167.1783,-76.0
1607020167.1803,-80.0
1607020167.1824,-87.0
1607020167.1843,-78.0
1607020167.1863,-66.0
1607020167.1883,-71.0
1607020167.1903,-76.0
1607020167.1923,-68.0
1607020167.1943,-61.0
1607020167.1963,-61.0
1607020167.1983,-59.0
1607020167.2003,-54.0
1607020167.2023,-52.0
1607020167.2044,-47.0
1607020167.2048,-42.0
1607020167.2063,-47.0
1607020167.2083,-59.0
1607020167.2102,-57.0
1607020167.2122,-47.0
1607020167.2142,-52.0
1607020167.2163,-57.0
1607020167.2183,-47.0
1607020167.2203,-38.0
1607020167.2223,-23.0
1607020167.2243,4.0
1607020167.2262,33.0
1607020167.2282,42.0
1607020167.2302,38.0
1607020167.2322,14.0
1607020167.2343,-11.0
1607020167.2348,-19.0
1607020167.2362,-9.0
1607020167.2383,-9.0
1607020167.2402,-21.0
1607020167.2422,-16.0
1607020167.2442,-4.0
1607020167.2463,-4.0
1607020167.2482,-4.0
1607020167.2503,0.0
1607020167.2523,-19.0
1607020167.2542,-92.0
1607020167.2562,-109.0
1607020167.2582,130.0
1607020167.2602,684.0
1607020167.2622,1314.0
1607020167.2642,1306.0
1607020167.2648,163.0
1607020167.2662,-902.0
1607020167.2683,-617.0
1607020167.2702,2.0
1607020167.2722,2.0
1607020167.2742,-66.0
1607020167.2762,35.0
1607020167.2782,47.0
1607020167.2802,19.0
1607020167.2822,52.0
1607020167.2843,76.0
1607020167.2862,73.0
1607020167.2883,87.0
1607020167.2902,104.0
1607020167.2922,114.0
1607020167.2942,133.0
1607020167.2948,156.0
1607020167.2962,166.0
1607020167.2984,173.0
1607020167.3003,190.0
1607020167.7659,216.0
1607020167.7668,240.0
1607020167.7692,261.0
1607020167.772,282.0
1607020167.7739,306.0
1607020167.7759,325.0
1607020167.7779,335.0
1607020167.7799,339.0
1607020167.7819,344.0
1607020167.784,337.0
1607020167.7859,318.0
1607020167.7866,285.0
1607020167.7879,235.0
1607020167.7898,154.0
1607020167.7918,61.0
1607020167.7938,-23.0
1607020167.7958,-95.0
1607020167.7979,-142.0
1607020167.7999,-171.0
1607020167.8019,-185.0
1607020167.8038,-185.0
1607020167.8058,-178.0
1607020167.8079,-171.0
1607020167.8098,-159.0
1607020167.8118,-149.0
1607020167.8138,-142.0
1607020167.8158,-133.0
1607020167.8164,-116.0
1607020167.8179,-102.0
1607020167.8198,-99.0
1607020167.8218,-99.0
1607020167.8238,-85.0
1607020167.8258,-73.0
1607020167.8278,-71.0
1607020167.8298,-68.0
1607020167.8318,-66.0
1607020167.8339,-66.0
1607020167.8358,-66.0
1607020167.8379,-61.0
1607020167.8398,-57.0
1607020167.8418,-49.0
1607020167.8438,-47.0
1607020167.8458,-49.0
1607020167.8464,-49.0
1607020167.8478,-42.0
1607020167.8499,-40.0
1607020167.8518,-40.0
1607020167.8538,-40.0
1607020167.8558,-40.0
1607020167.858,-38.0
1607020167.8598,-38.0
1607020167.8618,-42.0
1607020167.8638,-40.0
1607020167.8657,-30.0
1607020167.8679,-9.0
1607020167.8698,26.0
1607020167.8718,47.0
1607020167.8738,45.0
1607020167.8758,28.0
1607020167.8764,4.0
1607020167.8778,-14.0
1607020167.8798,-21.0
1607020167.8818,-19.0
1607020167.8839,-19.0
1607020167.8858,-19.0
1607020167.8878,-23.0
1607020167.8898,-21.0
1607020167.8918,-11.0
1607020167.8938,-9.0
1607020167.8958,-16.0
1607020167.8978,-52.0
1607020167.8998,-128.0
1607020167.9018,-125.0
1607020168.2759,147.0
1607020168.2767,765.0
1607020168.279,1440.0
1607020168.2817,1278.0
1607020168.2838,-2.0
1607020168.2857,-834.0
1607020168.2878,-361.0
1607020168.2897,78.0
1607020168.2917,-73.0
1607020168.2937,-104.0
1607020168.2958,14.0
1607020168.2978,-9.0
1607020168.2998,-35.0
1607020168.3017,16.0
1607020168.3038,33.0
1607020168.3057,26.0
1607020168.3063,49.0
1607020168.3077,71.0
1607020168.3098,78.0
1607020168.3117,92.0
1607020168.3137,118.0
1607020168.3158,140.0
1607020168.3178,147.0
1607020168.3197,154.0
1607020168.3218,178.0
1607020168.3237,209.0
1607020168.3257,235.0
1607020168.3279,256.0
1607020168.3297,278.0
1607020168.3316,301.0
1607020168.3337,318.0
1607020168.3357,323.0
1607020168.3363,323.0
1607020168.3377,316.0
1607020168.3396,292.0
1607020168.3416,249.0
1607020168.3436,190.0
1607020168.3456,109.0
1607020168.3477,21.0
1607020168.3497,-59.0
1607020168.3518,-114.0
1607020168.3536,-147.0
1607020168.3556,-168.0
1607020168.3577,-178.0
1607020168.3597,-175.0
1607020168.3616,-168.0
1607020168.3636,-163.0
1607020168.3657,-154.0
1607020168.3663,-140.0
1607020168.3678,-128.0
1607020168.3697,-121.0
1607020168.3717,-111.0
1607020168.3736,-104.0
1607020168.3756,-97.0
1607020168.3777,-90.0
1607020168.3796,-83.0
1607020168.3816,-76.0
1607020168.3837,-73.0
1607020168.3857,-71.0
1607020168.3877,-66.0
1607020168.3896,-59.0
1607020168.3916,-57.0
1607020168.3936,-57.0
1607020168.3957,-54.0
1607020168.3963,-52.0
1607020168.3977,-47.0
1607020168.3997,-45.0
1607020168.4017,-42.0
1607020168.4036,-42.0
1607020168.4056,-42.0
1607020168.4077,-42.0
1607020168.4096,-40.0
1607020168.4116,-40.0
1607020168.876,-47.0
1607020168.8769,-52.0
1607020168.8786,-49.0
1607020168.8805,-40.0
1607020168.8825,-26.0
1607020168.8835,2.0
1607020168.8845,26.0
1607020168.8865,33.0
1607020168.8885,23.0
1607020168.8905,0.0
1607020168.8925,-23.0
1607020168.8945,-28.0
1607020168.8965,-21.0
1607020168.8985,-21.0
1607020168.9005,-21.0
1607020168.9026,-16.0
1607020168.9044,-16.0
1607020168.9064,-14.0
1607020168.9085,-9.0
1607020168.9104,-21.0
1607020168.9124,-87.0
1607020168.913,-154.0
1607020168.9144,-64.0
1607020168.9165,332.0
1607020168.9185,1026.0
1607020168.9205,1499.0
1607020168.9224,836.0
1607020168.9244,-453.0
1607020168.9264,-658.0
1607020168.9284,-45.0
1607020168.9304,45.0
1607020168.9324,-140.0
1607020168.9345,-54.0
1607020168.9364,11.0
1607020168.9385,-38.0
1607020168.9404,-16.0
1607020168.9424,26.0
1607020168.943,19.0
1607020168.9444,28.0
1607020168.9464,52.0
1607020168.9484,61.0
1607020168.9505,73.0
1607020168.9524,92.0
1607020168.9544,106.0
1607020168.9564,121.0
1607020168.9584,142.0
1607020168.9605,161.0
1607020168.9624,180.0
1607020168.9644,204.0
1607020168.9665,228.0
1607020168.9685,249.0
1607020168.9704,270.0
1607020168.9724,285.0
1607020168.973,297.0
1607020168.9744,304.0
1607020168.9764,301.0
1607020168.9787,287.0
1607020168.9804,261.0
1607020168.9824,216.0
1607020168.9845,147.0
1607020168.9864,66.0
1607020168.9884,-14.0
1607020168.9904,-80.0
1607020168.9924,-128.0
1607020168.9944,-156.0
1607020168.9964,-171.0
1607020168.9984,-180.0
1607020169.0005,-180.0
1607020169.001,-171.0
1607020169.0025,-159.0
1607020169.0044,-149.0
1607020169.0064,-137.0
1607020169.0084,-128.0
1607020169.4162,-116.0
1607020169.4172,-109.0
1607020169.4197,-104.0
1607020169.4223,-97.0
1607020169.4243,-87.0
1607020169.4262,-80.0
1607020169.4283,-78.0
1607020169.4302,-73.0
1607020169.4323,-66.0
1607020169.4343,-68.0
1607020169.435,-76.0
1607020169.4363,-71.0
1607020169.4383,-64.0
1607020169.4402,-64.0
1607020169.4422,-64.0
1607020169.4442,-57.0
1607020169.4462,-57.0
1607020169.4482,-57.0
1607020169.4503,-52.0
1607020169.4523,-49.0
1607020169.4542,-52.0
1607020169.4562,-49.0
1607020169.4582,-42.0
1607020169.4602,-35.0
1607020169.4621,-35.0
1607020169.4642,-38.0
1607020169.4648,-40.0
1607020169.4662,-35.0
1607020169.4682,-33.0
1607020169.4702,-33.0
1607020169.4721,-26.0
1607020169.4741,-11.0
1607020169.4762,19.0
1607020169.4782,47.0
1607020169.4803,54.0
1607020169.4822,42.0
1607020169.4842,30.0
1607020169.4861,14.0
1607020169.4881,-2.0
1607020169.4901,-9.0
1607020169.4921,-7.0
1607020169.4941,-4.0
1607020169.4947,0.0
1607020169.4961,2.0
1607020169.4982,0.0
1607020169.5002,2.0
1607020169.5022,4.0
1607020169.5041,-23.0
1607020169.5061,-99.0
1607020169.5082,-118.0
1607020169.5101,95.0
1607020169.5121,636.0
1607020169.5141,1318.0
1607020169.5162,1330.0
1607020169.5182,173.0
1607020169.5201,-793.0
1607020169.5221,-432.0
1607020169.5241,90.0
1607020169.5247,-35.0
1607020169.5261,-114.0
1607020169.5282,11.0
1607020169.5301,7.0
1607020169.5321,-23.0
1607020169.5342,28.0
1607020169.5361,49.0
1607020169.5382,33.0
1607020169.5401,54.0
1607020169.5421,87.0
1607020169.5442,95.0
1607020169.5461,102.0
1607020169.5481,118.0
1607020169.5502,137.0
1607020169.5522,147.0
1607020169.9864,154.0
1607020169.9877,173.0
1607020169.9901,201.0
1607020169.9927,225.0
1607020169.9947,249.0
1607020169.9967,268.0
1607020169.9988,282.0
1607020170.0008,287.0
1607020170.0027,299.0
1607020170.0047,308.0
1607020170.0067,294.0
1607020170.0087,275.0
1607020170.011,254.0
1607020170.0127,206.0
1607020170.0147,130.0
1607020170.0156,42.0
1607020170.0167,-40.0
1607020170.0188,-99.0
1607020170.0207,-137.0
1607020170.0228,-166.0
1607020170.0247,-178.0
1607020170.0267,-178.0
1607020170.0287,-178.0
1607020170.0307,-166.0
1607020170.0327,-147.0
1607020170.0348,-135.0
1607020170.0367,-125.0
1607020170.0387,-118.0
1607020170.0406,-114.0
1607020170.0426,-106.0
1607020170.0446,-95.0
1607020170.0452,-80.0
1607020170.0467,-78.0
1607020170.0487,-78.0
1607020170.0507,-66.0
1607020170.0527,-57.0
1607020170.0546,-64.0
1607020170.0566,-66.0
1607020170.0586,-61.0
1607020170.0606,-59.0
1607020170.0626,-54.0
1607020170.0646,-47.0
1607020170.0667,-49.0
1607020170.0687,-54.0
1607020170.0706,-47.0
1607020170.0726,-38.0
1607020170.0746,-38.0
1607020170.0752,-40.0
1607020170.0766,-35.0
1607020170.0787,-33.0
1607020170.0806,-35.0
1607020170.0827,-33.0
1607020170.0847,-28.0
1607020170.0866,-23.0
1607020170.0887,-28.0
1607020170.0906,-28.0
1607020170.0926,-21.0
1607020170.0946,-11.0
1607020170.0966,-9.0
1607020170.0986,-14.0
1607020170.1007,-16.0
1607020170.1026,-7.0
1607020170.1046,-9.0
1607020170.1054,-16.0
1607020170.1067,-9.0
1607020170.1086,-11.0
1607020170.1106,-16.0
1607020170.1126,-9.0
1607020170.1146,9.0
1607020170.1167,35.0
1607020170.1187,61.0
1607020170.1206,71.0
1607020170.1226,54.0
1607020170.5561,30.0
1607020170.557,11.0
1607020170.5595,7.0
1607020170.5621,4.0
1607020170.5641,0.0
1607020170.5661,-2.0
1607020170.5667,4.0
1607020170.5682,4.0
1607020170.5701,0.0
1607020170.5721,2.0
1607020170.5741,-2.0
1607020170.5761,-49.0
1607020170.5781,-118.0
1607020170.58,-57.0
1607020170.582,297.0
1607020170.5841,936.0
1607020170.586,1461.0
1607020170.5881,995.0
1607020170.59,-358.0
1607020170.592,-895.0
1607020170.594,-273.0
1607020170.596,73.0
1607020170.5966,-68.0
1607020170.5981,-45.0
1607020170.6001,47.0
1607020170.6021,11.0
1607020170.604,9.0
1607020170.6061,59.0
1607020170.6081,64.0
1607020170.61,57.0
1607020170.612,80.0
1607020170.614,102.0
1607020170.6161,111.0
1607020170.6181,118.0
1607020170.62,128.0
1607020170.622,142.0
1607020170.624,166.0
1607020170.626,185.0
1607020170.6266,192.0
1607020170.6281,206.0
1607020170.63,237.0
1607020170.6322,263.0
1607020170.6341,278.0
1607020170.636,292.0
1607020170.638,304.0
1607020170.64,311.0
1607020170.642,313.0
1607020170.644,301.0
1607020170.646,282.0
1607020170.648,251.0
1607020170.6501,192.0
1607020170.652,109.0
1607020170.654,28.0
1607020170.6561,-45.0
1607020170.6566,-102.0
1607020170.658,-144.0
1607020170.66,-168.0
1607020170.662,-175.0
1607020170.664,-173.0
1607020170.6661,-171.0
1607020170.6681,-163.0
1607020170.67,-149.0
1607020170.672,-140.0
1607020170.674,-130.0
1607020170.676,-121.0
1607020170.678,-116.0
1607020170.68,-109.0
1607020170.682,-104.0
1607020170.6841,-97.0
1607020170.686,-90.0
1607020170.6866,-83.0
1607020170.688,-78.0
1607020170.69,-76.0
1607020171.096,-73.0
1607020171.097,-68.0
1607020171.0994,-64.0
1607020171.1022,-59.0
1607020171.1041,-59.0
1607020171.1062,-68.0
1607020171.1081,-71.0
1607020171.11,-64.0
1607020171.112,-64.0
1607020171.114,-71.0
1607020171.1146,-68.0
1607020171.116,-61.0
1607020171.1181,-57.0
1607020171.12,-54.0
1607020171.122,-49.0
1607020171.124,-47.0
1607020171.126,-45.0
1607020171.128,-40.0
1607020171.13,-38.0
1607020171.1323,-35.0
1607020171.134,-33.0
1607020171.136,-28.0
1607020171.138,-26.0
1607020171.14,-26.0
1607020171.142,-28.0
1607020171.144,-28.0
1607020171.1446,-21.0
1607020171.146,-19.0
1607020171.148,-16.0
1607020171.1499,-19.0
1607020171.1519,-14.0
1607020171.1539,-9.0
1607020171.156,-9.0
1607020171.158,-9.0
1607020171.1599,-7.0
1607020171.1619,-9.0
1607020171.1639,-11.0
1607020171.1659,-19.0
1607020171.168,-16.0
1607020171.1699,-7.0
1607020171.1719,14.0
1607020171.1739,42.0
1607020171.1746,61.0
1607020171.1759,57.0
1607020171.178,42.0
1607020171.1799,26.0
1607020171.1819,9.0
1607020171.1839,0.0
1607020171.1859,-4.0
1607020171.188,-2.0
1607020171.1899,0.0
1607020171.1919,2.0
1607020171.1939,0.0
1607020171.1959,2.0
1607020171.198,7.0
1607020171.2,-2.0
1607020171.2019,-59.0
1607020171.2039,-137.0
1607020171.2046,-92.0
1607020171.206,237.0
1607020171.208,907.0
1607020171.2099,1530.0
1607020171.2119,1109.0
1607020171.2139,-232.0
1607020171.216,-717.0
1607020171.218,-135.0
1607020171.2199,76.0
1607020171.2219,-125.0
1607020171.2239,-76.0
1607020171.2259,23.0
1607020171.2281,-23.0
1607020171.23,-23.0
1607020171.2319,26.0
1607020171.6355,28.0
1607020171.6365,30.0
1607020171.6388,54.0
1607020171.6406,66.0
1607020171.6425,76.0
1607020171.6445,92.0
1607020171.6466,106.0
1607020171.6486,114.0
1607020171.6506,133.0
1607020171.6526,156.0
1607020171.6546,173.0
1607020171.6566,192.0
1607020171.6586,218.0
1607020171.6607,242.0
1607020171.6626,261.0
1607020171.6631,278.0
1607020171.6645,289.0
1607020171.6666,297.0
1607020171.6686,299.0
1607020171.6705,292.0
1607020171.6725,278.0
1607020171.6745,242.0
1607020171.6765,185.0
1607020171.6785,111.0
1607020171.6805,33.0
1607020171.6824,-40.0
1607020171.6846,-97.0
1607020171.6865,-137.0
1607020171.6885,-163.0
1607020171.6904,-180.0
1607020171.6924,-185.0
1607020171.6931,-178.0
1607020171.6945,-166.0
1607020171.6965,-159.0
1607020171.6985,-152.0
1607020171.7005,-140.0
1607020171.7025,-125.0
1607020171.7044,-118.0
1607020171.7064,-111.0
1607020171.7085,-102.0
1607020171.7104,-95.0
1607020171.7124,-90.0
1607020171.7146,-85.0
1607020171.7165,-78.0
1607020171.7187,-73.0
1607020171.7205,-68.0
1607020171.7224,-68.0
1607020171.7231,-66.0
1607020171.7246,-64.0
1607020171.7265,-61.0
1607020171.7285,-59.0
1607020171.7304,-57.0
1607020171.7325,-54.0
1607020171.7345,-52.0
1607020171.7365,-52.0
1607020171.7385,-47.0
1607020171.7404,-42.0
1607020171.7424,-42.0
1607020171.7445,-40.0
1607020171.7464,-38.0
1607020171.7485,-33.0
1607020171.7505,-33.0
1607020171.7525,-30.0
1607020171.7531,-26.0
1607020171.7544,-23.0
1607020171.7564,-26.0
1607020171.7585,-26.0
1607020171.7604,-21.0
1607020171.7624,-19.0
1607020171.7644,-21.0
1607020171.7665,-19.0
1607020171.7685,-16.0
1607020171.7704,-14.0
1607020172.2357,-14.0
1607020172.2366,-11.0
1607020172.2392,-9.0
1607020172.2418,-14.0
1607020172.2424,-21.0
1607020172.2437,-16.0
1607020172.2457,-14.0
1607020172.2477,-16.0
1607020172.2497,-16.0
1607020172.2517,-11.0
1607020172.2537,-11.0
1607020172.2557,-11.0
1607020172.2578,-9.0
1607020172.2597,-11.0
1607020172.2616,-14.0
1607020172.2636,-16.0
1607020172.2656,-21.0
1607020172.2677,-16.0
1607020172.2696,-4.0
1607020172.2717,16.0
1607020172.2723,42.0
1607020172.2736,54.0
1607020172.2756,42.0
1607020172.2777,28.0
1607020172.2796,16.0
1607020172.2816,2.0
1607020172.2838,-9.0
1607020172.2857,-9.0
1607020172.2877,-4.0
1607020172.2896,-4.0
1607020172.2916,-2.0
1607020172.2936,0.0
1607020172.2956,2.0
1607020172.2977,4.0
1607020172.2996,-14.0
1607020172.3016,-78.0
1607020172.3022,-135.0
1607020172.3036,-33.0
1607020172.3056,346.0
1607020172.3077,1017.0
1607020172.3096,1463.0
1607020172.3116,779.0
1607020172.3136,-441.0
1607020172.3156,-567.0
1607020172.3177,9.0
1607020172.3196,40.0
1607020172.3216,-128.0
1607020172.3236,-28.0
1607020172.3256,23.0
1607020172.3277,-23.0
1607020172.3296,2.0
1607020172.3316,40.0
1607020172.3323,35.0
1607020172.3336,45.0
1607020172.3356,66.0
1607020172.3377,73.0
1607020172.3396,85.0
1607020172.3416,106.0
1607020172.3436,121.0
1607020172.3456,135.0
1607020172.3477,154.0
1607020172.3496,175.0
1607020172.3516,192.0
1607020172.3536,209.0
1607020172.3556,230.0
1607020172.3577,254.0
1607020172.3596,273.0
1607020172.3616,289.0
1607020172.3622,301.0
1607020172.3636,311.0
1607020172.3656,311.0
1607020172.3677,301.0
1607020172.3696,285.0
1607020172.8057,251.0
1607020172.8067,190.0
1607020172.8092,116.0
1607020172.8118,42.0
1607020172.814,-26.0
1607020172.8158,-85.0
1607020172.8177,-125.0
1607020172.8197,-149.0
1607020172.8218,-166.0
1607020172.8238,-173.0
1607020172.8245,-166.0
1607020172.8257,-154.0
1607020172.8278,-147.0
1607020172.8297,-142.0
1607020172.8318,-137.0
1607020172.8337,-135.0
1607020172.8357,-128.0
1607020172.8378,-116.0
1607020172.8397,-106.0
1607020172.8417,-99.0
1607020172.8437,-90.0
1607020172.8457,-87.0
1607020172.8477,-85.0
1607020172.8496,-76.0
1607020172.8516,-68.0
1607020172.8537,-68.0
1607020172.8543,-66.0
1607020172.8556,-59.0
1607020172.8577,-57.0
1607020172.8597,-54.0
1607020172.8617,-52.0
1607020172.8636,-54.0
1607020172.8657,-54.0
1607020172.8677,-49.0
1607020172.8696,-45.0
1607020172.8717,-42.0
1607020172.8736,-45.0
1607020172.8756,-42.0
1607020172.8777,-40.0
1607020172.8796,-40.0
1607020172.8817,-40.0
1607020172.8822,-35.0
1607020172.8837,-30.0
1607020172.8856,-33.0
1607020172.8877,-33.0
1607020172.8896,-28.0
1607020172.8916,-21.0
1607020172.8936,-19.0
1607020172.8956,-19.0
1607020172.8977,-16.0
1607020172.8996,-9.0
1607020172.9016,-9.0
1607020172.9036,-16.0
1607020172.9057,-16.0
1607020172.9076,-4.0
1607020172.9098,2.0
1607020172.9117,-2.0
1607020172.9123,-7.0
1607020172.9137,2.0
1607020172.9156,7.0
1607020172.9177,0.0
1607020172.9197,-7.0
1607020172.9216,-4.0
1607020172.9236,0.0
1607020172.9256,0.0
1607020172.9277,-4.0
1607020172.9283,0.0
1607020172.9296,9.0
1607020172.9316,7.0
1607020172.9336,0.0
1607020172.9356,2.0
1607020172.9377,16.0
1607020172.9382,47.0
1607020173.3461,73.0
1607020173.347,76.0
1607020173.3494,64.0
1607020173.3521,47.0
1607020173.354,30.0
1607020173.3561,23.0
1607020173.3581,19.0
1607020173.36,7.0
1607020173.362,4.0
1607020173.364,11.0
1607020173.366,7.0
1607020173.3681,0.0
1607020173.37,9.0
1607020173.3706,9.0
1607020173.372,-38.0
1607020173.374,-104.0
1607020173.376,-54.0
1607020173.378,259.0
1607020173.38,869.0
1607020173.382,1444.0
1607020173.384,1095.0
1607020173.386,-240.0
1607020173.388,-869.0
1607020173.39,-270.0
1607020173.392,104.0
1607020173.394,-59.0
1607020173.396,-59.0
1607020173.398,45.0
1607020173.4,16.0
1607020173.4006,9.0
1607020173.402,59.0
1607020173.404,68.0
1607020173.406,64.0
1607020173.4082,87.0
1607020173.41,106.0
1607020173.412,116.0
1607020173.4139,130.0
1607020173.4159,142.0
1607020173.418,154.0
1607020173.4199,178.0
1607020173.4219,201.0
1607020173.4239,216.0
1607020173.4259,232.0
1607020173.428,251.0
1607020173.4299,266.0
1607020173.4305,285.0
1607020173.4319,316.0
1607020173.4339,339.0
1607020173.436,339.0
1607020173.438,337.0
1607020173.4399,349.0
1607020173.4419,342.0
1607020173.4439,299.0
1607020173.4459,244.0
1607020173.448,180.0
1607020173.4499,87.0
1607020173.4519,-2.0
1607020173.4539,-68.0
1607020173.4559,-118.0
1607020173.458,-144.0
1607020173.4599,-161.0
1607020173.4605,-175.0
1607020173.4619,-178.0
1607020173.4639,-173.0
1607020173.466,-159.0
1607020173.468,-144.0
1607020173.4699,-142.0
1607020173.4719,-137.0
1607020173.4739,-121.0
1607020173.4759,-116.0
1607020173.478,-114.0
1607020173.4799,-99.0
1607020173.4819,-90.0
1607020173.9163,-92.0
1607020173.9172,-92.0
1607020173.9189,-80.0
1607020173.9213,-80.0
1607020173.9233,-85.0
1607020173.9253,-76.0
1607020173.9273,-66.0
1607020173.9293,-73.0
1607020173.9313,-80.0
1607020173.9333,-76.0
1607020173.9353,-64.0
1607020173.9375,-64.0
1607020173.9393,-66.0
1607020173.9412,-64.0
1607020173.9432,-61.0
1607020173.9452,-61.0
1607020173.9473,-52.0
1607020173.9492,-47.0
1607020173.9498,-47.0
1607020173.9512,-42.0
1607020173.9532,-38.0
1607020173.9552,-35.0
1607020173.9573,-33.0
1607020173.9593,-35.0
1607020173.9612,-33.0
1607020173.9632,-26.0
1607020173.9652,-21.0
1607020173.9673,-19.0
1607020173.9692,-19.0
1607020173.9712,-14.0
1607020173.9732,-9.0
1607020173.9752,-11.0
1607020173.9773,-16.0
1607020173.9791,-16.0
1607020173.9798,-9.0
1607020173.9813,-9.0
1607020173.9832,-14.0
1607020173.9851,-21.0
1607020173.9872,-14.0
1607020173.9892,16.0
1607020173.9911,54.0
1607020173.9931,71.0
1607020173.9952,61.0
1607020173.9972,42.0
1607020173.9992,28.0
1607020174.0012,11.0
1607020174.0031,0.0
1607020174.0051,-2.0
1607020174.0072,0.0
1607020174.0092,2.0
1607020174.0099,7.0
1607020174.0112,9.0
1607020174.0132,14.0
1607020174.0151,16.0
1607020174.0172,2.0
1607020174.0192,-52.0
1607020174.0211,-114.0
1607020174.0231,-33.0
1607020174.0252,337.0
1607020174.0272,981.0
1607020174.0292,1468.0
1607020174.0312,924.0
1607020174.0333,-411.0
1607020174.0352,-824.0
1607020174.0373,-192.0
1607020174.0391,76.0
1607020174.0398,-73.0
1607020174.0411,-33.0
1607020174.0431,47.0
1607020174.0451,9.0
1607020174.0472,11.0
1607020174.0492,52.0
1607020174.0511,54.0
1607020174.4567,59.0
1607020174.4576,83.0
1607020174.4601,92.0
1607020174.4627,99.0
1607020174.4647,114.0
1607020174.4667,128.0
1607020174.4687,144.0
1607020174.4706,159.0
1607020174.4713,168.0
1607020174.4726,185.0
1607020174.4746,209.0
1607020174.4766,230.0
1607020174.4787,249.0
1607020174.4806,273.0
1607020174.4827,299.0
1607020174.4846,313.0
1607020174.4866,323.0
1607020174.4887,320.0
1607020174.4906,308.0
1607020174.4926,289.0
1607020174.4946,254.0
1607020174.4966,192.0
1607020174.4986,114.0
1607020174.5006,26.0
1607020174.5012,-52.0
1607020174.5026,-111.0
1607020174.5046,-154.0
1607020174.5066,-180.0
1607020174.5087,-192.0
1607020174.5107,-197.0
1607020174.5126,-197.0
1607020174.5146,-190.0
1607020174.5166,-180.0
1607020174.5187,-168.0
1607020174.5206,-159.0
1607020174.5226,-152.0
1607020174.5246,-144.0
1607020174.5266,-135.0
1607020174.5286,-123.0
1607020174.5306,-114.0
1607020174.5314,-111.0
1607020174.5327,-104.0
1607020174.5346,-97.0
1607020174.5366,-95.0
1607020174.5386,-90.0
1607020174.5406,-83.0
1607020174.5426,-78.0
1607020174.5446,-76.0
1607020174.5466,-73.0
1607020174.5487,-71.0
1607020174.5506,-66.0
1607020174.5526,-66.0
1607020174.5546,-66.0
1607020174.5566,-64.0
1607020174.5586,-59.0
1607020174.5606,-57.0
1607020174.5612,-52.0
1607020174.5626,-47.0
1607020174.5646,-47.0
1607020174.5666,-49.0
1607020174.5686,-49.0
1607020174.5706,-42.0
1607020174.5726,-35.0
1607020174.5746,-38.0
1607020174.5766,-40.0
1607020174.5786,-35.0
1607020174.5806,-33.0
1607020174.5826,-33.0
1607020174.5846,-30.0
1607020174.5866,-30.0
1607020174.5886,-33.0
1607020174.5906,-35.0
1607020174.5912,-30.0
1607020174.9958,-19.0
1607020174.9965,4.0
1607020174.9989,38.0
1607020175.0016,57.0
1607020175.0036,45.0
1607020175.0056,26.0
1607020175.0076,9.0
1607020175.0096,-7.0
1607020175.0116,-16.0
1607020175.0136,-19.0
1607020175.0156,-16.0
1607020175.0176,-11.0
1607020175.0196,-9.0
1607020175.0202,-9.0
1607020175.0216,-7.0
1607020175.0236,-4.0
1607020175.0256,-21.0
1607020175.0276,-80.0
1607020175.0299,-140.0
1607020175.0316,-47.0
1607020175.0335,339.0
1607020175.0355,1019.0
1607020175.0376,1485.0
1607020175.0396,824.0
1607020175.0415,-463.0
1607020175.0435,-662.0
1607020175.0456,-40.0
1607020175.0476,54.0
1607020175.0495,-125.0
1607020175.0501,-40.0
1607020175.0515,28.0
1607020175.0535,-19.0
1607020175.0555,2.0
1607020175.0576,45.0
1607020175.0595,38.0
1607020175.0615,47.0
1607020175.0635,73.0
1607020175.0655,80.0
1607020175.0676,90.0
1607020175.0695,111.0
1607020175.0715,125.0
1607020175.0736,137.0
1607020175.0755,156.0
1607020175.0776,178.0
1607020175.0795,197.0
1607020175.0801,218.0
1607020175.0815,240.0
1607020175.0835,263.0
1607020175.0855,282.0
1607020175.0875,301.0
1607020175.0895,318.0
1607020175.0915,323.0
1607020175.0935,313.0
1607020175.0955,299.0
1607020175.0976,278.0
1607020175.0995,235.0
1607020175.1015,173.0
1607020175.1035,90.0
1607020175.1055,4.0
1607020175.1075,-68.0
1607020175.1095,-125.0
1607020175.1101,-161.0
1607020175.1115,-178.0
1607020175.1135,-185.0
1607020175.1155,-187.0
1607020175.1176,-182.0
1607020175.1195,-173.0
1607020175.1215,-163.0
1607020175.1235,-152.0
1607020175.1257,-142.0
1607020175.1276,-133.0
1607020175.1295,-125.0
1607020175.1315,-118.0
1607020175.626,-114.0
1607020175.6271,-106.0
1607020175.6287,-106.0
1607020175.6294,-109.0
1607020175.6306,-104.0
1607020175.6326,-92.0
1607020175.6346,-90.0
1607020175.6366,-87.0
1607020175.6386,-83.0
1607020175.6406,-78.0
1607020175.6426,-78.0
1607020175.6446,-73.0
1607020175.6466,-68.0
1607020175.6487,-66.0
1607020175.6506,-66.0
1607020175.6526,-64.0
1607020175.6546,-61.0
1607020175.6566,-59.0
1607020175.6585,-59.0
1607020175.6592,-54.0
1607020175.6605,-52.0
1607020175.6625,-49.0
1607020175.6646,-47.0
1607020175.6666,-42.0
1607020175.6686,-40.0
1607020175.6705,-38.0
1607020175.6725,-40.0
1607020175.6745,-45.0
1607020175.6766,-42.0
1607020175.6786,-35.0
1607020175.6805,-30.0
1607020175.6825,-14.0
1607020175.6845,21.0
1607020175.6865,49.0
1607020175.6886,45.0
1607020175.6968,30.0
1607020175.6986,19.0
1607020175.7005,2.0
1607020175.7026,-14.0
1607020175.7045,-16.0
1607020175.7065,-14.0
1607020175.7085,-11.0
1607020175.7105,-11.0
1607020175.7125,-9.0
1607020175.7145,-7.0
1607020175.7166,-11.0
1607020175.7185,-21.0
1607020175.7207,-61.0
1607020175.7225,-130.0
1607020175.7245,-102.0
1607020175.7251,185.0
1607020175.7264,777.0
1607020175.7286,1356.0
1607020175.7305,1074.0
1607020175.7325,-152.0
1607020175.7345,-750.0
1607020175.7365,-225.0
1607020175.7385,95.0
1607020175.7405,-85.0
1607020175.7425,-80.0
1607020175.7445,33.0
1607020175.7466,-2.0
1607020175.7486,-16.0
1607020175.7506,35.0
1607020175.7526,42.0
1607020175.7545,38.0
1607020175.7551,64.0
1607020175.7565,80.0
1607020175.7586,85.0
1607020175.7605,99.0
1607020175.7625,118.0
1607020175.7645,137.0
1607020175.7665,154.0
1607020176.1658,171.0
1607020176.1667,187.0
1607020176.1691,206.0
1607020176.1718,230.0
1607020176.1738,254.0
1607020176.1757,275.0
1607020176.1764,297.0
1607020176.1779,311.0
1607020176.1797,313.0
1607020176.1817,316.0
1607020176.1837,316.0
1607020176.1857,299.0
1607020176.1878,251.0
1607020176.1897,187.0
1607020176.1917,114.0
1607020176.1937,35.0
1607020176.1957,-42.0
1607020176.1978,-99.0
1607020176.1997,-133.0
1607020176.2017,-154.0
1607020176.2037,-171.0
1607020176.2057,-171.0
1607020176.2063,-159.0
1607020176.2077,-156.0
1607020176.2097,-152.0
1607020176.2119,-137.0
1607020176.2138,-123.0
1607020176.2157,-121.0
1607020176.2178,-114.0
1607020176.2197,-97.0
1607020176.2217,-92.0
1607020176.2237,-90.0
1607020176.2257,-80.0
1607020176.2277,-78.0
1607020176.2297,-78.0
1607020176.2316,-73.0
1607020176.2337,-66.0
1607020176.2357,-64.0
1607020176.2364,-66.0
1607020176.2377,-64.0
1607020176.2396,-57.0
1607020176.2417,-52.0
1607020176.2436,-52.0
1607020176.2456,-54.0
1607020176.2477,-54.0
1607020176.2497,-49.0
1607020176.2516,-45.0
1607020176.2536,-45.0
1607020176.2557,-40.0
1607020176.2577,-38.0
1607020176.2596,-38.0
1607020176.2617,-33.0
1607020176.2637,-28.0
1607020176.2657,-33.0
1607020176.2664,-40.0
1607020176.2677,-40.0
1607020176.2697,-38.0
1607020176.2716,-30.0
1607020176.2737,-23.0
1607020176.2757,-9.0
1607020176.2777,14.0
1607020176.2797,45.0
1607020176.2817,54.0
1607020176.2837,40.0
1607020176.2857,16.0
1607020176.2877,-4.0
1607020176.2896,-14.0
1607020176.2917,-11.0
1607020176.2937,-9.0
1607020176.2956,-4.0
1607020176.2963,-4.0
1607020176.2977,-11.0
1607020176.2997,-9.0
1607020176.7056,2.0
1607020176.7065,-2.0
1607020176.7089,-47.0
1607020176.7119,-114.0
1607020176.7136,-83.0
1607020176.7156,209.0
1607020176.7176,786.0
1607020176.7196,1363.0
1607020176.7216,1138.0
1607020176.7236,-125.0
1607020176.7256,-914.0
1607020176.7276,-403.0
1607020176.7295,83.0
1607020176.7302,-45.0
1607020176.7315,-76.0
1607020176.7335,42.0
1607020176.7355,28.0
1607020176.7376,7.0
1607020176.7395,52.0
1607020176.7415,64.0
1607020176.7435,61.0
1607020176.7455,85.0
1607020176.7476,104.0
1607020176.7495,111.0
1607020176.7515,125.0
1607020176.7535,140.0
1607020176.7555,156.0
1607020176.7576,180.0
1607020176.7595,194.0
1607020176.7601,204.0
1607020176.7615,225.0
1607020176.7635,244.0
1607020176.7655,259.0
1607020176.7675,292.0
1607020176.7695,320.0
1607020176.7715,323.0
1607020176.7735,325.0
1607020176.7755,337.0
1607020176.7776,335.0
1607020176.7795,316.0
1607020176.7815,280.0
1607020176.7835,220.0
1607020176.7855,140.0
1607020176.7875,57.0
1607020176.7895,-26.0
1607020176.7901,-90.0
1607020176.7915,-133.0
1607020176.7935,-154.0
1607020176.7955,-168.0
1607020176.7975,-173.0
1607020176.7995,-171.0
1607020176.8015,-161.0
1607020176.8035,-144.0
1607020176.8055,-125.0
1607020176.8077,-121.0
1607020176.8096,-118.0
1607020176.8115,-104.0
1607020176.8135,-92.0
1607020176.8154,-85.0
1607020176.8168,-78.0
1607020176.8185,-76.0
1607020176.8191,-76.0
1607020176.8205,-66.0
1607020176.8225,-59.0
1607020176.8245,-59.0
1607020176.8265,-59.0
1607020176.8285,-57.0
1607020176.8305,-54.0
1607020176.8325,-54.0
1607020176.8345,-47.0
1607020176.8365,-40.0
1607020176.8385,-42.0
1607020176.8405,-45.0
1607020177.276,-40.0
1607020177.2769,-35.0
1607020177.2783,-33.0
1607020177.2803,-35.0
1607020177.2823,-33.0
1607020177.2843,-30.0
1607020177.2863,-35.0
1607020177.2883,-40.0
1607020177.2903,-40.0
1607020177.2923,-38.0
1607020177.2943,-26.0
1607020177.2963,7.0
1607020177.2983,30.0
1607020177.3003,42.0
1607020177.3023,35.0
1607020177.3043,14.0
1607020177.3063,-2.0
1607020177.3069,-9.0
1607020177.3082,-16.0
1607020177.3102,-19.0
1607020177.3122,-14.0
1607020177.3142,-14.0
1607020177.3162,-16.0
1607020177.3183,-21.0
1607020177.3202,-19.0
1607020177.3223,-11.0
1607020177.3242,-33.0
1607020177.3262,-99.0
1607020177.3283,-142.0
1607020177.3302,19.0
1607020177.3322,506.0
1607020177.3342,1192.0
1607020177.3364,1440.0
1607020177.3369,499.0
1607020177.3383,-758.0
1607020177.3402,-736.0
1607020177.3422,-68.0
1607020177.3442,9.0
1607020177.3462,-109.0
1607020177.3482,-16.0
1607020177.3504,23.0
1607020177.3523,-11.0
1607020177.3543,16.0
1607020177.3563,49.0
1607020177.3583,45.0
1607020177.3603,54.0
1607020177.3623,76.0
1607020177.3642,85.0
1607020177.3662,97.0
1607020177.3668,111.0
1607020177.3682,133.0
1607020177.3702,159.0
1607020177.3722,175.0
1607020177.3742,187.0
1607020177.3762,204.0
1607020177.3783,225.0
