Time,ECG
1607020135.2181,154
1607020135.2207,1066
1607020135.2234,3500
1607020135.2260,6052
1607020135.2282,7371
1607020135.2303,8345
1607020135.2326,9490
1607020135.2349,10289
1607020135.2370,10864
1607020135.2391,11475
1607020135.2408,11955
1607020135.2427,12306
1607020135.2448,12653
1607020135.2468,12948
1607020135.2489,13159
1607020135.2513,13340
1607020135.2534,13478
1607020135.2556,13559
1607020135.2577,13613
1607020135.2597,13611
1607020135.2608,13580
1607020135.2627,13566
1607020135.2648,13535
1607020135.2668,13504
1607020135.2689,13506
1607020135.2707,13511
1607020135.2727,13495
1607020135.2747,13483
1607020135.2767,13483
1607020135.2788,13471
1607020135.2807,13437
1607020135.2827,13414
1607020135.2847,13402
1607020135.2867,13369
1607020135.2887,13309
1607020135.2907,13266
1607020135.2927,13233
1607020135.2947,13181
1607020135.2967,13117
1607020135.2987,13064
1607020135.3007,13012
1607020135.3027,12943
1607020135.3047,12872
1607020135.3067,12805
1607020135.3087,12753
1607020135.3107,12696
1607020135.3127,12601
1607020135.3147,12511
1607020135.3168,12454
1607020135.3187,12385
1607020135.3208,12309
1607020135.3227,12228
1607020135.3246,12135
1607020135.3266,12050
1607020135.3287,11974
1607020135.3306,11902
1607020135.3326,11829
1607020135.3347,11736
1607020135.3366,11641
1607020135.3387,11570
1607020135.3406,11494
1607020135.3426,11399
1607020135.3446,11311
1607020135.3466,11232
1607020135.3487,11142
1607020135.3506,11047
1607020135.3526,10961
1607020135.3546,10888
1607020135.3566,10819
1607020135.3587,10757
1607020135.3606,10690
1607020135.3626,10605
1607020135.3646,10505
1607020135.7871,10398
1607020135.7880,10296
1607020135.7904,10199
1607020135.7931,10104
1607020135.7951,10018
1607020135.7971,9935
1607020135.7992,9852
1607020135.8011,9766
1607020135.8031,9683
1607020135.8051,9612
1607020135.8071,9531
1607020135.8092,9381
1607020135.8111,9186
1607020135.8131,9105
1607020135.8151,9277
1607020135.8170,9768
1607020135.8191,10403
1607020135.8210,10282
1607020135.8230,8963
1607020135.8250,7965
1607020135.8270,8295
1607020135.8291,8663
1607020135.8310,8431
1607020135.8330,8305
1607020135.8350,8345
1607020135.8370,8255
1607020135.8391,8155
1607020135.8410,8112
1607020135.8432,8046
1607020135.8451,7970
1607020135.8470,7913
1607020135.8491,7848
1607020135.8510,7780
1607020135.8530,7718
1607020135.8550,7658
1607020135.8570,7594
1607020135.8591,7535
1607020135.8610,7492
1607020135.8630,7444
1607020135.8650,7383
1607020135.8670,7323
1607020135.8691,7278
1607020135.8710,7228
1607020135.8730,7162
1607020135.8750,7102
1607020135.8770,7048
1607020135.8790,6981
1607020135.8810,6898
1607020135.8830,6810
1607020135.8850,6713
1607020135.8870,6587
1607020135.8890,6437
1607020135.8911,6294
1607020135.8930,6156
1607020135.8950,6026
1607020135.8970,5924
1607020135.8990,5840
1607020135.9010,5762
1607020135.9030,5691
1607020135.9050,5634
1607020135.9070,5584
1607020135.9090,5534
1607020135.9110,5479
1607020135.9130,5422
1607020135.9150,5372
1607020135.9170,5320
1607020135.9190,5268
1607020135.9210,5220
1607020135.9230,5168
1607020135.9250,5109
1607020135.9270,5056
1607020135.9290,5006
1607020135.9311,4959
1607020136.3270,4907
1607020136.3277,4852
1607020136.3302,4797
1607020136.3328,4747
1607020136.3348,4697
1607020136.3368,4643
1607020136.3391,4600
1607020136.3409,4555
1607020136.3428,4493
1607020136.3448,4429
1607020136.3468,4389
1607020136.3488,4353
1607020136.3508,4293
1607020136.3528,4229
1607020136.3548,4189
1607020136.3568,4153
1607020136.3588,4106
1607020136.3608,4056
1607020136.3628,4018
1607020136.3648,3975
1607020136.3669,3925
1607020136.3688,3882
1607020136.3708,3847
1607020136.3727,3806
1607020136.3748,3761
1607020136.3768,3716
1607020136.3788,3676
1607020136.3808,3635
1607020136.3828,3588
1607020136.3848,3547
1607020136.3868,3516
1607020136.3888,3493
1607020136.3908,3476
1607020136.3928,3462
1607020136.3947,3424
1607020136.3967,3371
1607020136.3988,3322
1607020136.4008,3267
1607020136.4027,3217
1607020136.4048,3181
1607020136.4068,3143
1607020136.4089,3105
1607020136.4108,3074
1607020136.4128,3039
1607020136.4148,3001
1607020136.4168,2975
1607020136.4189,2944
1607020136.4208,2877
1607020136.4228,2768
1607020136.4248,2706
1607020136.4268,2851
1607020136.4288,3314
1607020136.4308,3987
1607020136.4328,4127
1607020136.4348,3074
1607020136.4368,1996
1607020136.4388,2198
1607020136.4409,2687
1607020136.4428,2545
1607020136.4448,2419
1607020136.4468,2523
1607020136.4488,2499
1607020136.4508,2426
1607020136.4528,2440
1607020136.4548,2435
1607020136.4568,2395
1607020136.4588,2383
1607020136.4608,2378
1607020136.4628,2354
1607020136.4648,2343
1607020136.4668,2335
1607020136.4688,2326
1607020136.4708,2321
1607020136.8663,2314
1607020136.8671,2305
1607020136.8689,2302
1607020136.8709,2302
1607020136.8729,2300
1607020136.8749,2297
1607020136.8769,2293
1607020136.8789,2286
1607020136.8809,2274
1607020136.8829,2252
1607020136.8849,2219
1607020136.8869,2186
1607020136.8889,2141
1607020136.8909,2067
1607020136.8928,1981
1607020136.8948,1889
1607020136.8968,1791
1607020136.8989,1708
1607020136.9008,1642
1607020136.9028,1594
1607020136.9048,1561
1607020136.9068,1539
1607020136.9089,1523
1607020136.9108,1508
1607020136.9128,1492
1607020136.9148,1480
1607020136.9168,1475
1607020136.9189,1468
1607020136.9208,1456
1607020136.9228,1447
1607020136.9248,1435
1607020136.9268,1425
1607020136.9289,1423
1607020136.9309,1413
1607020136.9328,1397
1607020136.9350,1385
1607020136.9369,1380
1607020136.9389,1366
1607020136.9408,1349
1607020136.9428,1335
1607020136.9448,1323
1607020136.9468,1314
1607020136.9489,1302
1607020136.9508,1287
1607020136.9528,1273
1607020136.9548,1259
1607020136.9568,1252
1607020136.9589,1247
1607020136.9608,1233
1607020136.9628,1216
1607020136.9648,1207
1607020136.9668,1192
1607020136.9689,1181
1607020136.9708,1169
1607020136.9728,1159
1607020136.9748,1154
1607020136.9768,1147
1607020136.9789,1133
1607020136.9808,1126
1607020136.9828,1114
1607020136.9848,1097
1607020136.9868,1083
1607020136.9889,1076
1607020136.9909,1064
1607020136.9928,1059
1607020136.9948,1059
1607020136.9968,1043
1607020136.9989,1021
1607020137.0010,1012
1607020137.0029,1002
1607020137.0048,986
1607020137.0068,986
1607020137.0089,1002
1607020137.4367,1014
1607020137.4376,1021
1607020137.4401,1021
1607020137.4427,1005
1607020137.4447,979
1607020137.4467,952
1607020137.4487,922
1607020137.4506,902
1607020137.4526,898
1607020137.4546,891
1607020137.4566,879
1607020137.4587,874
1607020137.4606,869
1607020137.4628,860
1607020137.4646,848
1607020137.4666,810
1607020137.4686,729
1607020137.4706,698
1607020137.4726,895
1607020137.4746,1413
1607020137.4766,2076
1607020137.4786,2160
1607020137.4806,1052
1607020137.4826,-59
1607020137.4846,197
1607020137.4866,803
1607020137.4886,746
1607020137.4906,641
1607020137.4926,758
1607020137.4946,762
1607020137.4966,717
1607020137.4986,755
1607020137.5006,779
1607020137.5026,760
1607020137.5046,765
1607020137.5066,779
1607020137.5087,784
1607020137.5106,796
1607020137.5126,810
1607020137.5146,817
1607020137.5166,829
1607020137.5186,836
1607020137.5206,845
1607020137.5226,869
1607020137.5246,886
1607020137.5266,895
1607020137.5286,907
1607020137.5306,919
1607020137.5326,931
1607020137.5346,941
1607020137.5366,941
1607020137.5386,924
1607020137.5406,905
1607020137.5426,876
1607020137.5446,826
1607020137.5466,758
1607020137.5487,670
1607020137.5506,572
1607020137.5526,496
1607020137.5546,449
1607020137.5566,408
1607020137.5586,382
1607020137.5606,380
1607020137.5626,380
1607020137.5648,373
1607020137.5667,373
1607020137.5687,387
1607020137.5706,401
1607020137.5726,403
1607020137.5746,403
1607020137.5766,406
1607020137.5786,411
1607020137.5806,413
1607020137.9763,413
1607020137.9770,415
1607020137.9795,418
1607020137.9821,413
1607020137.9841,411
1607020137.9861,408
1607020137.9881,403
1607020137.9900,392
1607020137.9920,382
1607020137.9940,382
1607020137.9960,382
1607020137.9980,375
1607020138.0001,373
1607020138.0020,377
1607020138.0041,375
1607020138.0061,370
1607020138.0080,373
1607020138.0101,373
1607020138.0120,368
1607020138.0140,363
1607020138.0160,361
1607020138.0181,363
1607020138.0201,368
1607020138.0220,363
1607020138.0241,361
1607020138.0260,363
1607020138.0282,365
1607020138.0300,356
1607020138.0320,349
1607020138.0340,344
1607020138.0360,342
1607020138.0381,346
1607020138.0400,373
1607020138.0420,406
1607020138.0440,418
1607020138.0460,408
1607020138.0480,394
1607020138.0501,377
1607020138.0521,351
1607020138.0540,330
1607020138.0561,325
1607020138.0580,325
1607020138.0603,327
1607020138.0621,327
1607020138.0640,323
1607020138.0660,325
1607020138.0680,330
1607020138.0701,325
1607020138.0720,268
1607020138.0740,185
1607020138.0760,211
1607020138.0780,518
1607020138.0800,1152
1607020138.0820,1786
1607020138.0841,1501
1607020138.0860,185
1607020138.0880,-506
1607020138.0901,21
1607020138.0920,382
1607020138.0940,228
1607020138.0960,228
1607020138.0980,327
1607020138.1001,297
1607020138.1020,289
1607020138.1041,335
1607020138.1060,337
1607020138.1080,330
1607020138.1101,354
1607020138.1120,370
1607020138.1140,375
1607020138.1160,387
1607020138.1181,403
1607020138.1200,420
1607020138.5767,434
1607020138.5776,451
1607020138.5801,463
1607020138.5827,480
1607020138.5847,499
1607020138.5867,515
1607020138.5886,532
1607020138.5906,558
1607020138.5927,570
1607020138.5946,567
1607020138.5966,567
1607020138.5987,563
1607020138.6006,537
1607020138.6026,496
1607020138.6046,441
1607020138.6066,363
1607020138.6087,275
1607020138.6106,201
1607020138.6126,147
1607020138.6146,109
1607020138.6168,85
1607020138.6187,73
1607020138.6206,73
1607020138.6226,78
1607020138.6246,85
1607020138.6267,92
1607020138.6286,102
1607020138.6306,111
1607020138.6326,121
1607020138.6346,123
1607020138.6366,128
1607020138.6386,137
1607020138.6407,140
1607020138.6426,142
1607020138.6446,149
1607020138.6466,154
1607020138.6487,156
1607020138.6506,161
1607020138.6526,166
1607020138.6546,166
1607020138.6566,163
1607020138.6587,166
1607020138.6606,168
1607020138.6626,168
1607020138.6646,168
1607020138.6666,168
1607020138.6687,168
1607020138.6706,166
1607020138.6726,166
1607020138.6746,171
1607020138.6766,173
1607020138.6786,166
1607020138.6806,166
1607020138.6826,173
1607020138.6846,173
1607020138.6866,171
1607020138.6886,171
1607020138.6906,168
1607020138.6926,163
1607020138.6946,163
1607020138.6966,163
1607020138.6986,166
1607020138.7006,185
1607020138.7026,218
1607020138.7046,242
1607020138.7066,240
1607020138.7087,225
1607020138.7106,206
1607020138.7126,180
1607020138.7146,163
1607020138.7166,166
1607020138.7188,168
1607020138.7206,163
1607020139.1162,166
1607020139.1170,163
1607020139.1195,163
1607020139.1220,168
1607020139.1240,166
1607020139.1260,123
1607020139.1280,42
1607020139.1300,54
1607020139.1319,323
1607020139.1340,910
1607020139.1360,1546
1607020139.1379,1368
1607020139.1400,147
1607020139.1420,-584
1607020139.1440,-111
1607020139.1459,256
1607020139.1480,85
1607020139.1499,68
1607020139.1520,187
1607020139.1539,159
1607020139.1559,135
1607020139.1579,185
1607020139.1600,199
1607020139.1619,194
1607020139.1640,216
1607020139.1659,235
1607020139.1679,240
1607020139.1700,254
1607020139.1719,273
1607020139.1739,285
1607020139.1759,301
1607020139.1780,325
1607020139.1800,346
1607020139.1819,361
1607020139.1839,382
1607020139.1859,408
1607020139.1879,427
1607020139.1899,444
1607020139.1919,458
1607020139.1939,468
1607020139.1959,465
1607020139.1979,453
1607020139.2000,434
1607020139.2020,403
1607020139.2039,346
1607020139.2059,270
1607020139.2079,192
1607020139.2100,121
1607020139.2120,61
1607020139.2141,21
1607020139.2160,0
1607020139.2179,-9
1607020139.2200,-16
1607020139.2219,-14
1607020139.2239,-2
1607020139.2259,7
1607020139.2280,16
1607020139.2300,26
1607020139.2319,35
1607020139.2339,38
1607020139.2359,38
1607020139.2379,42
1607020139.2400,52
1607020139.2419,59
1607020139.2439,64
1607020139.2459,68
1607020139.2479,73
1607020139.2500,76
1607020139.2519,80
1607020139.2539,85
1607020139.2559,87
1607020139.2579,87
1607020139.2600,90
1607020139.6866,90
1607020139.6876,90
1607020139.6901,95
1607020139.6927,97
1607020139.6947,95
1607020139.6967,97
1607020139.6988,97
1607020139.7006,87
1607020139.7026,83
1607020139.7046,90
1607020139.7066,90
1607020139.7087,85
1607020139.7107,83
1607020139.7126,90
1607020139.7147,99
1607020139.7166,121
1607020139.7187,159
1607020139.7206,178
1607020139.7226,166
1607020139.7246,147
1607020139.7266,133
1607020139.7286,121
1607020139.7306,111
1607020139.7326,109
1607020139.7346,106
1607020139.7366,109
1607020139.7385,114
1607020139.7408,114
1607020139.7426,114
1607020139.7446,116
1607020139.7453,102
1607020139.7476,42
1607020139.7496,-19
1607020139.7516,59
1607020139.7536,422
1607020139.7556,1066
1607020139.7576,1530
1607020139.7596,943
1607020139.7616,-308
1607020139.7636,-579
1607020139.7656,38
1607020139.7676,199
1607020139.7696,14
1607020139.7716,71
1607020139.7736,152
1607020139.7756,106
1607020139.7763,114
1607020139.7787,161
1607020139.7806,163
1607020139.7826,161
1607020139.7846,187
1607020139.7866,201
1607020139.7886,204
1607020139.7906,213
1607020139.7926,235
1607020139.7946,251
1607020139.7966,266
1607020139.7986,289
1607020139.8006,316
1607020139.8026,335
1607020139.8046,351
1607020139.8066,370
1607020139.8073,387
1607020139.8096,403
1607020139.8116,425
1607020139.8136,437
1607020139.8156,434
1607020139.8176,418
1607020139.8196,392
1607020139.8216,349
1607020139.8236,289
1607020139.8256,209
1607020139.8276,123
1607020140.2563,52
1607020140.2573,9
1607020140.2597,-19
1607020140.2610,-38
1607020140.2623,-45
1607020140.2646,-42
1607020140.2664,-40
1607020140.2684,-33
1607020140.2702,-28
1607020140.2722,-26
1607020140.2742,-11
1607020140.2762,2
1607020140.2783,4
1607020140.2803,14
1607020140.2823,28
1607020140.2843,28
1607020140.2862,28
1607020140.2882,40
1607020140.2902,47
1607020140.2909,47
1607020140.2933,52
1607020140.2952,61
1607020140.2972,61
1607020140.2993,57
1607020140.3013,61
1607020140.3032,68
1607020140.3053,71
1607020140.3072,71
1607020140.3093,73
1607020140.3112,71
1607020140.3132,68
1607020140.3152,73
1607020140.3172,78
1607020140.3193,78
1607020140.3213,73
1607020140.3219,68
1607020140.3242,71
1607020140.3262,76
1607020140.3284,102
1607020140.3303,140
1607020140.3322,156
1607020140.3342,154
1607020140.3362,147
1607020140.3382,125
1607020140.3402,95
1607020140.3423,78
1607020140.3442,85
1607020140.3462,95
1607020140.3482,92
1607020140.3503,90
1607020140.3522,95
1607020140.3529,102
1607020140.3552,106
1607020140.3572,97
1607020140.3593,47
1607020140.3612,-16
1607020140.3635,66
1607020140.3653,451
1607020140.3672,1093
1607020140.3693,1535
1607020140.3712,964
1607020140.3732,-377
1607020140.3752,-812
1607020140.3772,-156
1607020140.3793,173
1607020140.3812,42
1607020140.3835,68
1607020140.3852,149
1607020140.3872,123
1607020140.3892,121
1607020140.3912,156
1607020140.3933,161
1607020140.3952,168
1607020140.7964,185
1607020140.7973,197
1607020140.7998,211
1607020140.8024,235
1607020140.8043,249
1607020140.8064,251
1607020140.8084,263
1607020140.8103,289
1607020140.8123,308
1607020140.8130,318
1607020140.8153,335
1607020140.8173,370
1607020140.8193,392
1607020140.8213,396
1607020140.8232,403
1607020140.8252,420
1607020140.8273,418
1607020140.8293,394
1607020140.8313,365
1607020140.8333,330
1607020140.8353,266
1607020140.8373,180
1607020140.8393,95
1607020140.8413,19
1607020140.8433,-30
1607020140.8440,-57
1607020140.8463,-71
1607020140.8483,-78
1607020140.8503,-78
1607020140.8523,-73
1607020140.8543,-59
1607020140.8562,-42
1607020140.8583,-30
1607020140.8603,-26
1607020140.8625,-16
1607020140.8644,-2
1607020140.8662,4
1607020140.8683,0
1607020140.8703,0
1607020140.8723,9
1607020140.8743,16
1607020140.8750,16
1607020140.8773,23
1607020140.8793,33
1607020140.8813,35
1607020140.8834,30
1607020140.8853,30
1607020140.8873,35
1607020140.8893,35
1607020140.8913,38
1607020140.8933,47
1607020140.8953,49
1607020140.8973,45
1607020140.8993,42
1607020140.9013,45
1607020140.9033,42
1607020140.9052,42
1607020140.9060,45
1607020140.9073,47
1607020140.9093,61
1607020140.9113,92
1607020140.9133,118
1607020140.9153,133
1607020140.9173,125
1607020140.9193,99
1607020140.9213,73
1607020140.9233,68
1607020140.9253,73
1607020140.9273,73
1607020140.9293,76
1607020140.9313,78
1607020140.9333,76
1607020140.9353,78
1607020141.3362,87
1607020141.3372,78
1607020141.3396,30
1607020141.3423,-40
1607020141.3444,-19
1607020141.3462,275
1607020141.3483,893
1607020141.3502,1504
1607020141.3522,1235
1607020141.3542,-54
1607020141.3562,-774
1607020141.3581,-259
1607020141.3603,149
1607020141.3622,9
1607020141.3642,-4
1607020141.3662,99
1607020141.3682,76
1607020141.3701,59
1607020141.3722,104
1607020141.3741,114
1607020141.3761,114
1607020141.3781,140
1607020141.3801,152
1607020141.3821,159
1607020141.3841,180
1607020141.3861,197
1607020141.3881,211
1607020141.3901,232
1607020141.3921,251
1607020141.3941,263
1607020141.3961,280
1607020141.3981,304
1607020141.4001,327
1607020141.4021,344
1607020141.4042,356
1607020141.4061,368
1607020141.4081,375
1607020141.4101,370
1607020141.4121,354
1607020141.4141,327
1607020141.4161,287
1607020141.4182,223
1607020141.4201,147
1607020141.4221,66
1607020141.4241,-2
1607020141.4261,-47
1607020141.4282,-76
1607020141.4301,-92
1607020141.4321,-104
1607020141.4341,-104
1607020141.4361,-92
1607020141.4381,-80
1607020141.4401,-68
1607020141.4421,-61
1607020141.4441,-52
1607020141.4461,-40
1607020141.4481,-33
1607020141.4501,-28
1607020141.4521,-21
1607020141.4541,-7
1607020141.4561,-2
1607020141.4581,-2
1607020141.4601,4
1607020141.4622,14
1607020141.4642,14
1607020141.4661,9
1607020141.4681,14
1607020141.4701,21
1607020141.4721,23
1607020141.4741,21
1607020141.4761,23
1607020141.4781,28
1607020141.4801,33
1607020141.9364,35
1607020141.9372,38
1607020141.9397,38
1607020141.9424,33
1607020141.9443,28
1607020141.9463,26
1607020141.9485,26
1607020141.9504,23
1607020141.9523,23
1607020141.9543,33
1607020141.9564,61
1607020141.9584,97
1607020141.9603,114
1607020141.9623,114
1607020141.9642,102
1607020141.9663,80
1607020141.9683,57
1607020141.9702,57
1607020141.9723,64
1607020141.9742,61
1607020141.9762,61
1607020141.9783,64
1607020141.9802,59
1607020141.9822,61
1607020141.9842,68
1607020141.9862,52
1607020141.9882,-19
1607020141.9902,-80
1607020141.9922,33
1607020141.9942,463
1607020141.9962,1173
1607020141.9982,1582
1607020142.0002,807
1607020142.0022,-465
1607020142.0042,-563
1607020142.0062,59
1607020142.0083,109
1607020142.0103,-57
1607020142.0122,42
1607020142.0142,92
1607020142.0162,40
1607020142.0184,71
1607020142.0203,111
1607020142.0222,102
1607020142.0242,106
1607020142.0262,130
1607020142.0282,140
1607020142.0302,152
1607020142.0323,173
1607020142.0342,190
1607020142.0362,201
1607020142.0382,218
1607020142.0402,240
1607020142.0422,261
1607020142.0442,282
1607020142.0462,304
1607020142.0482,325
1607020142.0502,344
1607020142.0522,356
1607020142.0542,368
1607020142.0562,375
1607020142.0582,368
1607020142.0602,349
1607020142.0622,316
1607020142.0642,266
1607020142.0662,197
1607020142.0682,116
1607020142.0702,38
1607020142.0722,-23
1607020142.0742,-61
1607020142.0762,-90
1607020142.0782,-106
1607020142.0802,-106
1607020142.5062,-102
1607020142.5071,-97
1607020142.5096,-87
1607020142.5122,-76
1607020142.5142,-66
1607020142.5162,-57
1607020142.5183,-45
1607020142.5202,-40
1607020142.5222,-40
1607020142.5242,-40
1607020142.5262,-35
1607020142.5282,-23
1607020142.5301,-16
1607020142.5321,-14
1607020142.5341,-11
1607020142.5361,-11
1607020142.5381,-9
1607020142.5401,-7
1607020142.5422,0
1607020142.5444,2
1607020142.5462,4
1607020142.5483,4
1607020142.5501,7
1607020142.5521,14
1607020142.5541,19
1607020142.5561,19
1607020142.5581,19
1607020142.5601,26
1607020142.5621,28
1607020142.5641,30
1607020142.5661,30
1607020142.5682,28
1607020142.5701,26
1607020142.5721,28
1607020142.5741,28
1607020142.5761,30
1607020142.5781,35
1607020142.5801,40
1607020142.5821,61
1607020142.5841,97
1607020142.5861,118
1607020142.5881,114
1607020142.5901,102
1607020142.5921,87
1607020142.5941,68
1607020142.5961,57
1607020142.5981,54
1607020142.6001,57
1607020142.6021,59
1607020142.6041,59
1607020142.6061,59
1607020142.6081,61
1607020142.6101,66
1607020142.6121,59
1607020142.6141,7
1607020142.6161,-68
1607020142.6182,-30
1607020142.6201,282
1607020142.6221,917
1607020142.6241,1492
1607020142.6261,1093
1607020142.6281,-173
1607020142.6301,-648
1607020142.6321,-85
1607020142.6341,152
1607020142.6361,-33
1607020142.6381,2
1607020142.6402,97
1607020142.6421,54
1607020142.6441,57
1607020142.6462,106
1607020142.6482,106
1607020142.6501,106
1607020143.0461,128
1607020143.0469,137
1607020143.0494,147
1607020143.0519,168
1607020143.0539,187
1607020143.0559,201
1607020143.0580,213
1607020143.0599,225
1607020143.0619,242
1607020143.0639,263
1607020143.0659,278
1607020143.0679,297
1607020143.0699,318
1607020143.0719,332
1607020143.0739,342
1607020143.0759,351
1607020143.0779,354
1607020143.0799,342
1607020143.0819,318
1607020143.0839,278
1607020143.0859,218
1607020143.0879,144
1607020143.0899,66
1607020143.0919,0
1607020143.0939,-47
1607020143.0959,-76
1607020143.0979,-95
1607020143.0999,-104
1607020143.1019,-102
1607020143.1039,-95
1607020143.1059,-90
1607020143.1079,-76
1607020143.1099,-59
1607020143.1119,-54
1607020143.1139,-49
1607020143.1159,-35
1607020143.1179,-26
1607020143.1199,-28
1607020143.1219,-21
1607020143.1239,-4
1607020143.1259,0
1607020143.1279,-2
1607020143.1299,0
1607020143.1319,4
1607020143.1339,14
1607020143.1359,16
1607020143.1379,11
1607020143.1399,16
1607020143.1421,21
1607020143.1439,23
1607020143.1459,23
1607020143.1479,23
1607020143.1499,26
1607020143.1519,33
1607020143.1539,33
1607020143.1559,33
1607020143.1579,33
1607020143.1599,30
1607020143.1619,40
1607020143.1639,49
1607020143.1659,42
1607020143.1679,38
1607020143.1699,45
1607020143.1719,52
1607020143.1739,54
1607020143.1759,54
1607020143.1779,52
1607020143.1799,52
1607020143.1819,59
1607020143.1839,64
1607020143.1859,64
1607020143.1879,66
1607020143.1899,64
1607020143.6162,59
1607020143.6173,61
1607020143.6198,61
1607020143.6225,57
1607020143.6244,54
1607020143.6263,57
1607020143.6285,54
1607020143.6303,59
1607020143.6323,85
1607020143.6343,116
1607020143.6364,125
1607020143.6384,116
1607020143.6403,97
1607020143.6423,78
1607020143.6444,66
1607020143.6463,61
1607020143.6484,59
1607020143.6503,64
1607020143.6523,71
1607020143.6543,66
1607020143.6563,66
1607020143.6584,78
1607020143.6602,80
1607020143.6622,52
1607020143.6642,-14
1607020143.6662,-45
1607020143.6685,125
1607020143.6703,598
1607020143.6722,1259
1607020143.6742,1463
1607020143.6762,487
1607020143.6783,-712
1607020143.6802,-594
1607020143.6822,64
1607020143.6842,92
1607020143.6862,-21
1607020143.6883,83
1607020143.6902,109
1607020143.6922,64
1607020143.6943,99
1607020143.6962,130
1607020143.6983,128
1607020143.7002,144
1607020143.7023,166
1607020143.7042,168
1607020143.7062,175
1607020143.7083,192
1607020143.7102,206
1607020143.7122,223
1607020143.7143,244
1607020143.7162,259
1607020143.7183,270
1607020143.7202,294
1607020143.7222,313
1607020143.7242,327
1607020143.7262,346
1607020143.7283,368
1607020143.7303,375
1607020143.7322,375
1607020143.7343,375
1607020143.7362,363
1607020143.7383,335
1607020143.7402,294
1607020143.7422,232
1607020143.7442,149
1607020143.7462,64
1607020143.7483,-7
1607020143.7503,-57
1607020143.7522,-92
1607020143.7542,-109
1607020143.7563,-109
1607020143.7583,-109
1607020143.7602,-109
1607020144.1562,-95
1607020144.1571,-78
1607020144.1596,-68
1607020144.1621,-64
1607020144.1644,-57
1607020144.1662,-49
1607020144.1682,-40
1607020144.1701,-35
1607020144.1721,-38
1607020144.1741,-40
1607020144.1761,-30
1607020144.1781,-23
1607020144.1801,-23
1607020144.1821,-14
1607020144.1841,-7
1607020144.1861,-9
1607020144.1881,-14
1607020144.1901,-11
1607020144.1921,-4
1607020144.1941,-2
1607020144.1961,0
1607020144.1981,2
1607020144.2001,7
1607020144.2021,7
1607020144.2041,7
1607020144.2061,14
1607020144.2081,21
1607020144.2101,16
1607020144.2121,16
1607020144.2141,23
1607020144.2161,30
1607020144.2181,28
1607020144.2201,28
1607020144.2221,33
1607020144.2241,35
1607020144.2261,33
1607020144.2281,30
1607020144.2301,35
1607020144.2321,45
1607020144.2341,40
1607020144.2361,40
1607020144.2381,45
1607020144.2401,42
1607020144.2421,42
1607020144.2441,54
1607020144.2461,57
1607020144.2481,45
1607020144.2501,40
1607020144.2521,45
1607020144.2541,40
1607020144.2561,35
1607020144.2581,47
1607020144.2601,73
1607020144.2621,99
1607020144.2641,114
1607020144.2662,114
1607020144.2681,104
1607020144.2701,85
1607020144.2721,64
1607020144.2741,49
1607020144.2761,49
1607020144.2781,54
1607020144.2801,52
1607020144.2821,52
1607020144.2841,54
1607020144.2861,57
1607020144.2881,64
1607020144.2901,49
1607020144.2921,-11
1607020144.2941,-78
1607020144.2961,-7
1607020144.2981,356
1607020144.3001,1021
1607020144.6960,1537
1607020144.6967,976
1607020144.6992,-354
1607020144.7018,-710
1607020144.7038,-83
1607020144.7058,114
1607020144.7078,-66
1607020144.7098,-9
1607020144.7117,76
1607020144.7137,33
1607020144.7158,35
1607020144.7178,83
1607020144.7198,87
1607020144.7218,92
1607020144.7237,116
1607020144.7258,128
1607020144.7277,135
1607020144.7298,152
1607020144.7317,173
1607020144.7337,192
1607020144.7357,211
1607020144.7377,225
1607020144.7397,242
1607020144.7417,266
1607020144.7437,292
1607020144.7457,311
1607020144.7477,327
1607020144.7498,342
1607020144.7517,351
1607020144.7537,358
1607020144.7557,358
1607020144.7578,346
1607020144.7598,325
1607020144.7620,287
1607020144.7638,225
1607020144.7657,152
1607020144.7677,73
1607020144.7697,0
1607020144.7717,-49
1607020144.7738,-83
1607020144.7757,-106
1607020144.7777,-116
1607020144.7798,-114
1607020144.7817,-109
1607020144.7837,-99
1607020144.7857,-90
1607020144.7877,-80
1607020144.7897,-71
1607020144.7917,-64
1607020144.7937,-57
1607020144.7958,-49
1607020144.7977,-47
1607020144.7998,-42
1607020144.8017,-35
1607020144.8037,-30
1607020144.8058,-26
1607020144.8077,-19
1607020144.8098,-16
1607020144.8117,-16
1607020144.8137,-16
1607020144.8157,-16
1607020144.8177,-16
1607020144.8197,-11
1607020144.8217,-7
1607020144.8237,-2
1607020144.8257,-2
1607020144.8277,-2
1607020144.8297,0
1607020144.8317,7
1607020144.8337,9
1607020144.8357,7
1607020144.8377,7
1607020144.8398,9
1607020145.3263,11
1607020145.3275,14
1607020145.3300,11
1607020145.3326,4
1607020145.3346,7
1607020145.3366,16
1607020145.3388,16
1607020145.3406,14
1607020145.3426,19
1607020145.3446,21
1607020145.3466,23
1607020145.3489,26
1607020145.3506,30
1607020145.3525,33
1607020145.3545,30
1607020145.3565,30
1607020145.3585,35
1607020145.3605,35
1607020145.3625,33
1607020145.3644,33
1607020145.3665,33
1607020145.3684,30
1607020145.3704,28
1607020145.3725,26
1607020145.3745,23
1607020145.3765,23
1607020145.3785,30
1607020145.3804,42
1607020145.3825,71
1607020145.3845,99
1607020145.3865,104
1607020145.3885,92
1607020145.3905,80
1607020145.3925,64
1607020145.3946,47
1607020145.4021,42
1607020145.4034,45
1607020145.4054,45
1607020145.4074,47
1607020145.4095,47
1607020145.4115,52
1607020145.4135,57
1607020145.4154,52
1607020145.4175,14
1607020145.4194,-66
1607020145.4214,-78
1607020145.4234,135
1607020145.4255,672
1607020145.4275,1363
1607020145.4295,1378
1607020145.4315,242
1607020145.4334,-655
1607020145.4354,-287
1607020145.4374,149
1607020145.4395,-11
1607020145.4414,-64
1607020145.4434,66
1607020145.4455,49
1607020145.4475,21
1607020145.4495,73
1607020145.4514,90
1607020145.4534,83
1607020145.4556,104
1607020145.4575,123
1607020145.4595,130
1607020145.4615,144
1607020145.4634,163
1607020145.4654,175
1607020145.4675,192
1607020145.4695,213
1607020145.4714,232
1607020145.4734,251
1607020145.4754,275
1607020145.8662,297
1607020145.8671,313
1607020145.8689,332
1607020145.8709,349
1607020145.8729,358
1607020145.8749,361
1607020145.8769,356
1607020145.8789,342
1607020145.8809,313
1607020145.8828,263
1607020145.8848,192
1607020145.8868,111
1607020145.8888,28
1607020145.8908,-38
1607020145.8928,-78
1607020145.8948,-106
1607020145.8968,-123
1607020145.8988,-128
1607020145.9008,-123
1607020145.9028,-116
1607020145.9048,-109
1607020145.9068,-99
1607020145.9088,-90
1607020145.9108,-80
1607020145.9128,-73
1607020145.9148,-66
1607020145.9168,-57
1607020145.9188,-52
1607020145.9207,-47
1607020145.9228,-38
1607020145.9248,-30
1607020145.9268,-33
1607020145.9289,-28
1607020145.9308,-19
1607020145.9327,-14
1607020145.9348,-14
1607020145.9368,-14
1607020145.9388,-16
1607020145.9408,-21
1607020145.9427,-16
1607020145.9449,-14
1607020145.9468,-16
1607020145.9488,-19
1607020145.9508,-16
1607020145.9528,-19
1607020145.9547,-19
1607020145.9568,-11
1607020145.9589,-7
1607020145.9608,-7
1607020145.9628,-7
1607020145.9648,-4
1607020145.9668,-2
1607020145.9688,2
1607020145.9708,7
1607020145.9715,7
1607020145.9738,9
1607020145.9757,11
1607020145.9778,14
1607020145.9798,14
1607020145.9819,16
1607020145.9838,21
1607020145.9858,23
1607020145.9878,23
1607020145.9898,26
1607020145.9918,33
1607020145.9938,33
1607020145.9958,33
1607020145.9978,33
1607020145.9999,33
1607020146.0018,35
1607020146.0025,38
1607020146.0047,35
1607020146.0068,33
1607020146.4061,28
1607020146.4071,26
1607020146.4096,26
1607020146.4122,33
1607020146.4142,49
1607020146.4162,76
1607020146.4183,99
1607020146.4201,106
1607020146.4220,90
1607020146.4241,61
1607020146.4262,40
1607020146.4281,33
1607020146.4288,33
1607020146.4310,35
1607020146.4330,35
1607020146.4351,38
1607020146.4370,40
1607020146.4390,42
1607020146.4412,47
1607020146.4431,42
1607020146.4450,4
1607020146.4471,-64
1607020146.4490,-57
1607020146.4510,197
1607020146.4530,750
1607020146.4550,1368
1607020146.4570,1221
1607020146.4577,54
1607020146.4600,-674
1607020146.4620,-225
1607020146.4640,144
1607020146.4661,-26
1607020146.4681,-52
1607020146.4700,66
1607020146.4720,47
1607020146.4740,28
1607020146.4760,73
1607020146.4781,83
1607020146.4800,83
1607020146.4820,109
1607020146.4840,125
1607020146.4860,128
1607020146.4880,144
1607020146.4887,163
1607020146.4912,178
1607020146.4931,194
1607020146.4950,211
1607020146.4970,230
1607020146.4991,251
1607020146.5010,270
1607020146.5030,289
1607020146.5050,313
1607020146.5070,325
1607020146.5091,335
1607020146.5110,356
1607020146.5130,365
1607020146.5150,351
1607020146.5170,330
1607020146.5191,308
1607020146.5197,268
1607020146.5220,199
1607020146.5240,116
1607020146.5261,33
1607020146.5280,-33
1607020146.5300,-71
1607020146.5320,-97
1607020146.5340,-114
1607020146.5360,-125
1607020146.5381,-125
1607020146.5402,-114
1607020146.5421,-102
1607020146.5440,-95
1607020146.5460,-90
1607020147.0061,-83
1607020147.0070,-73
1607020147.0095,-61
1607020147.0121,-54
1607020147.0141,-49
1607020147.0161,-47
1607020147.0182,-47
1607020147.0200,-47
1607020147.0220,-38
1607020147.0240,-26
1607020147.0260,-33
1607020147.0280,-40
1607020147.0300,-30
1607020147.0319,-21
1607020147.0340,-23
1607020147.0359,-21
1607020147.0367,-11
1607020147.0390,-11
1607020147.0410,-16
1607020147.0430,-9
1607020147.0449,-2
1607020147.0470,-2
1607020147.0490,-4
1607020147.0510,-9
1607020147.0530,-11
1607020147.0550,-4
1607020147.0570,0
1607020147.0589,0
1607020147.0610,7
1607020147.0630,9
1607020147.0650,7
1607020147.0670,16
1607020147.0677,26
1607020147.0700,19
1607020147.0720,16
1607020147.0739,21
1607020147.0761,21
1607020147.0781,26
1607020147.0800,33
1607020147.0820,33
1607020147.0839,28
1607020147.0860,28
1607020147.0880,33
1607020147.0900,38
1607020147.0920,38
1607020147.0939,38
1607020147.0959,38
1607020147.0981,33
1607020147.0987,33
1607020147.1000,35
1607020147.1019,42
1607020147.1040,71
1607020147.1060,104
1607020147.1080,116
1607020147.1100,102
1607020147.1120,78
1607020147.1140,54
1607020147.1160,38
1607020147.1180,38
1607020147.1200,45
1607020147.1220,40
1607020147.1239,35
1607020147.1260,45
1607020147.1281,57
1607020147.1286,49
1607020147.1300,38
1607020147.1319,16
1607020147.1340,-35
1607020147.1361,-40
1607020147.1380,190
1607020147.1400,717
1607020147.1420,1297
1607020147.1440,1242
1607020147.5460,121
1607020147.5470,-862
1607020147.5494,-537
1607020147.5521,68
1607020147.5540,54
1607020147.5561,-16
1607020147.5568,87
1607020147.5590,87
1607020147.5609,49
1607020147.5629,90
1607020147.5649,114
1607020147.5670,97
1607020147.5689,106
1607020147.5709,130
1607020147.5729,140
1607020147.5749,142
1607020147.5769,154
1607020147.5790,173
1607020147.5809,190
1607020147.5830,201
1607020147.5850,220
1607020147.5869,244
1607020147.5876,268
1607020147.5899,287
1607020147.5919,304
1607020147.5942,318
1607020147.5961,339
1607020147.5980,356
1607020147.5999,354
1607020147.6020,344
1607020147.6039,332
1607020147.6059,306
1607020147.6079,261
1607020147.6099,197
1607020147.6119,111
1607020147.6139,23
1607020147.6159,-42
1607020147.6179,-87
1607020147.6187,-121
1607020147.6210,-144
1607020147.6229,-149
1607020147.6249,-147
1607020147.6269,-149
1607020147.6290,-140
1607020147.6309,-118
1607020147.6329,-109
1607020147.6349,-111
1607020147.6369,-104
1607020147.6389,-90
1607020147.6409,-76
1607020147.6429,-68
1607020147.6449,-68
1607020147.6469,-68
1607020147.6489,-59
1607020147.6509,-52
1607020147.6529,-52
1607020147.6549,-49
1607020147.6569,-49
1607020147.6589,-47
1607020147.6609,-40
1607020147.6629,-33
1607020147.6649,-30
1607020147.6670,-33
1607020147.6689,-30
1607020147.6709,-21
1607020147.6729,-21
1607020147.6749,-23
1607020147.6769,-19
1607020147.6789,-14
1607020147.6809,-16
1607020147.6830,-14
1607020147.6850,-7
1607020147.6869,-2
1607020148.0863,-4
1607020148.0870,-4
1607020148.0894,2
1607020148.0922,7
1607020148.0941,4
1607020148.0960,2
1607020148.0982,4
1607020148.1001,4
1607020148.1020,-7
1607020148.1040,-16
1607020148.1060,-16
1607020148.1080,-11
1607020148.1100,-2
1607020148.1120,21
1607020148.1140,57
1607020148.1160,76
1607020148.1180,66
1607020148.1200,52
1607020148.1220,35
1607020148.1240,21
1607020148.1260,11
1607020148.1280,14
1607020148.1300,16
1607020148.1320,19
1607020148.1340,16
1607020148.1360,16
1607020148.1380,23
1607020148.1400,28
1607020148.1420,11
1607020148.1440,-38
1607020148.1460,-90
1607020148.1480,-11
1607020148.1500,349
1607020148.1520,983
1607020148.1540,1437
1607020148.1560,855
1607020148.1580,-420
1607020148.1600,-729
1607020148.1620,-106
1607020148.1640,99
1607020148.1660,-61
1607020148.1680,-9
1607020148.1700,66
1607020148.1720,28
1607020148.1740,40
1607020148.1760,83
1607020148.1780,78
1607020148.1800,80
1607020148.1820,104
1607020148.1840,118
1607020148.1860,128
1607020148.1880,142
1607020148.1900,156
1607020148.1920,171
1607020148.1942,190
1607020148.1961,209
1607020148.1980,228
1607020148.2000,249
1607020148.2020,273
1607020148.2040,294
1607020148.2060,318
1607020148.2080,337
1607020148.2100,349
1607020148.2120,351
1607020148.2140,344
1607020148.2160,332
1607020148.2180,311
1607020148.2200,266
1607020148.2220,204
1607020148.2240,125
1607020148.2260,38
1607020148.2280,-35
1607020148.2300,-87
1607020148.6864,-123
1607020148.6874,-149
1607020148.6898,-156
1607020148.6924,-159
1607020148.6944,-152
1607020148.6964,-144
1607020148.6985,-142
1607020148.7004,-133
1607020148.7024,-118
1607020148.7044,-111
1607020148.7064,-106
1607020148.7085,-97
1607020148.7104,-90
1607020148.7124,-87
1607020148.7144,-85
1607020148.7164,-76
1607020148.7184,-68
1607020148.7204,-66
1607020148.7224,-61
1607020148.7244,-57
1607020148.7264,-54
1607020148.7284,-52
1607020148.7304,-49
1607020148.7324,-45
1607020148.7344,-42
1607020148.7364,-42
1607020148.7384,-42
1607020148.7404,-38
1607020148.7424,-33
1607020148.7444,-35
1607020148.7464,-35
1607020148.7484,-26
1607020148.7506,-23
1607020148.7524,-26
1607020148.7544,-21
1607020148.7564,-16
1607020148.7584,-14
1607020148.7604,-16
1607020148.7623,-16
1607020148.7643,-16
1607020148.7664,-14
1607020148.7683,-7
1607020148.7703,2
1607020148.7723,26
1607020148.7743,61
1607020148.7763,78
1607020148.7784,71
1607020148.7803,57
1607020148.7823,40
1607020148.7843,23
1607020148.7863,11
1607020148.7884,11
1607020148.7903,16
1607020148.7923,19
1607020148.7943,21
1607020148.7963,21
1607020148.7984,23
1607020148.8003,23
1607020148.8023,11
1607020148.8043,-35
1607020148.8063,-99
1607020148.8084,-35
1607020148.8103,308
1607020148.8123,933
1607020148.8143,1418
1607020148.8164,898
1607020148.8183,-349
1607020148.8203,-691
1607020148.8223,-92
1607020148.8244,104
1607020148.8263,-73
1607020148.8284,-21
1607020148.8304,61
1607020149.2264,19
1607020149.2272,26
1607020149.2290,71
1607020149.2309,71
1607020149.2329,76
1607020149.2349,99
1607020149.2369,111
1607020149.2389,116
1607020149.2409,130
1607020149.2429,149
1607020149.2451,166
1607020149.2469,175
1607020149.2489,187
1607020149.2509,211
1607020149.2529,232
1607020149.2549,251
1607020149.2568,278
1607020149.2589,299
1607020149.2609,316
1607020149.2629,330
1607020149.2649,337
1607020149.2669,335
1607020149.2688,325
1607020149.2709,299
1607020149.2728,259
1607020149.2749,199
1607020149.2769,123
1607020149.2788,40
1607020149.2809,-30
1607020149.2828,-83
1607020149.2849,-114
1607020149.2869,-135
1607020149.2889,-142
1607020149.2908,-142
1607020149.2928,-137
1607020149.2948,-128
1607020149.2968,-114
1607020149.2988,-106
1607020149.3009,-102
1607020149.3028,-97
1607020149.3048,-83
1607020149.3068,-71
1607020149.3088,-68
1607020149.3108,-64
1607020149.3129,-57
1607020149.3148,-49
1607020149.3168,-47
1607020149.3189,-42
1607020149.3209,-38
1607020149.3229,-35
1607020149.3249,-35
1607020149.3269,-35
1607020149.3289,-33
1607020149.3309,-30
1607020149.3329,-28
1607020149.3349,-23
1607020149.3369,-19
1607020149.3389,-21
1607020149.3409,-21
1607020149.3429,-21
1607020149.3449,-23
1607020149.3471,-23
1607020149.3495,-23
1607020149.3508,-21
1607020149.3529,-19
1607020149.3548,-21
1607020149.3569,-23
1607020149.3588,-21
1607020149.3608,-14
1607020149.3628,-4
1607020149.3648,19
1607020149.3669,57
1607020149.3688,76
1607020149.7965,61
1607020149.7978,38
1607020149.8004,26
1607020149.8028,14
1607020149.8048,2
1607020149.8068,2
1607020149.8088,7
1607020149.8108,7
1607020149.8128,0
1607020149.8148,-2
1607020149.8168,2
1607020149.8188,4
1607020149.8207,-14
1607020149.8227,-73
1607020149.8247,-128
1607020149.8267,-16
1607020149.8288,396
1607020149.8307,1045
1607020149.8327,1402
1607020149.8347,667
1607020149.8367,-537
1607020149.8388,-634
1607020149.8407,-9
1607020149.8427,78
1607020149.8447,-85
1607020149.8467,-2
1607020149.8487,59
1607020149.8507,11
1607020149.8527,30
1607020149.8547,71
1607020149.8567,66
1607020149.8587,73
1607020149.8607,95
1607020149.8627,109
1607020149.8647,121
1607020149.8667,137
1607020149.8687,152
1607020149.8707,168
1607020149.8727,182
1607020149.8748,201
1607020149.8767,220
1607020149.8787,242
1607020149.8807,263
1607020149.8827,280
1607020149.8847,299
1607020149.8867,318
1607020149.8888,330
1607020149.8907,335
1607020149.8927,332
1607020149.8947,316
1607020149.8967,292
1607020149.8987,247
1607020149.9007,175
1607020149.9027,97
1607020149.9047,19
1607020149.9067,-49
1607020149.9087,-95
1607020149.9107,-121
1607020149.9127,-137
1607020149.9147,-144
1607020149.9167,-140
1607020149.9188,-130
1607020149.9207,-121
1607020149.9227,-111
1607020149.9247,-102
1607020149.9267,-90
1607020149.9288,-80
1607020149.9307,-73
1607020149.9327,-68
1607020149.9347,-61
1607020149.9367,-52
1607020149.9387,-47
1607020149.9407,-42
1607020150.3361,-40
1607020150.3370,-40
1607020150.3395,-38
1607020150.3420,-30
1607020150.3441,-26
1607020150.3461,-28
1607020150.3482,-30
1607020150.3501,-23
1607020150.3521,-19
1607020150.3540,-26
1607020150.3560,-30
1607020150.3581,-28
1607020150.3600,-28
1607020150.3620,-33
1607020150.3640,-30
1607020150.3660,-26
1607020150.3681,-16
1607020150.3702,7
1607020150.3721,45
1607020150.3741,64
1607020150.3760,52
1607020150.3781,35
1607020150.3800,11
1607020150.3820,-4
1607020150.3840,-4
1607020150.3860,-2
1607020150.3880,0
1607020150.3900,0
1607020150.3920,2
1607020150.3940,4
1607020150.3960,9
1607020150.3981,14
1607020150.4000,-9
1607020150.4020,-78
1607020150.4040,-111
1607020150.4060,71
1607020150.4081,548
1607020150.4100,1171
1607020150.4120,1287
1607020150.4140,304
1607020150.4160,-731
1607020150.4181,-518
1607020150.4200,64
1607020150.4220,28
1607020150.4240,-85
1607020150.4260,19
1607020150.4281,40
1607020150.4300,0
1607020150.4320,33
1607020150.4340,61
1607020150.4360,54
1607020150.4381,71
1607020150.4400,92
1607020150.4420,99
1607020150.4440,111
1607020150.4460,130
1607020150.4480,147
1607020150.4500,163
1607020150.4520,182
1607020150.4540,199
1607020150.4560,216
1607020150.4581,237
1607020150.4600,259
1607020150.4620,275
1607020150.4640,297
1607020150.4660,313
1607020150.4681,323
1607020150.4700,318
1607020150.4722,313
1607020150.4741,301
1607020150.4761,270
1607020150.4781,209
1607020150.4800,133
1607020150.8764,52
1607020150.8773,-21
1607020150.8789,-78
1607020150.8808,-111
1607020150.8828,-128
1607020150.8848,-140
1607020150.8868,-154
1607020150.8888,-152
1607020150.8908,-137
1607020150.8928,-125
1607020150.8948,-118
1607020150.8968,-104
1607020150.8988,-92
1607020150.9008,-87
1607020150.9029,-83
1607020150.9048,-76
1607020150.9068,-64
1607020150.9088,-59
1607020150.9108,-54
1607020150.9127,-47
1607020150.9148,-45
1607020150.9167,-40
1607020150.9188,-38
1607020150.9207,-40
1607020150.9227,-42
1607020150.9248,-40
1607020150.9268,-38
1607020150.9288,-30
1607020150.9307,-21
1607020150.9327,-4
1607020150.9348,21
1607020150.9367,47
1607020150.9388,47
1607020150.9408,26
1607020150.9427,-2
1607020150.9448,-14
1607020150.9467,-9
1607020150.9488,-7
1607020150.9508,-11
1607020150.9527,-11
1607020150.9547,-2
1607020150.9567,0
1607020150.9588,-2
1607020150.9607,0
1607020150.9627,-14
1607020150.9647,-68
1607020150.9669,-71
1607020150.9688,171
1607020150.9707,696
1607020150.9727,1242
1607020150.9747,1190
1607020150.9768,111
1607020150.9788,-900
1607020150.9808,-622
1607020150.9827,23
1607020150.9847,40
1607020150.9868,-57
1607020150.9888,42
1607020150.9908,64
1607020150.9927,26
1607020150.9947,57
1607020150.9967,85
1607020150.9988,80
1607020151.0007,95
1607020151.0027,114
1607020151.0047,116
1607020151.0067,133
1607020151.0088,152
1607020151.0108,163
1607020151.0127,180
1607020151.0147,201
1607020151.0167,216
1607020151.0187,235
1607020151.4465,259
1607020151.4475,282
1607020151.4499,301
1607020151.4526,311
1607020151.4545,311
1607020151.4565,313
1607020151.4586,318
1607020151.4605,306
1607020151.4626,278
1607020151.4645,237
1607020151.4665,175
1607020151.4684,92
1607020151.4705,7
1607020151.4724,-57
1607020151.4745,-102
1607020151.4764,-133
1607020151.4786,-156
1607020151.4805,-166
1607020151.4824,-161
1607020151.4844,-152
1607020151.4864,-142
1607020151.4885,-128
1607020151.4904,-114
1607020151.4924,-106
1607020151.4946,-97
1607020151.4965,-85
1607020151.4985,-73
1607020151.5004,-73
1607020151.5024,-71
1607020151.5044,-57
1607020151.5064,-52
1607020151.5085,-59
1607020151.5104,-54
1607020151.5124,-45
1607020151.5145,-45
1607020151.5165,-49
1607020151.5184,-47
1607020151.5204,-38
1607020151.5224,-35
1607020151.5244,-35
1607020151.5264,-26
1607020151.5285,-2
1607020151.5305,30
1607020151.5325,45
1607020151.5344,40
1607020151.5364,23
1607020151.5385,0
1607020151.5404,-14
1607020151.5425,-11
1607020151.5444,-7
1607020151.5464,-7
1607020151.5484,-7
1607020151.5504,-4
1607020151.5524,2
1607020151.5544,11
1607020151.5564,9
1607020151.5585,-19
1607020151.5604,-78
1607020151.5624,-66
1607020151.5644,192
1607020151.5664,736
1607020151.5684,1292
1607020151.5704,1147
1607020151.5724,0
1607020151.5744,-848
1607020151.5764,-446
1607020151.5785,83
1607020151.5804,11
1607020151.5824,-54
1607020151.5844,45
1607020151.5864,42
1607020151.5885,21
1607020151.5904,64
1607020152.0463,80
1607020152.0473,73
1607020152.0501,92
1607020152.0525,109
1607020152.0544,116
1607020152.0564,121
1607020152.0583,133
1607020152.0604,152
1607020152.0623,171
1607020152.0643,180
1607020152.0664,199
1607020152.0684,225
1607020152.0703,247
1607020152.0723,266
1607020152.0743,282
1607020152.0763,297
1607020152.0784,306
1607020152.0803,308
1607020152.0823,304
1607020152.0843,292
1607020152.0863,270
1607020152.0883,228
1607020152.0903,161
1607020152.0923,80
1607020152.0943,-2
1607020152.0963,-64
1607020152.0983,-102
1607020152.1003,-133
1607020152.1023,-152
1607020152.1043,-152
1607020152.1063,-142
1607020152.1083,-137
1607020152.1103,-128
1607020152.1123,-114
1607020152.1143,-104
1607020152.1163,-97
1607020152.1183,-87
1607020152.1203,-78
1607020152.1223,-73
1607020152.1243,-73
1607020152.1263,-71
1607020152.1283,-61
1607020152.1303,-57
1607020152.1323,-54
1607020152.1343,-54
1607020152.1363,-54
1607020152.1383,-49
1607020152.1403,-47
1607020152.1423,-52
1607020152.1443,-49
1607020152.1463,-42
1607020152.1483,-45
1607020152.1503,-49
1607020152.1525,-47
1607020152.1543,-45
1607020152.1563,-47
1607020152.1583,-52
1607020152.1603,-35
1607020152.1623,-2
1607020152.1643,26
1607020152.1663,38
1607020152.1683,40
1607020152.1703,30
1607020152.1723,7
1607020152.1743,-16
1607020152.1763,-14
1607020152.1783,-4
1607020152.1803,-4
1607020152.1823,-7
1607020152.1843,-7
1607020152.1864,-4
1607020152.1883,2
1607020152.1903,2
1607020152.5865,-30
1607020152.5875,-106
1607020152.5900,-118
1607020152.5926,109
1607020152.5946,665
1607020152.5953,1314
1607020152.5975,1245
1607020152.5995,83
1607020152.6014,-769
1607020152.6034,-356
1607020152.6055,99
1607020152.6074,-42
1607020152.6095,-95
1607020152.6114,26
1607020152.6134,11
1607020152.6154,-16
1607020152.6174,28
1607020152.6194,45
1607020152.6214,40
1607020152.6234,59
1607020152.6254,78
1607020152.6261,87
1607020152.6285,104
1607020152.6304,125
1607020152.6324,137
1607020152.6344,154
1607020152.6364,173
1607020152.6385,192
1607020152.6404,213
1607020152.6424,235
1607020152.6444,254
1607020152.6466,270
1607020152.6486,287
1607020152.6504,294
1607020152.6524,297
1607020152.6544,297
1607020152.6564,289
1607020152.6571,266
1607020152.6595,223
1607020152.6614,168
1607020152.6634,97
1607020152.6654,19
1607020152.6674,-42
1607020152.6694,-87
1607020152.6714,-116
1607020152.6735,-133
1607020152.6754,-137
1607020152.6774,-133
1607020152.6795,-121
1607020152.6814,-114
1607020152.6834,-106
1607020152.6854,-97
1607020152.6874,-85
1607020152.6882,-80
1607020152.6904,-76
1607020152.6924,-68
1607020152.6944,-61
1607020152.6965,-61
1607020152.6985,-59
1607020152.7004,-54
1607020152.7024,-47
1607020152.7044,-47
1607020152.7064,-49
1607020152.7085,-49
1607020152.7104,-45
1607020152.7124,-42
1607020152.7144,-40
1607020152.7164,-38
1607020152.7184,-38
1607020152.7191,-35
1607020152.7204,-30
1607020152.7224,-28
1607020152.7244,-28
1607020153.1563,-26
1607020153.1573,-21
1607020153.1598,-21
1607020153.1624,-21
1607020153.1644,-21
1607020153.1664,-19
1607020153.1682,-19
1607020153.1702,-28
1607020153.1723,-35
1607020153.1745,-38
1607020153.1751,-38
1607020153.1773,-35
1607020153.1793,-30
1607020153.1812,-19
1607020153.1832,9
1607020153.1852,42
1607020153.1872,57
1607020153.1892,49
1607020153.1912,33
1607020153.1932,16
1607020153.1952,0
1607020153.1972,-7
1607020153.1992,-9
1607020153.2012,-7
1607020153.2032,-4
1607020153.2052,-2
1607020153.2059,2
1607020153.2072,7
1607020153.2093,4
1607020153.2112,-21
1607020153.2132,-90
1607020153.2153,-128
1607020153.2172,38
1607020153.2192,520
1607020153.2212,1185
1607020153.2232,1340
1607020153.2252,363
1607020153.2273,-660
1607020153.2293,-456
1607020153.2312,76
1607020153.2332,11
1607020153.2352,-87
1607020153.2359,23
1607020153.2372,35
1607020153.2392,0
1607020153.2412,42
1607020153.2432,64
1607020153.2453,57
1607020153.2473,76
1607020153.2493,97
1607020153.2513,102
1607020153.2532,114
1607020153.2552,133
1607020153.2572,144
1607020153.2593,161
1607020153.2613,178
1607020153.2633,194
1607020153.2640,213
1607020153.2653,235
1607020153.2674,254
1607020153.2695,273
1607020153.2714,285
1607020153.2733,297
1607020153.2753,304
1607020153.2772,306
1607020153.2793,301
1607020153.2812,285
1607020153.2833,259
1607020153.2853,218
1607020153.2872,152
1607020153.2893,76
1607020153.2912,7
1607020153.2932,-45
1607020153.6965,-85
1607020153.6975,-111
1607020153.6999,-128
1607020153.7025,-130
1607020153.7045,-125
1607020153.7065,-118
1607020153.7086,-109
1607020153.7104,-99
1607020153.7124,-97
1607020153.7145,-97
1607020153.7164,-90
1607020153.7184,-80
1607020153.7204,-78
1607020153.7224,-76
1607020153.7244,-66
1607020153.7264,-59
1607020153.7271,-59
1607020153.7295,-57
1607020153.7314,-54
1607020153.7334,-49
1607020153.7354,-45
1607020153.7374,-45
1607020153.7394,-42
1607020153.7414,-38
1607020153.7434,-35
1607020153.7454,-35
1607020153.7474,-30
1607020153.7495,-28
1607020153.7514,-26
1607020153.7534,-26
1607020153.7554,-26
1607020153.7574,-26
1607020153.7581,-26
1607020153.7594,-23
1607020153.7614,-14
1607020153.7634,-11
1607020153.7654,-16
1607020153.7674,-19
1607020153.7696,-11
1607020153.7715,-7
1607020153.7734,-4
1607020153.7754,-4
1607020153.7774,-4
1607020153.7794,-2
1607020153.7814,-2
1607020153.7834,0
1607020153.7854,4
1607020153.7874,4
1607020153.7882,2
1607020153.7905,7
1607020153.7924,11
1607020153.7944,11
1607020153.7964,11
1607020153.7985,19
1607020153.8004,21
1607020153.8024,14
1607020153.8044,14
1607020153.8064,23
1607020153.8085,26
1607020153.8104,19
1607020153.8124,21
1607020153.8144,30
1607020153.8164,28
1607020153.8185,23
1607020153.8198,30
1607020153.8214,30
1607020153.8234,23
1607020153.8254,16
1607020153.8274,19
1607020153.8295,33
1607020153.8314,64
1607020153.8334,92
1607020153.8354,95
1607020154.2665,85
1607020154.2674,73
1607020154.2699,54
1607020154.2725,35
1607020154.2745,21
1607020154.2765,16
1607020154.2785,14
1607020154.2805,21
1607020154.2825,28
1607020154.2845,28
1607020154.2865,30
1607020154.2885,26
1607020154.2905,-11
1607020154.2925,-80
1607020154.2945,-59
1607020154.2965,220
1607020154.2987,798
1607020154.3005,1378
1607020154.3025,1116
1607020154.3044,-128
1607020154.3064,-781
1607020154.3085,-240
1607020154.3105,135
1607020154.3125,-30
1607020154.3145,-35
1607020154.3165,73
1607020154.3185,30
1607020154.3205,16
1607020154.3225,80
1607020154.3245,85
1607020154.3265,71
1607020154.3285,99
1607020154.3304,121
1607020154.3324,118
1607020154.3344,130
1607020154.3364,154
1607020154.3385,166
1607020154.3404,178
1607020154.3424,199
1607020154.3444,216
1607020154.3464,230
1607020154.3485,247
1607020154.3505,268
1607020154.3524,285
1607020154.3544,299
1607020154.3564,313
1607020154.3585,323
1607020154.3604,325
1607020154.3625,316
1607020154.3644,301
1607020154.3664,275
1607020154.3684,230
1607020154.3704,173
1607020154.3724,102
1607020154.3744,23
1607020154.3764,-45
1607020154.3785,-87
1607020154.3804,-111
1607020154.3824,-130
1607020154.3844,-142
1607020154.3864,-147
1607020154.3885,-135
1607020154.3904,-123
1607020154.3924,-116
1607020154.3944,-106
1607020154.3964,-95
1607020154.3985,-85
1607020154.4007,-85
1607020154.4025,-87
1607020154.4044,-78
1607020154.4064,-68
1607020154.4085,-68
1607020154.4104,-64
1607020154.8060,-57
1607020154.8070,-52
1607020154.8095,-49
1607020154.8120,-49
1607020154.8140,-54
1607020154.8160,-52
1607020154.8183,-45
1607020154.8200,-47
1607020154.8220,-52
1607020154.8240,-49
1607020154.8260,-49
1607020154.8281,-45
1607020154.8300,-35
1607020154.8320,-30
1607020154.8340,-35
1607020154.8360,-33
1607020154.8380,-28
1607020154.8400,-23
1607020154.8420,-21
1607020154.8440,-21
1607020154.8460,-16
1607020154.8480,-11
1607020154.8500,-11
1607020154.8519,-9
1607020154.8540,-7
1607020154.8560,-4
1607020154.8580,-2
1607020154.8600,-2
1607020154.8619,-2
1607020154.8639,0
1607020154.8660,4
1607020154.8680,4
1607020154.8699,7
1607020154.8719,11
1607020154.8740,14
1607020154.8760,9
1607020154.8780,11
1607020154.8799,19
1607020154.8819,19
1607020154.8840,16
1607020154.8859,14
1607020154.8881,16
1607020154.8900,19
1607020154.8919,14
1607020154.8939,14
1607020154.8961,14
1607020154.8981,11
1607020154.9000,11
1607020154.9020,23
1607020154.9039,47
1607020154.9060,78
1607020154.9080,92
1607020154.9099,80
1607020154.9119,64
1607020154.9140,42
1607020154.9159,28
1607020154.9179,23
1607020154.9199,19
1607020154.9219,16
1607020154.9240,19
1607020154.9260,21
1607020154.9280,23
1607020154.9299,28
1607020154.9319,26
1607020154.9339,0
1607020154.9359,-68
1607020154.9380,-109
1607020154.9400,40
1607020154.9419,503
1607020154.9439,1171
1607020154.9459,1418
1607020154.9480,513
1607020154.9500,-662
1607020155.4060,-598
1607020155.4070,14
1607020155.4094,42
1607020155.4120,-80
1607020155.4140,9
1607020155.4161,38
1607020155.4182,2
1607020155.4200,38
1607020155.4220,61
1607020155.4240,54
1607020155.4260,73
1607020155.4280,95
1607020155.4300,99
1607020155.4320,114
1607020155.4340,135
1607020155.4360,149
1607020155.4380,163
1607020155.4400,178
1607020155.4420,194
1607020155.4440,213
1607020155.4460,235
1607020155.4480,254
1607020155.4500,273
1607020155.4522,289
1607020155.4541,304
1607020155.4560,313
1607020155.4580,316
1607020155.4600,308
1607020155.4619,294
1607020155.4640,270
1607020155.4660,235
1607020155.4680,178
1607020155.4699,99
1607020155.4719,23
1607020155.4739,-35
1607020155.4759,-85
1607020155.4780,-118
1607020155.4799,-135
1607020155.4819,-140
1607020155.4839,-142
1607020155.4859,-137
1607020155.4880,-130
1607020155.4899,-121
1607020155.4919,-109
1607020155.4939,-99
1607020155.4960,-95
1607020155.4980,-95
1607020155.4999,-87
1607020155.5020,-78
1607020155.5039,-73
1607020155.5059,-76
1607020155.5080,-76
1607020155.5100,-68
1607020155.5120,-61
1607020155.5140,-57
1607020155.5160,-54
1607020155.5180,-54
1607020155.5200,-49
1607020155.5219,-45
1607020155.5239,-42
1607020155.5260,-42
1607020155.5280,-38
1607020155.5300,-38
1607020155.5319,-38
1607020155.5340,-33
1607020155.5359,-28
1607020155.5380,-26
1607020155.5400,-28
1607020155.5419,-21
1607020155.5439,-14
1607020155.5459,-14
1607020155.5480,-16
1607020155.5500,-14
1607020155.9760,-11
1607020155.9768,-14
1607020155.9778,-14
1607020155.9795,-14
1607020155.9815,-9
1607020155.9835,-7
1607020155.9855,-7
1607020155.9875,-7
1607020155.9895,-9
1607020155.9915,-19
1607020155.9935,-21
1607020155.9955,-11
1607020155.9976,-9
1607020155.9995,-11
1607020156.0016,-9
1607020156.0035,-4
1607020156.0057,-4
1607020156.0075,-2
1607020156.0095,0
1607020156.0115,2
1607020156.0136,4
1607020156.0155,2
1607020156.0175,0
1607020156.0195,0
1607020156.0215,0
1607020156.0236,4
1607020156.0256,26
1607020156.0275,57
1607020156.0295,78
1607020156.0315,78
1607020156.0335,64
1607020156.0355,47
1607020156.0376,28
1607020156.0395,19
1607020156.0416,21
1607020156.0435,23
1607020156.0455,23
1607020156.0475,21
1607020156.0495,19
1607020156.0515,19
1607020156.0535,21
1607020156.0555,11
1607020156.0575,-38
1607020156.0595,-104
1607020156.0616,-54
1607020156.0635,270
1607020156.0655,905
1607020156.0675,1456
1607020156.0695,1007
1607020156.0715,-259
1607020156.0736,-670
1607020156.0755,-92
1607020156.0779,106
1607020156.0797,-83
1607020156.0815,-30
1607020156.0835,57
1607020156.0856,9
1607020156.0875,14
1607020156.0895,61
1607020156.0915,59
1607020156.0935,64
1607020156.0955,95
1607020156.0976,106
1607020156.0995,114
1607020156.1016,128
1607020156.1035,144
1607020156.1056,156
1607020156.1075,175
1607020156.1096,192
1607020156.1115,206
1607020156.1135,228
1607020156.1155,249
1607020156.1175,268
1607020156.5166,287
1607020156.5176,306
1607020156.5200,313
1607020156.5228,318
1607020156.5246,320
1607020156.5266,313
1607020156.5288,292
1607020156.5306,254
1607020156.5326,204
1607020156.5346,137
1607020156.5366,54
1607020156.5386,-23
1607020156.5406,-80
1607020156.5426,-116
1607020156.5446,-140
1607020156.5466,-152
1607020156.5485,-154
1607020156.5505,-156
1607020156.5525,-152
1607020156.5546,-142
1607020156.5566,-130
1607020156.5586,-121
1607020156.5605,-114
1607020156.5625,-106
1607020156.5645,-97
1607020156.5665,-92
1607020156.5685,-87
1607020156.5705,-78
1607020156.5725,-66
1607020156.5745,-61
1607020156.5767,-61
1607020156.5787,-61
1607020156.5805,-64
1607020156.5825,-59
1607020156.5845,-54
1607020156.5865,-52
1607020156.5886,-47
1607020156.5905,-45
1607020156.5925,-45
1607020156.5945,-40
1607020156.5965,-38
1607020156.5986,-38
1607020156.6009,-33
1607020156.6026,-30
1607020156.6045,-28
1607020156.6065,-26
1607020156.6086,-23
1607020156.6105,-21
1607020156.6125,-16
1607020156.6145,-16
1607020156.6165,-14
1607020156.6186,-9
1607020156.6207,-9
1607020156.6227,-4
1607020156.6247,0
1607020156.6267,-2
1607020156.6286,-2
1607020156.6307,2
1607020156.6326,7
1607020156.6347,9
1607020156.6367,11
1607020156.6387,11
1607020156.6406,11
1607020156.6425,11
1607020156.6445,7
1607020156.6466,4
1607020156.6486,7
1607020156.6505,9
1607020156.6525,7
1607020156.6545,7
1607020156.6566,11
1607020156.6586,33
1607020156.6606,66
1607020157.0564,85
1607020157.0574,83
1607020157.0598,68
1607020157.0624,54
1607020157.0644,38
1607020157.0664,21
1607020157.0684,19
1607020157.0704,16
1607020157.0726,14
1607020157.0744,16
1607020157.0764,21
1607020157.0784,21
1607020157.0804,21
1607020157.0824,11
1607020157.0844,-40
1607020157.0864,-102
1607020157.0884,-21
1607020157.0903,337
1607020157.0924,948
1607020157.0943,1383
1607020157.0963,819
1607020157.0984,-380
1607020157.1003,-639
1607020157.1024,-59
1607020157.1044,85
1607020157.1064,-85
1607020157.1085,-23
1607020157.1103,52
1607020157.1124,9
1607020157.1143,19
1607020157.1164,59
1607020157.1184,59
1607020157.1203,64
1607020157.1223,87
1607020157.1243,99
1607020157.1263,106
1607020157.1284,121
1607020157.1303,137
1607020157.1323,152
1607020157.1343,168
1607020157.1363,190
1607020157.1384,206
1607020157.1404,223
1607020157.1425,244
1607020157.1443,268
1607020157.1463,282
1607020157.1484,299
1607020157.1503,308
1607020157.1523,313
1607020157.1543,311
1607020157.1563,301
1607020157.1584,278
1607020157.1603,242
1607020157.1623,192
1607020157.1643,121
1607020157.1663,38
1607020157.1683,-33
1607020157.1703,-83
1607020157.1723,-118
1607020157.1745,-144
1607020157.1764,-156
1607020157.1784,-156
1607020157.1803,-152
1607020157.1823,-142
1607020157.1843,-128
1607020157.1863,-118
1607020157.1884,-114
1607020157.1904,-104
1607020157.1923,-92
1607020157.1944,-87
1607020157.1963,-80
1607020157.1984,-73
1607020157.2004,-71
1607020157.6258,-64
1607020157.6268,-54
1607020157.6293,-49
1607020157.6320,-49
1607020157.6339,-49
1607020157.6359,-52
1607020157.6380,-49
1607020157.6398,-42
1607020157.6418,-40
1607020157.6438,-40
1607020157.6459,-35
1607020157.6478,-33
1607020157.6498,-38
1607020157.6518,-35
1607020157.6538,-30
1607020157.6557,-28
1607020157.6580,-30
1607020157.6598,-33
1607020157.6618,-33
1607020157.6638,-28
1607020157.6658,-16
1607020157.6679,-11
1607020157.6698,-16
1607020157.6718,-14
1607020157.6738,-7
1607020157.6758,-4
1607020157.6779,-2
1607020157.6798,0
1607020157.6818,-2
1607020157.6838,0
1607020157.6858,11
1607020157.6878,9
1607020157.6898,0
1607020157.6918,-2
1607020157.6939,4
1607020157.6959,7
1607020157.6979,19
1607020157.7000,47
1607020157.7018,73
1607020157.7038,85
1607020157.7058,80
1607020157.7078,57
1607020157.7098,35
1607020157.7118,26
1607020157.7138,23
1607020157.7158,21
1607020157.7179,16
1607020157.7198,11
1607020157.7218,9
1607020157.7238,21
1607020157.7258,33
1607020157.7279,26
1607020157.7298,-14
1607020157.7318,-73
1607020157.7338,-61
1607020157.7358,182
1607020157.7379,710
1607020157.7398,1287
1607020157.7418,1204
1607020157.7438,64
1607020157.7458,-836
1607020157.7478,-449
1607020157.7498,95
1607020157.7518,16
1607020157.7538,-57
1607020157.7558,59
1607020157.7578,68
1607020157.7598,35
1607020157.7618,71
1607020157.7638,90
1607020157.7658,83
1607020157.7679,99
1607020157.7698,121
1607020158.1663,133
1607020158.1671,149
1607020158.1695,163
1607020158.1721,171
1607020158.1741,187
1607020158.1761,204
1607020158.1782,206
1607020158.1802,216
1607020158.1821,249
1607020158.1841,270
1607020158.1861,280
1607020158.1881,301
1607020158.1901,323
1607020158.1920,327
1607020158.1940,325
1607020158.1962,325
1607020158.1981,316
1607020158.2000,285
1607020158.2021,230
1607020158.2040,159
1607020158.2060,83
1607020158.2080,-2
1607020158.2101,-78
1607020158.2120,-123
1607020158.2141,-144
1607020158.2161,-156
1607020158.2181,-166
1607020158.2200,-166
1607020158.2220,-156
1607020158.2240,-147
1607020158.2261,-140
1607020158.2281,-123
1607020158.2300,-114
1607020158.2321,-118
1607020158.2341,-114
1607020158.2361,-95
1607020158.2382,-85
1607020158.2400,-87
1607020158.2420,-83
1607020158.2440,-68
1607020158.2460,-66
1607020158.2481,-68
1607020158.2501,-66
1607020158.2521,-59
1607020158.2540,-54
1607020158.2560,-47
1607020158.2581,-45
1607020158.2601,-45
1607020158.2621,-42
1607020158.2640,-35
1607020158.2661,-28
1607020158.2681,-33
1607020158.2700,-38
1607020158.2722,-38
1607020158.2741,-33
1607020158.2761,-19
1607020158.2782,-11
1607020158.2802,-19
1607020158.2821,-21
1607020158.2840,-16
1607020158.2860,-11
1607020158.2881,-9
1607020158.2900,-9
1607020158.2920,-16
1607020158.2940,-19
1607020158.2960,-4
1607020158.2983,23
1607020158.3001,54
1607020158.3020,66
1607020158.3040,61
1607020158.3060,59
1607020158.3081,40
1607020158.3100,9
1607020158.7661,2
1607020158.7670,7
1607020158.7695,0
1607020158.7722,-2
1607020158.7741,-7
1607020158.7761,-2
1607020158.7781,9
1607020158.7801,9
1607020158.7822,-9
1607020158.7841,-57
1607020158.7861,-104
1607020158.7881,16
1607020158.7900,463
1607020158.7920,1109
1607020158.7940,1421
1607020158.7961,665
1607020158.7981,-648
1607020158.8000,-872
1607020158.8020,-180
1607020158.8040,71
1607020158.8060,-35
1607020158.8081,14
1607020158.8100,73
1607020158.8120,40
1607020158.8140,59
1607020158.8161,99
1607020158.8180,95
1607020158.8200,92
1607020158.8220,116
1607020158.8240,125
1607020158.8260,135
1607020158.8281,156
1607020158.8300,178
1607020158.8320,190
1607020158.8340,201
1607020158.8360,223
1607020158.8381,244
1607020158.8400,263
1607020158.8420,285
1607020158.8440,301
1607020158.8460,323
1607020158.8481,349
1607020158.8500,354
1607020158.8520,342
1607020158.8542,342
1607020158.8547,342
1607020158.8560,316
1607020158.8581,266
1607020158.8600,199
1607020158.8620,114
1607020158.8640,23
1607020158.8660,-52
1607020158.8680,-104
1607020158.8700,-133
1607020158.8720,-149
1607020158.8740,-163
1607020158.8760,-161
1607020158.8780,-147
1607020158.8800,-142
1607020158.8820,-135
1607020158.8840,-125
1607020158.8847,-123
1607020158.8860,-111
1607020158.8881,-95
1607020158.8900,-87
1607020158.8920,-87
1607020158.8940,-80
1607020158.8960,-78
1607020158.8981,-78
1607020158.9000,-68
1607020158.9021,-57
1607020158.9040,-64
1607020158.9060,-64
1607020159.3963,-54
1607020159.3974,-57
1607020159.3998,-54
1607020159.4025,-42
1607020159.4044,-38
1607020159.4064,-40
1607020159.4085,-42
1607020159.4104,-47
1607020159.4124,-54
1607020159.4144,-54
1607020159.4164,-52
1607020159.4184,-54
1607020159.4204,-49
1607020159.4224,-45
1607020159.4244,-47
1607020159.4263,-21
1607020159.4284,19
1607020159.4290,33
1607020159.4314,30
1607020159.4334,23
1607020159.4355,0
1607020159.4373,-26
1607020159.4395,-26
1607020159.4414,-19
1607020159.4433,-21
1607020159.4454,-21
1607020159.4473,-16
1607020159.4494,-14
1607020159.4514,-7
1607020159.4533,-4
1607020159.4553,-16
1607020159.4573,-61
1607020159.4581,-123
1607020159.4593,-40
1607020159.4613,363
1607020159.4634,1040
1607020159.4653,1485
1607020159.4674,831
1607020159.4693,-532
1607020159.4713,-850
1607020159.4733,-178
1607020159.4753,66
1607020159.4773,-71
1607020159.4793,-16
1607020159.4813,59
1607020159.4834,23
1607020159.4856,26
1607020159.4873,61
1607020159.4881,71
1607020159.4903,78
1607020159.4924,97
1607020159.4943,109
1607020159.4963,118
1607020159.4983,137
1607020159.5004,161
1607020159.5024,178
1607020159.5043,194
1607020159.5063,211
1607020159.5084,228
1607020159.5103,251
1607020159.5123,275
1607020159.5143,292
1607020159.5164,306
1607020159.5184,330
1607020159.5190,349
1607020159.5203,346
1607020159.5223,335
1607020159.5243,320
1607020159.5263,289
1607020159.5283,242
1607020159.5303,166
1607020159.5323,76
1607020159.5344,-4
1607020159.8761,-68
1607020159.8769,-121
1607020159.8782,-154
1607020159.8802,-163
1607020159.8822,-166
1607020159.8829,-163
1607020159.8853,-154
1607020159.8872,-147
1607020159.8891,-140
1607020159.8911,-123
1607020159.8931,-116
1607020159.8952,-109
1607020159.8971,-102
1607020159.8992,-102
1607020159.9012,-102
1607020159.9031,-87
1607020159.9051,-80
1607020159.9071,-87
1607020159.9092,-87
1607020159.9111,-76
1607020159.9131,-71
1607020159.9138,-68
1607020159.9152,-61
1607020159.9172,-57
1607020159.9191,-54
1607020159.9211,-57
1607020159.9232,-54
1607020159.9251,-52
1607020159.9271,-52
1607020159.9292,-49
1607020159.9311,-47
1607020159.9332,-42
1607020159.9352,-45
1607020159.9371,-49
1607020159.9391,-47
1607020159.9411,-30
1607020159.9431,-9
1607020159.9438,14
1607020159.9451,33
1607020159.9471,40
1607020159.9492,33
1607020159.9512,7
1607020159.9531,-21
1607020159.9551,-26
1607020159.9571,-16
1607020159.9591,-16
1607020159.9611,-16
1607020159.9631,-14
1607020159.9651,-7
1607020159.9672,0
1607020159.9691,0
1607020159.9713,-38
1607020159.9732,-118
1607020159.9739,-152
1607020159.9761,35
1607020159.9782,575
1607020159.9801,1321
1607020159.9822,1475
1607020159.9843,368
1607020159.9861,-753
1607020159.9882,-513
1607020159.9901,45
1607020159.9921,-38
1607020159.9942,-125
1607020159.9961,0
1607020159.9981,4
1607020160.0002,-33
1607020160.0023,11
1607020160.0041,33
1607020160.0048,26
1607020160.0072,47
1607020160.0092,68
1607020160.0111,76
1607020160.4463,87
1607020160.4473,106
1607020160.4498,118
1607020160.4525,137
1607020160.4544,161
1607020160.4564,180
1607020160.4583,197
1607020160.4603,216
1607020160.4624,242
1607020160.4643,268
1607020160.4663,287
1607020160.4747,299
1607020160.4763,313
1607020160.4783,316
1607020160.4803,301
1607020160.4823,278
1607020160.4844,242
1607020160.4869,182
1607020160.4889,95
1607020160.4903,7
1607020160.4923,-61
1607020160.4943,-114
1607020160.4963,-149
1607020160.4983,-168
1607020160.5004,-178
1607020160.5023,-175
1607020160.5042,-171
1607020160.5063,-163
1607020160.5083,-149
1607020160.5105,-135
1607020160.5123,-130
1607020160.5143,-123
1607020160.5163,-111
1607020160.5183,-106
1607020160.5203,-104
1607020160.5223,-95
1607020160.5243,-85
1607020160.5263,-78
1607020160.5283,-73
1607020160.5303,-68
1607020160.5323,-61
1607020160.5344,-59
1607020160.5363,-54
1607020160.5383,-52
1607020160.5403,-52
1607020160.5423,-54
1607020160.5443,-49
1607020160.5463,-47
1607020160.5483,-47
1607020160.5504,-45
1607020160.5524,-40
1607020160.5543,-38
1607020160.5563,-35
1607020160.5583,-33
1607020160.5603,-30
1607020160.5623,-26
1607020160.5643,-23
1607020160.5663,-21
1607020160.5684,-21
1607020160.5703,-21
1607020160.5723,-26
1607020160.5743,-26
1607020160.5763,-23
1607020160.5783,-16
1607020160.5803,2
1607020160.5823,33
1607020160.5844,57
1607020160.5863,54
1607020160.5883,42
1607020160.5903,33
1607020160.5923,21
1607020160.5943,7
1607020160.5963,-2
1607020160.9862,0
1607020160.9869,2
1607020160.9893,4
1607020160.9919,7
1607020160.9939,7
1607020160.9959,7
1607020160.9981,4
1607020161.0002,-38
1607020161.0020,-130
1607020161.0040,-140
1607020161.0059,109
1607020161.0080,705
1607020161.0099,1418
1607020161.0119,1311
1607020161.0139,73
1607020161.0160,-717
1607020161.0180,-259
1607020161.0199,106
1607020161.0219,-87
1607020161.0239,-104
1607020161.0260,21
1607020161.0280,-9
1607020161.0299,-23
1607020161.0319,28
1607020161.0340,38
1607020161.0359,30
1607020161.0379,54
1607020161.0399,71
1607020161.0419,78
1607020161.0439,97
1607020161.0459,114
1607020161.0479,123
1607020161.0499,140
1607020161.0520,161
1607020161.0539,180
1607020161.0559,199
1607020161.0579,220
1607020161.0599,240
1607020161.0619,259
1607020161.0639,278
1607020161.0660,292
1607020161.0680,301
1607020161.0699,306
1607020161.0719,299
1607020161.0739,275
1607020161.0759,237
1607020161.0779,180
1607020161.0799,99
1607020161.0819,19
1607020161.0840,-47
1607020161.0859,-104
1607020161.0879,-140
1607020161.0899,-159
1607020161.0919,-168
1607020161.0939,-168
1607020161.0959,-163
1607020161.0979,-152
1607020161.1000,-142
1607020161.1022,-135
1607020161.1039,-128
1607020161.1059,-116
1607020161.1079,-106
1607020161.1099,-97
1607020161.1119,-90
1607020161.1139,-83
1607020161.1160,-78
1607020161.1181,-73
1607020161.1200,-64
1607020161.1220,-54
1607020161.1240,-52
1607020161.1259,-52
1607020161.1279,-49
1607020161.1299,-47
1607020161.5863,-42
1607020161.5872,-42
1607020161.5897,-40
1607020161.5923,-35
1607020161.5943,-35
1607020161.5963,-45
1607020161.5984,-47
1607020161.6005,-35
1607020161.6024,-33
1607020161.6043,-38
1607020161.6063,-35
1607020161.6082,-28
1607020161.6102,-26
1607020161.6123,-23
1607020161.6142,-21
1607020161.6163,-21
1607020161.6183,-21
1607020161.6202,-19
1607020161.6222,-14
1607020161.6242,-11
1607020161.6262,-11
1607020161.6283,-9
1607020161.6302,-4
1607020161.6323,-2
1607020161.6343,-2
1607020161.6362,0
1607020161.6382,4
1607020161.6402,7
1607020161.6422,7
1607020161.6442,7
1607020161.6462,4
1607020161.6482,4
1607020161.6503,7
1607020161.6522,9
1607020161.6542,9
1607020161.6563,11
1607020161.6585,14
1607020161.6603,14
1607020161.6623,16
1607020161.6643,19
1607020161.6662,16
1607020161.6683,14
1607020161.6703,16
1607020161.6722,14
1607020161.6742,9
1607020161.6762,16
1607020161.6782,30
1607020161.6802,47
1607020161.6822,68
1607020161.6843,80
1607020161.6862,71
1607020161.6882,57
1607020161.6902,40
1607020161.6922,23
1607020161.6942,14
1607020161.6962,16
1607020161.6982,19
1607020161.7003,19
1607020161.7023,21
1607020161.7042,26
1607020161.7062,26
1607020161.7082,26
1607020161.7102,4
1607020161.7122,-71
1607020161.7142,-121
1607020161.7162,14
1607020161.7183,465
1607020161.7202,1178
1607020161.7222,1461
1607020161.7242,556
1607020161.7262,-546
1607020161.7283,-430
1607020161.7302,85
1607020162.1562,2
1607020162.1571,-116
1607020162.1596,4
1607020162.1622,21
1607020162.1642,-21
1607020162.1662,21
1607020162.1684,47
1607020162.1701,40
1607020162.1721,57
1607020162.1729,73
1607020162.1741,73
1607020162.1761,83
1607020162.1782,104
1607020162.1801,121
1607020162.1823,133
1607020162.1842,156
1607020162.1861,180
1607020162.1881,192
1607020162.1901,209
1607020162.1921,232
1607020162.1941,261
1607020162.1961,278
1607020162.1981,289
1607020162.2002,304
1607020162.2022,311
1607020162.2027,306
1607020162.2041,299
1607020162.2061,282
1607020162.2081,249
1607020162.2101,192
1607020162.2121,114
1607020162.2141,30
1607020162.2162,-38
1607020162.2181,-85
1607020162.2201,-121
1607020162.2221,-142
1607020162.2242,-147
1607020162.2261,-144
1607020162.2282,-144
1607020162.2301,-140
1607020162.2308,-123
1607020162.2321,-111
1607020162.2342,-104
1607020162.2361,-95
1607020162.2381,-87
1607020162.2401,-83
1607020162.2421,-73
1607020162.2442,-66
1607020162.2461,-64
1607020162.2481,-59
1607020162.2502,-57
1607020162.2522,-54
1607020162.2541,-47
1607020162.2561,-42
1607020162.2581,-47
1607020162.2601,-40
1607020162.2608,-30
1607020162.2621,-35
1607020162.2641,-40
1607020162.2661,-35
1607020162.2682,-26
1607020162.2701,-28
1607020162.2721,-30
1607020162.2741,-21
1607020162.2761,-11
1607020162.2783,-14
1607020162.2801,-21
1607020162.2821,-19
1607020162.2842,-14
1607020162.2861,-7
1607020162.2881,-4
1607020162.2901,-11
1607020162.2908,-11
1607020162.7262,-2
1607020162.7272,2
1607020162.7297,-4
1607020162.7323,-7
1607020162.7343,-4
1607020162.7364,0
1607020162.7383,4
1607020162.7402,4
1607020162.7423,7
1607020162.7442,9
1607020162.7462,9
1607020162.7482,2
1607020162.7503,-2
1607020162.7524,0
1607020162.7528,4
1607020162.7542,2
1607020162.7562,2
1607020162.7582,2
1607020162.7602,7
1607020162.7622,9
1607020162.7642,7
1607020162.7662,7
1607020162.7683,11
1607020162.7702,16
1607020162.7722,14
1607020162.7742,11
1607020162.7762,11
1607020162.7782,11
1607020162.7802,9
1607020162.7822,14
1607020162.7828,16
1607020162.7843,14
1607020162.7862,9
1607020162.7882,11
1607020162.7902,16
1607020162.7922,19
1607020162.7942,21
1607020162.7962,21
1607020162.7982,19
1607020162.8003,19
1607020162.8023,23
1607020162.8042,21
1607020162.8062,16
1607020162.8084,11
1607020162.8103,16
1607020162.8122,30
1607020162.8128,47
1607020162.8142,68
1607020162.8162,92
1607020162.8183,95
1607020162.8202,73
1607020162.8222,49
1607020162.8242,35
1607020162.8262,30
1607020162.8282,28
1607020162.8302,30
1607020162.8322,38
1607020162.8343,38
1607020162.8362,35
1607020162.8382,49
1607020162.8402,52
1607020162.8422,16
1607020162.8428,-49
1607020162.8442,-92
1607020162.8462,14
1607020162.8482,415
1607020162.8503,1095
1607020162.8523,1535
1607020162.8542,815
1607020162.8562,-541
1607020162.8583,-753
1607020162.8602,-71
1607020162.8622,90
1607020163.2357,-68
1607020163.2367,7
1607020163.2391,76
1607020163.2403,33
1607020163.2418,45
1607020163.2438,83
1607020163.2458,85
1607020163.2479,97
1607020163.2497,116
1607020163.2518,118
1607020163.2537,125
1607020163.2557,149
1607020163.2578,159
1607020163.2597,161
1607020163.2617,182
1607020163.2637,211
1607020163.2657,223
1607020163.2679,235
1607020163.2697,254
1607020163.2703,275
1607020163.2717,301
1607020163.2739,323
1607020163.2757,339
1607020163.2777,346
1607020163.2797,342
1607020163.2817,332
1607020163.2838,316
1607020163.2857,292
1607020163.2878,242
1607020163.2899,161
1607020163.2917,76
1607020163.2937,0
1607020163.2957,-66
1607020163.2978,-111
1607020163.2998,-137
1607020163.3003,-159
1607020163.3017,-166
1607020163.3037,-156
1607020163.3057,-149
1607020163.3077,-137
1607020163.3097,-121
1607020163.3117,-116
1607020163.3136,-111
1607020163.3157,-99
1607020163.3178,-92
1607020163.3197,-87
1607020163.3217,-80
1607020163.3236,-73
1607020163.3256,-71
1607020163.3277,-68
1607020163.3297,-64
1607020163.3304,-68
1607020163.3317,-68
1607020163.3337,-61
1607020163.3357,-57
1607020163.3378,-59
1607020163.3397,-59
1607020163.3417,-57
1607020163.3437,-52
1607020163.3457,-45
1607020163.3477,-42
1607020163.3497,-49
1607020163.3517,-47
1607020163.3537,-30
1607020163.3557,-33
1607020163.3577,-47
1607020163.3597,-35
1607020163.3603,-23
1607020163.3617,-26
1607020163.3636,-26
1607020163.3657,-21
1607020163.3678,-23
1607020163.3698,-16
1607020163.8355,-7
1607020163.8365,-9
1607020163.8390,-19
1607020163.8416,-19
1607020163.8435,-9
1607020163.8457,-9
1607020163.8477,-21
1607020163.8495,-21
1607020163.8515,-9
1607020163.8535,-9
1607020163.8542,-14
1607020163.8555,-7
1607020163.8564,-7
1607020163.8579,-16
1607020163.8595,-11
1607020163.8615,2
1607020163.8634,4
1607020163.8654,-2
1607020163.8676,-7
1607020163.8694,-2
1607020163.8714,4
1607020163.8734,2
1607020163.8754,-2
1607020163.8774,0
1607020163.8781,4
1607020163.8794,23
1607020163.8815,54
1607020163.8835,76
1607020163.8855,78
1607020163.8874,64
1607020163.8894,45
1607020163.8914,28
1607020163.8934,19
1607020163.8955,19
1607020163.8974,16
1607020163.8994,19
1607020163.9016,26
1607020163.9035,30
1607020163.9055,26
1607020163.9074,26
1607020163.9081,23
1607020163.9094,-23
1607020163.9114,-95
1607020163.9134,-47
1607020163.9154,280
1607020163.9175,917
1607020163.9195,1497
1607020163.9215,1095
1607020163.9235,-266
1607020163.9254,-855
1607020163.9276,-261
1607020163.9295,85
1607020163.9314,-54
1607020163.9335,-38
1607020163.9356,47
1607020163.9374,21
1607020163.9381,23
1607020163.9394,61
1607020163.9414,68
1607020163.9434,73
1607020163.9454,90
1607020163.9474,102
1607020163.9495,111
1607020163.9515,130
1607020163.9535,149
1607020163.9554,166
1607020163.9574,178
1607020163.9596,185
1607020163.9614,199
1607020163.9634,223
1607020163.9654,242
1607020163.9661,263
1607020163.9675,287
1607020164.3460,304
1607020164.3467,318
1607020164.3492,332
1607020164.3518,337
1607020164.3537,323
1607020164.3557,299
1607020164.3578,266
1607020164.3597,209
1607020164.3617,128
1607020164.3637,38
1607020164.3657,-47
1607020164.3664,-123
1607020164.3678,-168
1607020164.3697,-190
1607020164.3717,-201
1607020164.3737,-204
1607020164.3757,-204
1607020164.3777,-197
1607020164.3797,-185
1607020164.3817,-171
1607020164.3838,-156
1607020164.3857,-144
1607020164.3877,-135
1607020164.3897,-128
1607020164.3917,-121
1607020164.3937,-109
1607020164.3957,-99
1607020164.3963,-95
1607020164.3979,-85
1607020164.3997,-80
1607020164.4017,-76
1607020164.4037,-73
1607020164.4057,-68
1607020164.4077,-64
1607020164.4097,-61
1607020164.4117,-64
1607020164.4137,-59
1607020164.4157,-54
1607020164.4179,-57
1607020164.4197,-57
1607020164.4218,-49
1607020164.4237,-47
1607020164.4257,-47
1607020164.4263,-40
1607020164.4277,-38
1607020164.4297,-35
1607020164.4317,-33
1607020164.4338,-33
1607020164.4357,-28
1607020164.4377,-23
1607020164.4397,-21
1607020164.4417,-21
1607020164.4437,-21
1607020164.4457,-19
1607020164.4477,-19
1607020164.4497,-16
1607020164.4518,-9
1607020164.4537,-7
1607020164.4557,-7
1607020164.4563,-11
1607020164.4577,-11
1607020164.4597,-9
1607020164.4617,-9
1607020164.4637,-7
1607020164.4658,-4
1607020164.4678,-4
1607020164.4697,-9
1607020164.4717,-11
1607020164.4737,-14
1607020164.4757,-14
1607020164.4777,-11
1607020164.4797,7
1607020164.4817,40
1607020164.9163,64
1607020164.9173,61
1607020164.9198,45
1607020164.9224,30
1607020164.9244,9
1607020164.9264,-9
1607020164.9285,-11
1607020164.9303,-7
1607020164.9324,-7
1607020164.9344,-7
1607020164.9363,-2
1607020164.9383,-2
1607020164.9403,2
1607020164.9423,0
1607020164.9443,-38
1607020164.9463,-114
1607020164.9470,-116
1607020164.9483,121
1607020164.9503,708
1607020164.9523,1437
1607020164.9543,1380
1607020164.9563,135
1607020164.9583,-741
1607020164.9602,-299
1607020164.9623,111
1607020164.9643,-87
1607020164.9663,-123
1607020164.9684,14
1607020164.9703,-14
1607020164.9724,-38
1607020164.9744,21
1607020164.9763,35
1607020164.9769,26
1607020164.9783,45
1607020164.9803,66
1607020164.9822,76
1607020164.9844,92
1607020164.9863,109
1607020164.9883,123
1607020164.9902,140
1607020164.9922,159
1607020164.9943,180
1607020164.9962,204
1607020164.9983,228
1607020165.0004,251
1607020165.0024,275
1607020165.0043,299
1607020165.0063,316
1607020165.0070,330
1607020165.0083,337
1607020165.0103,335
1607020165.0123,313
1607020165.0143,275
1607020165.0163,220
1607020165.0184,149
1607020165.0203,64
1607020165.0222,-19
1607020165.0244,-90
1607020165.0263,-144
1607020165.0283,-178
1607020165.0302,-190
1607020165.0323,-192
1607020165.0343,-190
1607020165.0363,-185
1607020165.0369,-175
1607020165.0383,-166
1607020165.0403,-154
1607020165.0423,-144
1607020165.0442,-133
1607020165.0462,-125
1607020165.0483,-118
1607020165.0504,-111
1607020165.0523,-102
1607020165.5463,-95
1607020165.5475,-87
1607020165.5499,-80
1607020165.5526,-76
1607020165.5546,-71
1607020165.5566,-73
1607020165.5588,-73
1607020165.5594,-66
1607020165.5606,-61
1607020165.5626,-64
1607020165.5646,-59
1607020165.5666,-54
1607020165.5686,-52
1607020165.5705,-52
1607020165.5725,-49
1607020165.5745,-45
1607020165.5765,-42
1607020165.5785,-42
1607020165.5805,-40
1607020165.5826,-35
1607020165.5846,-35
1607020165.5865,-38
1607020165.5885,-33
1607020165.5892,-26
1607020165.5905,-23
1607020165.5925,-23
1607020165.5945,-23
1607020165.5965,-21
1607020165.5985,-16
1607020165.6006,-16
1607020165.6025,-11
1607020165.6045,-9
1607020165.6065,-9
1607020165.6085,-11
1607020165.6105,-9
1607020165.6126,-9
1607020165.6146,-11
1607020165.6166,-14
1607020165.6185,-9
1607020165.6191,7
1607020165.6206,35
1607020165.6225,61
1607020165.6245,66
1607020165.6265,57
1607020165.6285,40
1607020165.6305,19
1607020165.6325,0
1607020165.6346,-4
1607020165.6365,-2
1607020165.6385,-2
1607020165.6405,-4
1607020165.6425,-4
1607020165.6445,-2
1607020165.6465,2
1607020165.6485,2
1607020165.6492,-30
1607020165.6505,-102
1607020165.6525,-114
1607020165.6545,99
1607020165.6565,617
1607020165.6585,1278
1607020165.6605,1297
1607020165.6625,199
1607020165.6645,-705
1607020165.6666,-361
1607020165.6686,99
1607020165.6705,-38
1607020165.6725,-102
1607020165.6745,21
1607020165.6765,11
1607020165.6785,-16
1607020165.6791,33
1607020165.6805,49
1607020166.0860,40
1607020166.0867,64
1607020166.0891,83
1607020166.0918,85
1607020166.0937,97
1607020166.0957,116
1607020166.0979,125
1607020166.0997,140
1607020166.1018,154
1607020166.1038,168
1607020166.1057,185
1607020166.1064,204
1607020166.1078,225
1607020166.1099,251
1607020166.1118,268
1607020166.1137,278
1607020166.1157,294
1607020166.1178,306
1607020166.1197,304
1607020166.1217,292
1607020166.1237,263
1607020166.1257,213
1607020166.1279,144
1607020166.1297,66
1607020166.1317,-14
1607020166.1338,-85
1607020166.1343,-135
1607020166.1357,-163
1607020166.1377,-180
1607020166.1397,-185
1607020166.1417,-182
1607020166.1437,-175
1607020166.1457,-168
1607020166.1477,-156
1607020166.1497,-144
1607020166.1518,-133
1607020166.1537,-123
1607020166.1557,-116
1607020166.1577,-111
1607020166.1597,-106
1607020166.1617,-102
1607020166.1637,-95
1607020166.1644,-90
1607020166.1657,-85
1607020166.1678,-76
1607020166.1697,-68
1607020166.1717,-64
1607020166.1737,-61
1607020166.1757,-54
1607020166.1777,-52
1607020166.1797,-54
1607020166.1817,-52
1607020166.1837,-45
1607020166.1857,-45
1607020166.1877,-42
1607020166.1897,-40
1607020166.1917,-40
1607020166.1937,-33
1607020166.1943,-26
1607020166.1957,-26
1607020166.1977,-28
1607020166.1997,-28
1607020166.2017,-26
1607020166.2037,-23
1607020166.2059,-19
1607020166.2078,-16
1607020166.2097,-14
1607020166.2117,-11
1607020166.2137,-9
1607020166.2158,-7
1607020166.2178,-9
1607020166.2197,-11
1607020166.2217,-14
1607020166.6262,-19
1607020166.6271,-16
1607020166.6295,-2
1607020166.6324,23
1607020166.6342,52
1607020166.6363,66
1607020166.6381,61
1607020166.6401,40
1607020166.6422,11
1607020166.6441,-2
1607020166.6461,-4
1607020166.6481,-7
1607020166.6502,-14
1607020166.6523,-16
1607020166.6541,-9
1607020166.6562,-4
1607020166.6582,-2
1607020166.6588,-2
1607020166.6601,-21
1607020166.6622,-80
1607020166.6642,-116
1607020166.6661,38
1607020166.6681,487
1607020166.6702,1135
1607020166.6721,1404
1607020166.6741,537
1607020166.6761,-686
1607020166.6781,-677
1607020166.6801,-7
1607020166.6821,57
1607020166.6842,-97
1607020166.6861,-4
1607020166.6881,45
1607020166.6887,2
1607020166.6901,26
1607020166.6921,54
1607020166.6941,49
1607020166.6961,68
1607020166.6981,97
1607020166.7001,102
1607020166.7021,106
1607020166.7041,128
1607020166.7062,149
1607020166.7082,166
1607020166.7101,180
1607020166.7113,197
1607020166.7130,218
1607020166.7150,242
1607020166.7158,266
1607020166.7171,287
1607020166.7190,308
1607020166.7210,327
1607020166.7231,344
1607020166.7250,356
1607020166.7270,356
1607020166.7291,342
1607020166.7311,308
1607020166.7331,268
1607020166.7351,206
1607020166.7370,114
1607020166.7391,23
1607020166.7410,-49
1607020166.7430,-111
1607020166.7450,-149
1607020166.7457,-173
1607020166.7470,-187
1607020166.7491,-187
1607020166.7512,-178
1607020166.7531,-163
1607020166.7550,-149
1607020166.7570,-140
1607020166.7591,-135
1607020166.7610,-123
1607020167.1663,-116
1607020167.1673,-104
1607020167.1697,-95
1607020167.1724,-92
1607020167.1743,-87
1607020167.1750,-83
1607020167.1763,-78
1607020167.1783,-76
1607020167.1803,-80
1607020167.1824,-87
1607020167.1843,-78
1607020167.1863,-66
1607020167.1883,-71
1607020167.1903,-76
1607020167.1923,-68
1607020167.1943,-61
1607020167.1963,-61
1607020167.1983,-59
1607020167.2003,-54
1607020167.2023,-52
1607020167.2044,-47
1607020167.2048,-42
1607020167.2063,-47
1607020167.2083,-59
1607020167.2102,-57
1607020167.2122,-47
1607020167.2142,-52
1607020167.2163,-57
1607020167.2183,-47
1607020167.2203,-38
1607020167.2223,-23
1607020167.2243,4
1607020167.2262,33
1607020167.2282,42
1607020167.2302,38
1607020167.2322,14
1607020167.2343,-11
1607020167.2348,-19
1607020167.2362,-9
1607020167.2383,-9
1607020167.2402,-21
1607020167.2422,-16
1607020167.2442,-4
1607020167.2463,-4
1607020167.2482,-4
1607020167.2503,0
1607020167.2523,-19
1607020167.2542,-92
1607020167.2562,-109
1607020167.2582,130
1607020167.2602,684
1607020167.2622,1314
1607020167.2642,1306
1607020167.2648,163
1607020167.2662,-902
1607020167.2683,-617
1607020167.2702,2
1607020167.2722,2
1607020167.2742,-66
1607020167.2762,35
1607020167.2782,47
1607020167.2802,19
1607020167.2822,52
1607020167.2843,76
1607020167.2862,73
1607020167.2883,87
1607020167.2902,104
1607020167.2922,114
1607020167.2942,133
1607020167.2948,156
1607020167.2962,166
1607020167.2984,173
1607020167.3003,190
1607020167.7659,216
1607020167.7668,240
1607020167.7692,261
1607020167.7720,282
1607020167.7739,306
1607020167.7759,325
1607020167.7779,335
1607020167.7799,339
1607020167.7819,344
1607020167.7840,337
1607020167.7859,318
1607020167.7866,285
1607020167.7879,235
1607020167.7898,154
1607020167.7918,61
1607020167.7938,-23
1607020167.7958,-95
1607020167.7979,-142
1607020167.7999,-171
1607020167.8019,-185
1607020167.8038,-185
1607020167.8058,-178
1607020167.8079,-171
1607020167.8098,-159
1607020167.8118,-149
1607020167.8138,-142
1607020167.8158,-133
1607020167.8164,-116
1607020167.8179,-102
1607020167.8198,-99
1607020167.8218,-99
1607020167.8238,-85
1607020167.8258,-73
1607020167.8278,-71
1607020167.8298,-68
1607020167.8318,-66
1607020167.8339,-66
1607020167.8358,-66
1607020167.8379,-61
1607020167.8398,-57
1607020167.8418,-49
1607020167.8438,-47
1607020167.8458,-49
1607020167.8464,-49
1607020167.8478,-42
1607020167.8499,-40
1607020167.8518,-40
1607020167.8538,-40
1607020167.8558,-40
1607020167.8580,-38
1607020167.8598,-38
1607020167.8618,-42
1607020167.8638,-40
1607020167.8657,-30
1607020167.8679,-9
1607020167.8698,26
1607020167.8718,47
1607020167.8738,45
1607020167.8758,28
1607020167.8764,4
1607020167.8778,-14
1607020167.8798,-21
1607020167.8818,-19
1607020167.8839,-19
1607020167.8858,-19
1607020167.8878,-23
1607020167.8898,-21
1607020167.8918,-11
1607020167.8938,-9
1607020167.8958,-16
1607020167.8978,-52
1607020167.8998,-128
1607020167.9018,-125
1607020168.2759,147
1607020168.2767,765
1607020168.2790,1440
1607020168.2817,1278
1607020168.2838,-2
1607020168.2857,-834
1607020168.2878,-361
1607020168.2897,78
1607020168.2917,-73
1607020168.2937,-104
1607020168.2958,14
1607020168.2978,-9
1607020168.2998,-35
1607020168.3017,16
1607020168.3038,33
1607020168.3057,26
1607020168.3063,49
1607020168.3077,71
1607020168.3098,78
1607020168.3117,92
1607020168.3137,118
1607020168.3158,140
1607020168.3178,147
1607020168.3197,154
1607020168.3218,178
1607020168.3237,209
1607020168.3257,235
1607020168.3279,256
1607020168.3297,278
1607020168.3316,301
1607020168.3337,318
1607020168.3357,323
1607020168.3363,323
1607020168.3377,316
1607020168.3396,292
1607020168.3416,249
1607020168.3436,190
1607020168.3456,109
1607020168.3477,21
1607020168.3497,-59
1607020168.3518,-114
1607020168.3536,-147
1607020168.3556,-168
1607020168.3577,-178
1607020168.3597,-175
1607020168.3616,-168
1607020168.3636,-163
1607020168.3657,-154
1607020168.3663,-140
1607020168.3678,-128
1607020168.3697,-121
1607020168.3717,-111
1607020168.3736,-104
1607020168.3756,-97
1607020168.3777,-90
1607020168.3796,-83
1607020168.3816,-76
1607020168.3837,-73
1607020168.3857,-71
1607020168.3877,-66
1607020168.3896,-59
1607020168.3916,-57
1607020168.3936,-57
1607020168.3957,-54
1607020168.3963,-52
1607020168.3977,-47
1607020168.3997,-45
1607020168.4017,-42
1607020168.4036,-42
1607020168.4056,-42
1607020168.4077,-42
1607020168.4096,-40
1607020168.4116,-40
1607020168.8760,-47
1607020168.8769,-52
1607020168.8786,-49
1607020168.8805,-40
1607020168.8825,-26
1607020168.8835,2
1607020168.8845,26
1607020168.8865,33
1607020168.8885,23
1607020168.8905,0
1607020168.8925,-23
1607020168.8945,-28
1607020168.8965,-21
1607020168.8985,-21
1607020168.9005,-21
1607020168.9026,-16
1607020168.9044,-16
1607020168.9064,-14
1607020168.9085,-9
1607020168.9104,-21
1607020168.9124,-87
1607020168.9130,-154
1607020168.9144,-64
1607020168.9165,332
1607020168.9185,1026
1607020168.9205,1499
1607020168.9224,836
1607020168.9244,-453
1607020168.9264,-658
1607020168.9284,-45
1607020168.9304,45
1607020168.9324,-140
1607020168.9345,-54
1607020168.9364,11
1607020168.9385,-38
1607020168.9404,-16
1607020168.9424,26
1607020168.9430,19
1607020168.9444,28
1607020168.9464,52
1607020168.9484,61
1607020168.9505,73
1607020168.9524,92
1607020168.9544,106
1607020168.9564,121
1607020168.9584,142
1607020168.9605,161
1607020168.9624,180
1607020168.9644,204
1607020168.9665,228
1607020168.9685,249
1607020168.9704,270
1607020168.9724,285
1607020168.9730,297
1607020168.9744,304
1607020168.9764,301
1607020168.9787,287
1607020168.9804,261
1607020168.9824,216
1607020168.9845,147
1607020168.9864,66
1607020168.9884,-14
1607020168.9904,-80
1607020168.9924,-128
1607020168.9944,-156
1607020168.9964,-171
1607020168.9984,-180
1607020169.0005,-180
1607020169.0010,-171
1607020169.0025,-159
1607020169.0044,-149
1607020169.0064,-137
1607020169.0084,-128
1607020169.4162,-116
1607020169.4172,-109
1607020169.4197,-104
1607020169.4223,-97
1607020169.4243,-87
1607020169.4262,-80
1607020169.4283,-78
1607020169.4302,-73
1607020169.4323,-66
1607020169.4343,-68
1607020169.4350,-76
1607020169.4363,-71
1607020169.4383,-64
1607020169.4402,-64
1607020169.4422,-64
1607020169.4442,-57
1607020169.4462,-57
1607020169.4482,-57
1607020169.4503,-52
1607020169.4523,-49
1607020169.4542,-52
1607020169.4562,-49
1607020169.4582,-42
1607020169.4602,-35
1607020169.4621,-35
1607020169.4642,-38
1607020169.4648,-40
1607020169.4662,-35
1607020169.4682,-33
1607020169.4702,-33
1607020169.4721,-26
1607020169.4741,-11
1607020169.4762,19
1607020169.4782,47
1607020169.4803,54
1607020169.4822,42
1607020169.4842,30
1607020169.4861,14
1607020169.4881,-2
1607020169.4901,-9
1607020169.4921,-7
1607020169.4941,-4
1607020169.4947,0
1607020169.4961,2
1607020169.4982,0
1607020169.5002,2
1607020169.5022,4
1607020169.5041,-23
1607020169.5061,-99
1607020169.5082,-118
1607020169.5101,95
1607020169.5121,636
1607020169.5141,1318
1607020169.5162,1330
1607020169.5182,173
1607020169.5201,-793
1607020169.5221,-432
1607020169.5241,90
1607020169.5247,-35
1607020169.5261,-114
1607020169.5282,11
1607020169.5301,7
1607020169.5321,-23
1607020169.5342,28
1607020169.5361,49
1607020169.5382,33
1607020169.5401,54
1607020169.5421,87
1607020169.5442,95
1607020169.5461,102
1607020169.5481,118
1607020169.5502,137
1607020169.5522,147
1607020169.9864,154
1607020169.9877,173
1607020169.9901,201
1607020169.9927,225
1607020169.9947,249
1607020169.9967,268
1607020169.9988,282
1607020170.0008,287
1607020170.0027,299
1607020170.0047,308
1607020170.0067,294
1607020170.0087,275
1607020170.0110,254
1607020170.0127,206
1607020170.0147,130
1607020170.0156,42
1607020170.0167,-40
1607020170.0188,-99
1607020170.0207,-137
1607020170.0228,-166
1607020170.0247,-178
1607020170.0267,-178
1607020170.0287,-178
1607020170.0307,-166
1607020170.0327,-147
1607020170.0348,-135
1607020170.0367,-125
1607020170.0387,-118
1607020170.0406,-114
1607020170.0426,-106
1607020170.0446,-95
1607020170.0452,-80
1607020170.0467,-78
1607020170.0487,-78
1607020170.0507,-66
1607020170.0527,-57
1607020170.0546,-64
1607020170.0566,-66
1607020170.0586,-61
1607020170.0606,-59
1607020170.0626,-54
1607020170.0646,-47
1607020170.0667,-49
1607020170.0687,-54
1607020170.0706,-47
1607020170.0726,-38
1607020170.0746,-38
1607020170.0752,-40
1607020170.0766,-35
1607020170.0787,-33
1607020170.0806,-35
1607020170.0827,-33
1607020170.0847,-28
1607020170.0866,-23
1607020170.0887,-28
1607020170.0906,-28
1607020170.0926,-21
1607020170.0946,-11
1607020170.0966,-9
1607020170.0986,-14
1607020170.1007,-16
1607020170.1026,-7
1607020170.1046,-9
1607020170.1054,-16
1607020170.1067,-9
1607020170.1086,-11
1607020170.1106,-16
1607020170.1126,-9
1607020170.1146,9
1607020170.1167,35
1607020170.1187,61
1607020170.1206,71
1607020170.1226,54
1607020170.5561,30
1607020170.5570,11
1607020170.5595,7
1607020170.5621,4
1607020170.5641,0
1607020170.5661,-2
1607020170.5667,4
1607020170.5682,4
1607020170.5701,0
1607020170.5721,2
1607020170.5741,-2
1607020170.5761,-49
1607020170.5781,-118
1607020170.5800,-57
1607020170.5820,297
1607020170.5841,936
1607020170.5860,1461
1607020170.5881,995
1607020170.5900,-358
1607020170.5920,-895
1607020170.5940,-273
1607020170.5960,73
1607020170.5966,-68
1607020170.5981,-45
1607020170.6001,47
1607020170.6021,11
1607020170.6040,9
1607020170.6061,59
1607020170.6081,64
1607020170.6100,57
1607020170.6120,80
1607020170.6140,102
1607020170.6161,111
1607020170.6181,118
1607020170.6200,128
1607020170.6220,142
1607020170.6240,166
1607020170.6260,185
1607020170.6266,192
1607020170.6281,206
1607020170.6300,237
1607020170.6322,263
1607020170.6341,278
1607020170.6360,292
1607020170.6380,304
1607020170.6400,311
1607020170.6420,313
1607020170.6440,301
1607020170.6460,282
1607020170.6480,251
1607020170.6501,192
1607020170.6520,109
1607020170.6540,28
1607020170.6561,-45
1607020170.6566,-102
1607020170.6580,-144
1607020170.6600,-168
1607020170.6620,-175
1607020170.6640,-173
1607020170.6661,-171
1607020170.6681,-163
1607020170.6700,-149
1607020170.6720,-140
1607020170.6740,-130
1607020170.6760,-121
1607020170.6780,-116
1607020170.6800,-109
1607020170.6820,-104
1607020170.6841,-97
1607020170.6860,-90
1607020170.6866,-83
1607020170.6880,-78
1607020170.6900,-76
1607020171.0960,-73
1607020171.0970,-68
1607020171.0994,-64
1607020171.1022,-59
1607020171.1041,-59
1607020171.1062,-68
1607020171.1081,-71
1607020171.1100,-64
1607020171.1120,-64
1607020171.1140,-71
1607020171.1146,-68
1607020171.1160,-61
1607020171.1181,-57
1607020171.1200,-54
1607020171.1220,-49
1607020171.1240,-47
1607020171.1260,-45
1607020171.1280,-40
1607020171.1300,-38
1607020171.1323,-35
1607020171.1340,-33
1607020171.1360,-28
1607020171.1380,-26
1607020171.1400,-26
1607020171.1420,-28
1607020171.1440,-28
1607020171.1446,-21
1607020171.1460,-19
1607020171.1480,-16
1607020171.1499,-19
1607020171.1519,-14
1607020171.1539,-9
1607020171.1560,-9
1607020171.1580,-9
1607020171.1599,-7
1607020171.1619,-9
1607020171.1639,-11
1607020171.1659,-19
1607020171.1680,-16
1607020171.1699,-7
1607020171.1719,14
1607020171.1739,42
1607020171.1746,61
1607020171.1759,57
1607020171.1780,42
1607020171.1799,26
1607020171.1819,9
1607020171.1839,0
1607020171.1859,-4
1607020171.1880,-2
1607020171.1899,0
1607020171.1919,2
1607020171.1939,0
1607020171.1959,2
1607020171.1980,7
1607020171.2000,-2
1607020171.2019,-59
1607020171.2039,-137
1607020171.2046,-92
1607020171.2060,237
1607020171.2080,907
1607020171.2099,1530
1607020171.2119,1109
1607020171.2139,-232
1607020171.2160,-717
1607020171.2180,-135
1607020171.2199,76
1607020171.2219,-125
1607020171.2239,-76
1607020171.2259,23
1607020171.2281,-23
1607020171.2300,-23
1607020171.2319,26
1607020171.6355,28
1607020171.6365,30
1607020171.6388,54
1607020171.6406,66
1607020171.6425,76
1607020171.6445,92
1607020171.6466,106
1607020171.6486,114
1607020171.6506,133
1607020171.6526,156
1607020171.6546,173
1607020171.6566,192
1607020171.6586,218
1607020171.6607,242
1607020171.6626,261
1607020171.6631,278
1607020171.6645,289
1607020171.6666,297
1607020171.6686,299
1607020171.6705,292
1607020171.6725,278
1607020171.6745,242
1607020171.6765,185
1607020171.6785,111
1607020171.6805,33
1607020171.6824,-40
1607020171.6846,-97
1607020171.6865,-137
1607020171.6885,-163
1607020171.6904,-180
1607020171.6924,-185
1607020171.6931,-178
1607020171.6945,-166
1607020171.6965,-159
1607020171.6985,-152
1607020171.7005,-140
1607020171.7025,-125
1607020171.7044,-118
1607020171.7064,-111
1607020171.7085,-102
1607020171.7104,-95
1607020171.7124,-90
1607020171.7146,-85
1607020171.7165,-78
1607020171.7187,-73
1607020171.7205,-68
1607020171.7224,-68
1607020171.7231,-66
1607020171.7246,-64
1607020171.7265,-61
1607020171.7285,-59
1607020171.7304,-57
1607020171.7325,-54
1607020171.7345,-52
1607020171.7365,-52
1607020171.7385,-47
1607020171.7404,-42
1607020171.7424,-42
1607020171.7445,-40
1607020171.7464,-38
1607020171.7485,-33
1607020171.7505,-33
1607020171.7525,-30
1607020171.7531,-26
1607020171.7544,-23
1607020171.7564,-26
1607020171.7585,-26
1607020171.7604,-21
1607020171.7624,-19
1607020171.7644,-21
1607020171.7665,-19
1607020171.7685,-16
1607020171.7704,-14
1607020172.2357,-14
1607020172.2366,-11
1607020172.2392,-9
1607020172.2418,-14
1607020172.2424,-21
1607020172.2437,-16
1607020172.2457,-14
1607020172.2477,-16
1607020172.2497,-16
1607020172.2517,-11
1607020172.2537,-11
1607020172.2557,-11
1607020172.2578,-9
1607020172.2597,-11
1607020172.2616,-14
1607020172.2636,-16
1607020172.2656,-21
1607020172.2677,-16
1607020172.2696,-4
1607020172.2717,16
1607020172.2723,42
1607020172.2736,54
1607020172.2756,42
1607020172.2777,28
1607020172.2796,16
1607020172.2816,2
1607020172.2838,-9
1607020172.2857,-9
1607020172.2877,-4
1607020172.2896,-4
1607020172.2916,-2
1607020172.2936,0
1607020172.2956,2
1607020172.2977,4
1607020172.2996,-14
1607020172.3016,-78
1607020172.3022,-135
1607020172.3036,-33
1607020172.3056,346
1607020172.3077,1017
1607020172.3096,1463
1607020172.3116,779
1607020172.3136,-441
1607020172.3156,-567
1607020172.3177,9
1607020172.3196,40
1607020172.3216,-128
1607020172.3236,-28
1607020172.3256,23
1607020172.3277,-23
1607020172.3296,2
1607020172.3316,40
1607020172.3323,35
1607020172.3336,45
1607020172.3356,66
1607020172.3377,73
1607020172.3396,85
1607020172.3416,106
1607020172.3436,121
1607020172.3456,135
1607020172.3477,154
1607020172.3496,175
1607020172.3516,192
1607020172.3536,209
1607020172.3556,230
1607020172.3577,254
1607020172.3596,273
1607020172.3616,289
1607020172.3622,301
1607020172.3636,311
1607020172.3656,311
1607020172.3677,301
1607020172.3696,285
1607020172.8057,251
1607020172.8067,190
1607020172.8092,116
1607020172.8118,42
1607020172.8140,-26
1607020172.8158,-85
1607020172.8177,-125
1607020172.8197,-149
1607020172.8218,-166
1607020172.8238,-173
1607020172.8245,-166
1607020172.8257,-154
1607020172.8278,-147
1607020172.8297,-142
1607020172.8318,-137
1607020172.8337,-135
1607020172.8357,-128
1607020172.8378,-116
1607020172.8397,-106
1607020172.8417,-99
1607020172.8437,-90
1607020172.8457,-87
1607020172.8477,-85
1607020172.8496,-76
1607020172.8516,-68
1607020172.8537,-68
1607020172.8543,-66
1607020172.8556,-59
1607020172.8577,-57
1607020172.8597,-54
1607020172.8617,-52
1607020172.8636,-54
1607020172.8657,-54
1607020172.8677,-49
1607020172.8696,-45
1607020172.8717,-42
1607020172.8736,-45
1607020172.8756,-42
1607020172.8777,-40
1607020172.8796,-40
1607020172.8817,-40
1607020172.8822,-35
1607020172.8837,-30
1607020172.8856,-33
1607020172.8877,-33
1607020172.8896,-28
1607020172.8916,-21
1607020172.8936,-19
1607020172.8956,-19
1607020172.8977,-16
1607020172.8996,-9
1607020172.9016,-9
1607020172.9036,-16
1607020172.9057,-16
1607020172.9076,-4
1607020172.9098,2
1607020172.9117,-2
1607020172.9123,-7
1607020172.9137,2
1607020172.9156,7
1607020172.9177,0
1607020172.9197,-7
1607020172.9216,-4
1607020172.9236,0
1607020172.9256,0
1607020172.9277,-4
1607020172.9283,0
1607020172.9296,9
1607020172.9316,7
1607020172.9336,0
1607020172.9356,2
1607020172.9377,16
1607020172.9382,47
1607020173.3461,73
1607020173.3470,76
1607020173.3494,64
1607020173.3521,47
1607020173.3540,30
1607020173.3561,23
1607020173.3581,19
1607020173.3600,7
1607020173.3620,4
1607020173.3640,11
1607020173.3660,7
1607020173.3681,0
1607020173.3700,9
1607020173.3706,9
1607020173.3720,-38
1607020173.3740,-104
1607020173.3760,-54
1607020173.3780,259
1607020173.3800,869
1607020173.3820,1444
1607020173.3840,1095
1607020173.3860,-240
1607020173.3880,-869
1607020173.3900,-270
1607020173.3920,104
1607020173.3940,-59
1607020173.3960,-59
1607020173.3980,45
1607020173.4000,16
1607020173.4006,9
1607020173.4020,59
1607020173.4040,68
1607020173.4060,64
1607020173.4082,87
1607020173.4100,106
1607020173.4120,116
1607020173.4139,130
1607020173.4159,142
1607020173.4180,154
1607020173.4199,178
1607020173.4219,201
1607020173.4239,216
1607020173.4259,232
1607020173.4280,251
1607020173.4299,266
1607020173.4305,285
1607020173.4319,316
1607020173.4339,339
1607020173.4360,339
1607020173.4380,337
1607020173.4399,349
1607020173.4419,342
1607020173.4439,299
1607020173.4459,244
1607020173.4480,180
1607020173.4499,87
1607020173.4519,-2
1607020173.4539,-68
1607020173.4559,-118
1607020173.4580,-144
1607020173.4599,-161
1607020173.4605,-175
1607020173.4619,-178
1607020173.4639,-173
1607020173.4660,-159
1607020173.4680,-144
1607020173.4699,-142
1607020173.4719,-137
1607020173.4739,-121
1607020173.4759,-116
1607020173.4780,-114
1607020173.4799,-99
1607020173.4819,-90
1607020173.9163,-92
1607020173.9172,-92
1607020173.9189,-80
1607020173.9213,-80
1607020173.9233,-85
1607020173.9253,-76
1607020173.9273,-66
1607020173.9293,-73
1607020173.9313,-80
1607020173.9333,-76
1607020173.9353,-64
1607020173.9375,-64
1607020173.9393,-66
1607020173.9412,-64
1607020173.9432,-61
1607020173.9452,-61
1607020173.9473,-52
1607020173.9492,-47
1607020173.9498,-47
1607020173.9512,-42
1607020173.9532,-38
1607020173.9552,-35
1607020173.9573,-33
1607020173.9593,-35
1607020173.9612,-33
1607020173.9632,-26
1607020173.9652,-21
1607020173.9673,-19
1607020173.9692,-19
1607020173.9712,-14
1607020173.9732,-9
1607020173.9752,-11
1607020173.9773,-16
1607020173.9791,-16
1607020173.9798,-9
1607020173.9813,-9
1607020173.9832,-14
1607020173.9851,-21
1607020173.9872,-14
1607020173.9892,16
1607020173.9911,54
1607020173.9931,71
1607020173.9952,61
1607020173.9972,42
1607020173.9992,28
1607020174.0012,11
1607020174.0031,0
1607020174.0051,-2
1607020174.0072,0
1607020174.0092,2
1607020174.0099,7
1607020174.0112,9
1607020174.0132,14
1607020174.0151,16
1607020174.0172,2
1607020174.0192,-52
1607020174.0211,-114
1607020174.0231,-33
1607020174.0252,337
1607020174.0272,981
1607020174.0292,1468
1607020174.0312,924
1607020174.0333,-411
1607020174.0352,-824
1607020174.0373,-192
1607020174.0391,76
1607020174.0398,-73
1607020174.0411,-33
1607020174.0431,47
1607020174.0451,9
1607020174.0472,11
1607020174.0492,52
1607020174.0511,54
1607020174.4567,59
1607020174.4576,83
1607020174.4601,92
1607020174.4627,99
1607020174.4647,114
1607020174.4667,128
1607020174.4687,144
1607020174.4706,159
1607020174.4713,168
1607020174.4726,185
1607020174.4746,209
1607020174.4766,230
1607020174.4787,249
1607020174.4806,273
1607020174.4827,299
1607020174.4846,313
1607020174.4866,323
1607020174.4887,320
1607020174.4906,308
1607020174.4926,289
1607020174.4946,254
1607020174.4966,192
1607020174.4986,114
1607020174.5006,26
1607020174.5012,-52
1607020174.5026,-111
1607020174.5046,-154
1607020174.5066,-180
1607020174.5087,-192
1607020174.5107,-197
1607020174.5126,-197
1607020174.5146,-190
1607020174.5166,-180
1607020174.5187,-168
1607020174.5206,-159
1607020174.5226,-152
1607020174.5246,-144
1607020174.5266,-135
1607020174.5286,-123
1607020174.5306,-114
1607020174.5314,-111
1607020174.5327,-104
1607020174.5346,-97
1607020174.5366,-95
1607020174.5386,-90
1607020174.5406,-83
1607020174.5426,-78
1607020174.5446,-76
1607020174.5466,-73
1607020174.5487,-71
1607020174.5506,-66
1607020174.5526,-66
1607020174.5546,-66
1607020174.5566,-64
1607020174.5586,-59
1607020174.5606,-57
1607020174.5612,-52
1607020174.5626,-47
1607020174.5646,-47
1607020174.5666,-49
1607020174.5686,-49
1607020174.5706,-42
1607020174.5726,-35
1607020174.5746,-38
1607020174.5766,-40
1607020174.5786,-35
1607020174.5806,-33
1607020174.5826,-33
1607020174.5846,-30
1607020174.5866,-30
1607020174.5886,-33
1607020174.5906,-35
1607020174.5912,-30
1607020174.9958,-19
1607020174.9965,4
1607020174.9989,38
1607020175.0016,57
1607020175.0036,45
1607020175.0056,26
1607020175.0076,9
1607020175.0096,-7
1607020175.0116,-16
1607020175.0136,-19
1607020175.0156,-16
1607020175.0176,-11
1607020175.0196,-9
1607020175.0202,-9
1607020175.0216,-7
1607020175.0236,-4
1607020175.0256,-21
1607020175.0276,-80
1607020175.0299,-140
1607020175.0316,-47
1607020175.0335,339
1607020175.0355,1019
1607020175.0376,1485
1607020175.0396,824
1607020175.0415,-463
1607020175.0435,-662
1607020175.0456,-40
1607020175.0476,54
1607020175.0495,-125
1607020175.0501,-40
1607020175.0515,28
1607020175.0535,-19
1607020175.0555,2
1607020175.0576,45
1607020175.0595,38
1607020175.0615,47
1607020175.0635,73
1607020175.0655,80
1607020175.0676,90
1607020175.0695,111
1607020175.0715,125
1607020175.0736,137
1607020175.0755,156
1607020175.0776,178
1607020175.0795,197
1607020175.0801,218
1607020175.0815,240
1607020175.0835,263
1607020175.0855,282
1607020175.0875,301
1607020175.0895,318
1607020175.0915,323
1607020175.0935,313
1607020175.0955,299
1607020175.0976,278
1607020175.0995,235
1607020175.1015,173
1607020175.1035,90
1607020175.1055,4
1607020175.1075,-68
1607020175.1095,-125
1607020175.1101,-161
1607020175.1115,-178
1607020175.1135,-185
1607020175.1155,-187
1607020175.1176,-182
1607020175.1195,-173
1607020175.1215,-163
1607020175.1235,-152
1607020175.1257,-142
1607020175.1276,-133
1607020175.1295,-125
1607020175.1315,-118
1607020175.6260,-114
1607020175.6271,-106
1607020175.6287,-106
1607020175.6294,-109
1607020175.6306,-104
1607020175.6326,-92
1607020175.6346,-90
1607020175.6366,-87
1607020175.6386,-83
1607020175.6406,-78
1607020175.6426,-78
1607020175.6446,-73
1607020175.6466,-68
1607020175.6487,-66
1607020175.6506,-66
1607020175.6526,-64
1607020175.6546,-61
1607020175.6566,-59
1607020175.6585,-59
1607020175.6592,-54
1607020175.6605,-52
1607020175.6625,-49
1607020175.6646,-47
1607020175.6666,-42
1607020175.6686,-40
1607020175.6705,-38
1607020175.6725,-40
1607020175.6745,-45
1607020175.6766,-42
1607020175.6786,-35
1607020175.6805,-30
1607020175.6825,-14
1607020175.6845,21
1607020175.6865,49
1607020175.6886,45
1607020175.6968,30
1607020175.6986,19
1607020175.7005,2
1607020175.7026,-14
1607020175.7045,-16
1607020175.7065,-14
1607020175.7085,-11
1607020175.7105,-11
1607020175.7125,-9
1607020175.7145,-7
1607020175.7166,-11
1607020175.7185,-21
1607020175.7207,-61
1607020175.7225,-130
1607020175.7245,-102
1607020175.7251,185
1607020175.7264,777
1607020175.7286,1356
1607020175.7305,1074
1607020175.7325,-152
1607020175.7345,-750
1607020175.7365,-225
1607020175.7385,95
1607020175.7405,-85
1607020175.7425,-80
1607020175.7445,33
1607020175.7466,-2
1607020175.7486,-16
1607020175.7506,35
1607020175.7526,42
1607020175.7545,38
1607020175.7551,64
1607020175.7565,80
1607020175.7586,85
1607020175.7605,99
1607020175.7625,118
1607020175.7645,137
1607020175.7665,154
1607020176.1658,171
1607020176.1667,187
1607020176.1691,206
1607020176.1718,230
1607020176.1738,254
1607020176.1757,275
1607020176.1764,297
1607020176.1779,311
1607020176.1797,313
1607020176.1817,316
1607020176.1837,316
1607020176.1857,299
1607020176.1878,251
1607020176.1897,187
1607020176.1917,114
1607020176.1937,35
1607020176.1957,-42
1607020176.1978,-99
1607020176.1997,-133
1607020176.2017,-154
1607020176.2037,-171
1607020176.2057,-171
1607020176.2063,-159
1607020176.2077,-156
1607020176.2097,-152
1607020176.2119,-137
1607020176.2138,-123
1607020176.2157,-121
1607020176.2178,-114
1607020176.2197,-97
1607020176.2217,-92
1607020176.2237,-90
1607020176.2257,-80
1607020176.2277,-78
1607020176.2297,-78
1607020176.2316,-73
1607020176.2337,-66
1607020176.2357,-64
1607020176.2364,-66
1607020176.2377,-64
1607020176.2396,-57
1607020176.2417,-52
1607020176.2436,-52
1607020176.2456,-54
1607020176.2477,-54
1607020176.2497,-49
1607020176.2516,-45
1607020176.2536,-45
1607020176.2557,-40
1607020176.2577,-38
1607020176.2596,-38
1607020176.2617,-33
1607020176.2637,-28
1607020176.2657,-33
1607020176.2664,-40
1607020176.2677,-40
1607020176.2697,-38
1607020176.2716,-30
1607020176.2737,-23
1607020176.2757,-9
1607020176.2777,14
1607020176.2797,45
1607020176.2817,54
1607020176.2837,40
1607020176.2857,16
1607020176.2877,-4
1607020176.2896,-14
1607020176.2917,-11
1607020176.2937,-9
1607020176.2956,-4
1607020176.2963,-4
1607020176.2977,-11
1607020176.2997,-9
1607020176.7056,2
1607020176.7065,-2
1607020176.7089,-47
1607020176.7119,-114
1607020176.7136,-83
1607020176.7156,209
1607020176.7176,786
1607020176.7196,1363
1607020176.7216,1138
1607020176.7236,-125
1607020176.7256,-914
1607020176.7276,-403
1607020176.7295,83
1607020176.7302,-45
1607020176.7315,-76
1607020176.7335,42
1607020176.7355,28
1607020176.7376,7
1607020176.7395,52
1607020176.7415,64
1607020176.7435,61
1607020176.7455,85
1607020176.7476,104
1607020176.7495,111
1607020176.7515,125
1607020176.7535,140
1607020176.7555,156
1607020176.7576,180
1607020176.7595,194
1607020176.7601,204
1607020176.7615,225
1607020176.7635,244
1607020176.7655,259
1607020176.7675,292
1607020176.7695,320
1607020176.7715,323
1607020176.7735,325
1607020176.7755,337
1607020176.7776,335
1607020176.7795,316
1607020176.7815,280
1607020176.7835,220
1607020176.7855,140
1607020176.7875,57
1607020176.7895,-26
1607020176.7901,-90
1607020176.7915,-133
1607020176.7935,-154
1607020176.7955,-168
1607020176.7975,-173
1607020176.7995,-171
1607020176.8015,-161
1607020176.8035,-144
1607020176.8055,-125
1607020176.8077,-121
1607020176.8096,-118
1607020176.8115,-104
1607020176.8135,-92
1607020176.8154,-85
1607020176.8168,-78
1607020176.8185,-76
1607020176.8191,-76
1607020176.8205,-66
1607020176.8225,-59
1607020176.8245,-59
1607020176.8265,-59
1607020176.8285,-57
1607020176.8305,-54
1607020176.8325,-54
1607020176.8345,-47
1607020176.8365,-40
1607020176.8385,-42
1607020176.8405,-45
1607020177.2760,-40
1607020177.2769,-35
1607020177.2783,-33
1607020177.2803,-35
1607020177.2823,-33
1607020177.2843,-30
1607020177.2863,-35
1607020177.2883,-40
1607020177.2903,-40
1607020177.2923,-38
1607020177.2943,-26
1607020177.2963,7
1607020177.2983,30
1607020177.3003,42
1607020177.3023,35
1607020177.3043,14
1607020177.3063,-2
1607020177.3069,-9
1607020177.3082,-16
1607020177.3102,-19
1607020177.3122,-14
1607020177.3142,-14
1607020177.3162,-16
1607020177.3183,-21
1607020177.3202,-19
1607020177.3223,-11
1607020177.3242,-33
1607020177.3262,-99
1607020177.3283,-142
1607020177.3302,19
1607020177.3322,506
1607020177.3342,1192
1607020177.3364,1440
1607020177.3369,499
1607020177.3383,-758
1607020177.3402,-736
1607020177.3422,-68
1607020177.3442,9
1607020177.3462,-109
1607020177.3482,-16
1607020177.3504,23
1607020177.3523,-11
1607020177.3543,16
1607020177.3563,49
1607020177.3583,45
1607020177.3603,54
1607020177.3623,76
1607020177.3642,85
1607020177.3662,97
1607020177.3668,111
1607020177.3682,133
1607020177.3702,159
1607020177.3722,175
1607020177.3742,187
1607020177.3762,204
1607020177.3783,225
1607020177.3802,249
1607020177.3822,275
1607020177.3842,294
1607020177.3862,311
1607020177.3883,320
1607020177.3902,318
1607020177.3922,311
1607020177.3942,299
1607020177.3962,273
1607020177.3968,223
1607020177.3982,144
1607020177.4002,54
1607020177.4022,-23
1607020177.4042,-85
1607020177.4062,-128
1607020177.4082,-154
1607020177.4102,-173
1607020177.8159,-180
1607020177.8169,-173
1607020177.8193,-161
1607020177.8210,-152
1607020177.8230,-142
1607020177.8250,-130
1607020177.8272,-123
1607020177.8289,-116
1607020177.8295,-114
1607020177.8309,-106
1607020177.8331,-97
1607020177.8349,-92
1607020177.8369,-87
1607020177.8389,-85
1607020177.8409,-80
1607020177.8429,-76
1607020177.8449,-71
1607020177.8469,-76
1607020177.8488,-71
1607020177.8509,-64
1607020177.8528,-61
1607020177.8548,-59
1607020177.8568,-54
1607020177.8589,-54
1607020177.8595,-52
1607020177.8609,-49
1607020177.8629,-45
1607020177.8649,-42
1607020177.8668,-42
1607020177.8688,-40
1607020177.8708,-40
1607020177.8729,-42
1607020177.8749,-42
1607020177.8768,-38
1607020177.8788,-33
1607020177.8808,-14
1607020177.8828,19
1607020177.8848,42
1607020177.8868,47
1607020177.8888,40
1607020177.8894,19
1607020177.8908,-4
1607020177.8928,-11
1607020177.8948,-7
1607020177.8968,-7
1607020177.8988,-9
1607020177.9008,-9
1607020177.9028,-9
1607020177.9048,-7
1607020177.9068,-2
1607020177.9088,-16
1607020177.9108,-78
1607020177.9128,-147
1607020177.9148,-66
1607020177.9168,316
1607020177.9189,1014
1607020177.9194,1525
1607020177.9208,900
1607020177.9229,-430
1607020177.9248,-701
1607020177.9269,-68
1607020177.9290,61
1607020177.9309,-130
1607020177.9328,-52
1607020177.9348,23
1607020177.9368,-28
1607020177.9388,-11
1607020177.9408,35
1607020177.9428,33
1607020177.9448,40
1607020177.9468,61
1607020177.9488,71
1607020177.9494,80
1607020178.3859,97
1607020178.3868,109
1607020178.3893,125
1607020178.3920,142
1607020178.3939,154
1607020178.3959,163
1607020178.3981,187
1607020178.3999,213
1607020178.4019,235
1607020178.4039,251
1607020178.4059,268
1607020178.4081,282
1607020178.4099,289
1607020178.4105,287
1607020178.4119,273
1607020178.4139,247
1607020178.4159,201
1607020178.4179,137
1607020178.4199,61
1607020178.4219,-19
1607020178.4239,-87
1607020178.4259,-135
1607020178.4278,-163
1607020178.4298,-178
1607020178.4318,-182
1607020178.4339,-178
1607020178.4359,-171
1607020178.4379,-161
1607020178.4398,-152
1607020178.4405,-140
1607020178.4418,-128
1607020178.4438,-121
1607020178.4458,-114
1607020178.4479,-104
1607020178.4498,-97
1607020178.4518,-92
1607020178.4538,-85
1607020178.4558,-80
1607020178.4578,-73
1607020178.4600,-71
1607020178.4619,-68
1607020178.4639,-61
1607020178.4658,-57
1607020178.4678,-57
1607020178.4698,-54
1607020178.4704,-49
1607020178.4718,-49
1607020178.4738,-49
1607020178.4758,-47
1607020178.4779,-45
1607020178.4798,-40
1607020178.4819,-38
1607020178.4838,-38
1607020178.4858,-35
1607020178.4879,-30
1607020178.4898,-30
1607020178.4918,-28
1607020178.4938,-28
1607020178.4958,-23
1607020178.4979,-21
1607020178.4998,-23
1607020178.5004,-23
1607020178.5018,-23
1607020178.5038,-26
1607020178.5059,-23
1607020178.5079,-14
1607020178.5098,11
1607020178.5118,45
1607020178.5138,61
1607020178.5158,49
1607020178.5178,33
1607020178.5198,21
1607020178.5218,7
1607020178.9857,-7
1607020178.9867,-14
1607020178.9891,-14
1607020178.9908,-14
1607020178.9927,-11
1607020178.9947,-11
1607020178.9967,-16
1607020178.9987,-14
1607020179.0007,-26
1607020179.0027,-87
1607020179.0047,-152
1607020179.0067,-49
1607020179.0088,351
1607020179.0107,1026
1607020179.0127,1440
1607020179.0147,722
1607020179.0167,-506
1607020179.0174,-617
1607020179.0187,-16
1607020179.0207,38
1607020179.0227,-130
1607020179.0247,-35
1607020179.0267,19
1607020179.0287,-28
1607020179.0307,0
1607020179.0327,38
1607020179.0347,28
1607020179.0367,38
1607020179.0387,59
1607020179.0407,68
1607020179.0427,80
1607020179.0446,102
1607020179.0467,114
1607020179.0472,123
1607020179.0487,142
1607020179.0506,161
1607020179.0527,178
1607020179.0546,199
1607020179.0566,220
1607020179.0587,242
1607020179.0606,261
1607020179.0626,278
1607020179.0646,292
1607020179.0666,299
1607020179.0687,297
1607020179.0706,282
1607020179.0726,261
1607020179.0746,223
1607020179.0766,163
1607020179.0773,85
1607020179.0786,7
1607020179.0806,-59
1607020179.0827,-104
1607020179.0846,-130
1607020179.0866,-149
1607020179.0887,-159
1607020179.0906,-156
1607020179.0926,-149
1607020179.0946,-140
1607020179.0966,-130
1607020179.0987,-123
1607020179.1007,-114
1607020179.1027,-102
1607020179.1046,-95
1607020179.1066,-92
1607020179.1073,-80
1607020179.1087,-73
1607020179.1106,-73
1607020179.1128,-73
1607020179.1147,-68
1607020179.1166,-61
1607020179.1186,-59
1607020179.1206,-54
1607020179.5257,-49
1607020179.5265,-45
1607020179.5289,-45
1607020179.5316,-45
1607020179.5335,-42
1607020179.5355,-38
1607020179.5375,-33
1607020179.5395,-35
1607020179.5402,-33
1607020179.5415,-23
1607020179.5435,-26
1607020179.5455,-38
1607020179.5468,-38
1607020179.5487,-33
1607020179.5505,-30
1607020179.5525,-26
1607020179.5545,-19
1607020179.5565,-19
1607020179.5585,-21
1607020179.5605,-19
1607020179.5625,-9
1607020179.5645,-7
1607020179.5651,-7
1607020179.5665,-4
1607020179.5685,2
1607020179.5705,2
1607020179.5725,2
1607020179.5745,2
1607020179.5765,2
1607020179.5785,4
1607020179.5805,9
1607020179.5825,9
1607020179.5845,4
1607020179.5865,4
1607020179.5885,9
1607020179.5905,23
1607020179.5925,52
1607020179.5945,76
1607020179.5951,80
1607020179.5965,76
1607020179.5986,66
1607020179.6005,47
1607020179.6025,28
1607020179.6045,19
1607020179.6065,19
1607020179.6085,19
1607020179.6106,26
1607020179.6125,23
1607020179.6145,21
1607020179.6165,28
1607020179.6185,35
1607020179.6205,7
1607020179.6225,-68
1607020179.6245,-106
1607020179.6251,54
1607020179.6265,515
1607020179.6285,1173
1607020179.6305,1409
1607020179.6325,484
1607020179.6345,-677
1607020179.6365,-575
1607020179.6385,42
1607020179.6405,30
1607020179.6425,-97
1607020179.6445,16
1607020179.6465,45
1607020179.6486,-7
1607020179.6505,26
1607020179.6525,61
1607020179.6545,57
1607020179.6551,68
1607020179.6565,90
1607020179.6585,102
1607020180.0958,111
1607020180.0965,125
1607020180.0989,140
1607020180.1016,159
1607020180.1035,175
1607020180.1055,194
1607020180.1076,216
1607020180.1095,235
1607020180.1116,247
1607020180.1135,259
1607020180.1155,280
1607020180.1162,292
1607020180.1176,299
1607020180.1195,308
1607020180.1216,316
1607020180.1235,308
1607020180.1255,289
1607020180.1276,249
1607020180.1295,190
1607020180.1315,111
1607020180.1336,28
1607020180.1355,-40
1607020180.1376,-92
1607020180.1395,-128
1607020180.1417,-147
1607020180.1436,-152
1607020180.1455,-147
1607020180.1461,-144
1607020180.1476,-137
1607020180.1495,-121
1607020180.1515,-109
1607020180.1535,-109
1607020180.1555,-104
1607020180.1575,-87
1607020180.1595,-73
1607020180.1615,-73
1607020180.1635,-71
1607020180.1655,-61
1607020180.1676,-54
1607020180.1695,-57
1607020180.1715,-57
1607020180.1735,-49
1607020180.1755,-42
1607020180.1761,-52
1607020180.1775,-57
1607020180.1795,-47
1607020180.1815,-40
1607020180.1835,-42
1607020180.1855,-40
1607020180.1875,-38
1607020180.1895,-40
1607020180.1915,-38
1607020180.1935,-33
1607020180.1955,-35
1607020180.1975,-35
1607020180.1995,-26
1607020180.2015,-21
1607020180.2035,-23
1607020180.2055,-26
1607020180.2061,-28
1607020180.2075,-21
1607020180.2095,-16
1607020180.2115,-14
1607020180.2135,-14
1607020180.2155,-7
1607020180.2175,-2
1607020180.2195,-4
1607020180.2215,-7
1607020180.2235,-7
1607020180.2255,-4
1607020180.2275,-7
1607020180.2295,-4
1607020180.2315,0
1607020180.6353,0
1607020180.6360,-7
1607020180.6386,-9
1607020180.6402,-2
1607020180.6421,2
1607020180.6441,-2
1607020180.6461,-2
1607020180.6481,4
1607020180.6501,-2
1607020180.6521,-14
1607020180.6541,-16
1607020180.6561,-9
1607020180.6581,-7
1607020180.6601,-9
1607020180.6620,9
1607020180.6640,42
1607020180.6660,66
1607020180.6667,68
1607020180.6680,54
1607020180.6700,30
1607020180.6721,4
1607020180.6740,-4
1607020180.6760,7
1607020180.6781,9
1607020180.6800,0
1607020180.6821,0
1607020180.6841,4
1607020180.6861,11
1607020180.6881,16
1607020180.6900,2
1607020180.6920,-49
1607020180.6940,-114
1607020180.6960,-54
1607020180.6966,294
1607020180.6980,936
1607020180.7001,1461
1607020180.7020,990
1607020180.7040,-361
1607020180.7060,-867
1607020180.7080,-240
1607020180.7100,83
1607020180.7120,-68
1607020180.7141,-40
1607020180.7160,47
1607020180.7181,11
1607020180.7200,9
1607020180.7220,57
1607020180.7240,57
1607020180.7260,54
1607020180.7266,78
1607020180.7280,95
1607020180.7300,99
1607020180.7320,114
1607020180.7342,133
1607020180.7361,149
1607020180.7381,163
1607020180.7400,180
1607020180.7420,199
1607020180.7441,223
1607020180.7460,240
1607020180.7481,251
1607020180.7500,278
1607020180.7520,299
1607020180.7540,308
1607020180.7560,313
1607020180.7566,313
1607020180.7580,306
1607020180.7600,289
1607020180.7620,261
1607020180.7640,211
1607020180.7660,140
1607020180.7680,54
1607020180.7700,-23
1607020181.1758,-83
1607020181.1765,-121
1607020181.1790,-149
1607020181.1816,-168
1607020181.1835,-173
1607020181.1855,-168
1607020181.1862,-166
1607020181.1876,-163
1607020181.1895,-152
1607020181.1915,-137
1607020181.1935,-123
1607020181.1955,-116
1607020181.1975,-111
1607020181.1995,-106
1607020181.2015,-97
1607020181.2035,-90
1607020181.2055,-80
1607020181.2076,-76
1607020181.2095,-76
1607020181.2115,-78
1607020181.2135,-73
1607020181.2155,-66
1607020181.2161,-68
1607020181.2176,-73
1607020181.2195,-71
1607020181.2215,-64
1607020181.2235,-64
1607020181.2255,-61
1607020181.2275,-59
1607020181.2295,-57
1607020181.2315,-57
1607020181.2337,-52
1607020181.2356,-45
1607020181.2375,-42
1607020181.2395,-45
1607020181.2415,-45
1607020181.2435,-42
1607020181.2455,-47
1607020181.2461,-47
1607020181.2475,-40
1607020181.2495,-35
1607020181.2515,-38
1607020181.2535,-38
1607020181.2555,-35
1607020181.2575,-33
1607020181.2595,-33
1607020181.2615,-33
1607020181.2635,-30
1607020181.2655,-28
1607020181.2675,-28
1607020181.2695,-26
1607020181.2715,-23
1607020181.2735,-21
1607020181.2755,-23
1607020181.2761,-19
1607020181.2775,-19
1607020181.2795,-23
1607020181.2815,-23
1607020181.2835,-19
1607020181.2855,-19
1607020181.2875,-21
