Time,ECG
1602946694.3071,1005
1602946694.3097,4017
1602946694.3123,7535
1602946694.3148,9128
1602946694.3167,9913
1602946694.3188,11120
1602946694.3208,11927
1602946694.3228,12318
1602946694.3247,12818
1602946694.3267,13236
1602946694.3288,13440
1602946694.3307,13639
1602946694.3327,13848
1602946694.3348,13950
1602946694.3367,14004
1602946694.3387,14077
1602946694.3408,14123
1602946694.3427,14120
1602946694.3448,14111
1602946694.3467,14108
1602946694.3487,14094
1602946694.3507,14028
1602946694.3527,13955
1602946694.3547,13916
1602946694.3568,13846
1602946694.3588,13749
1602946694.3607,13681
1602946694.3627,13622
1602946694.3647,13528
1602946694.3667,13426
1602946694.3686,13346
1602946694.3706,13263
1602946694.3727,13161
1602946694.3747,13054
1602946694.3766,12954
1602946694.3786,12862
1602946694.3806,12767
1602946694.3826,12663
1602946694.3847,12568
1602946694.3866,12471
1602946694.3888,12367
1602946694.3908,12265
1602946694.3927,12167
1602946694.3947,12082
1602946694.3966,11975
1602946694.3986,11859
1602946694.4006,11774
1602946694.4026,11691
1602946694.4047,11587
1602946694.4067,11475
1602946694.4094,11378
1602946694.4107,11293
1602946694.4126,11179
1602946694.4146,11065
1602946694.4166,10967
1602946694.4186,10860
1602946694.4207,10754
1602946694.4228,10666
1602946694.4246,10596
1602946694.4266,10513
1602946694.4286,10401
1602946694.4306,10290
1602946694.4326,10219
1602946694.4346,10273
1602946694.4366,10452
1602946694.4387,10409
1602946694.4406,9816
1602946694.4426,9235
1602946694.4446,9347
1602946694.4466,9619
1602946694.4486,9517
1602946694.4506,9393
1602946694.4526,9376
1602946694.8439,9286
1602946694.8448,9175
1602946694.8463,9111
1602946694.8483,9024
1602946694.8504,8929
1602946694.8523,8869
1602946694.8544,8788
1602946694.8563,8686
1602946694.8583,8626
1602946694.8603,8587
1602946694.8623,8492
1602946694.8644,8363
1602946694.8663,8305
1602946694.8683,8281
1602946694.8703,8196
1602946694.8723,8098
1602946694.8744,8043
1602946694.8763,7992
1602946694.8783,7919
1602946694.8803,7848
1602946694.8823,7792
1602946694.8843,7727
1602946694.8863,7664
1602946694.8882,7608
1602946694.8902,7532
1602946694.8923,7447
1602946694.8943,7372
1602946694.8962,7297
1602946694.8986,7219
1602946694.9003,7124
1602946694.9023,7022
1602946694.9043,6930
1602946694.9062,6840
1602946694.9082,6748
1602946694.9102,6692
1602946694.9122,6651
1602946694.9143,6573
1602946694.9162,6481
1602946694.9183,6417
1602946694.9202,6366
1602946694.9222,6306
1602946694.9243,6243
1602946694.9263,6187
1602946694.9282,6136
1602946694.9302,6080
1602946694.9322,6031
1602946694.9342,5983
1602946694.9363,5927
1602946694.9382,5878
1602946694.9403,5830
1602946694.9422,5771
1602946694.9443,5720
1602946694.9462,5669
1602946694.9483,5604
1602946694.9504,5545
1602946694.9524,5511
1602946694.9544,5472
1602946694.9563,5397
1602946694.9582,5329
1602946694.9603,5290
1602946694.9623,5242
1602946694.9643,5186
1602946694.9662,5128
1602946694.9682,5077
1602946694.9703,5047
1602946694.9723,5004
1602946694.9743,4938
1602946694.9762,4887
1602946694.9783,4848
1602946694.9802,4804
1602946694.9822,4761
1602946694.9843,4710
1602946694.9862,4651
1602946695.4139,4603
1602946695.4149,4569
1602946695.4174,4547
1602946695.4200,4518
1602946695.4220,4464
1602946695.4240,4404
1602946695.4262,4374
1602946695.4279,4343
1602946695.4299,4272
1602946695.4319,4221
1602946695.4339,4192
1602946695.4359,4146
1602946695.4379,4112
1602946695.4399,4098
1602946695.4419,4059
1602946695.4439,3996
1602946695.4459,3957
1602946695.4479,3942
1602946695.4499,3911
1602946695.4519,3859
1602946695.4539,3816
1602946695.4559,3782
1602946695.4579,3753
1602946695.4598,3723
1602946695.4619,3704
1602946695.4638,3685
1602946695.4659,3651
1602946695.4678,3602
1602946695.4698,3546
1602946695.4718,3505
1602946695.4739,3478
1602946695.4758,3430
1602946695.4778,3396
1602946695.4799,3379
1602946695.4819,3345
1602946695.4838,3308
1602946695.4858,3281
1602946695.4878,3257
1602946695.4899,3223
1602946695.4918,3206
1602946695.4938,3315
1602946695.4959,3534
1602946695.4979,3534
1602946695.4998,3029
1602946695.5018,2536
1602946695.5038,2706
1602946695.5065,3031
1602946695.5078,2983
1602946695.5099,2895
1602946695.5118,2934
1602946695.5138,2919
1602946695.5158,2871
1602946695.5178,2861
1602946695.5198,2834
1602946695.5219,2786
1602946695.5238,2759
1602946695.5258,2754
1602946695.5280,2740
1602946695.5299,2701
1602946695.5318,2674
1602946695.5338,2664
1602946695.5358,2657
1602946695.5378,2638
1602946695.5398,2608
1602946695.5418,2582
1602946695.5438,2560
1602946695.5459,2555
1602946695.5478,2548
1602946695.5498,2523
1602946695.5518,2511
1602946695.5538,2511
1602946695.5558,2497
1602946695.5579,2477
1602946695.9840,2455
1602946695.9848,2424
1602946695.9873,2387
1602946695.9899,2358
1602946695.9920,2329
1602946695.9939,2283
1602946695.9959,2247
1602946695.9978,2222
1602946695.9998,2171
1602946696.0018,2106
1602946696.0038,2079
1602946696.0058,2069
1602946696.0078,2030
1602946696.0098,1991
1602946696.0118,1977
1602946696.0138,1967
1602946696.0158,1940
1602946696.0178,1911
1602946696.0198,1906
1602946696.0218,1897
1602946696.0238,1860
1602946696.0258,1846
1602946696.0278,1860
1602946696.0298,1846
1602946696.0318,1814
1602946696.0338,1809
1602946696.0358,1814
1602946696.0378,1797
1602946696.0398,1768
1602946696.0418,1753
1602946696.0438,1741
1602946696.0458,1727
1602946696.0478,1727
1602946696.0499,1712
1602946696.0518,1678
1602946696.0541,1661
1602946696.0558,1656
1602946696.0578,1644
1602946696.0598,1629
1602946696.0618,1608
1602946696.0638,1593
1602946696.0658,1583
1602946696.0678,1564
1602946696.0698,1544
1602946696.0718,1535
1602946696.0738,1530
1602946696.0758,1523
1602946696.0778,1498
1602946696.0798,1479
1602946696.0818,1479
1602946696.0838,1469
1602946696.0857,1450
1602946696.0878,1433
1602946696.0898,1428
1602946696.0918,1421
1602946696.0938,1416
1602946696.0958,1411
1602946696.0978,1389
1602946696.0998,1367
1602946696.1019,1355
1602946696.1039,1345
1602946696.1058,1336
1602946696.1078,1321
1602946696.1098,1297
1602946696.1118,1294
1602946696.1138,1304
1602946696.1158,1292
1602946696.1178,1275
1602946696.1198,1275
1602946696.1218,1275
1602946696.1238,1248
1602946696.1258,1214
1602946696.1278,1217
1602946696.5540,1236
1602946696.5548,1221
1602946696.5572,1187
1602946696.5599,1180
1602946696.5619,1200
1602946696.5640,1200
1602946696.5658,1175
1602946696.5678,1166
1602946696.5698,1161
1602946696.5718,1132
1602946696.5738,1110
1602946696.5758,1115
1602946696.5778,1105
1602946696.5800,1056
1602946696.5818,1029
1602946696.5838,1056
1602946696.5858,1071
1602946696.5878,1037
1602946696.5898,1020
1602946696.5918,1029
1602946696.5938,1012
1602946696.5958,1034
1602946696.5978,1217
1602946696.5998,1462
1602946696.6018,1355
1602946696.6038,777
1602946696.6058,456
1602946696.6078,782
1602946696.6098,1032
1602946696.6118,930
1602946696.6138,925
1602946696.6158,1003
1602946696.6178,971
1602946696.6198,937
1602946696.6218,961
1602946696.6238,952
1602946696.6258,918
1602946696.6278,925
1602946696.6298,927
1602946696.6318,898
1602946696.6338,898
1602946696.6358,920
1602946696.6378,906
1602946696.6398,893
1602946696.6418,906
1602946696.6438,908
1602946696.6458,901
1602946696.6478,891
1602946696.6498,898
1602946696.6518,920
1602946696.6538,915
1602946696.6557,891
1602946696.6578,906
1602946696.6598,932
1602946696.6618,908
1602946696.6638,884
1602946696.6658,889
1602946696.6678,872
1602946696.6698,852
1602946696.6718,847
1602946696.6738,830
1602946696.6758,806
1602946696.6778,774
1602946696.6798,738
1602946696.6819,723
1602946696.6840,711
1602946696.6858,677
1602946696.6878,655
1602946696.6898,658
1602946696.6918,653
1602946696.6938,641
1602946696.6958,648
1602946696.6978,646
1602946697.0639,629
1602946697.0648,624
1602946697.0672,636
1602946697.0698,646
1602946697.0718,643
1602946697.0738,634
1602946697.0758,631
1602946697.0778,629
1602946697.0798,621
1602946697.0818,624
1602946697.0838,617
1602946697.0857,592
1602946697.0877,583
1602946697.0898,587
1602946697.0918,604
1602946697.0937,609
1602946697.0957,592
1602946697.0977,583
1602946697.0997,585
1602946697.1017,583
1602946697.1037,575
1602946697.1057,578
1602946697.1077,585
1602946697.1097,573
1602946697.1117,566
1602946697.1137,566
1602946697.1158,558
1602946697.1178,558
1602946697.1197,558
1602946697.1217,534
1602946697.1237,522
1602946697.1257,548
1602946697.1278,563
1602946697.1298,544
1602946697.1318,522
1602946697.1338,534
1602946697.1357,553
1602946697.1378,544
1602946697.1398,524
1602946697.1418,514
1602946697.1438,514
1602946697.1457,524
1602946697.1479,527
1602946697.1498,517
1602946697.1518,512
1602946697.1538,527
1602946697.1558,534
1602946697.1578,507
1602946697.1597,488
1602946697.1617,493
1602946697.1638,522
1602946697.1657,531
1602946697.1677,502
1602946697.1698,490
1602946697.1717,495
1602946697.1737,488
1602946697.1757,480
1602946697.1777,485
1602946697.1798,493
1602946697.1818,490
1602946697.1837,483
1602946697.1858,493
1602946697.1878,512
1602946697.1898,512
1602946697.1917,488
1602946697.1938,468
1602946697.1957,476
1602946697.1977,471
1602946697.1998,449
1602946697.2017,451
1602946697.2038,459
1602946697.2057,439
1602946697.2078,425
1602946697.6642,429
1602946697.6651,446
1602946697.6676,449
1602946697.6702,422
1602946697.6722,437
1602946697.6742,612
1602946697.6763,864
1602946697.6781,774
1602946697.6801,208
1602946697.6822,-106
1602946697.6842,201
1602946697.6861,446
1602946697.6881,381
1602946697.6901,381
1602946697.6921,432
1602946697.6941,398
1602946697.6961,395
1602946697.6981,442
1602946697.7001,425
1602946697.7021,400
1602946697.7042,415
1602946697.7061,415
1602946697.7081,405
1602946697.7101,408
1602946697.7121,415
1602946697.7142,420
1602946697.7161,405
1602946697.7181,395
1602946697.7201,410
1602946697.7221,417
1602946697.7242,415
1602946697.7261,425
1602946697.7281,439
1602946697.7301,451
1602946697.7321,451
1602946697.7342,451
1602946697.7361,454
1602946697.7381,466
1602946697.7401,476
1602946697.7421,461
1602946697.7441,449
1602946697.7461,449
1602946697.7481,434
1602946697.7501,417
1602946697.7521,400
1602946697.7541,374
1602946697.7561,342
1602946697.7581,315
1602946697.7601,291
1602946697.7621,284
1602946697.7642,293
1602946697.7661,284
1602946697.7681,262
1602946697.7701,269
1602946697.7722,279
1602946697.7742,269
1602946697.7761,262
1602946697.7781,262
1602946697.7801,269
1602946697.7821,284
1602946697.7841,284
1602946697.7861,291
1602946697.7881,301
1602946697.7901,291
1602946697.7921,279
1602946697.7941,276
1602946697.7961,289
1602946697.7981,301
1602946697.8001,296
1602946697.8021,281
1602946697.8041,281
1602946697.8063,293
1602946697.8081,293
1602946698.2332,267
1602946698.2341,262
1602946698.2366,281
1602946698.2391,284
1602946698.2412,269
1602946698.2432,269
1602946698.2451,279
1602946698.2471,272
1602946698.2491,255
1602946698.2511,247
1602946698.2531,242
1602946698.2551,233
1602946698.2570,233
1602946698.2591,238
1602946698.2611,238
1602946698.2631,240
1602946698.2651,252
1602946698.2671,252
1602946698.2690,242
1602946698.2711,247
1602946698.2731,242
1602946698.2750,230
1602946698.2771,228
1602946698.2791,228
1602946698.2811,255
1602946698.2830,269
1602946698.2851,238
1602946698.2871,233
1602946698.2891,250
1602946698.2911,228
1602946698.2931,223
1602946698.2952,267
1602946698.2971,267
1602946698.2990,228
1602946698.3011,216
1602946698.3030,223
1602946698.3050,230
1602946698.3071,247
1602946698.3090,272
1602946698.3111,274
1602946698.3131,257
1602946698.3151,242
1602946698.3171,242
1602946698.3191,240
1602946698.3211,225
1602946698.3231,216
1602946698.3251,208
1602946698.3270,206
1602946698.3291,213
1602946698.3312,216
1602946698.3331,213
1602946698.3351,213
1602946698.3371,208
1602946698.3391,230
1602946698.3411,386
1602946698.3431,660
1602946698.3451,697
1602946698.3470,165
1602946698.3491,-344
1602946698.3511,-143
1602946698.3530,218
1602946698.3551,204
1602946698.3571,167
1602946698.3591,247
1602946698.3611,252
1602946698.3630,211
1602946698.3651,223
1602946698.3670,228
1602946698.3691,218
1602946698.3711,235
1602946698.3731,240
1602946698.3751,221
1602946698.3770,211
1602946698.7740,218
1602946698.7749,238
1602946698.7773,242
1602946698.7800,242
1602946698.7820,250
1602946698.7840,252
1602946698.7860,259
1602946698.7879,267
1602946698.7899,264
1602946698.7919,269
1602946698.7940,269
1602946698.7960,259
1602946698.7979,281
1602946698.7999,323
1602946698.8018,320
1602946698.8039,289
1602946698.8059,286
1602946698.8079,301
1602946698.8099,284
1602946698.8119,252
1602946698.8139,242
1602946698.8146,233
1602946698.8169,204
1602946698.8189,167
1602946698.8209,148
1602946698.8229,153
1602946698.8249,148
1602946698.8270,131
1602946698.8289,126
1602946698.8309,126
1602946698.8328,121
1602946698.8350,126
1602946698.8369,143
1602946698.8389,138
1602946698.8408,123
1602946698.8429,148
1602946698.8436,174
1602946698.8459,160
1602946698.8479,148
1602946698.8499,155
1602946698.8519,160
1602946698.8539,155
1602946698.8558,148
1602946698.8580,155
1602946698.8599,182
1602946698.8619,204
1602946698.8641,194
1602946698.8659,165
1602946698.8679,160
1602946698.8699,167
1602946698.8720,172
1602946698.8739,165
1602946698.8746,143
1602946698.8760,143
1602946698.8780,167
1602946698.8799,165
1602946698.8819,153
1602946698.8839,157
1602946698.8858,165
1602946698.8879,162
1602946698.8899,153
1602946698.8919,153
1602946698.8939,157
1602946698.8959,157
1602946698.8979,153
1602946698.8998,145
1602946698.9018,157
1602946698.9038,170
1602946698.9046,160
1602946698.9069,150
1602946698.9088,140
1602946698.9108,143
1602946698.9129,162
1602946699.3438,167
1602946699.3445,155
1602946699.3469,148
1602946699.3495,167
1602946699.3515,194
1602946699.3537,194
1602946699.3555,184
1602946699.3575,179
1602946699.3582,167
1602946699.3605,165
1602946699.3625,162
1602946699.3645,167
1602946699.3664,187
1602946699.3685,191
1602946699.3705,182
1602946699.3724,189
1602946699.3745,216
1602946699.3765,218
1602946699.3784,184
1602946699.3804,162
1602946699.3825,150
1602946699.3845,145
1602946699.3865,157
1602946699.3884,165
1602946699.3891,165
1602946699.3914,155
1602946699.3935,133
1602946699.3955,143
1602946699.3974,162
1602946699.3994,245
1602946699.4015,463
1602946699.4035,575
1602946699.4055,233
1602946699.4075,-262
1602946699.4095,-221
1602946699.4115,126
1602946699.4134,177
1602946699.4154,119
1602946699.4175,172
1602946699.4195,184
1602946699.4201,160
1602946699.4224,162
1602946699.4245,148
1602946699.4265,140
1602946699.4284,172
1602946699.4305,187
1602946699.4325,157
1602946699.4344,138
1602946699.4365,160
1602946699.4384,184
1602946699.4404,191
1602946699.4424,196
1602946699.4445,206
1602946699.4465,206
1602946699.4484,179
1602946699.4504,172
1602946699.4514,206
1602946699.4535,223
1602946699.4556,208
1602946699.4575,228
1602946699.4594,262
1602946699.4614,259
1602946699.4635,247
1602946699.4655,250
1602946699.4674,255
1602946699.4695,262
1602946699.4715,264
1602946699.4734,250
1602946699.4755,216
1602946699.4774,187
1602946699.4795,170
1602946699.4814,155
1602946699.4822,136
1602946699.8839,119
1602946699.8846,102
1602946699.8869,92
1602946699.8896,102
1602946699.8916,116
1602946699.8936,126
1602946699.8956,133
1602946699.8976,128
1602946699.8995,109
1602946699.9015,106
1602946699.9035,126
1602946699.9056,143
1602946699.9075,140
1602946699.9096,140
1602946699.9103,160
1602946699.9125,170
1602946699.9146,160
1602946699.9166,155
1602946699.9185,160
1602946699.9206,162
1602946699.9225,155
1602946699.9246,160
1602946699.9265,167
1602946699.9286,162
1602946699.9305,160
1602946699.9325,165
1602946699.9346,172
1602946699.9365,170
1602946699.9385,162
1602946699.9393,162
1602946699.9405,162
1602946699.9426,160
1602946699.9446,160
1602946699.9465,162
1602946699.9487,155
1602946699.9506,150
1602946699.9525,150
1602946699.9546,160
1602946699.9566,165
1602946699.9586,165
1602946699.9605,165
1602946699.9625,157
1602946699.9646,157
1602946699.9665,160
1602946699.9685,157
1602946699.9693,162
1602946699.9715,167
1602946699.9735,162
1602946699.9756,157
1602946699.9776,155
1602946699.9795,157
1602946699.9815,157
1602946699.9835,155
1602946699.9856,157
1602946699.9875,155
1602946699.9895,150
1602946699.9916,153
1602946699.9935,155
1602946699.9956,150
1602946699.9976,148
1602946699.9995,157
1602946700.0003,174
1602946700.0025,189
1602946700.0045,187
1602946700.0065,172
1602946700.0085,172
1602946700.0105,179
1602946700.0126,167
1602946700.0146,153
1602946700.0165,157
1602946700.0187,155
1602946700.0205,148
1602946700.0225,145
1602946700.4533,150
1602946700.4539,155
1602946700.4556,155
1602946700.4576,143
1602946700.4595,189
1602946700.4615,374
1602946700.4636,580
1602946700.4655,403
1602946700.4676,-170
1602946700.4695,-386
1602946700.4715,-34
1602946700.4735,174
1602946700.4757,104
1602946700.4776,128
1602946700.4795,177
1602946700.4815,140
1602946700.4836,128
1602946700.4855,150
1602946700.4875,145
1602946700.4895,148
1602946700.4915,160
1602946700.4935,155
1602946700.4955,153
1602946700.4975,160
1602946700.4996,167
1602946700.5015,170
1602946700.5035,165
1602946700.5055,160
1602946700.5075,162
1602946700.5095,174
1602946700.5115,184
1602946700.5135,187
1602946700.5155,194
1602946700.5175,199
1602946700.5196,204
1602946700.5215,216
1602946700.5235,221
1602946700.5256,223
1602946700.5275,228
1602946700.5296,223
1602946700.5315,211
1602946700.5336,206
1602946700.5356,199
1602946700.5375,187
1602946700.5396,167
1602946700.5415,143
1602946700.5436,114
1602946700.5455,87
1602946700.5475,70
1602946700.5495,55
1602946700.5515,53
1602946700.5535,53
1602946700.5555,46
1602946700.5575,48
1602946700.5595,58
1602946700.5615,65
1602946700.5635,63
1602946700.5656,60
1602946700.5675,70
1602946700.5695,77
1602946700.5715,75
1602946700.5736,77
1602946700.5756,85
1602946700.5778,89
1602946700.5796,92
1602946700.5815,94
1602946700.5835,102
1602946700.5855,104
1602946700.5875,97
1602946700.5896,94
1602946700.5915,97
1602946700.5935,94
1602946700.5956,89
1602946701.0841,92
1602946701.0850,94
1602946701.0874,92
1602946701.0900,87
1602946701.0921,85
1602946701.0941,87
1602946701.0961,80
1602946701.0980,70
1602946701.1000,70
1602946701.1021,75
1602946701.1041,75
1602946701.1060,80
1602946701.1081,87
1602946701.1100,89
1602946701.1121,87
1602946701.1141,82
1602946701.1160,87
1602946701.1180,87
1602946701.1201,85
1602946701.1221,87
1602946701.1242,85
1602946701.1260,85
1602946701.1280,85
1602946701.1300,85
1602946701.1322,85
1602946701.1341,87
1602946701.1361,94
1602946701.1380,109
1602946701.1400,126
1602946701.1420,138
1602946701.1441,123
1602946701.1460,106
1602946701.1480,111
1602946701.1500,114
1602946701.1520,106
1602946701.1540,99
1602946701.1560,94
1602946701.1580,94
1602946701.1600,97
1602946701.1620,94
1602946701.1642,99
1602946701.1661,104
1602946701.1680,94
1602946701.1699,94
1602946701.1720,196
1602946701.1740,446
1602946701.1759,585
1602946701.1779,208
1602946701.1800,-366
1602946701.1819,-332
1602946701.1840,72
1602946701.1859,140
1602946701.1880,70
1602946701.1900,140
1602946701.1920,160
1602946701.1940,123
1602946701.1959,136
1602946701.1980,148
1602946701.2001,138
1602946701.2019,140
1602946701.2040,148
1602946701.2059,150
1602946701.2080,148
1602946701.2100,150
1602946701.2120,153
1602946701.2140,157
1602946701.2160,165
1602946701.2179,172
1602946701.2199,179
1602946701.2219,182
1602946701.2240,187
1602946701.2259,191
1602946701.2280,194
1602946701.5932,201
1602946701.5938,218
1602946701.5963,230
1602946701.5989,235
1602946701.6009,233
1602946701.6029,230
1602946701.6050,233
1602946701.6069,223
1602946701.6089,208
1602946701.6109,199
1602946701.6129,179
1602946701.6149,155
1602946701.6169,128
1602946701.6189,94
1602946701.6209,68
1602946701.6229,43
1602946701.6249,19
1602946701.6269,14
1602946701.6289,21
1602946701.6310,24
1602946701.6329,19
1602946701.6349,24
1602946701.6368,31
1602946701.6389,34
1602946701.6409,36
1602946701.6428,43
1602946701.6449,48
1602946701.6468,55
1602946701.6488,65
1602946701.6508,72
1602946701.6528,77
1602946701.6548,75
1602946701.6568,75
1602946701.6588,80
1602946701.6608,87
1602946701.6628,87
1602946701.6648,85
1602946701.6668,89
1602946701.6689,89
1602946701.6708,87
1602946701.6729,87
1602946701.6749,87
1602946701.6769,87
1602946701.6788,89
1602946701.6809,89
1602946701.6829,92
1602946701.6849,94
1602946701.6868,89
1602946701.6889,89
1602946701.6908,92
1602946701.6928,92
1602946701.6949,87
1602946701.6968,92
1602946701.6988,99
1602946701.7008,97
1602946701.7029,94
1602946701.7049,99
1602946701.7068,102
1602946701.7088,99
1602946701.7108,102
1602946701.7129,102
1602946701.7150,99
1602946701.7168,94
1602946701.7188,99
1602946701.7208,116
1602946701.7229,138
1602946701.7249,150
1602946701.7268,138
1602946701.7290,123
1602946701.7309,123
1602946701.7331,123
1602946701.7350,111
1602946701.7370,104
1602946702.1623,99
1602946702.1632,99
1602946702.1656,99
1602946702.1682,104
1602946702.1702,106
1602946702.1722,104
1602946702.1742,97
1602946702.1761,94
1602946702.1781,165
1602946702.1801,376
1602946702.1821,551
1602946702.1842,281
1602946702.1861,-293
1602946702.1881,-376
1602946702.1901,12
1602946702.1922,140
1602946702.1942,63
1602946702.1961,109
1602946702.1981,148
1602946702.2001,114
1602946702.2021,116
1602946702.2041,138
1602946702.2061,133
1602946702.2081,131
1602946702.2101,138
1602946702.2121,138
1602946702.2141,138
1602946702.2161,145
1602946702.2181,150
1602946702.2202,157
1602946702.2221,162
1602946702.2241,162
1602946702.2261,170
1602946702.2281,179
1602946702.2301,184
1602946702.2321,194
1602946702.2342,204
1602946702.2361,208
1602946702.2381,216
1602946702.2402,225
1602946702.2421,230
1602946702.2441,235
1602946702.2461,238
1602946702.2481,233
1602946702.2501,223
1602946702.2521,216
1602946702.2541,199
1602946702.2561,177
1602946702.2583,150
1602946702.2601,123
1602946702.2621,106
1602946702.2641,92
1602946702.2661,72
1602946702.2681,63
1602946702.2702,58
1602946702.2721,53
1602946702.2741,51
1602946702.2761,53
1602946702.2781,60
1602946702.2801,65
1602946702.2821,65
1602946702.2841,70
1602946702.2861,72
1602946702.2881,70
1602946702.2901,72
1602946702.2921,77
1602946702.2942,77
1602946702.2961,75
1602946702.2981,77
1602946702.3001,82
1602946702.3021,77
1602946702.3041,75
1602946702.3061,75
1602946702.7036,80
1602946702.7042,82
1602946702.7066,82
1602946702.7093,77
1602946702.7113,72
1602946702.7132,70
1602946702.7153,63
1602946702.7173,53
1602946702.7192,60
1602946702.7212,65
1602946702.7232,53
1602946702.7253,55
1602946702.7272,63
1602946702.7292,63
1602946702.7312,63
1602946702.7332,68
1602946702.7352,75
1602946702.7372,75
1602946702.7392,75
1602946702.7412,77
1602946702.7432,82
1602946702.7452,82
1602946702.7472,80
1602946702.7492,85
1602946702.7512,87
1602946702.7532,85
1602946702.7554,85
1602946702.7572,89
1602946702.7593,89
1602946702.7612,92
1602946702.7633,99
1602946702.7652,119
1602946702.7673,138
1602946702.7692,133
1602946702.7712,114
1602946702.7733,106
1602946702.7752,106
1602946702.7772,97
1602946702.7793,87
1602946702.7813,89
1602946702.7832,92
1602946702.7852,87
1602946702.7873,92
1602946702.7892,99
1602946702.7912,102
1602946702.7932,97
1602946702.7952,87
1602946702.7972,136
1602946702.7992,320
1602946702.8012,536
1602946702.8032,405
1602946702.8052,-145
1602946702.8072,-395
1602946702.8092,-65
1602946702.8112,153
1602946702.8132,87
1602946702.8152,102
1602946702.8172,150
1602946702.8192,126
1602946702.8212,116
1602946702.8232,136
1602946702.8252,133
1602946702.8272,126
1602946702.8293,131
1602946702.8312,128
1602946702.8333,126
1602946702.8353,133
1602946702.8372,138
1602946702.8392,140
1602946702.8412,143
1602946702.8433,150
1602946702.8452,160
1602946702.8472,162
1602946703.2438,167
1602946703.2444,179
1602946703.2456,189
1602946703.2476,194
1602946703.2498,199
1602946703.2516,213
1602946703.2536,216
1602946703.2555,206
1602946703.2575,201
1602946703.2595,206
1602946703.2615,204
1602946703.2636,191
1602946703.2656,184
1602946703.2676,177
1602946703.2696,155
1602946703.2716,126
1602946703.2735,106
1602946703.2755,87
1602946703.2775,70
1602946703.2796,58
1602946703.2815,53
1602946703.2835,51
1602946703.2855,46
1602946703.2875,41
1602946703.2896,46
1602946703.2915,53
1602946703.2935,53
1602946703.2955,53
1602946703.2975,58
1602946703.2995,65
1602946703.3015,68
1602946703.3035,72
1602946703.3055,80
1602946703.3075,82
1602946703.3095,80
1602946703.3116,80
1602946703.3135,85
1602946703.3156,87
1602946703.3175,80
1602946703.3195,80
1602946703.3215,82
1602946703.3235,72
1602946703.3255,65
1602946703.3275,70
1602946703.3295,75
1602946703.3315,75
1602946703.3335,72
1602946703.3355,70
1602946703.3376,70
1602946703.3396,70
1602946703.3415,72
1602946703.3435,72
1602946703.3456,72
1602946703.3476,72
1602946703.3495,68
1602946703.3517,63
1602946703.3536,60
1602946703.3555,65
1602946703.3576,65
1602946703.3596,55
1602946703.3616,65
1602946703.3636,72
1602946703.3656,68
1602946703.3675,65
1602946703.3696,68
1602946703.3716,68
1602946703.3736,75
1602946703.3756,77
1602946703.3777,77
1602946703.3795,72
1602946703.3816,72
1602946703.3835,77
1602946703.3856,85
1602946703.8138,104
1602946703.8147,119
1602946703.8171,109
1602946703.8198,92
1602946703.8217,80
1602946703.8238,72
1602946703.8257,70
1602946703.8276,60
1602946703.8296,53
1602946703.8317,55
1602946703.8337,63
1602946703.8357,65
1602946703.8377,68
1602946703.8397,72
1602946703.8417,72
1602946703.8437,60
1602946703.8456,121
1602946703.8477,347
1602946703.8497,561
1602946703.8517,315
1602946703.8536,-289
1602946703.8556,-422
1602946703.8576,-29
1602946703.8597,123
1602946703.8616,38
1602946703.8636,80
1602946703.8657,123
1602946703.8676,85
1602946703.8697,85
1602946703.8717,114
1602946703.8737,109
1602946703.8756,102
1602946703.8777,109
1602946703.8798,111
1602946703.8817,111
1602946703.8837,114
1602946703.8857,119
1602946703.8877,128
1602946703.8896,133
1602946703.8916,133
1602946703.8936,133
1602946703.8956,143
1602946703.8977,155
1602946703.8997,160
1602946703.9016,165
1602946703.9036,177
1602946703.9056,187
1602946703.9076,191
1602946703.9096,187
1602946703.9117,177
1602946703.9137,177
1602946703.9156,184
1602946703.9177,182
1602946703.9197,172
1602946703.9217,160
1602946703.9237,140
1602946703.9257,119
1602946703.9277,97
1602946703.9297,68
1602946703.9317,41
1602946703.9336,34
1602946703.9356,24
1602946703.9376,12
1602946703.9397,7
1602946703.9417,7
1602946703.9437,9
1602946703.9457,17
1602946703.9477,21
1602946703.9497,21
1602946703.9517,21
1602946703.9536,24
1602946703.9557,26
1602946703.9576,31
1602946704.4136,38
1602946704.4145,41
1602946704.4169,41
1602946704.4196,41
1602946704.4215,41
1602946704.4236,38
1602946704.4255,34
1602946704.4275,31
1602946704.4294,34
1602946704.4315,24
1602946704.4335,24
1602946704.4356,29
1602946704.4375,26
1602946704.4394,29
1602946704.4415,29
1602946704.4435,24
1602946704.4454,19
1602946704.4474,14
1602946704.4494,17
1602946704.4515,24
1602946704.4535,26
1602946704.4554,26
1602946704.4575,26
1602946704.4595,24
1602946704.4614,24
1602946704.4635,24
1602946704.4654,29
1602946704.4675,34
1602946704.4694,34
1602946704.4715,34
1602946704.4734,36
1602946704.4755,41
1602946704.4774,43
1602946704.4795,41
1602946704.4814,41
1602946704.4835,41
1602946704.4854,41
1602946704.4875,46
1602946704.4895,60
1602946704.4915,82
1602946704.4934,87
1602946704.4955,68
1602946704.4974,58
1602946704.4994,60
1602946704.5015,58
1602946704.5035,51
1602946704.5054,46
1602946704.5075,48
1602946704.5095,46
1602946704.5115,48
1602946704.5135,53
1602946704.5154,53
1602946704.5175,55
1602946704.5195,51
1602946704.5214,55
1602946704.5235,174
1602946704.5255,437
1602946704.5275,541
1602946704.5294,109
1602946704.5315,-442
1602946704.5335,-325
1602946704.5354,72
1602946704.5376,92
1602946704.5395,26
1602946704.5415,99
1602946704.5434,109
1602946704.5454,75
1602946704.5474,92
1602946704.5494,106
1602946704.5515,92
1602946704.5534,99
1602946704.5554,106
1602946704.5575,102
1602946704.9533,104
1602946704.9539,114
1602946704.9564,114
1602946704.9590,114
1602946704.9610,121
1602946704.9630,131
1602946704.9650,138
1602946704.9669,140
1602946704.9690,148
1602946704.9709,155
1602946704.9730,157
1602946704.9750,160
1602946704.9771,167
1602946704.9789,179
1602946704.9809,184
1602946704.9829,187
1602946704.9850,187
1602946704.9869,184
1602946704.9889,182
1602946704.9909,170
1602946704.9930,153
1602946704.9949,136
1602946704.9969,106
1602946704.9989,82
1602946705.0009,68
1602946705.0029,53
1602946705.0050,34
1602946705.0069,21
1602946705.0089,21
1602946705.0109,21
1602946705.0130,17
1602946705.0150,19
1602946705.0169,19
1602946705.0189,17
1602946705.0209,17
1602946705.0230,26
1602946705.0249,34
1602946705.0269,31
1602946705.0289,26
1602946705.0309,36
1602946705.0331,46
1602946705.0350,51
1602946705.0369,53
1602946705.0389,53
1602946705.0409,55
1602946705.0430,58
1602946705.0449,55
1602946705.0469,58
1602946705.0489,65
1602946705.0509,63
1602946705.0529,58
1602946705.0549,55
1602946705.0569,55
1602946705.0589,55
1602946705.0610,53
1602946705.0629,46
1602946705.0649,41
1602946705.0669,41
1602946705.0676,46
1602946705.0689,46
1602946705.0709,48
1602946705.0729,48
1602946705.0750,43
1602946705.0769,43
1602946705.0789,43
1602946705.0809,48
1602946705.0829,48
1602946705.0849,48
1602946705.0869,51
1602946705.0889,51
1602946705.0909,51
1602946705.0930,53
1602946705.0949,55
1602946705.5234,58
1602946705.5242,58
1602946705.5266,58
1602946705.5293,55
1602946705.5313,58
1602946705.5333,65
1602946705.5353,75
1602946705.5372,80
1602946705.5392,82
1602946705.5412,77
1602946705.5432,70
1602946705.5452,72
1602946705.5472,70
1602946705.5492,65
1602946705.5512,55
1602946705.5519,51
1602946705.5542,51
1602946705.5562,55
1602946705.5584,63
1602946705.5603,58
1602946705.5622,63
1602946705.5642,70
1602946705.5662,53
1602946705.5682,87
1602946705.5702,276
1602946705.5722,510
1602946705.5742,393
1602946705.5762,-165
1602946705.5782,-444
1602946705.5802,-111
1602946705.5822,116
1602946705.5829,38
1602946705.5842,48
1602946705.5862,111
1602946705.5883,87
1602946705.5902,75
1602946705.5922,99
1602946705.5942,99
1602946705.5962,92
1602946705.5982,102
1602946705.6002,109
1602946705.6022,106
1602946705.6042,109
1602946705.6062,111
1602946705.6082,114
1602946705.6102,123
1602946705.6122,131
1602946705.6129,138
1602946705.6142,143
1602946705.6162,148
1602946705.6182,157
1602946705.6202,165
1602946705.6222,170
1602946705.6242,179
1602946705.6262,187
1602946705.6282,189
1602946705.6302,189
1602946705.6323,191
1602946705.6342,194
1602946705.6362,189
1602946705.6382,184
1602946705.6402,172
1602946705.6422,157
1602946705.6429,136
1602946705.6442,116
1602946705.6462,92
1602946705.6482,68
1602946705.6502,53
1602946705.6522,46
1602946705.6544,36
1602946705.6562,34
1602946705.6582,34
1602946705.6602,31
1602946706.0637,34
1602946706.0644,34
1602946706.0668,36
1602946706.0694,38
1602946706.0702,41
1602946706.0724,43
1602946706.0744,46
1602946706.0764,53
1602946706.0784,55
1602946706.0804,43
1602946706.0824,43
1602946706.0845,53
1602946706.0864,55
1602946706.0884,51
1602946706.0903,48
1602946706.0924,51
1602946706.0944,48
1602946706.0963,43
1602946706.0983,41
1602946706.1004,36
1602946706.1010,26
1602946706.1024,31
1602946706.1044,36
1602946706.1064,34
1602946706.1083,31
1602946706.1104,31
1602946706.1124,38
1602946706.1144,38
1602946706.1164,38
1602946706.1184,41
1602946706.1203,38
1602946706.1223,38
1602946706.1245,38
1602946706.1264,43
1602946706.1284,51
1602946706.1303,48
1602946706.1311,46
1602946706.1334,48
1602946706.1355,51
1602946706.1374,53
1602946706.1394,55
1602946706.1413,58
1602946706.1434,58
1602946706.1454,58
1602946706.1473,58
1602946706.1494,55
1602946706.1514,53
1602946706.1535,55
1602946706.1555,51
1602946706.1573,51
1602946706.1594,63
1602946706.1614,72
1602946706.1620,87
1602946706.1633,102
1602946706.1653,97
1602946706.1674,77
1602946706.1694,77
1602946706.1714,85
1602946706.1734,75
1602946706.1754,58
1602946706.1773,55
1602946706.1793,63
1602946706.1813,68
1602946706.1834,65
1602946706.1854,63
1602946706.1874,70
1602946706.1894,65
1602946706.1913,60
1602946706.1920,128
1602946706.1934,344
1602946706.1953,536
1602946706.1974,291
1602946706.1994,-274
1602946706.6338,-376
1602946706.6346,-9
1602946706.6371,119
1602946706.6398,43
1602946706.6417,80
1602946706.6438,106
1602946706.6457,65
1602946706.6477,65
1602946706.6484,92
1602946706.6506,85
1602946706.6526,80
1602946706.6547,85
1602946706.6566,82
1602946706.6586,80
1602946706.6606,89
1602946706.6626,99
1602946706.6647,104
1602946706.6666,106
1602946706.6686,111
1602946706.6706,119
1602946706.6726,128
1602946706.6746,138
1602946706.6766,140
1602946706.6787,150
1602946706.6794,162
1602946706.6817,167
1602946706.6838,174
1602946706.6856,182
1602946706.6876,187
1602946706.6896,182
1602946706.6916,174
1602946706.6935,177
1602946706.6956,172
1602946706.6976,160
1602946706.6996,143
1602946706.7016,121
1602946706.7036,99
1602946706.7056,75
1602946706.7082,55
1602946706.7097,43
1602946706.7116,26
1602946706.7136,14
1602946706.7156,17
1602946706.7176,19
1602946706.7196,19
1602946706.7216,19
1602946706.7237,24
1602946706.7256,31
1602946706.7277,34
1602946706.7297,41
1602946706.7317,46
1602946706.7337,51
1602946706.7356,58
1602946706.7376,55
1602946706.7396,58
1602946706.7416,63
1602946706.7436,55
1602946706.7456,53
1602946706.7476,53
1602946706.7496,53
1602946706.7516,51
1602946706.7536,53
1602946706.7556,55
1602946706.7576,55
1602946706.7596,53
1602946706.7616,48
1602946706.7636,48
1602946706.7656,51
1602946706.7676,48
1602946706.7696,43
1602946706.7716,43
1602946706.7736,46
1602946706.7756,46
1602946707.1736,51
1602946707.1743,53
1602946707.1768,58
1602946707.1795,55
1602946707.1814,46
1602946707.1833,41
1602946707.1854,43
1602946707.1873,34
1602946707.1893,24
1602946707.1913,34
1602946707.1934,41
1602946707.1953,34
1602946707.1973,36
1602946707.1993,43
1602946707.2013,46
1602946707.2033,46
1602946707.2053,46
1602946707.2073,46
1602946707.2093,48
1602946707.2113,48
1602946707.2133,53
1602946707.2154,53
1602946707.2173,48
1602946707.2193,55
1602946707.2213,65
1602946707.2233,80
1602946707.2254,97
1602946707.2273,92
1602946707.2293,72
1602946707.2313,70
1602946707.2333,72
1602946707.2353,65
1602946707.2373,55
1602946707.2394,51
1602946707.2413,51
1602946707.2433,51
1602946707.2453,55
1602946707.2473,60
1602946707.2493,65
1602946707.2513,60
1602946707.2533,46
1602946707.2553,85
1602946707.2573,281
1602946707.2593,527
1602946707.2613,408
1602946707.2633,-179
1602946707.2653,-463
1602946707.2673,-114
1602946707.2693,119
1602946707.2713,36
1602946707.2733,51
1602946707.2753,111
1602946707.2773,77
1602946707.2793,65
1602946707.2814,94
1602946707.2833,97
1602946707.2853,92
1602946707.2875,97
1602946707.2893,89
1602946707.2913,87
1602946707.2933,94
1602946707.2953,94
1602946707.2973,94
1602946707.2993,104
1602946707.3013,119
1602946707.3033,123
1602946707.3054,121
1602946707.3073,126
1602946707.3093,138
1602946707.3113,143
1602946707.3133,138
1602946707.3154,145
1602946707.3173,160
1602946707.8038,170
1602946707.8046,170
1602946707.8071,172
1602946707.8097,170
1602946707.8117,150
1602946707.8138,136
1602946707.8157,133
1602946707.8177,126
1602946707.8197,97
1602946707.8217,63
1602946707.8237,41
1602946707.8257,21
1602946707.8277,7
1602946707.8297,-4
1602946707.8317,-14
1602946707.8337,-17
1602946707.8356,-19
1602946707.8376,-21
1602946707.8396,-21
1602946707.8416,-21
1602946707.8437,-17
1602946707.8456,-12
1602946707.8476,-9
1602946707.8496,-4
1602946707.8516,0
1602946707.8537,2
1602946707.8556,4
1602946707.8576,4
1602946707.8596,7
1602946707.8616,12
1602946707.8636,14
1602946707.8656,12
1602946707.8678,12
1602946707.8696,14
1602946707.8716,19
1602946707.8736,19
1602946707.8756,19
1602946707.8776,14
1602946707.8796,14
1602946707.8816,14
1602946707.8836,14
1602946707.8856,17
1602946707.8876,14
1602946707.8896,14
1602946707.8916,17
1602946707.8936,17
1602946707.8956,17
1602946707.8976,19
1602946707.8996,19
1602946707.9016,21
1602946707.9036,21
1602946707.9056,12
1602946707.9131,14
1602946707.9146,24
1602946707.9166,29
1602946707.9186,29
1602946707.9206,26
1602946707.9226,26
1602946707.9246,29
1602946707.9266,34
1602946707.9286,34
1602946707.9307,31
1602946707.9326,31
1602946707.9346,24
1602946707.9366,21
1602946707.9386,31
1602946707.9406,34
1602946707.9426,41
1602946707.9446,63
1602946707.9466,77
1602946707.9486,68
1602946707.9506,53
1602946707.9526,53
1602946708.3437,55
1602946708.3443,46
1602946708.3467,36
1602946708.3493,31
1602946708.3513,36
1602946708.3533,38
1602946708.3554,36
1602946708.3573,43
1602946708.3593,51
1602946708.3613,41
1602946708.3635,34
1602946708.3654,131
1602946708.3673,381
1602946708.3693,524
1602946708.3713,160
1602946708.3733,-412
1602946708.3753,-391
1602946708.3773,4
1602946708.3793,75
1602946708.3813,0
1602946708.3833,60
1602946708.3853,82
1602946708.3873,46
1602946708.3893,63
1602946708.3913,77
1602946708.3933,68
1602946708.3953,72
1602946708.3973,85
1602946708.3993,87
1602946708.4013,85
1602946708.4033,87
1602946708.4053,94
1602946708.4073,97
1602946708.4093,102
1602946708.4113,106
1602946708.4133,114
1602946708.4153,123
1602946708.4173,131
1602946708.4193,133
1602946708.4213,145
1602946708.4233,157
1602946708.4253,165
1602946708.4273,167
1602946708.4293,172
1602946708.4313,174
1602946708.4333,170
1602946708.4353,172
1602946708.4372,167
1602946708.4393,150
1602946708.4412,136
1602946708.4433,119
1602946708.4453,97
1602946708.4473,75
1602946708.4493,53
1602946708.4513,34
1602946708.4533,12
1602946708.4553,-7
1602946708.4573,-9
1602946708.4593,-7
1602946708.4613,-9
1602946708.4633,-9
1602946708.4654,-4
1602946708.4673,-2
1602946708.4693,-4
1602946708.4713,0
1602946708.4732,7
1602946708.4753,4
1602946708.4773,7
1602946708.4793,9
1602946708.4813,12
1602946708.4833,21
1602946708.4853,29
1602946708.4873,29
1602946708.8835,24
1602946708.8842,21
1602946708.8866,21
1602946708.8892,24
1602946708.8913,26
1602946708.8932,24
1602946708.8952,21
1602946708.8972,21
1602946708.8992,26
1602946708.9012,26
1602946708.9032,19
1602946708.9052,9
1602946708.9072,12
1602946708.9092,17
1602946708.9112,17
1602946708.9132,17
1602946708.9152,21
1602946708.9172,21
1602946708.9191,21
1602946708.9212,24
1602946708.9232,31
1602946708.9252,31
1602946708.9272,31
1602946708.9291,34
1602946708.9312,34
1602946708.9332,34
1602946708.9352,36
1602946708.9371,38
1602946708.9392,41
1602946708.9412,46
1602946708.9432,46
1602946708.9452,43
1602946708.9472,41
1602946708.9491,43
1602946708.9511,43
1602946708.9532,41
1602946708.9552,41
1602946708.9572,43
1602946708.9592,48
1602946708.9613,65
1602946708.9632,87
1602946708.9652,89
1602946708.9672,72
1602946708.9692,63
1602946708.9712,70
1602946708.9732,68
1602946708.9752,53
1602946708.9772,41
1602946708.9791,34
1602946708.9812,31
1602946708.9832,36
1602946708.9852,43
1602946708.9872,48
1602946708.9892,51
1602946708.9912,46
1602946708.9932,68
1602946708.9952,228
1602946708.9972,468
1602946708.9992,429
1602946709.0012,-77
1602946709.0031,-442
1602946709.0052,-182
1602946709.0072,104
1602946709.0092,55
1602946709.0112,36
1602946709.0131,94
1602946709.0152,80
1602946709.0172,63
1602946709.0192,82
1602946709.0212,85
1602946709.0232,77
1602946709.0252,89
1602946709.0272,94
1602946709.4232,89
1602946709.4238,94
1602946709.4262,106
1602946709.4289,104
1602946709.4308,104
1602946709.4328,116
1602946709.4349,119
1602946709.4369,114
1602946709.4388,111
1602946709.4408,119
1602946709.4428,133
1602946709.4449,138
1602946709.4468,143
1602946709.4489,157
1602946709.4508,167
1602946709.4529,167
1602946709.4549,162
1602946709.4569,162
1602946709.4590,157
1602946709.4608,150
1602946709.4628,143
1602946709.4648,131
1602946709.4668,114
1602946709.4688,92
1602946709.4708,65
1602946709.4728,43
1602946709.4748,31
1602946709.4769,19
1602946709.4788,9
1602946709.4808,4
1602946709.4829,2
1602946709.4848,0
1602946709.4868,0
1602946709.4888,7
1602946709.4908,7
1602946709.4928,4
1602946709.4948,7
1602946709.4968,14
1602946709.4988,21
1602946709.5008,24
1602946709.5028,17
1602946709.5048,14
1602946709.5068,19
1602946709.5088,26
1602946709.5108,29
1602946709.5128,29
1602946709.5148,34
1602946709.5168,31
1602946709.5188,31
1602946709.5208,36
1602946709.5228,34
1602946709.5248,26
1602946709.5268,31
1602946709.5288,36
1602946709.5309,29
1602946709.5328,26
1602946709.5348,26
1602946709.5368,29
1602946709.5388,31
1602946709.5408,31
1602946709.5428,29
1602946709.5449,31
1602946709.5468,36
1602946709.5488,38
1602946709.5508,41
1602946709.5528,41
1602946709.5548,38
1602946709.5568,41
1602946709.5589,43
1602946709.5609,43
1602946709.5628,43
1602946709.5648,43
1602946709.5668,48
1602946710.0232,48
1602946710.0240,48
1602946710.0265,48
1602946710.0291,55
1602946710.0311,53
1602946710.0331,38
1602946710.0351,31
1602946710.0370,41
1602946710.0390,41
1602946710.0410,41
1602946710.0430,55
1602946710.0450,75
1602946710.0470,87
1602946710.0490,85
1602946710.0510,68
1602946710.0530,63
1602946710.0551,63
1602946710.0571,55
1602946710.0590,43
1602946710.0610,43
1602946710.0630,51
1602946710.0651,51
1602946710.0670,51
1602946710.0690,53
1602946710.0710,55
1602946710.0730,51
1602946710.0750,46
1602946710.0776,109
1602946710.0790,310
1602946710.0810,510
1602946710.0830,313
1602946710.0850,-242
1602946710.0870,-400
1602946710.0890,-43
1602946710.0910,114
1602946710.0930,26
1602946710.0950,51
1602946710.0970,97
1602946710.0990,72
1602946710.1010,70
1602946710.1030,89
1602946710.1050,87
1602946710.1070,82
1602946710.1090,92
1602946710.1110,92
1602946710.1130,94
1602946710.1152,102
1602946710.1170,99
1602946710.1190,97
1602946710.1210,104
1602946710.1230,111
1602946710.1250,116
1602946710.1269,116
1602946710.1290,123
1602946710.1310,140
1602946710.1330,148
1602946710.1350,150
1602946710.1370,162
1602946710.1390,174
1602946710.1410,177
1602946710.1430,174
1602946710.1450,174
1602946710.1470,170
1602946710.1490,165
1602946710.1510,155
1602946710.1530,143
1602946710.1550,126
1602946710.1570,109
1602946710.1590,85
1602946710.1610,63
1602946710.1630,46
1602946710.1650,26
1602946710.1670,12
1602946710.5337,7
1602946710.5344,7
1602946710.5368,4
1602946710.5394,2
1602946710.5414,0
1602946710.5434,-4
1602946710.5454,-4
1602946710.5474,-2
1602946710.5494,4
1602946710.5513,9
1602946710.5533,0
1602946710.5553,-4
1602946710.5574,9
1602946710.5594,14
1602946710.5613,12
1602946710.5634,12
1602946710.5654,14
1602946710.5673,17
1602946710.5695,17
1602946710.5713,19
1602946710.5734,26
1602946710.5753,29
1602946710.5774,24
1602946710.5793,24
1602946710.5815,26
1602946710.5834,24
1602946710.5854,14
1602946710.5873,12
1602946710.5894,17
1602946710.5913,17
1602946710.5933,14
1602946710.5953,17
1602946710.5973,21
1602946710.5993,21
1602946710.6014,17
1602946710.6033,19
1602946710.6054,31
1602946710.6073,34
1602946710.6094,29
1602946710.6113,26
1602946710.6135,26
1602946710.6153,21
1602946710.6174,24
1602946710.6193,34
1602946710.6214,34
1602946710.6233,29
1602946710.6253,29
1602946710.6273,34
1602946710.6293,36
1602946710.6313,34
1602946710.6334,34
1602946710.6353,38
1602946710.6373,36
1602946710.6393,36
1602946710.6413,55
1602946710.6433,77
1602946710.6454,77
1602946710.6474,60
1602946710.6494,53
1602946710.6513,60
1602946710.6533,55
1602946710.6553,38
1602946710.6574,29
1602946710.6593,26
1602946710.6614,29
1602946710.6633,34
1602946710.6654,41
1602946710.6673,46
1602946710.6693,38
1602946710.6714,21
1602946710.6733,41
1602946710.6754,225
1602946710.6774,502
1602946711.1338,439
1602946711.1350,-138
1602946711.1377,-512
1602946711.1401,-211
1602946711.1420,68
1602946711.1440,7
1602946711.1461,7
1602946711.1480,72
1602946711.1500,46
1602946711.1520,34
1602946711.1540,58
1602946711.1559,53
1602946711.1580,46
1602946711.1599,58
1602946711.1620,63
1602946711.1640,58
1602946711.1659,63
1602946711.1679,75
1602946711.1699,80
1602946711.1719,70
1602946711.1739,70
1602946711.1759,77
1602946711.1779,89
1602946711.1799,97
1602946711.1819,106
1602946711.1839,114
1602946711.1859,119
1602946711.1879,128
1602946711.1900,136
1602946711.1919,138
1602946711.1939,145
1602946711.1959,150
1602946711.1979,148
1602946711.1999,145
1602946711.2019,136
1602946711.2039,121
1602946711.2059,109
1602946711.2079,87
1602946711.2099,58
1602946711.2119,29
1602946711.2139,12
1602946711.2160,0
1602946711.2179,-17
1602946711.2199,-26
1602946711.2219,-29
1602946711.2240,-29
1602946711.2259,-26
1602946711.2279,-26
1602946711.2300,-21
1602946711.2320,-19
1602946711.2339,-21
1602946711.2359,-19
1602946711.2379,-17
1602946711.2401,-17
1602946711.2419,-12
1602946711.2439,-2
1602946711.2459,4
1602946711.2479,4
1602946711.2500,4
1602946711.2519,12
1602946711.2539,14
1602946711.2559,9
1602946711.2579,4
1602946711.2599,9
1602946711.2619,14
1602946711.2640,7
1602946711.2659,7
1602946711.2679,14
1602946711.2699,14
1602946711.2719,9
1602946711.2740,9
1602946711.2759,9
1602946711.2779,9
1602946711.7038,7
1602946711.7046,7
1602946711.7071,12
1602946711.7097,14
1602946711.7117,17
1602946711.7137,21
1602946711.7157,26
1602946711.7177,19
1602946711.7196,4
1602946711.7217,0
1602946711.7237,4
1602946711.7256,4
1602946711.7276,-2
1602946711.7297,-2
1602946711.7317,4
1602946711.7336,9
1602946711.7356,7
1602946711.7376,7
1602946711.7396,9
1602946711.7416,14
1602946711.7437,19
1602946711.7456,29
1602946711.7482,53
1602946711.7485,58
1602946711.7506,41
1602946711.7526,36
1602946711.7546,41
1602946711.7567,34
1602946711.7586,21
1602946711.7606,17
1602946711.7626,21
1602946711.7648,24
1602946711.7668,21
1602946711.7687,24
1602946711.7706,34
1602946711.7726,41
1602946711.7746,24
1602946711.7766,38
1602946711.7786,194
1602946711.7793,446
1602946711.7806,444
1602946711.7826,-63
1602946711.7846,-480
1602946711.7866,-230
1602946711.7886,89
1602946711.7906,48
1602946711.7927,19
1602946711.7947,85
1602946711.7966,72
1602946711.7986,51
1602946711.8006,75
1602946711.8026,80
1602946711.8047,65
1602946711.8067,75
1602946711.8086,82
1602946711.8093,75
1602946711.8106,77
1602946711.8126,87
1602946711.8146,92
1602946711.8166,94
1602946711.8186,97
1602946711.8206,104
1602946711.8226,109
1602946711.8247,116
1602946711.8266,126
1602946711.8286,136
1602946711.8306,143
1602946711.8327,153
1602946711.8346,160
1602946711.8366,167
1602946711.8386,172
1602946711.8393,172
1602946711.8406,172
1602946712.2431,167
1602946712.2438,160
1602946712.2455,148
1602946712.2475,133
1602946712.2496,104
1602946712.2515,70
1602946712.2536,48
1602946712.2556,29
1602946712.2575,9
1602946712.2597,-4
1602946712.2615,-21
1602946712.2622,-34
1602946712.2635,-31
1602946712.2655,-29
1602946712.2676,-29
1602946712.2695,-21
1602946712.2715,-14
1602946712.2735,-9
1602946712.2755,-7
1602946712.2775,-4
1602946712.2795,0
1602946712.2815,2
1602946712.2835,4
1602946712.2855,7
1602946712.2875,12
1602946712.2895,12
1602946712.2915,12
1602946712.2922,17
1602946712.2935,21
1602946712.2955,21
1602946712.2975,21
1602946712.2995,21
1602946712.3015,21
1602946712.3035,21
1602946712.3055,21
1602946712.3075,24
1602946712.3095,21
1602946712.3115,19
1602946712.3135,21
1602946712.3155,24
1602946712.3175,24
1602946712.3195,26
1602946712.3215,24
1602946712.3222,21
1602946712.3235,17
1602946712.3255,21
1602946712.3275,29
1602946712.3295,29
1602946712.3315,29
1602946712.3335,26
1602946712.3355,29
1602946712.3375,29
1602946712.3396,31
1602946712.3415,41
1602946712.3436,43
1602946712.3455,38
1602946712.3475,41
1602946712.3495,41
1602946712.3502,43
1602946712.3515,46
1602946712.3536,43
1602946712.3555,43
1602946712.3575,46
1602946712.3595,48
1602946712.3615,46
1602946712.3635,48
1602946712.3655,58
1602946712.3675,72
1602946712.3695,87
1602946712.3715,85
1602946712.3735,63
1602946712.3755,51
1602946712.3775,55
1602946712.8139,48
1602946712.8150,38
1602946712.8174,31
1602946712.8201,29
1602946712.8221,31
1602946712.8240,34
1602946712.8260,29
1602946712.8280,21
1602946712.8300,21
1602946712.8320,19
1602946712.8340,60
1602946712.8360,247
1602946712.8379,476
1602946712.8400,342
1602946712.8419,-211
1602946712.8439,-454
1602946712.8459,-116
1602946712.8466,97
1602946712.8489,19
1602946712.8509,34
1602946712.8529,89
1602946712.8550,63
1602946712.8569,55
1602946712.8589,75
1602946712.8609,72
1602946712.8629,70
1602946712.8650,77
1602946712.8669,82
1602946712.8689,85
1602946712.8709,87
1602946712.8729,89
1602946712.8749,94
1602946712.8769,102
1602946712.8776,106
1602946712.8789,109
1602946712.8809,114
1602946712.8829,121
1602946712.8849,128
1602946712.8871,138
1602946712.8890,143
1602946712.8909,150
1602946712.8930,160
1602946712.8949,167
1602946712.8969,172
1602946712.8989,172
1602946712.9010,170
1602946712.9029,165
1602946712.9050,157
1602946712.9069,145
1602946712.9076,123
1602946712.9089,106
1602946712.9109,89
1602946712.9130,68
1602946712.9150,46
1602946712.9169,26
1602946712.9189,17
1602946712.9209,12
1602946712.9229,4
1602946712.9250,2
1602946712.9269,4
1602946712.9289,7
1602946712.9309,7
1602946712.9329,7
1602946712.9350,4
1602946712.9369,7
1602946712.9376,7
1602946712.9389,7
1602946712.9409,4
1602946712.9429,12
1602946712.9449,19
1602946712.9469,19
1602946712.9490,24
1602946712.9509,24
1602946713.3531,21
1602946713.3538,24
1602946713.3562,29
1602946713.3589,31
1602946713.3609,31
1602946713.3615,26
1602946713.3639,29
1602946713.3658,24
1602946713.3678,12
1602946713.3698,9
1602946713.3719,14
1602946713.3738,14
1602946713.3758,14
1602946713.3777,19
1602946713.3798,24
1602946713.3817,24
1602946713.3840,21
1602946713.3858,21
1602946713.3878,21
1602946713.3898,29
1602946713.3917,34
1602946713.3938,34
1602946713.3958,31
1602946713.3977,31
1602946713.3997,34
1602946713.4018,34
1602946713.4039,29
1602946713.4058,31
1602946713.4077,34
1602946713.4097,36
1602946713.4117,38
1602946713.4138,36
1602946713.4158,41
1602946713.4177,51
1602946713.4197,46
1602946713.4217,41
1602946713.4238,43
1602946713.4258,48
1602946713.4277,48
1602946713.4297,43
1602946713.4317,48
1602946713.4338,53
1602946713.4357,65
1602946713.4378,85
1602946713.4398,92
1602946713.4419,82
1602946713.4437,70
1602946713.4458,65
1602946713.4478,65
1602946713.4498,58
1602946713.4518,51
1602946713.4538,48
1602946713.4558,48
1602946713.4577,51
1602946713.4598,53
1602946713.4618,53
1602946713.4638,48
1602946713.4657,36
1602946713.4678,38
1602946713.4698,148
1602946713.4718,393
1602946713.4738,493
1602946713.4757,89
1602946713.4777,-410
1602946713.4798,-301
1602946713.4817,51
1602946713.4838,70
1602946713.4859,14
1602946713.4878,77
1602946713.4897,87
1602946713.4917,55
1602946713.4938,72
1602946713.4958,87
1602946713.9537,75
1602946713.9545,75
1602946713.9569,87
1602946713.9595,87
1602946713.9615,82
1602946713.9636,70
1602946713.9656,70
1602946713.9675,85
1602946713.9695,94
1602946713.9716,92
1602946713.9735,97
1602946713.9755,109
1602946713.9775,114
1602946713.9795,121
1602946713.9815,133
1602946713.9835,140
1602946713.9855,143
1602946713.9875,150
1602946713.9895,157
1602946713.9915,157
1602946713.9936,153
1602946713.9955,148
1602946713.9975,143
1602946713.9995,136
1602946714.0015,123
1602946714.0035,106
1602946714.0055,87
1602946714.0075,65
1602946714.0095,38
1602946714.0115,19
1602946714.0135,12
1602946714.0155,2
1602946714.0175,-4
1602946714.0195,-9
1602946714.0215,-14
1602946714.0235,-14
1602946714.0255,-14
1602946714.0274,-7
1602946714.0294,-4
1602946714.0315,-7
1602946714.0335,-4
1602946714.0354,2
1602946714.0375,7
1602946714.0395,12
1602946714.0414,14
1602946714.0437,17
1602946714.0455,17
1602946714.0474,14
1602946714.0494,7
1602946714.0515,9
1602946714.0535,14
1602946714.0554,14
1602946714.0574,14
1602946714.0595,17
1602946714.0615,14
1602946714.0635,12
1602946714.0655,14
1602946714.0676,19
1602946714.0695,19
1602946714.0715,14
1602946714.0736,12
1602946714.0755,14
1602946714.0774,17
1602946714.0794,19
1602946714.0815,14
1602946714.0835,17
1602946714.0855,19
1602946714.0875,17
1602946714.0895,17
1602946714.0914,24
1602946714.0935,21
1602946714.0955,21
1602946714.0975,24
1602946714.5235,24
1602946714.5246,24
1602946714.5271,26
1602946714.5297,29
1602946714.5316,29
1602946714.5337,29
1602946714.5358,31
1602946714.5376,26
1602946714.5396,19
1602946714.5416,17
1602946714.5437,14
1602946714.5457,12
1602946714.5477,9
1602946714.5497,14
1602946714.5518,14
1602946714.5537,9
1602946714.5556,12
1602946714.5577,21
1602946714.5596,26
1602946714.5616,43
1602946714.5637,63
1602946714.5656,53
1602946714.5676,36
1602946714.5698,38
1602946714.5716,43
1602946714.5736,31
1602946714.5756,17
1602946714.5776,17
1602946714.5796,17
1602946714.5816,14
1602946714.5837,19
1602946714.5856,24
1602946714.5876,29
1602946714.5896,17
1602946714.5916,2
1602946714.5936,60
1602946714.5956,289
1602946714.5976,539
1602946714.5996,349
1602946714.6016,-286
1602946714.6036,-522
1602946714.6056,-133
1602946714.6076,75
1602946714.6096,-17
1602946714.6115,7
1602946714.6136,60
1602946714.6156,26
1602946714.6176,29
1602946714.6195,55
1602946714.6216,41
1602946714.6236,38
1602946714.6256,55
1602946714.6276,53
1602946714.6295,53
1602946714.6316,65
1602946714.6336,65
1602946714.6355,63
1602946714.6375,70
1602946714.6396,80
1602946714.6416,82
1602946714.6436,87
1602946714.6456,99
1602946714.6476,109
1602946714.6496,111
1602946714.6516,111
1602946714.6536,121
1602946714.6556,133
1602946714.6575,140
1602946714.6595,145
1602946714.6616,143
1602946714.6636,140
1602946714.6655,138
1602946714.6676,123
1602946715.0637,111
1602946715.0647,102
1602946715.0670,80
1602946715.0696,53
1602946715.0715,29
1602946715.0736,9
1602946715.0756,-9
1602946715.0776,-24
1602946715.0796,-36
1602946715.0816,-46
1602946715.0836,-48
1602946715.0856,-53
1602946715.0875,-63
1602946715.0895,-55
1602946715.0915,-43
1602946715.0936,-43
1602946715.0955,-38
1602946715.0975,-29
1602946715.0995,-24
1602946715.1015,-21
1602946715.1035,-17
1602946715.1055,-9
1602946715.1075,-4
1602946715.1095,0
1602946715.1115,7
1602946715.1135,9
1602946715.1155,9
1602946715.1175,9
1602946715.1195,9
1602946715.1215,9
1602946715.1236,12
1602946715.1255,9
1602946715.1275,0
1602946715.1295,-7
1602946715.1315,-7
1602946715.1335,-2
1602946715.1355,0
1602946715.1375,4
1602946715.1395,2
1602946715.1415,0
1602946715.1435,4
1602946715.1455,7
1602946715.1475,7
1602946715.1495,7
1602946715.1515,9
1602946715.1535,14
1602946715.1555,14
1602946715.1575,14
1602946715.1595,19
1602946715.1615,19
1602946715.1635,19
1602946715.1654,17
1602946715.1676,21
1602946715.1695,26
1602946715.1715,24
1602946715.1736,24
1602946715.1755,26
1602946715.1775,26
1602946715.1795,29
1602946715.1815,29
1602946715.1835,34
1602946715.1855,34
1602946715.1875,26
1602946715.1895,24
1602946715.1915,29
1602946715.1935,41
1602946715.1955,58
1602946715.1975,70
1602946715.1995,68
1602946715.2015,51
1602946715.2035,46
1602946715.2055,51
1602946715.2075,46
1602946715.6337,31
1602946715.6345,24
1602946715.6370,29
1602946715.6397,36
1602946715.6416,34
1602946715.6437,34
1602946715.6457,41
1602946715.6477,36
1602946715.6496,17
1602946715.6516,60
1602946715.6537,267
1602946715.6555,497
1602946715.6576,315
1602946715.6596,-269
1602946715.6615,-463
1602946715.6636,-89
1602946715.6655,97
1602946715.6676,7
1602946715.6695,31
1602946715.6716,80
1602946715.6735,43
1602946715.6755,38
1602946715.6775,60
1602946715.6795,55
1602946715.6815,53
1602946715.6836,51
1602946715.6855,48
1602946715.6875,55
1602946715.6895,60
1602946715.6915,65
1602946715.6938,72
1602946715.6955,70
1602946715.6975,75
1602946715.6995,82
1602946715.7015,92
1602946715.7036,97
1602946715.7055,102
1602946715.7075,111
1602946715.7095,121
1602946715.7115,128
1602946715.7136,138
1602946715.7155,148
1602946715.7175,153
1602946715.7195,150
1602946715.7215,145
1602946715.7235,145
1602946715.7255,138
1602946715.7275,123
1602946715.7295,102
1602946715.7315,75
1602946715.7336,55
1602946715.7355,34
1602946715.7375,14
1602946715.7395,-2
1602946715.7415,-19
1602946715.7436,-31
1602946715.7455,-31
1602946715.7475,-29
1602946715.7495,-29
1602946715.7515,-29
1602946715.7536,-24
1602946715.7555,-17
1602946715.7575,-14
1602946715.7595,-12
1602946715.7615,-4
1602946715.7636,4
1602946715.7656,9
1602946715.7675,9
1602946715.7695,12
1602946715.7715,19
1602946715.7735,21
1602946715.7755,24
1602946715.7775,26
1602946716.1738,29
1602946716.1746,29
1602946716.1768,26
1602946716.1786,29
1602946716.1806,31
1602946716.1826,31
1602946716.1846,26
1602946716.1866,24
1602946716.1888,29
1602946716.1906,21
1602946716.1926,9
1602946716.1945,12
1602946716.1966,14
1602946716.1986,4
1602946716.2005,7
1602946716.2025,14
1602946716.2045,17
1602946716.2065,14
1602946716.2085,12
1602946716.2105,12
1602946716.2125,17
1602946716.2145,17
1602946716.2165,17
1602946716.2185,21
1602946716.2205,24
1602946716.2225,19
1602946716.2245,21
1602946716.2265,31
1602946716.2285,29
1602946716.2306,26
1602946716.2325,26
1602946716.2345,31
1602946716.2365,36
1602946716.2385,34
1602946716.2405,36
1602946716.2425,41
1602946716.2445,38
1602946716.2465,36
1602946716.2485,38
1602946716.2505,43
1602946716.2525,41
1602946716.2545,34
1602946716.2564,38
1602946716.2585,51
1602946716.2605,65
1602946716.2625,77
1602946716.2645,75
1602946716.2665,60
1602946716.2685,51
1602946716.2705,53
1602946716.2724,51
1602946716.2745,41
1602946716.2765,34
1602946716.2785,34
1602946716.2805,34
1602946716.2825,38
1602946716.2845,43
1602946716.2865,46
1602946716.2885,43
1602946716.2906,34
1602946716.2925,77
1602946716.2946,264
1602946716.2965,490
1602946716.2985,361
1602946716.3004,-194
1602946716.3024,-442
1602946716.3045,-109
1602946716.3065,102
1602946716.3085,26
1602946716.3105,41
1602946716.3125,92
1602946716.3145,63
1602946716.3165,51
1602946716.7137,75
1602946716.7145,77
1602946716.7170,70
1602946716.7198,75
1602946716.7216,72
1602946716.7236,70
1602946716.7258,70
1602946716.7277,63
1602946716.7296,63
1602946716.7316,72
1602946716.7336,72
1602946716.7356,70
1602946716.7375,80
1602946716.7395,92
1602946716.7416,99
1602946716.7436,104
1602946716.7455,114
1602946716.7475,123
1602946716.7495,128
1602946716.7515,136
1602946716.7536,138
1602946716.7556,138
1602946716.7575,128
1602946716.7596,123
1602946716.7616,123
1602946716.7636,116
1602946716.7655,102
1602946716.7675,82
1602946716.7695,60
1602946716.7715,36
1602946716.7736,19
1602946716.7755,7
1602946716.7775,-7
1602946716.7796,-17
1602946716.7816,-21
1602946716.7835,-29
1602946716.7856,-29
1602946716.7877,-21
1602946716.7896,-19
1602946716.7916,-12
1602946716.7936,-4
1602946716.7956,-7
1602946716.7975,-2
1602946716.7995,4
1602946716.8015,12
1602946716.8036,19
1602946716.8055,19
1602946716.8075,19
1602946716.8095,26
1602946716.8115,34
1602946716.8136,36
1602946716.8155,34
1602946716.8175,34
1602946716.8195,34
1602946716.8215,31
1602946716.8236,36
1602946716.8255,38
1602946716.8275,36
1602946716.8295,36
1602946716.8315,38
1602946716.8336,36
1602946716.8355,36
1602946716.8376,36
1602946716.8395,36
1602946716.8415,36
1602946716.8436,36
1602946716.8456,36
1602946716.8475,34
1602946716.8495,34
1602946716.8515,34
1602946716.8536,36
1602946716.8555,38
1602946716.8576,41
1602946717.2833,41
1602946717.2843,38
1602946717.2860,36
1602946717.2880,26
1602946717.2901,14
1602946717.2921,17
1602946717.2940,24
1602946717.2960,21
1602946717.2979,21
1602946717.2999,29
1602946717.3019,31
1602946717.3040,26
1602946717.3059,26
1602946717.3079,31
1602946717.3100,34
1602946717.3121,31
1602946717.3140,31
1602946717.3160,38
1602946717.3179,43
1602946717.3200,38
1602946717.3219,36
1602946717.3240,41
1602946717.3259,53
1602946717.3280,70
1602946717.3299,80
1602946717.3320,68
1602946717.3339,53
1602946717.3359,46
1602946717.3379,46
1602946717.3400,46
1602946717.3420,38
1602946717.3440,29
1602946717.3459,26
1602946717.3479,31
1602946717.3499,34
1602946717.3520,34
1602946717.3539,41
1602946717.3560,38
1602946717.3579,34
1602946717.3599,131
1602946717.3620,378
1602946717.3639,529
1602946717.3659,170
1602946717.3680,-408
1602946717.3699,-383
1602946717.3719,17
1602946717.3740,80
1602946717.3760,2
1602946717.3779,60
1602946717.3800,85
1602946717.3819,51
1602946717.3840,53
1602946717.3860,70
1602946717.3880,60
1602946717.3899,55
1602946717.3919,68
1602946717.3939,70
1602946717.3960,65
1602946717.3980,70
1602946717.3999,72
1602946717.4019,77
1602946717.4040,82
1602946717.4059,85
1602946717.4079,89
1602946717.4099,97
1602946717.4120,104
1602946717.4141,109
1602946717.4160,109
1602946717.4179,106
1602946717.4199,109
1602946717.4219,119
1602946717.4239,123
1602946717.4259,128
1602946717.8838,131
1602946717.8849,126
1602946717.8874,119
1602946717.8900,109
1602946717.8920,99
1602946717.8941,77
1602946717.8961,48
1602946717.8980,26
1602946717.9000,7
1602946717.9020,-21
1602946717.9040,-36
1602946717.9059,-38
1602946717.9079,-46
1602946717.9099,-51
1602946717.9119,-48
1602946717.9139,-48
1602946717.9159,-46
1602946717.9179,-46
1602946717.9199,-41
1602946717.9219,-31
1602946717.9239,-29
1602946717.9259,-29
1602946717.9278,-24
1602946717.9299,-17
1602946717.9318,-12
1602946717.9339,-9
1602946717.9359,-2
1602946717.9379,0
1602946717.9399,2
1602946717.9419,4
1602946717.9439,7
1602946717.9459,9
1602946717.9479,9
1602946717.9498,7
1602946717.9518,9
1602946717.9539,9
1602946717.9558,12
1602946717.9578,12
1602946717.9599,9
1602946717.9619,9
1602946717.9639,4
1602946717.9658,7
1602946717.9679,14
1602946717.9699,12
1602946717.9721,12
1602946717.9739,12
1602946717.9759,14
1602946717.9778,17
1602946717.9799,14
1602946717.9819,12
1602946717.9839,9
1602946717.9858,9
1602946717.9879,9
1602946717.9899,12
1602946717.9919,17
1602946717.9939,17
1602946717.9959,14
1602946717.9978,17
1602946717.9998,24
1602946718.0019,24
1602946718.0039,19
1602946718.0059,14
1602946718.0079,14
1602946718.0098,14
1602946718.0119,14
1602946718.0139,17
1602946718.0159,21
1602946718.0179,19
1602946718.0199,17
1602946718.0218,17
1602946718.0239,24
1602946718.0258,38
1602946718.0279,55
1602946718.4231,65
1602946718.4239,48
1602946718.4262,36
1602946718.4288,41
1602946718.4308,38
1602946718.4328,29
1602946718.4349,19
1602946718.4368,14
1602946718.4388,17
1602946718.4408,12
1602946718.4428,4
1602946718.4448,7
1602946718.4468,12
1602946718.4487,2
1602946718.4508,17
1602946718.4527,177
1602946718.4548,442
1602946718.4555,434
1602946718.4577,-89
1602946718.4597,-502
1602946718.4617,-240
1602946718.4638,72
1602946718.4659,17
1602946718.4678,-4
1602946718.4698,68
1602946718.4717,51
1602946718.4738,24
1602946718.4757,51
1602946718.4778,55
1602946718.4798,41
1602946718.4819,46
1602946718.4838,55
1602946718.4858,55
1602946718.4864,55
1602946718.4878,63
1602946718.4897,65
1602946718.4918,72
1602946718.4938,80
1602946718.4957,82
1602946718.4977,87
1602946718.4998,94
1602946718.5018,99
1602946718.5038,104
1602946718.5058,114
1602946718.5078,119
1602946718.5098,119
1602946718.5118,126
1602946718.5138,136
1602946718.5145,140
1602946718.5157,138
1602946718.5178,128
1602946718.5197,121
1602946718.5218,119
1602946718.5238,104
1602946718.5258,80
1602946718.5277,58
1602946718.5298,34
1602946718.5317,12
1602946718.5338,-2
1602946718.5358,-12
1602946718.5377,-21
1602946718.5397,-29
1602946718.5418,-31
1602946718.5438,-29
1602946718.5444,-29
1602946718.5467,-26
1602946718.5487,-21
1602946718.5507,-14
1602946718.5527,-9
1602946718.5548,-7
1602946718.5568,0
1602946718.5587,7
1602946718.5607,7
1602946718.9934,12
1602946718.9943,12
1602946718.9968,17
1602946718.9994,24
1602946719.0014,26
1602946719.0035,26
1602946719.0040,24
1602946719.0063,17
1602946719.0083,9
1602946719.0103,14
1602946719.0123,21
1602946719.0144,17
1602946719.0163,14
1602946719.0183,21
1602946719.0203,19
1602946719.0223,17
1602946719.0243,17
1602946719.0263,19
1602946719.0283,21
1602946719.0303,19
1602946719.0323,19
1602946719.0344,26
1602946719.0350,24
1602946719.0373,24
1602946719.0393,26
1602946719.0414,29
1602946719.0433,29
1602946719.0453,29
1602946719.0473,36
1602946719.0493,41
1602946719.0513,36
1602946719.0533,31
1602946719.0553,31
1602946719.0573,31
1602946719.0593,34
1602946719.0613,34
1602946719.0633,38
1602946719.0653,38
1602946719.0663,36
1602946719.0684,36
1602946719.0703,38
1602946719.0723,48
1602946719.0743,46
1602946719.0763,38
1602946719.0783,41
1602946719.0803,41
1602946719.0823,31
1602946719.0843,31
1602946719.0863,43
1602946719.0883,58
1602946719.0903,72
1602946719.0925,70
1602946719.0944,60
1602946719.0963,58
1602946719.0969,60
1602946719.0983,51
1602946719.1003,34
1602946719.1023,34
1602946719.1043,38
1602946719.1063,38
1602946719.1083,41
1602946719.1103,41
1602946719.1123,41
1602946719.1143,36
1602946719.1163,29
1602946719.1183,70
1602946719.1203,240
1602946719.1223,463
1602946719.1243,378
1602946719.1263,-145
1602946719.1270,-442
1602946719.1293,-143
1602946719.1313,97
1602946719.5337,31
1602946719.5346,26
1602946719.5370,82
1602946719.5397,55
1602946719.5417,41
1602946719.5437,65
1602946719.5456,63
1602946719.5475,55
1602946719.5496,58
1602946719.5515,53
1602946719.5536,58
1602946719.5542,65
1602946719.5555,65
1602946719.5575,68
1602946719.5596,75
1602946719.5615,80
1602946719.5636,85
1602946719.5656,92
1602946719.5675,97
1602946719.5695,99
1602946719.5715,104
1602946719.5735,109
1602946719.5756,114
1602946719.5775,119
1602946719.5795,123
1602946719.5815,133
1602946719.5822,138
1602946719.5836,136
1602946719.5855,131
1602946719.5877,128
1602946719.5896,119
1602946719.5915,109
1602946719.5937,94
1602946719.5956,72
1602946719.5975,48
1602946719.5996,31
1602946719.6015,12
1602946719.6036,-2
1602946719.6055,-12
1602946719.6076,-24
1602946719.6095,-29
1602946719.6115,-21
1602946719.6122,-21
1602946719.6135,-24
1602946719.6155,-12
1602946719.6175,-2
1602946719.6196,0
1602946719.6215,0
1602946719.6235,7
1602946719.6255,17
1602946719.6275,21
1602946719.6295,24
1602946719.6315,29
1602946719.6336,29
1602946719.6355,26
1602946719.6375,24
1602946719.6395,24
1602946719.6415,31
1602946719.6422,34
1602946719.6435,31
1602946719.6456,31
1602946719.6475,34
1602946719.6495,31
1602946719.6515,29
1602946719.6536,31
1602946719.6556,34
1602946719.6575,29
1602946719.6595,29
1602946719.6616,31
1602946719.6636,29
1602946719.6655,29
1602946719.6675,29
1602946719.6695,31
1602946720.1036,34
1602946720.1044,31
1602946720.1070,31
1602946720.1095,36
1602946720.1116,36
1602946720.1135,29
1602946720.1156,17
1602946720.1178,19
1602946720.1196,24
1602946720.1215,21
1602946720.1236,21
1602946720.1255,24
1602946720.1275,26
1602946720.1295,29
1602946720.1315,26
1602946720.1336,29
1602946720.1355,31
1602946720.1375,29
1602946720.1395,26
1602946720.1415,29
1602946720.1435,31
1602946720.1454,29
1602946720.1474,26
1602946720.1494,29
1602946720.1514,31
1602946720.1535,36
1602946720.1554,53
1602946720.1574,72
1602946720.1594,72
1602946720.1614,53
1602946720.1635,41
1602946720.1654,38
1602946720.1674,29
1602946720.1695,17
1602946720.1715,14
1602946720.1735,14
1602946720.1754,14
1602946720.1774,17
1602946720.1794,24
1602946720.1814,29
1602946720.1835,24
1602946720.1855,14
1602946720.1874,60
1602946720.1895,262
1602946720.1914,510
1602946720.1935,366
1602946720.1954,-235
1602946720.1974,-512
1602946720.1994,-155
1602946720.2014,75
1602946720.2035,-4
1602946720.2054,12
1602946720.2074,70
1602946720.2094,29
1602946720.2114,21
1602946720.2135,51
1602946720.2154,46
1602946720.2174,36
1602946720.2196,48
1602946720.2215,48
1602946720.2235,43
1602946720.2254,48
1602946720.2274,58
1602946720.2295,60
1602946720.2314,63
1602946720.2335,65
1602946720.2354,70
1602946720.2375,80
1602946720.2394,85
1602946720.2414,87
1602946720.2435,94
1602946720.2454,102
1602946720.2475,104
1602946720.6436,111
1602946720.6444,123
1602946720.6469,131
1602946720.6496,126
1602946720.6515,119
1602946720.6536,114
1602946720.6556,102
1602946720.6575,89
1602946720.6595,77
1602946720.6615,58
1602946720.6636,31
1602946720.6655,7
1602946720.6675,-7
1602946720.6694,-24
1602946720.6715,-41
1602946720.6735,-43
1602946720.6754,-46
1602946720.6775,-48
1602946720.6795,-46
1602946720.6815,-46
1602946720.6835,-41
1602946720.6854,-31
1602946720.6874,-34
1602946720.6894,-36
1602946720.6914,-31
1602946720.6935,-19
1602946720.6955,-14
1602946720.6974,-12
1602946720.6994,-4
1602946720.7014,0
1602946720.7035,2
1602946720.7055,4
1602946720.7074,7
1602946720.7094,9
1602946720.7114,9
1602946720.7135,12
1602946720.7156,17
1602946720.7174,9
1602946720.7195,7
1602946720.7214,12
1602946720.7234,9
1602946720.7254,7
1602946720.7274,9
1602946720.7294,7
1602946720.7314,9
1602946720.7335,12
1602946720.7354,12
1602946720.7374,14
1602946720.7394,14
1602946720.7414,14
1602946720.7435,14
1602946720.7454,17
1602946720.7474,19
1602946720.7494,17
1602946720.7514,21
1602946720.7535,24
1602946720.7554,21
1602946720.7574,19
1602946720.7594,21
1602946720.7614,24
1602946720.7634,26
1602946720.7654,24
1602946720.7674,29
1602946720.7694,31
1602946720.7714,29
1602946720.7734,26
1602946720.7754,24
1602946720.7774,26
1602946720.7794,29
1602946720.7816,34
1602946720.7835,48
1602946720.7854,68
1602946720.7874,68
1602946721.2435,48
1602946721.2443,43
1602946721.2460,51
1602946721.2480,36
1602946721.2500,12
1602946721.2520,4
1602946721.2541,12
1602946721.2561,14
1602946721.2580,12
1602946721.2601,14
1602946721.2621,24
1602946721.2640,24
1602946721.2660,12
1602946721.2680,55
1602946721.2702,250
1602946721.2720,480
1602946721.2740,340
1602946721.2760,-233
1602946721.2780,-485
1602946721.2800,-138
1602946721.2820,85
1602946721.2840,2
1602946721.2859,14
1602946721.2879,75
1602946721.2899,43
1602946721.2919,36
1602946721.2940,65
1602946721.2959,58
1602946721.2979,46
1602946721.2999,58
1602946721.3020,60
1602946721.3040,58
1602946721.3060,55
1602946721.3079,60
1602946721.3100,70
1602946721.3119,75
1602946721.3140,77
1602946721.3160,82
1602946721.3179,89
1602946721.3200,94
1602946721.3219,102
1602946721.3240,111
1602946721.3260,119
1602946721.3280,126
1602946721.3299,136
1602946721.3319,143
1602946721.3340,148
1602946721.3360,145
1602946721.3379,138
1602946721.3400,138
1602946721.3420,128
1602946721.3440,114
1602946721.3460,97
1602946721.3479,80
1602946721.3499,58
1602946721.3520,34
1602946721.3540,14
1602946721.3559,0
1602946721.3579,-17
1602946721.3600,-24
1602946721.3620,-29
1602946721.3640,-34
1602946721.3660,-36
1602946721.3680,-34
1602946721.3699,-26
1602946721.3721,-21
1602946721.3740,-19
1602946721.3759,-12
1602946721.3779,-7
1602946721.3799,-2
1602946721.3819,4
1602946721.3826,9
1602946721.3840,12
1602946721.8438,14
1602946721.8450,14
1602946721.8475,17
1602946721.8501,19
1602946721.8521,21
1602946721.8541,21
1602946721.8562,21
1602946721.8581,19
1602946721.8601,9
1602946721.8621,-7
1602946721.8642,-12
1602946721.8660,-2
1602946721.8681,-2
1602946721.8687,-4
1602946721.8700,0
1602946721.8720,4
1602946721.8740,2
1602946721.8760,2
1602946721.8780,7
1602946721.8800,2
1602946721.8820,-2
1602946721.8841,2
1602946721.8860,7
1602946721.8880,9
1602946721.8900,9
1602946721.8920,9
1602946721.8941,12
1602946721.8959,14
1602946721.8980,19
1602946721.8986,21
1602946721.9000,24
1602946721.9019,26
1602946721.9040,21
1602946721.9060,24
1602946721.9080,29
1602946721.9100,29
1602946721.9120,31
1602946721.9140,29
1602946721.9160,29
1602946721.9180,26
1602946721.9200,26
1602946721.9220,34
1602946721.9240,48
1602946721.9262,65
1602946721.9281,77
1602946721.9287,65
1602946721.9300,51
1602946721.9320,53
1602946721.9340,53
1602946721.9360,38
1602946721.9380,29
1602946721.9400,26
1602946721.9421,21
1602946721.9441,24
1602946721.9460,34
1602946721.9480,34
1602946721.9500,31
1602946721.9520,31
1602946721.9540,34
1602946721.9559,119
1602946721.9580,342
1602946721.9587,488
1602946721.9600,170
1602946721.9620,-371
1602946721.9640,-371
1602946721.9660,2
1602946721.9680,80
1602946721.9700,7
1602946721.9720,55
1602946721.9740,80
1602946721.9760,48
1602946721.9780,55
1602946721.9800,70
1602946722.3536,55
1602946722.3546,53
1602946722.3571,63
1602946722.3596,60
1602946722.3617,63
1602946722.3637,75
1602946722.3656,75
1602946722.3676,72
1602946722.3696,77
1602946722.3716,85
1602946722.3736,82
1602946722.3756,85
1602946722.3775,99
1602946722.3796,106
1602946722.3816,99
1602946722.3836,102
1602946722.3855,114
1602946722.3862,123
1602946722.3875,128
1602946722.3896,133
1602946722.3915,138
1602946722.3938,133
1602946722.3956,123
1602946722.3975,116
1602946722.3995,109
1602946722.4016,89
1602946722.4036,63
1602946722.4055,41
1602946722.4075,24
1602946722.4095,2
1602946722.4116,-12
1602946722.4136,-19
1602946722.4156,-24
1602946722.4162,-29
1602946722.4175,-34
1602946722.4195,-31
1602946722.4216,-29
1602946722.4235,-26
1602946722.4256,-19
1602946722.4275,-14
1602946722.4295,-9
1602946722.4315,-2
1602946722.4336,-2
1602946722.4355,2
1602946722.4376,9
1602946722.4395,12
1602946722.4415,12
1602946722.4436,14
1602946722.4455,19
1602946722.4462,17
1602946722.4475,17
1602946722.4496,21
1602946722.4515,24
1602946722.4536,21
1602946722.4555,21
1602946722.4575,19
1602946722.4595,21
1602946722.4616,24
1602946722.4636,21
1602946722.4655,21
1602946722.4675,19
1602946722.4695,17
1602946722.4715,19
1602946722.4736,24
1602946722.4755,24
1602946722.4762,17
1602946722.4775,14
1602946722.4795,19
1602946722.4815,21
1602946722.4836,21
1602946722.4856,21
1602946722.4875,24
1602946722.4897,26
1602946722.9236,21
1602946722.9245,19
1602946722.9269,24
1602946722.9295,24
1602946722.9316,24
1602946722.9336,24
1602946722.9356,24
1602946722.9375,19
1602946722.9382,9
1602946722.9395,14
1602946722.9415,19
1602946722.9435,19
1602946722.9455,24
1602946722.9475,29
1602946722.9495,26
1602946722.9515,24
1602946722.9535,31
1602946722.9555,48
1602946722.9575,65
1602946722.9595,70
1602946722.9614,63
1602946722.9635,48
1602946722.9655,51
1602946722.9675,53
1602946722.9681,41
1602946722.9694,31
1602946722.9715,29
1602946722.9734,29
1602946722.9755,31
1602946722.9775,34
1602946722.9795,38
1602946722.9815,38
1602946722.9835,29
1602946722.9855,31
1602946722.9874,138
1602946722.9894,378
1602946722.9915,485
1602946722.9935,94
1602946722.9955,-417
1602946722.9961,-337
1602946722.9975,24
1602946722.9995,63
1602946723.0015,4
1602946723.0035,65
1602946723.0055,77
1602946723.0074,46
1602946723.0095,58
1602946723.0115,70
1602946723.0135,60
1602946723.0155,63
1602946723.0176,68
1602946723.0195,70
1602946723.0214,72
1602946723.0234,77
1602946723.0255,82
1602946723.0261,85
1602946723.0275,92
1602946723.0295,89
1602946723.0314,77
1602946723.0335,77
1602946723.0355,94
1602946723.0375,104
1602946723.0394,106
1602946723.0415,116
1602946723.0435,126
1602946723.0455,126
1602946723.0474,131
1602946723.0495,136
1602946723.0515,133
1602946723.0535,133
1602946723.0555,128
1602946723.0637,121
1602946723.0654,109
1602946723.4634,92
1602946723.4641,65
1602946723.4664,46
1602946723.4691,26
1602946723.4711,0
1602946723.4731,-21
1602946723.4752,-24
1602946723.4771,-29
1602946723.4791,-48
1602946723.4811,-60
1602946723.4818,-53
1602946723.4830,-51
1602946723.4851,-51
1602946723.4871,-41
1602946723.4891,-31
1602946723.4911,-26
1602946723.4931,-24
1602946723.4951,-19
1602946723.4971,-14
1602946723.4991,-9
1602946723.5011,-4
1602946723.5031,-2
1602946723.5050,2
1602946723.5071,2
1602946723.5091,-2
1602946723.5111,0
1602946723.5118,2
1602946723.5131,0
1602946723.5152,-4
1602946723.5171,-2
1602946723.5191,2
1602946723.5211,2
1602946723.5231,0
1602946723.5251,0
1602946723.5271,0
1602946723.5290,4
1602946723.5311,4
1602946723.5331,4
1602946723.5351,4
1602946723.5371,0
1602946723.5391,-2
1602946723.5411,4
1602946723.5417,12
1602946723.5442,7
1602946723.5461,2
1602946723.5481,4
1602946723.5501,2
1602946723.5520,-2
1602946723.5541,2
1602946723.5561,9
1602946723.5581,2
1602946723.5601,-9
1602946723.5621,-9
1602946723.5641,0
1602946723.5660,2
1602946723.5681,2
1602946723.5701,2
1602946723.5721,0
1602946723.5728,-2
1602946723.5751,-7
1602946723.5771,-9
1602946723.5790,-2
1602946723.5810,4
1602946723.5831,12
1602946723.5851,34
1602946723.5871,43
1602946723.5891,24
1602946723.5910,12
1602946723.5931,21
1602946723.5951,26
1602946723.5970,12
1602946723.5991,-2
1602946723.6010,-4
1602946724.0036,-7
1602946724.0046,0
1602946724.0069,7
1602946724.0096,9
1602946724.0116,7
1602946724.0137,-7
1602946724.0158,-12
1602946724.0175,106
1602946724.0196,376
1602946724.0216,485
1602946724.0235,41
1602946724.0255,-505
1602946724.0275,-383
1602946724.0295,2
1602946724.0316,19
1602946724.0336,-43
1602946724.0343,26
1602946724.0365,38
1602946724.0386,4
1602946724.0405,21
1602946724.0425,36
1602946724.0445,26
1602946724.0465,34
1602946724.0485,46
1602946724.0505,43
1602946724.0526,41
1602946724.0545,46
1602946724.0565,53
1602946724.0585,58
1602946724.0605,60
1602946724.0625,65
1602946724.0645,75
1602946724.0652,85
1602946724.0675,87
1602946724.0695,92
1602946724.0715,102
1602946724.0735,104
1602946724.0756,109
1602946724.0775,123
1602946724.0795,131
1602946724.0815,133
1602946724.0836,128
1602946724.0855,123
1602946724.0875,116
1602946724.0895,104
1602946724.0915,92
1602946724.0935,75
1602946724.0955,51
1602946724.0962,29
1602946724.0985,7
1602946724.1006,-14
1602946724.1025,-31
1602946724.1045,-46
1602946724.1065,-51
1602946724.1085,-51
1602946724.1105,-51
1602946724.1125,-51
1602946724.1147,-55
1602946724.1165,-51
1602946724.1185,-43
1602946724.1205,-38
1602946724.1225,-29
1602946724.1245,-19
1602946724.1265,-17
1602946724.1272,-19
1602946724.1295,-17
1602946724.1315,-7
1602946724.1336,0
1602946724.1356,0
1602946724.1375,4
1602946724.1395,4
1602946724.1415,2
1602946724.1435,7
1602946724.6037,9
1602946724.6046,9
1602946724.6070,2
1602946724.6096,-7
1602946724.6103,-9
1602946724.6117,-9
1602946724.6136,-9
1602946724.6156,-14
1602946724.6176,-12
1602946724.6196,-7
1602946724.6216,-9
1602946724.6236,-9
1602946724.6255,-2
1602946724.6276,2
1602946724.6296,2
1602946724.6316,0
1602946724.6336,2
1602946724.6355,7
1602946724.6375,4
1602946724.6395,4
1602946724.6402,7
1602946724.6416,9
1602946724.6436,12
1602946724.6456,12
1602946724.6475,12
1602946724.6495,17
1602946724.6515,14
1602946724.6536,14
1602946724.6555,19
1602946724.6575,21
1602946724.6596,19
1602946724.6615,19
1602946724.6636,19
1602946724.6656,24
1602946724.6675,31
1602946724.6697,48
1602946724.6703,53
1602946724.6715,41
1602946724.6735,26
1602946724.6755,24
1602946724.6776,29
1602946724.6795,21
1602946724.6815,9
1602946724.6835,9
1602946724.6855,12
1602946724.6876,12
1602946724.6895,14
1602946724.6915,21
1602946724.6935,26
1602946724.6955,19
1602946724.6976,14
1602946724.6996,97
1602946724.7002,332
1602946724.7016,500
1602946724.7036,189
1602946724.7055,-381
1602946724.7076,-403
1602946724.7096,-17
1602946724.7115,75
1602946724.7135,-4
1602946724.7156,43
1602946724.7176,75
1602946724.7195,38
1602946724.7215,43
1602946724.7236,65
1602946724.7256,58
1602946724.7276,55
1602946724.7295,65
1602946724.7302,68
1602946724.7315,68
1602946724.7335,68
1602946724.7355,68
1602946724.7376,75
1602946725.1737,82
1602946725.1746,87
1602946725.1770,87
1602946725.1797,97
1602946725.1817,109
1602946725.1837,109
1602946725.1857,114
1602946725.1877,116
1602946725.1897,111
1602946725.1917,116
1602946725.1923,131
1602946725.1937,136
1602946725.1956,131
1602946725.1978,128
1602946725.1996,126
1602946725.2015,119
1602946725.2037,109
1602946725.2056,99
1602946725.2076,77
1602946725.2096,53
1602946725.2116,31
1602946725.2137,12
1602946725.2156,-4
1602946725.2175,-21
1602946725.2196,-31
1602946725.2216,-34
1602946725.2222,-34
1602946725.2237,-34
1602946725.2256,-36
1602946725.2276,-41
1602946725.2295,-41
1602946725.2317,-34
1602946725.2336,-29
1602946725.2356,-21
1602946725.2377,-14
1602946725.2396,-7
1602946725.2416,-4
1602946725.2436,-2
1602946725.2456,2
1602946725.2476,2
1602946725.2496,7
1602946725.2503,9
1602946725.2516,12
1602946725.2536,17
1602946725.2556,17
1602946725.2576,12
1602946725.2596,14
1602946725.2616,14
1602946725.2636,14
1602946725.2656,14
1602946725.2676,14
1602946725.2696,17
1602946725.2716,14
1602946725.2736,19
1602946725.2756,19
1602946725.2776,14
1602946725.2796,17
1602946725.2803,21
1602946725.2816,21
1602946725.2836,17
1602946725.2856,19
1602946725.2875,24
1602946725.2896,19
1602946725.2916,14
1602946725.2938,17
1602946725.2956,21
1602946725.2975,24
1602946725.2996,24
1602946725.3017,26
1602946725.3036,29
1602946725.3056,26
1602946725.3076,29
1602946725.3096,31
1602946725.7136,29
1602946725.7144,31
1602946725.7169,34
1602946725.7196,34
1602946725.7215,34
1602946725.7235,31
1602946725.7256,34
1602946725.7276,41
1602946725.7295,55
1602946725.7315,70
1602946725.7336,58
1602946725.7355,41
1602946725.7375,41
1602946725.7382,41
1602946725.7395,36
1602946725.7415,26
1602946725.7435,24
1602946725.7454,21
1602946725.7475,19
1602946725.7495,21
1602946725.7515,26
1602946725.7535,24
1602946725.7554,17
1602946725.7574,9
1602946725.7594,58
1602946725.7615,242
1602946725.7635,463
1602946725.7654,332
1602946725.7674,-218
1602946725.7681,-466
1602946725.7694,-133
1602946725.7714,85
1602946725.7734,12
1602946725.7754,24
1602946725.7774,77
1602946725.7794,55
1602946725.7814,43
1602946725.7835,63
1602946725.7854,60
1602946725.7874,60
1602946725.7894,72
1602946725.7914,75
1602946725.7936,72
1602946725.7954,75
1602946725.7975,80
1602946725.7981,87
1602946725.7994,92
1602946725.8014,97
1602946725.8034,104
1602946725.8054,109
1602946725.8074,114
1602946725.8094,119
1602946725.8114,119
1602946725.8134,126
1602946725.8154,133
1602946725.8174,136
1602946725.8194,143
1602946725.8214,150
1602946725.8234,157
1602946725.8254,153
1602946725.8275,143
1602946725.8281,140
1602946725.8294,133
1602946725.8314,121
1602946725.8334,104
1602946725.8354,80
1602946725.8374,60
1602946725.8394,36
1602946725.8414,14
1602946725.8434,2
1602946725.8454,-9
1602946725.8474,-17
1602946725.8494,-21
1602946726.2836,-19
1602946726.2845,-17
1602946726.2861,-14
1602946726.2886,-9
1602946726.2907,-2
1602946726.2925,0
1602946726.2945,-7
1602946726.2965,-12
1602946726.2985,0
1602946726.3005,9
1602946726.3025,7
1602946726.3045,7
1602946726.3065,9
1602946726.3085,4
1602946726.3105,0
1602946726.3125,0
1602946726.3145,9
1602946726.3164,12
1602946726.3171,7
1602946726.3184,9
1602946726.3206,12
1602946726.3225,12
1602946726.3246,14
1602946726.3264,14
1602946726.3284,14
1602946726.3304,17
1602946726.3325,19
1602946726.3345,19
1602946726.3365,19
1602946726.3385,21
1602946726.3406,21
1602946726.3424,21
1602946726.3445,26
1602946726.3464,26
1602946726.3471,26
1602946726.3485,31
1602946726.3504,36
1602946726.3524,34
1602946726.3545,31
1602946726.3565,31
1602946726.3585,36
1602946726.3604,31
1602946726.3624,31
1602946726.3645,34
1602946726.3665,29
1602946726.3685,31
1602946726.3704,36
1602946726.3725,34
1602946726.3745,29
1602946726.3751,31
1602946726.3775,38
1602946726.3795,41
1602946726.3814,38
1602946726.3835,41
1602946726.3854,51
1602946726.3874,70
1602946726.3894,77
1602946726.3914,60
1602946726.3935,51
1602946726.3955,55
1602946726.3974,48
1602946726.3994,34
1602946726.4014,29
1602946726.4035,34
1602946726.4054,31
1602946726.4061,26
1602946726.4074,34
1602946726.4094,38
1602946726.4114,36
1602946726.4135,24
1602946726.4154,53
1602946726.4176,228
1602946726.4194,483
1602946726.8238,422
1602946726.8246,-136
1602946726.8271,-500
1602946726.8297,-204
1602946726.8317,75
1602946726.8338,14
1602946726.8358,2
1602946726.8364,53
1602946726.8378,24
1602946726.8397,12
1602946726.8417,38
1602946726.8437,38
1602946726.8457,36
1602946726.8477,51
1602946726.8497,53
1602946726.8517,48
1602946726.8537,55
1602946726.8557,63
1602946726.8577,60
1602946726.8597,68
1602946726.8616,77
1602946726.8637,87
1602946726.8657,92
1602946726.8662,92
1602946726.8677,97
1602946726.8697,106
1602946726.8716,116
1602946726.8737,123
1602946726.8757,128
1602946726.8777,133
1602946726.8797,138
1602946726.8817,143
1602946726.8837,140
1602946726.8856,133
1602946726.8876,126
1602946726.8896,116
1602946726.8916,102
1602946726.8937,89
1602946726.8957,68
1602946726.8962,38
1602946726.8976,21
1602946726.8996,4
1602946726.9018,-14
1602946726.9037,-26
1602946726.9056,-31
1602946726.9076,-36
1602946726.9096,-43
1602946726.9116,-46
1602946726.9137,-43
1602946726.9158,-38
1602946726.9177,-26
1602946726.9197,-24
1602946726.9216,-24
1602946726.9236,-19
1602946726.9256,-14
1602946726.9262,-9
1602946726.9276,0
1602946726.9296,4
1602946726.9316,2
1602946726.9337,0
1602946726.9356,4
1602946726.9376,9
1602946726.9396,7
1602946726.9416,4
1602946726.9437,4
1602946726.9456,4
1602946726.9476,4
1602946726.9496,2
1602946726.9516,0
1602946726.9536,0
1602946726.9557,-2
1602946726.9562,-4
1602946726.9576,-9
1602946727.3932,-12
1602946727.3940,-12
1602946727.3964,-12
1602946727.3991,-7
1602946727.4010,-12
1602946727.4032,-24
1602946727.4052,-19
1602946727.4071,-9
1602946727.4090,-9
1602946727.4110,-14
1602946727.4132,-12
1602946727.4137,-2
1602946727.4150,2
1602946727.4170,2
1602946727.4190,4
1602946727.4210,4
1602946727.4230,4
1602946727.4250,7
1602946727.4270,12
1602946727.4290,12
1602946727.4310,9
1602946727.4330,12
1602946727.4350,9
1602946727.4370,7
1602946727.4390,14
1602946727.4410,24
1602946727.4430,41
1602946727.4437,53
1602946727.4450,41
1602946727.4470,24
1602946727.4490,29
1602946727.4510,34
1602946727.4530,19
1602946727.4550,9
1602946727.4570,12
1602946727.4589,12
1602946727.4609,12
1602946727.4629,19
1602946727.4650,26
1602946727.4670,24
1602946727.4690,9
1602946727.4709,9
1602946727.4729,119
1602946727.4735,369
1602946727.4750,507
1602946727.4769,136
1602946727.4789,-434
1602946727.4810,-391
1602946727.4829,9
1602946727.4850,70
1602946727.4870,-4
1602946727.4890,53
1602946727.4909,70
1602946727.4930,34
1602946727.4949,48
1602946727.4970,65
1602946727.4989,53
1602946727.5011,53
1602946727.5030,60
1602946727.5037,58
1602946727.5060,60
1602946727.5080,70
1602946727.5100,72
1602946727.5119,72
1602946727.5140,70
1602946727.5160,70
1602946727.5179,77
1602946727.5199,85
1602946727.5220,92
1602946727.5240,99
1602946727.5260,106
1602946727.5280,116
1602946727.5300,123
1602946727.9932,131
1602946727.9940,138
1602946727.9964,138
1602946727.9991,136
1602946728.0012,133
1602946728.0034,126
1602946728.0052,109
1602946728.0071,97
1602946728.0091,87
1602946728.0111,63
1602946728.0131,36
1602946728.0150,21
1602946728.0171,2
1602946728.0190,-14
1602946728.0210,-21
1602946728.0231,-31
1602946728.0250,-46
1602946728.0256,-53
1602946728.0270,-51
1602946728.0291,-46
1602946728.0310,-41
1602946728.0330,-36
1602946728.0350,-34
1602946728.0370,-26
1602946728.0390,-19
1602946728.0410,-17
1602946728.0430,-17
1602946728.0450,-9
1602946728.0470,-2
1602946728.0490,0
1602946728.0510,2
1602946728.0530,4
1602946728.0550,4
1602946728.0556,4
1602946728.0570,9
1602946728.0590,12
1602946728.0610,12
1602946728.0630,12
1602946728.0649,12
1602946728.0670,7
1602946728.0690,7
1602946728.0709,12
1602946728.0729,14
1602946728.0750,12
1602946728.0769,9
1602946728.0790,7
1602946728.0809,9
1602946728.0830,17
1602946728.0850,19
1602946728.0856,12
1602946728.0870,9
1602946728.0890,14
1602946728.0910,14
1602946728.0929,17
1602946728.0950,19
1602946728.0970,21
1602946728.0991,19
1602946728.1010,14
1602946728.1030,9
1602946728.1050,12
1602946728.1069,17
1602946728.1090,19
1602946728.1109,19
1602946728.1130,21
1602946728.1150,21
1602946728.1155,19
1602946728.1170,19
1602946728.1190,21
1602946728.1210,24
1602946728.1230,24
1602946728.1250,26
1602946728.1270,38
1602946728.1289,53
1602946728.5330,68
1602946728.5338,63
1602946728.5362,46
1602946728.5389,41
1602946728.5408,43
1602946728.5414,38
1602946728.5428,29
1602946728.5449,21
1602946728.5468,19
1602946728.5488,21
1602946728.5508,17
1602946728.5528,9
1602946728.5548,14
1602946728.5568,17
1602946728.5588,12
1602946728.5608,85
1602946728.5627,306
1602946728.5647,485
1602946728.5668,218
1602946728.5688,-344
1602946728.5708,-425
1602946728.5713,-48
1602946728.5728,75
1602946728.5748,-2
1602946728.5768,38
1602946728.5788,72
1602946728.5808,38
1602946728.5828,43
1602946728.5847,60
1602946728.5867,55
1602946728.5887,55
1602946728.5907,65
1602946728.5927,65
1602946728.5947,65
1602946728.5969,68
1602946728.5988,70
1602946728.6008,77
1602946728.6013,87
1602946728.6027,89
1602946728.6047,87
1602946728.6067,89
1602946728.6088,97
1602946728.6108,106
1602946728.6127,111
1602946728.6148,114
1602946728.6167,119
1602946728.6187,126
1602946728.6207,133
1602946728.6227,136
1602946728.6247,136
1602946728.6267,128
1602946728.6287,121
1602946728.6307,121
1602946728.6313,114
1602946728.6327,94
1602946728.6347,77
1602946728.6367,55
1602946728.6387,34
1602946728.6408,17
1602946728.6427,0
1602946728.6447,-14
1602946728.6467,-26
1602946728.6487,-36
1602946728.6507,-36
1602946728.6528,-36
1602946728.6547,-31
1602946728.6567,-26
1602946728.6587,-24
1602946728.6607,-21
1602946728.6613,-17
1602946728.6627,-12
1602946728.6648,-7
1602946728.6667,-7
1602946729.1036,-4
1602946729.1044,-4
1602946729.1068,-2
1602946729.1095,4
1602946729.1115,4
1602946729.1136,7
1602946729.1156,12
1602946729.1175,4
1602946729.1195,-4
1602946729.1215,-7
1602946729.1235,-2
1602946729.1241,-2
1602946729.1257,-4
1602946729.1275,-2
1602946729.1295,0
1602946729.1315,0
1602946729.1335,0
1602946729.1354,0
1602946729.1374,4
1602946729.1395,4
1602946729.1414,2
1602946729.1435,4
1602946729.1455,12
1602946729.1474,14
1602946729.1494,12
1602946729.1514,12
1602946729.1534,17
1602946729.1540,17
1602946729.1554,17
1602946729.1574,19
1602946729.1594,17
1602946729.1614,12
1602946729.1635,14
1602946729.1654,17
1602946729.1674,17
1602946729.1694,17
1602946729.1714,19
1602946729.1734,21
1602946729.1754,21
1602946729.1774,21
1602946729.1794,24
1602946729.1814,26
1602946729.1835,21
1602946729.1840,12
1602946729.1854,14
1602946729.1874,21
1602946729.1894,24
1602946729.1914,38
1602946729.1935,55
1602946729.1954,60
1602946729.1974,51
1602946729.1994,41
1602946729.2014,46
1602946729.2034,43
1602946729.2054,29
1602946729.2074,19
1602946729.2094,21
1602946729.2114,26
1602946729.2134,29
1602946729.2140,31
1602946729.2154,34
1602946729.2174,31
1602946729.2194,21
1602946729.2216,48
1602946729.2235,201
1602946729.2254,449
1602946729.2274,434
1602946729.2295,-72
1602946729.2314,-468
1602946729.2334,-223
1602946729.2354,77
1602946729.2374,36
1602946729.2394,12
1602946729.6435,77
1602946729.6443,63
1602946729.6468,41
1602946729.6494,68
1602946729.6514,68
1602946729.6535,58
1602946729.6554,68
1602946729.6574,72
1602946729.6594,68
1602946729.6613,60
1602946729.6634,60
1602946729.6654,70
1602946729.6674,75
1602946729.6693,75
1602946729.6714,82
1602946729.6733,92
1602946729.6739,102
1602946729.6754,97
1602946729.6774,94
1602946729.6794,104
1602946729.6814,119
1602946729.6834,128
1602946729.6853,131
1602946729.6874,133
1602946729.6894,133
1602946729.6915,131
1602946729.6934,131
1602946729.6953,131
1602946729.6973,119
1602946729.6993,104
1602946729.7013,89
1602946729.7033,70
1602946729.7040,46
1602946729.7055,17
1602946729.7073,-4
1602946729.7094,-24
1602946729.7114,-43
1602946729.7134,-48
1602946729.7153,-46
1602946729.7174,-43
1602946729.7193,-43
1602946729.7215,-43
1602946729.7233,-36
1602946729.7253,-34
1602946729.7274,-29
1602946729.7293,-24
1602946729.7315,-14
1602946729.7333,-7
1602946729.7340,-9
1602946729.7353,-4
1602946729.7373,4
1602946729.7395,2
1602946729.7414,0
1602946729.7433,0
1602946729.7454,2
1602946729.7473,4
1602946729.7494,0
1602946729.7514,0
1602946729.7534,4
1602946729.7554,12
1602946729.7574,7
1602946729.7594,-2
1602946729.7614,-2
1602946729.7635,4
1602946729.7639,7
1602946729.7654,9
1602946729.7674,7
1602946729.7694,4
1602946729.7714,7
1602946729.7734,7
1602946729.7753,7
1602946729.7773,4
1602946729.7793,2
1602946730.2131,9
1602946730.2140,14
1602946730.2164,14
1602946730.2190,12
1602946730.2211,9
1602946730.2230,7
1602946730.2237,0
1602946730.2251,-4
1602946730.2271,4
1602946730.2291,7
1602946730.2311,2
1602946730.2331,4
1602946730.2351,7
1602946730.2371,2
1602946730.2391,-2
1602946730.2410,0
1602946730.2431,2
1602946730.2450,0
1602946730.2470,2
1602946730.2492,12
1602946730.2510,31
1602946730.2530,48
1602946730.2536,41
1602946730.2550,24
1602946730.2570,26
1602946730.2590,29
1602946730.2611,12
1602946730.2630,-4
1602946730.2650,-9
1602946730.2670,-9
1602946730.2690,-12
1602946730.2710,-4
1602946730.2730,4
1602946730.2750,4
1602946730.2770,-2
1602946730.2790,-9
1602946730.2810,58
1602946730.2831,289
1602946730.2836,517
1602946730.2850,293
1602946730.2870,-337
1602946730.2890,-524
1602946730.2910,-123
1602946730.2929,63
1602946730.2950,-21
1602946730.2970,12
1602946730.2989,60
1602946730.3010,21
1602946730.3030,19
1602946730.3049,43
1602946730.3070,36
1602946730.3090,34
1602946730.3110,46
1602946730.3130,46
1602946730.3136,46
1602946730.3150,55
1602946730.3169,60
1602946730.3190,58
1602946730.3210,63
1602946730.3230,70
1602946730.3250,77
1602946730.3270,85
1602946730.3290,94
1602946730.3309,97
1602946730.3329,94
1602946730.3349,99
1602946730.3370,109
1602946730.3389,123
1602946730.3409,131
1602946730.3430,131
1602946730.3437,131
1602946730.3450,131
1602946730.3470,126
1602946730.7534,119
1602946730.7541,111
1602946730.7565,99
1602946730.7592,80
1602946730.7612,48
1602946730.7633,24
1602946730.7652,0
1602946730.7672,-29
1602946730.7692,-53
1602946730.7712,-68
1602946730.7732,-68
1602946730.7751,-68
1602946730.7771,-63
1602946730.7791,-58
1602946730.7811,-58
1602946730.7817,-53
1602946730.7832,-48
1602946730.7851,-46
1602946730.7871,-34
1602946730.7891,-29
1602946730.7911,-31
1602946730.7932,-31
1602946730.7952,-24
1602946730.7971,-19
1602946730.7991,-19
1602946730.8011,-12
1602946730.8032,-4
1602946730.8051,-4
1602946730.8071,0
1602946730.8091,2
1602946730.8111,-2
1602946730.8117,-4
1602946730.8132,0
1602946730.8151,2
1602946730.8171,-2
1602946730.8191,-4
1602946730.8211,-2
1602946730.8231,-2
1602946730.8251,-4
1602946730.8271,-4
1602946730.8291,-2
1602946730.8311,2
1602946730.8332,0
1602946730.8351,0
1602946730.8371,7
1602946730.8391,7
1602946730.8411,2
1602946730.8417,7
1602946730.8433,12
1602946730.8452,14
1602946730.8471,12
1602946730.8491,14
1602946730.8511,17
1602946730.8532,17
1602946730.8551,14
1602946730.8571,14
1602946730.8591,21
1602946730.8611,26
1602946730.8632,21
1602946730.8651,21
1602946730.8671,21
1602946730.8691,19
1602946730.8711,29
1602946730.8718,46
1602946730.8731,60
1602946730.8751,60
1602946730.8771,48
1602946730.8792,41
1602946730.8811,41
1602946730.8832,34
1602946730.8851,21
1602946730.8871,14
1602946730.8891,14
1602946731.3834,19
1602946731.3843,19
1602946731.3867,19
1602946731.3878,24
1602946731.3893,21
1602946731.3914,2
1602946731.3935,12
1602946731.3954,150
1602946731.3973,395
1602946731.3993,446
1602946731.4013,-4
1602946731.4033,-473
1602946731.4053,-301
1602946731.4075,38
1602946731.4093,26
1602946731.4113,-17
1602946731.4134,48
1602946731.4153,46
1602946731.4173,26
1602946731.4180,46
1602946731.4203,53
1602946731.4223,41
1602946731.4244,48
1602946731.4264,58
1602946731.4283,55
1602946731.4303,58
1602946731.4325,65
1602946731.4344,63
1602946731.4363,63
1602946731.4383,75
1602946731.4404,80
1602946731.4423,82
1602946731.4443,87
1602946731.4463,99
1602946731.4469,106
1602946731.4483,104
1602946731.4503,114
1602946731.4523,123
1602946731.4543,131
1602946731.4563,133
1602946731.4583,136
1602946731.4603,136
1602946731.4623,133
1602946731.4643,128
1602946731.4663,121
1602946731.4683,111
1602946731.4703,97
1602946731.4724,77
1602946731.4743,53
1602946731.4763,34
1602946731.4769,12
1602946731.4783,-9
1602946731.4803,-21
1602946731.4823,-29
1602946731.4843,-34
1602946731.4863,-31
1602946731.4883,-31
1602946731.4904,-29
1602946731.4923,-26
1602946731.4943,-26
1602946731.4963,-21
1602946731.4984,-17
1602946731.5003,-9
1602946731.5023,-4
1602946731.5044,-4
1602946731.5064,0
1602946731.5069,2
1602946731.5083,9
1602946731.5103,9
1602946731.5124,4
1602946731.5144,9
1602946731.5163,12
1602946731.5183,14
1602946731.8932,17
1602946731.8941,12
1602946731.8965,9
1602946731.8982,12
1602946731.9004,14
1602946731.9022,12
1602946731.9043,2
1602946731.9062,0
1602946731.9082,4
1602946731.9088,0
1602946731.9102,-9
1602946731.9122,-9
1602946731.9142,-2
1602946731.9161,-7
1602946731.9182,-21
1602946731.9201,-17
1602946731.9221,-9
1602946731.9242,-9
1602946731.9261,-7
1602946731.9281,-7
1602946731.9301,-4
1602946731.9321,-2
1602946731.9341,2
1602946731.9361,7
1602946731.9381,7
1602946731.9387,4
1602946731.9401,7
1602946731.9421,12
1602946731.9442,14
1602946731.9461,14
1602946731.9481,12
1602946731.9501,17
1602946731.9521,17
1602946731.9541,21
1602946731.9561,29
1602946731.9581,38
1602946731.9601,55
1602946731.9621,63
1602946731.9641,51
1602946731.9661,41
1602946731.9681,43
1602946731.9687,41
1602946731.9701,31
1602946731.9721,21
1602946731.9741,19
1602946731.9761,19
1602946731.9781,24
1602946731.9801,31
1602946731.9821,31
1602946731.9841,31
1602946731.9861,19
1602946731.9881,24
1602946731.9901,136
1602946731.9921,374
1602946731.9942,473
1602946731.9962,77
1602946731.9981,-434
1602946731.9987,-335
1602946732.0001,31
1602946732.0021,60
1602946732.0041,0
1602946732.0061,58
1602946732.0081,75
1602946732.0100,43
1602946732.0121,55
1602946732.0141,68
1602946732.0161,58
1602946732.0181,60
1602946732.0201,70
1602946732.0220,70
1602946732.0242,70
1602946732.0261,70
1602946732.0281,65
1602946732.4629,68
1602946732.4636,77
1602946732.4660,85
1602946732.4687,85
1602946732.4707,94
1602946732.4727,104
1602946732.4747,106
1602946732.4767,99
1602946732.4787,99
1602946732.4807,106
1602946732.4827,116
1602946732.4847,119
1602946732.4867,121
1602946732.4873,123
1602946732.4887,121
1602946732.4907,119
1602946732.4927,114
1602946732.4946,102
1602946732.4967,85
1602946732.4987,63
1602946732.5006,48
1602946732.5026,31
1602946732.5047,9
1602946732.5066,-7
1602946732.5086,-19
1602946732.5107,-31
1602946732.5127,-38
1602946732.5146,-41
1602946732.5166,-34
1602946732.5172,-31
1602946732.5186,-29
1602946732.5206,-24
1602946732.5226,-19
1602946732.5248,-14
1602946732.5266,-9
1602946732.5286,-4
1602946732.5306,0
1602946732.5326,2
1602946732.5346,4
1602946732.5366,9
1602946732.5386,12
1602946732.5406,7
1602946732.5426,2
1602946732.5446,2
1602946732.5467,7
1602946732.5473,9
1602946732.5486,12
1602946732.5506,12
1602946732.5526,12
1602946732.5547,9
1602946732.5566,7
1602946732.5586,7
1602946732.5606,12
1602946732.5626,14
1602946732.5647,14
1602946732.5666,14
1602946732.5686,17
1602946732.5706,17
1602946732.5726,14
1602946732.5746,19
1602946732.5766,21
1602946732.5773,21
1602946732.5786,26
1602946732.5806,26
1602946732.5826,17
1602946732.5847,14
1602946732.5866,19
1602946732.5886,21
1602946732.5906,24
1602946732.5926,26
1602946732.5947,24
1602946732.5967,21
1602946732.5986,26
1602946733.0036,26
1602946733.0044,24
1602946733.0069,31
1602946733.0096,31
1602946733.0102,26
1602946733.0115,26
1602946733.0136,31
1602946733.0155,29
1602946733.0175,24
1602946733.0195,41
1602946733.0215,63
1602946733.0237,58
1602946733.0255,36
1602946733.0275,36
1602946733.0295,41
1602946733.0315,34
1602946733.0335,21
1602946733.0355,19
1602946733.0375,19
1602946733.0395,17
1602946733.0401,24
1602946733.0415,29
1602946733.0435,36
1602946733.0454,31
1602946733.0474,14
1602946733.0494,80
1602946733.0515,298
1602946733.0535,497
1602946733.0554,276
1602946733.0575,-298
1602946733.0587,-451
1602946733.0604,-80
1602946733.0625,82
1602946733.0645,2
1602946733.0664,34
1602946733.0671,77
1602946733.0684,46
1602946733.0704,46
1602946733.0725,70
1602946733.0745,63
1602946733.0765,55
1602946733.0784,65
1602946733.0805,68
1602946733.0824,63
1602946733.0845,72
1602946733.0864,82
1602946733.0885,87
1602946733.0904,87
1602946733.0925,89
1602946733.0945,97
1602946733.0964,102
1602946733.0971,111
1602946733.0984,116
1602946733.1004,123
1602946733.1024,128
1602946733.1045,133
1602946733.1065,140
1602946733.1084,140
1602946733.1105,136
1602946733.1125,138
1602946733.1145,133
1602946733.1164,123
1602946733.1186,123
1602946733.1205,114
1602946733.1224,97
1602946733.1245,77
1602946733.1264,55
1602946733.1271,38
1602946733.1284,19
1602946733.1304,-2
1602946733.1324,-17
1602946733.1344,-29
1602946733.1365,-31
1602946733.5736,-31
1602946733.5744,-36
1602946733.5768,-41
1602946733.5795,-38
1602946733.5815,-36
1602946733.5835,-43
1602946733.5856,-41
1602946733.5862,-26
1602946733.5875,-24
1602946733.5895,-26
1602946733.5915,-19
1602946733.5935,-14
1602946733.5954,-17
1602946733.5974,-17
1602946733.5994,-7
1602946733.6014,2
1602946733.6035,-2
1602946733.6054,-7
1602946733.6075,-4
1602946733.6094,-2
1602946733.6114,-2
1602946733.6135,-7
1602946733.6154,-2
1602946733.6160,-4
1602946733.6174,-17
1602946733.6194,-14
1602946733.6214,-4
1602946733.6235,-2
1602946733.6254,-4
1602946733.6274,-9
1602946733.6294,-9
1602946733.6314,-4
1602946733.6335,-7
1602946733.6354,-7
1602946733.6374,-2
1602946733.6394,4
1602946733.6414,7
1602946733.6434,2
1602946733.6454,0
1602946733.6460,2
1602946733.6476,2
1602946733.6494,4
1602946733.6514,4
1602946733.6534,4
1602946733.6554,9
1602946733.6573,14
1602946733.6594,9
1602946733.6613,4
1602946733.6634,4
1602946733.6654,4
1602946733.6674,2
1602946733.6694,2
1602946733.6714,7
1602946733.6734,26
1602946733.6754,38
1602946733.6760,26
1602946733.6774,14
1602946733.6794,17
1602946733.6814,14
1602946733.6834,-2
1602946733.6854,-9
1602946733.6874,-2
1602946733.6893,0
1602946733.6914,0
1602946733.6934,7
1602946733.6954,12
1602946733.6973,9
1602946733.6994,-2
1602946733.7014,7
1602946733.7034,160
1602946733.7053,444
1602946733.7060,480
1602946733.7074,-43
1602946734.1435,-544
1602946734.1443,-318
1602946734.1467,55
1602946734.1494,19
1602946734.1514,-24
1602946734.1535,60
1602946734.1555,48
1602946734.1574,2
1602946734.1594,26
1602946734.1614,41
1602946734.1634,26
1602946734.1654,34
1602946734.1674,46
1602946734.1680,46
1602946734.1694,48
1602946734.1714,51
1602946734.1734,48
1602946734.1754,55
1602946734.1775,63
1602946734.1794,72
1602946734.1814,82
1602946734.1834,87
1602946734.1854,92
1602946734.1874,97
1602946734.1893,106
1602946734.1913,119
1602946734.1933,126
1602946734.1953,131
1602946734.1973,133
1602946734.1979,131
1602946734.1993,131
1602946734.2013,131
1602946734.2034,131
1602946734.2053,121
1602946734.2073,104
1602946734.2093,85
1602946734.2113,65
1602946734.2133,41
1602946734.2153,19
1602946734.2173,2
1602946734.2193,-12
1602946734.2213,-26
1602946734.2234,-41
1602946734.2253,-43
1602946734.2273,-38
1602946734.2279,-43
1602946734.2293,-51
1602946734.2314,-48
1602946734.2333,-41
1602946734.2353,-41
1602946734.2373,-38
1602946734.2393,-26
1602946734.2413,-19
1602946734.2433,-17
1602946734.2453,-12
1602946734.2473,-7
1602946734.2493,-4
1602946734.2513,-2
1602946734.2533,0
1602946734.2553,4
1602946734.2573,2
1602946734.2579,2
1602946734.2594,7
1602946734.2613,9
1602946734.2634,7
1602946734.2653,4
1602946734.2673,4
1602946734.2693,7
1602946734.2713,4
1602946734.2735,2
1602946734.2754,0
1602946734.2773,4
1602946734.2793,9
1602946734.7135,7
1602946734.7143,7
1602946734.7168,12
1602946734.7194,0
1602946734.7215,-9
1602946734.7235,-9
1602946734.7255,-7
1602946734.7274,-12
1602946734.7294,-24
1602946734.7314,-21
1602946734.7335,-9
1602946734.7354,-7
1602946734.7374,-7
1602946734.7394,-4
1602946734.7414,-2
1602946734.7434,-4
1602946734.7454,-7
1602946734.7460,0
1602946734.7473,9
1602946734.7494,26
1602946734.7514,46
1602946734.7534,43
1602946734.7554,31
1602946734.7574,26
1602946734.7594,31
1602946734.7614,26
1602946734.7634,14
1602946734.7653,2
1602946734.7674,4
1602946734.7694,14
1602946734.7714,19
1602946734.7734,14
1602946734.7753,19
1602946734.7759,24
1602946734.7773,7
1602946734.7793,31
1602946734.7813,196
1602946734.7834,449
1602946734.7853,395
1602946734.7874,-160
1602946734.7893,-531
1602946734.7913,-228
1602946734.7933,72
1602946734.7953,12
1602946734.7973,0
1602946734.7993,70
1602946734.8014,48
1602946734.8036,26
1602946734.8054,58
1602946734.8059,60
1602946734.8073,48
1602946734.8094,58
1602946734.8113,63
1602946734.8134,60
1602946734.8153,68
1602946734.8173,75
1602946734.8193,75
1602946734.8214,77
1602946734.8234,82
1602946734.8253,89
1602946734.8273,97
1602946734.8293,104
1602946734.8313,111
1602946734.8334,116
1602946734.8353,123
1602946734.8359,133
1602946734.8373,143
1602946734.8393,153
1602946734.8413,155
1602946734.8433,150
1602946734.8453,143
1602946734.8474,140
1602946734.8493,136
1602946735.2836,121
1602946735.2845,106
1602946735.2869,89
1602946735.2896,70
1602946735.2916,46
1602946735.2924,24
1602946735.2936,7
1602946735.2956,-4
1602946735.2976,-26
1602946735.2996,-38
1602946735.3016,-34
1602946735.3036,-29
1602946735.3056,-31
1602946735.3076,-34
1602946735.3096,-29
1602946735.3116,-24
1602946735.3137,-24
1602946735.3156,-19
1602946735.3176,-17
1602946735.3196,-14
1602946735.3216,-12
1602946735.3222,-9
1602946735.3236,-4
1602946735.3256,0
1602946735.3276,7
1602946735.3298,7
1602946735.3315,2
1602946735.3336,0
1602946735.3355,0
1602946735.3375,-2
1602946735.3395,2
1602946735.3415,4
1602946735.3436,0
1602946735.3455,0
1602946735.3475,2
1602946735.3496,2
1602946735.3515,0
1602946735.3521,2
1602946735.3536,7
1602946735.3555,9
1602946735.3575,7
1602946735.3595,9
1602946735.3615,12
1602946735.3635,9
1602946735.3655,9
1602946735.3675,12
1602946735.3695,14
1602946735.3715,17
1602946735.3735,19
1602946735.3755,19
1602946735.3774,19
1602946735.3795,21
1602946735.3815,19
1602946735.3821,24
1602946735.3835,29
1602946735.3855,24
1602946735.3874,19
1602946735.3895,24
1602946735.3915,29
1602946735.3935,29
1602946735.3955,24
1602946735.3974,24
1602946735.3995,31
1602946735.4014,51
1602946735.4035,68
1602946735.4055,60
1602946735.4075,48
1602946735.4095,43
1602946735.4114,43
1602946735.4121,36
1602946735.4135,26
1602946735.4155,21
1602946735.4175,24
1602946735.8230,24
1602946735.8238,21
1602946735.8262,24
1602946735.8291,34
1602946735.8310,36
1602946735.8329,21
1602946735.8349,72
1602946735.8368,276
1602946735.8388,485
1602946735.8409,293
1602946735.8429,-291
1602946735.8435,-485
1602946735.8449,-119
1602946735.8469,72
1602946735.8488,0
1602946735.8508,29
1602946735.8528,77
1602946735.8548,48
1602946735.8568,43
1602946735.8588,60
1602946735.8608,46
1602946735.8628,36
1602946735.8648,46
1602946735.8668,51
1602946735.8688,51
1602946735.8708,58
1602946735.8728,58
1602946735.8734,63
1602946735.8748,72
1602946735.8768,77
1602946735.8788,85
1602946735.8808,92
1602946735.8828,99
1602946735.8848,104
1602946735.8868,111
1602946735.8888,123
1602946735.8908,126
1602946735.8928,128
1602946735.8948,140
1602946735.8968,148
1602946735.8988,145
1602946735.9008,145
1602946735.9028,145
1602946735.9034,138
1602946735.9048,123
1602946735.9068,109
1602946735.9088,94
1602946735.9108,70
1602946735.9128,46
1602946735.9148,24
1602946735.9168,9
1602946735.9188,-4
1602946735.9208,-19
1602946735.9228,-21
1602946735.9250,-19
1602946735.9268,-21
1602946735.9288,-19
1602946735.9308,-17
1602946735.9328,-12
1602946735.9334,-7
1602946735.9348,-9
1602946735.9368,-9
1602946735.9388,-2
1602946735.9409,2
1602946735.9428,0
1602946735.9448,0
1602946735.9468,2
1602946735.9488,2
1602946735.9508,7
1602946735.9528,9
1602946735.9548,9
1602946735.9568,9
1602946735.9588,9
1602946736.3929,4
1602946736.3935,7
1602946736.3959,7
1602946736.3986,4
1602946736.4006,7
1602946736.4026,7
1602946736.4046,4
1602946736.4066,-7
1602946736.4086,-14
1602946736.4106,-7
1602946736.4126,-4
1602946736.4146,-7
1602946736.4166,-4
1602946736.4186,-4
1602946736.4206,-9
1602946736.4212,-12
1602946736.4226,-4
1602946736.4245,0
1602946736.4266,-4
1602946736.4286,0
1602946736.4306,7
1602946736.4325,7
1602946736.4346,7
1602946736.4366,4
1602946736.4386,9
1602946736.4406,14
1602946736.4426,14
1602946736.4446,14
1602946736.4465,14
1602946736.4485,14
1602946736.4505,19
1602946736.4511,19
1602946736.4527,21
1602946736.4546,31
1602946736.4565,46
1602946736.4585,63
1602946736.4605,65
1602946736.4625,48
1602946736.4645,41
1602946736.4665,48
1602946736.4685,46
1602946736.4705,34
1602946736.4725,21
1602946736.4745,19
1602946736.4765,21
1602946736.4785,26
1602946736.4805,26
1602946736.4811,26
1602946736.4825,34
1602946736.4846,26
1602946736.4865,48
1602946736.4885,204
1602946736.4905,444
1602946736.4925,417
1602946736.4947,-99
1602946736.4965,-490
1602946736.4985,-228
1602946736.5005,77
1602946736.5025,38
1602946736.5045,19
1602946736.5066,80
1602946736.5085,68
1602946736.5105,48
1602946736.5111,68
1602946736.5125,70
1602946736.5145,63
1602946736.5165,70
1602946736.5185,72
1602946736.5205,72
1602946736.5225,77
1602946736.5246,80
1602946736.5265,82
1602946736.5285,87
1602946736.9337,92
1602946736.9345,99
1602946736.9369,99
1602946736.9396,104
1602946736.9416,114
1602946736.9437,119
1602946736.9443,123
1602946736.9457,123
1602946736.9476,116
1602946736.9497,121
1602946736.9519,136
1602946736.9536,133
1602946736.9555,128
1602946736.9575,131
1602946736.9596,131
1602946736.9616,119
1602946736.9636,104
1602946736.9656,87
1602946736.9676,65
1602946736.9696,38
1602946736.9717,19
1602946736.9736,4
1602946736.9741,-7
1602946736.9755,-21
1602946736.9776,-34
1602946736.9795,-34
1602946736.9816,-26
1602946736.9836,-21
1602946736.9856,-24
1602946736.9876,-21
1602946736.9895,-14
1602946736.9915,-14
1602946736.9936,-12
1602946736.9955,-9
1602946736.9975,-7
1602946736.9995,-4
1602946737.0015,-4
1602946737.0035,-2
1602946737.0041,2
1602946737.0055,0
1602946737.0075,0
1602946737.0095,0
1602946737.0115,4
1602946737.0136,7
1602946737.0155,4
1602946737.0175,7
1602946737.0195,7
1602946737.0215,2
1602946737.0236,7
1602946737.0255,4
1602946737.0275,0
1602946737.0295,0
1602946737.0315,0
1602946737.0336,2
1602946737.0341,9
1602946737.0355,9
1602946737.0375,4
1602946737.0395,2
1602946737.0415,7
1602946737.0436,9
1602946737.0456,14
1602946737.0476,17
1602946737.0496,14
1602946737.0515,12
1602946737.0536,17
1602946737.0555,14
1602946737.0576,12
1602946737.0595,12
1602946737.0615,14
1602946737.0635,14
1602946737.0641,9
1602946737.0655,12
1602946737.0675,17
1602946737.5032,7
1602946737.5040,2
1602946737.5065,7
1602946737.5090,7
1602946737.5111,2
1602946737.5131,0
1602946737.5151,7
1602946737.5170,29
1602946737.5190,46
1602946737.5210,36
1602946737.5216,14
1602946737.5231,14
1602946737.5250,21
1602946737.5271,14
1602946737.5290,4
1602946737.5310,2
1602946737.5331,0
1602946737.5350,-2
1602946737.5370,4
1602946737.5390,17
1602946737.5410,17
1602946737.5430,4
1602946737.5450,-4
1602946737.5470,58
1602946737.5490,289
1602946737.5510,524
1602946737.5516,306
1602946737.5531,-332
1602946737.5550,-531
1602946737.5569,-128
1602946737.5589,68
1602946737.5610,-19
1602946737.5630,17
1602946737.5650,68
1602946737.5670,31
1602946737.5689,31
1602946737.5710,55
1602946737.5731,51
1602946737.5750,46
1602946737.5771,53
1602946737.5790,53
1602946737.5810,48
1602946737.5816,53
1602946737.5830,60
1602946737.5850,63
1602946737.5869,65
1602946737.5889,72
1602946737.5910,80
1602946737.5931,85
1602946737.5950,89
1602946737.5970,102
1602946737.5990,109
1602946737.6010,111
1602946737.6031,121
1602946737.6049,131
1602946737.6070,133
1602946737.6090,138
1602946737.6110,136
1602946737.6115,131
1602946737.6130,128
1602946737.6150,123
1602946737.6170,114
1602946737.6190,92
1602946737.6210,72
1602946737.6230,46
1602946737.6249,17
1602946737.6269,-9
1602946737.6289,-31
1602946737.6310,-46
1602946737.6330,-55
1602946737.6350,-58
1602946737.6370,-51
1602946737.6389,-46
1602946738.1036,-53
1602946738.1044,-48
1602946738.1068,-41
1602946738.1095,-43
1602946738.1115,-46
1602946738.1135,-41
1602946738.1155,-43
1602946738.1174,-53
1602946738.1194,-46
1602946738.1214,-36
1602946738.1235,-41
1602946738.1254,-36
1602946738.1275,-19
1602946738.1294,-14
1602946738.1315,-21
1602946738.1336,-24
1602946738.1341,-21
1602946738.1356,-21
1602946738.1375,-21
1602946738.1395,-17
1602946738.1414,-21
1602946738.1435,-26
1602946738.1454,-21
1602946738.1474,-19
1602946738.1494,-17
1602946738.1514,-17
1602946738.1534,-17
1602946738.1554,-19
1602946738.1574,-19
1602946738.1594,-14
1602946738.1614,-12
1602946738.1635,-12
1602946738.1640,-7
1602946738.1654,-9
1602946738.1674,-7
1602946738.1694,0
1602946738.1714,2
1602946738.1734,-2
1602946738.1754,-2
1602946738.1775,2
1602946738.1794,4
1602946738.1814,2
1602946738.1834,2
1602946738.1854,7
1602946738.1874,7
1602946738.1894,7
1602946738.1914,4
1602946738.1934,4
1602946738.2017,0
1602946738.2034,0
1602946738.2054,4
1602946738.2074,17
1602946738.2093,36
1602946738.2113,48
1602946738.2134,38
1602946738.2154,26
1602946738.2174,26
1602946738.2194,24
1602946738.2214,12
1602946738.2234,0
1602946738.2254,-4
1602946738.2274,-4
1602946738.2294,-4
1602946738.2300,4
1602946738.2313,9
1602946738.2334,9
1602946738.2354,4
1602946738.2374,4
1602946738.2395,82
1602946738.2414,315
1602946738.2434,502
1602946738.2454,208
1602946738.2474,-400
1602946738.6435,-468
1602946738.6443,-48
1602946738.6467,70
1602946738.6494,-21
1602946738.6500,31
1602946738.6514,70
1602946738.6535,29
1602946738.6555,29
1602946738.6574,51
1602946738.6593,41
1602946738.6614,36
1602946738.6634,43
1602946738.6653,38
1602946738.6673,34
1602946738.6693,43
1602946738.6713,48
1602946738.6734,55
1602946738.6753,63
1602946738.6773,68
1602946738.6793,75
1602946738.6800,77
1602946738.6813,85
1602946738.6833,94
1602946738.6853,99
1602946738.6873,109
1602946738.6893,119
1602946738.6913,119
1602946738.6933,119
1602946738.6953,119
1602946738.6973,123
1602946738.6993,123
1602946738.7013,116
1602946738.7034,106
1602946738.7053,99
1602946738.7073,87
1602946738.7092,63
1602946738.7099,38
1602946738.7113,21
1602946738.7133,2
1602946738.7153,-19
1602946738.7174,-29
1602946738.7193,-36
1602946738.7213,-41
1602946738.7233,-43
1602946738.7253,-46
1602946738.7273,-43
1602946738.7295,-41
1602946738.7314,-41
1602946738.7334,-38
1602946738.7353,-34
1602946738.7373,-29
1602946738.7393,-31
1602946738.7399,-26
1602946738.7413,-19
1602946738.7433,-17
1602946738.7453,-14
1602946738.7473,-7
1602946738.7493,-4
1602946738.7513,-2
1602946738.7533,-2
1602946738.7552,2
1602946738.7573,4
1602946738.7593,0
1602946738.7613,0
1602946738.7633,2
1602946738.7653,4
1602946738.7673,4
1602946738.7693,0
1602946738.7699,0
1602946738.7713,7
1602946738.7733,7
1602946738.7753,2
1602946738.7773,0
1602946739.1835,4
1602946739.1843,4
1602946739.1867,2
1602946739.1894,9
1602946739.1914,12
1602946739.1934,9
1602946739.1954,14
1602946739.1973,14
1602946739.1993,9
1602946739.2013,4
1602946739.2021,4
1602946739.2044,9
1602946739.2064,7
1602946739.2084,2
1602946739.2104,9
1602946739.2124,17
1602946739.2144,14
1602946739.2163,12
1602946739.2183,17
1602946739.2203,19
1602946739.2223,14
1602946739.2244,17
1602946739.2263,24
1602946739.2283,24
1602946739.2305,21
1602946739.2324,24
1602946739.2330,24
1602946739.2343,29
1602946739.2363,31
1602946739.2383,46
1602946739.2403,60
1602946739.2423,53
1602946739.2443,38
1602946739.2463,36
1602946739.2483,41
1602946739.2503,34
1602946739.2523,19
1602946739.2543,17
1602946739.2563,19
1602946739.2583,21
1602946739.2603,21
1602946739.2623,26
1602946739.2630,31
1602946739.2643,26
1602946739.2663,12
1602946739.2683,68
1602946739.2703,272
1602946739.2723,485
1602946739.2744,298
1602946739.2763,-281
1602946739.2783,-478
1602946739.2803,-116
1602946739.2823,75
1602946739.2843,2
1602946739.2863,26
1602946739.2883,70
1602946739.2903,43
1602946739.2923,41
1602946739.2930,65
1602946739.2943,60
1602946739.2963,55
1602946739.2983,58
1602946739.3003,55
1602946739.3023,53
1602946739.3043,60
1602946739.3063,68
1602946739.3083,70
1602946739.3103,72
1602946739.3123,77
1602946739.3143,87
1602946739.3163,94
1602946739.3183,102
1602946739.3203,99
1602946739.7532,104
1602946739.7540,116
1602946739.7567,121
1602946739.7591,126
1602946739.7611,133
1602946739.7631,138
1602946739.7651,128
1602946739.7670,119
1602946739.7690,123
1602946739.7710,119
1602946739.7731,106
1602946739.7737,94
1602946739.7751,75
1602946739.7757,53
1602946739.7771,29
1602946739.7791,7
1602946739.7811,-7
1602946739.7831,-24
1602946739.7850,-41
1602946739.7870,-43
1602946739.7890,-46
1602946739.7911,-51
1602946739.7931,-48
1602946739.7950,-41
1602946739.7970,-38
1602946739.7990,-41
1602946739.8010,-34
1602946739.8031,-21
1602946739.8050,-17
1602946739.8056,-14
1602946739.8070,-9
1602946739.8091,-4
1602946739.8111,0
1602946739.8131,0
1602946739.8150,2
1602946739.8170,7
1602946739.8190,7
1602946739.8210,2
1602946739.8230,0
1602946739.8250,2
1602946739.8270,4
1602946739.8290,4
1602946739.8310,4
1602946739.8330,7
1602946739.8350,7
1602946739.8356,7
1602946739.8370,7
1602946739.8390,7
1602946739.8411,4
1602946739.8430,4
1602946739.8451,7
1602946739.8471,7
1602946739.8490,7
1602946739.8512,7
1602946739.8531,7
1602946739.8550,12
1602946739.8570,12
1602946739.8590,12
1602946739.8610,14
1602946739.8630,17
1602946739.8650,17
1602946739.8656,14
1602946739.8670,19
1602946739.8690,24
1602946739.8710,21
1602946739.8731,17
1602946739.8750,21
1602946739.8770,29
1602946739.8791,26
1602946739.8810,26
1602946739.8830,29
1602946739.8850,29
1602946739.8870,26
1602946740.2930,29
1602946740.2939,31
1602946740.2955,31
1602946740.2980,31
1602946740.3000,29
1602946740.3020,26
1602946740.3041,26
1602946740.3060,21
1602946740.3079,26
1602946740.3100,51
1602946740.3120,63
1602946740.3140,51
1602946740.3160,34
1602946740.3180,34
1602946740.3200,34
1602946740.3220,21
1602946740.3240,14
1602946740.3259,14
1602946740.3265,17
1602946740.3279,19
1602946740.3299,21
1602946740.3319,24
1602946740.3340,24
1602946740.3359,17
1602946740.3379,19
1602946740.3399,104
1602946740.3420,325
1602946740.3440,495
1602946740.3459,211
1602946740.3479,-361
1602946740.3499,-434
1602946740.3521,-55
1602946740.3540,68
1602946740.3559,-7
1602946740.3565,34
1602946740.3579,63
1602946740.3599,34
1602946740.3619,43
1602946740.3639,60
1602946740.3659,55
1602946740.3679,55
1602946740.3699,60
1602946740.3719,60
1602946740.3739,55
1602946740.3759,53
1602946740.3779,58
1602946740.3799,63
1602946740.3819,70
1602946740.3840,75
1602946740.3859,80
1602946740.3865,85
1602946740.3879,92
1602946740.3900,102
1602946740.3919,111
1602946740.3940,114
1602946740.3959,121
1602946740.3979,136
1602946740.3999,145
1602946740.4019,145
1602946740.4040,138
1602946740.4060,136
1602946740.4079,131
1602946740.4099,116
1602946740.4119,109
1602946740.4139,99
1602946740.4159,82
1602946740.4165,55
1602946740.4179,34
1602946740.4199,14
1602946740.4219,-2
1602946740.4240,-17
1602946740.4259,-26
1602946740.4279,-34
1602946740.8632,-36
1602946740.8641,-34
1602946740.8665,-29
1602946740.8692,-34
1602946740.8712,-46
1602946740.8733,-51
1602946740.8753,-38
1602946740.8774,-29
1602946740.8780,-24
1602946740.8794,-19
1602946740.8813,-12
1602946740.8832,-4
1602946740.8851,-4
1602946740.8872,-2
1602946740.8892,4
1602946740.8912,9
1602946740.8932,7
1602946740.8952,4
1602946740.8972,7
1602946740.8991,14
1602946740.9012,12
1602946740.9032,7
1602946740.9051,9
1602946740.9071,7
1602946740.9077,2
1602946740.9091,0
1602946740.9111,4
1602946740.9132,4
1602946740.9151,2
1602946740.9171,7
1602946740.9191,7
1602946740.9211,7
1602946740.9232,7
1602946740.9251,9
1602946740.9271,12
1602946740.9291,9
1602946740.9311,9
1602946740.9331,12
1602946740.9351,17
1602946740.9371,19
1602946740.9377,14
1602946740.9391,17
1602946740.9411,21
1602946740.9431,19
1602946740.9451,14
1602946740.9471,17
1602946740.9491,21
1602946740.9511,24
1602946740.9532,26
1602946740.9551,26
1602946740.9571,26
1602946740.9591,24
1602946740.9611,21
1602946740.9631,29
1602946740.9650,31
1602946740.9671,26
1602946740.9677,26
1602946740.9691,31
1602946740.9711,24
1602946740.9730,14
1602946740.9753,26
1602946740.9772,41
1602946740.9791,53
1602946740.9811,65
1602946740.9832,58
1602946740.9851,51
1602946740.9871,48
1602946740.9891,38
1602946740.9911,29
1602946740.9931,21
1602946740.9951,17
1602946740.9971,17
1602946740.9977,19
1602946741.4632,19
1602946741.4641,21
1602946741.4665,29
1602946741.4692,26
1602946741.4712,7
1602946741.4733,68
1602946741.4753,298
1602946741.4772,527
1602946741.4792,301
1602946741.4812,-335
1602946741.4832,-529
1602946741.4851,-126
1602946741.4858,65
1602946741.4872,-19
1602946741.4893,17
1602946741.4913,60
1602946741.4932,14
1602946741.4952,4
1602946741.4972,34
1602946741.4992,31
1602946741.5011,31
1602946741.5032,43
1602946741.5051,38
1602946741.5071,34
1602946741.5091,43
1602946741.5111,48
1602946741.5132,48
1602946741.5151,53
1602946741.5157,55
1602946741.5171,60
1602946741.5191,68
1602946741.5211,75
1602946741.5232,77
1602946741.5251,77
1602946741.5271,87
1602946741.5291,94
1602946741.5311,99
1602946741.5331,111
1602946741.5353,116
1602946741.5372,119
1602946741.5391,116
1602946741.5411,109
1602946741.5431,106
1602946741.5451,99
1602946741.5457,82
1602946741.5471,58
1602946741.5491,38
1602946741.5510,19
1602946741.5531,-4
1602946741.5551,-26
1602946741.5571,-36
1602946741.5591,-46
1602946741.5611,-53
1602946741.5631,-55
1602946741.5651,-55
1602946741.5671,-53
1602946741.5691,-48
1602946741.5711,-46
1602946741.5731,-48
1602946741.5751,-48
1602946741.5757,-41
1602946741.5771,-31
1602946741.5791,-26
1602946741.5811,-21
1602946741.5832,-17
1602946741.5851,-14
1602946741.5871,-7
