,ecg
1605963123.2077,2631.0
1605963123.2112,5183.0
1605963123.2138,6606.0
1605963123.2165,7392.0
1605963123.2183,8427.0
1605963123.2203,9233.0
1605963123.2224,9731.0
1605963123.2243,10268.0
1605963123.2264,10759.0
1605963123.2287,11101.0
1605963123.2309,11406.0
1605963123.2329,11713.0
1605963123.2352,11970.0
1605963123.2369,12170.0
1605963123.2383,12360.0
1605963123.2403,12521.0
1605963123.2423,12641.0
1605963123.2443,12758.0
1605963123.2463,12878.0
1605963123.2483,12971.0
1605963123.2503,13044.0
1605963123.2523,13100.0
1605963123.2543,13164.0
1605963123.2563,13225.0
1605963123.2583,13271.0
1605963123.2603,13300.0
1605963123.2622,13339.0
1605963123.2643,13359.0
1605963123.2662,13334.0
1605963123.2682,13320.0
1605963123.2702,13339.0
1605963123.2722,13337.0
1605963123.2742,13322.0
1605963123.2762,13337.0
1605963123.2784,13349.0
1605963123.2802,13317.0
1605963123.2822,13273.0
1605963123.2842,13251.0
1605963123.2862,13237.0
1605963123.2881,13198.0
1605963123.2902,13149.0
1605963123.2922,13107.0
1605963123.2942,13068.0
1605963123.2962,12919.0
1605963123.2982,12526.0
1605963123.3002,12211.0
1605963123.3022,12656.0
1605963123.3042,13537.0
1605963123.3063,13576.0
1605963123.3081,12885.0
1605963123.3103,12619.0
1605963123.3122,12644.0
1605963123.3141,12470.0
1605963123.3162,12377.0
1605963123.3181,12390.0
1605963123.3201,12287.0
1605963123.3221,12170.0
1605963123.3241,12121.0
1605963123.3262,12058.0
1605963123.3281,11962.0
1605963123.3301,11882.0
1605963123.3321,11818.0
1605963123.3341,11748.0
1605963123.3361,11657.0
1605963123.3381,11567.0
1605963123.3401,11494.0
1605963123.3421,11408.0
1605963123.3441,11296.0
1605963123.3462,11201.0
1605963123.3481,11135.0
1605963123.3501,11035.0
1605963123.3521,10917.0
1605963123.3541,10830.0
1605963123.7764,10749.0
1605963123.7773,10651.0
1605963123.7798,10541.0
1605963123.7823,10449.0
1605963123.7843,10383.0
1605963123.7864,10305.0
1605963123.7885,10217.0
1605963123.7904,10146.0
1605963123.7923,10095.0
1605963123.7943,10031.0
1605963123.7965,9948.0
1605963123.7983,9897.0
1605963123.8003,9853.0
1605963123.8023,9782.0
1605963123.8043,9716.0
1605963123.8064,9648.0
1605963123.8083,9570.0
1605963123.8104,9499.0
1605963123.8123,9431.0
1605963123.8143,9348.0
1605963123.8164,9255.0
1605963123.8183,9152.0
1605963123.8203,9057.0
1605963123.8223,8977.0
1605963123.8243,8906.0
1605963123.8263,8828.0
1605963123.8283,8723.0
1605963123.8303,8623.0
1605963123.8325,8547.0
1605963123.8343,8461.0
1605963123.8363,8374.0
1605963123.8383,8295.0
1605963123.8403,8220.0
1605963123.8423,8129.0
1605963123.8443,8049.0
1605963123.8462,7978.0
1605963123.8482,7885.0
1605963123.8502,7792.0
1605963123.8522,7729.0
1605963123.8542,7656.0
1605963123.8563,7575.0
1605963123.8582,7492.0
1605963123.8602,7409.0
1605963123.8623,7336.0
1605963123.8642,7263.0
1605963123.8663,7194.0
1605963123.8682,7119.0
1605963123.8702,7033.0
1605963123.8722,6953.0
1605963123.8742,6882.0
1605963123.8763,6816.0
1605963123.8782,6745.0
1605963123.8802,6660.0
1605963123.8822,6589.0
1605963123.8843,6533.0
1605963123.8863,6459.0
1605963123.8882,6376.0
1605963123.8903,6308.0
1605963123.8922,6237.0
1605963123.8942,6164.0
1605963123.8962,6110.0
1605963123.8982,6059.0
1605963123.9002,5983.0
1605963123.9022,5900.0
1605963123.9042,5817.0
1605963123.9063,5734.0
1605963123.9083,5676.0
1605963123.9102,5632.0
1605963123.9122,5573.0
1605963123.9142,5510.0
1605963123.9163,5461.0
1605963123.9182,5422.0
1605963123.9203,5368.0
1605963124.3467,5302.0
1605963124.3476,5239.0
1605963124.3495,5173.0
1605963124.3515,5114.0
1605963124.3534,5063.0
1605963124.3555,5009.0
1605963124.3576,4936.0
1605963124.3594,4733.0
1605963124.3614,4331.0
1605963124.3634,4104.0
1605963124.3654,4631.0
1605963124.3674,5427.0
1605963124.3694,5310.0
1605963124.3714,4645.0
1605963124.3734,4467.0
1605963124.3754,4511.0
1605963124.3774,4377.0
1605963124.3794,4309.0
1605963124.3814,4296.0
1605963124.3834,4216.0
1605963124.3854,4147.0
1605963124.3874,4113.0
1605963124.3894,4069.0
1605963124.3914,4016.0
1605963124.3934,3974.0
1605963124.3954,3928.0
1605963124.3974,3872.0
1605963124.3994,3815.0
1605963124.4014,3767.0
1605963124.4034,3725.0
1605963124.4054,3686.0
1605963124.4074,3632.0
1605963124.4093,3576.0
1605963124.4113,3525.0
1605963124.4133,3466.0
1605963124.4154,3405.0
1605963124.4173,3364.0
1605963124.4193,3320.0
1605963124.4213,3266.0
1605963124.4233,3215.0
1605963124.4254,3161.0
1605963124.4274,3127.0
1605963124.4293,3107.0
1605963124.4314,3068.0
1605963124.4333,3034.0
1605963124.4354,3020.0
1605963124.438,3000.0
1605963124.4395,2990.0
1605963124.4413,3000.0
1605963124.4434,2995.0
1605963124.4454,2963.0
1605963124.4473,2939.0
1605963124.4493,2946.0
1605963124.4514,2951.0
1605963124.4533,2915.0
1605963124.4554,2866.0
1605963124.4573,2832.0
1605963124.4595,2800.0
1605963124.4614,2773.0
1605963124.4634,2749.0
1605963124.4654,2712.0
1605963124.4674,2678.0
1605963124.4693,2651.0
1605963124.4713,2624.0
1605963124.4733,2587.0
1605963124.4754,2546.0
1605963124.4773,2514.0
1605963124.4794,2490.0
1605963124.4813,2460.0
1605963124.4833,2434.0
1605963124.4854,2402.0
1605963124.4873,2368.0
1605963124.4893,2341.0
1605963124.8858,2314.0
1605963124.8867,2282.0
1605963124.8893,2258.0
1605963124.8919,2233.0
1605963124.8938,2202.0
1605963124.8957,2180.0
1605963124.8978,2153.0
1605963124.8997,2121.0
1605963124.9017,2106.0
1605963124.9037,2075.0
1605963124.9058,2050.0
1605963124.9077,2031.0
1605963124.9097,1984.0
1605963124.9117,1960.0
1605963124.9137,1962.0
1605963124.9158,1936.0
1605963124.9177,1904.0
1605963124.9197,1882.0
1605963124.9217,1860.0
1605963124.9237,1848.0
1605963124.9258,1828.0
1605963124.9277,1791.0
1605963124.9297,1767.0
1605963124.9317,1762.0
1605963124.9337,1750.0
1605963124.9357,1716.0
1605963124.9377,1696.0
1605963124.9397,1684.0
1605963124.9417,1650.0
1605963124.9437,1625.0
1605963124.9457,1618.0
1605963124.9477,1599.0
1605963124.9497,1579.0
1605963124.9517,1564.0
1605963124.9537,1550.0
1605963124.9559,1535.0
1605963124.9578,1513.0
1605963124.9597,1494.0
1605963124.9617,1467.0
1605963124.9637,1418.0
1605963124.9657,1391.0
1605963124.9677,1408.0
1605963124.9697,1411.0
1605963124.9717,1381.0
1605963124.9737,1372.0
1605963124.9757,1379.0
1605963124.9777,1367.0
1605963124.9797,1352.0
1605963124.9817,1345.0
1605963124.9837,1320.0
1605963124.9857,1298.0
1605963124.9876,1296.0
1605963124.9897,1284.0
1605963124.9917,1262.0
1605963124.9937,1240.0
1605963124.9957,1074.0
1605963124.9977,688.0
1605963124.9997,534.0
1605963125.0017,1184.0
1605963125.0037,1975.0
1605963125.0057,1789.0
1605963125.0077,1201.0
1605963125.0097,1135.0
1605963125.0117,1201.0
1605963125.0137,1086.0
1605963125.0157,1062.0
1605963125.0177,1101.0
1605963125.0197,1066.0
1605963125.0217,1042.0
1605963125.0237,1044.0
1605963125.0257,1022.0
1605963125.0277,996.0
1605963125.0297,983.0
1605963125.4266,976.0
1605963125.4275,964.0
1605963125.43,947.0
1605963125.4326,935.0
1605963125.4347,920.0
1605963125.4367,893.0
1605963125.4386,874.0
1605963125.4405,871.0
1605963125.4425,849.0
1605963125.4445,815.0
1605963125.4466,805.0
1605963125.4485,795.0
1605963125.4505,756.0
1605963125.4527,720.0
1605963125.4546,712.0
1605963125.4566,703.0
1605963125.4585,686.0
1605963125.4605,686.0
1605963125.4625,686.0
1605963125.4645,671.0
1605963125.4665,673.0
1605963125.4685,698.0
1605963125.4705,712.0
1605963125.4725,729.0
1605963125.4745,761.0
1605963125.4766,778.0
1605963125.4785,783.0
1605963125.4805,805.0
1605963125.4825,822.0
1605963125.4845,812.0
1605963125.4865,793.0
1605963125.4885,788.0
1605963125.4905,788.0
1605963125.4925,776.0
1605963125.4945,766.0
1605963125.4965,766.0
1605963125.4985,766.0
1605963125.5005,761.0
1605963125.5025,742.0
1605963125.5045,729.0
1605963125.5065,727.0
1605963125.5085,715.0
1605963125.5105,698.0
1605963125.5125,698.0
1605963125.5145,705.0
1605963125.5165,690.0
1605963125.5185,673.0
1605963125.5205,673.0
1605963125.5225,666.0
1605963125.5245,656.0
1605963125.5265,659.0
1605963125.5285,651.0
1605963125.5305,637.0
1605963125.5325,627.0
1605963125.5345,617.0
1605963125.5365,620.0
1605963125.5385,625.0
1605963125.5405,615.0
1605963125.5425,605.0
1605963125.5445,605.0
1605963125.5466,607.0
1605963125.5485,593.0
1605963125.5505,581.0
1605963125.5526,583.0
1605963125.5547,578.0
1605963125.5566,571.0
1605963125.5585,571.0
1605963125.5605,571.0
1605963125.5625,568.0
1605963125.5645,554.0
1605963125.5666,541.0
1605963125.5685,546.0
1605963125.5705,549.0
1605963125.9661,544.0
1605963125.9668,537.0
1605963125.9684,529.0
1605963125.9704,522.0
1605963125.9724,510.0
1605963125.9744,500.0
1605963125.9765,507.0
1605963125.9784,512.0
1605963125.9804,495.0
1605963125.9824,480.0
1605963125.9844,483.0
1605963125.9864,480.0
1605963125.9884,471.0
1605963125.9904,476.0
1605963125.9924,468.0
1605963125.9944,454.0
1605963125.9965,458.0
1605963125.9984,468.0
1605963126.0003,461.0
1605963126.0024,456.0
1605963126.0044,449.0
1605963126.0064,419.0
1605963126.0084,388.0
1605963126.0104,395.0
1605963126.0124,419.0
1605963126.0144,419.0
1605963126.0164,410.0
1605963126.0184,412.0
1605963126.0204,427.0
1605963126.0224,437.0
1605963126.0244,437.0
1605963126.0264,432.0
1605963126.0284,432.0
1605963126.0304,427.0
1605963126.0324,412.0
1605963126.0344,400.0
1605963126.0364,407.0
1605963126.0384,402.0
1605963126.0404,239.0
1605963126.0424,-129.0
1605963126.0443,-290.0
1605963126.0464,317.0
1605963126.0485,1135.0
1605963126.0504,1022.0
1605963126.0524,437.0
1605963126.0544,358.0
1605963126.0564,446.0
1605963126.0584,341.0
1605963126.0604,307.0
1605963126.0624,351.0
1605963126.0644,334.0
1605963126.0664,314.0
1605963126.0684,322.0
1605963126.0704,310.0
1605963126.0724,297.0
1605963126.0744,302.0
1605963126.0765,300.0
1605963126.0784,295.0
1605963126.0804,290.0
1605963126.0823,263.0
1605963126.0844,241.0
1605963126.0864,241.0
1605963126.0883,251.0
1605963126.0904,251.0
1605963126.0923,241.0
1605963126.0943,239.0
1605963126.0964,234.0
1605963126.0984,207.0
1605963126.1003,180.0
1605963126.1023,175.0
1605963126.1044,163.0
1605963126.1064,148.0
1605963126.1084,146.0
1605963126.5666,151.0
1605963126.5676,153.0
1605963126.5701,151.0
1605963126.5727,153.0
1605963126.5747,166.0
1605963126.5767,190.0
1605963126.5787,222.0
1605963126.5806,253.0
1605963126.5826,283.0
1605963126.5846,300.0
1605963126.5867,319.0
1605963126.5886,344.0
1605963126.5906,346.0
1605963126.5926,344.0
1605963126.5946,351.0
1605963126.5965,358.0
1605963126.5986,354.0
1605963126.6006,346.0
1605963126.6026,346.0
1605963126.6046,346.0
1605963126.6068,336.0
1605963126.6086,329.0
1605963126.6106,319.0
1605963126.6126,322.0
1605963126.6146,324.0
1605963126.6166,310.0
1605963126.6186,310.0
1605963126.6206,314.0
1605963126.6226,297.0
1605963126.6246,288.0
1605963126.6266,290.0
1605963126.6286,285.0
1605963126.6306,285.0
1605963126.6326,295.0
1605963126.6346,295.0
1605963126.6366,278.0
1605963126.6386,278.0
1605963126.6406,290.0
1605963126.6426,280.0
1605963126.6446,278.0
1605963126.6466,290.0
1605963126.6486,288.0
1605963126.6506,273.0
1605963126.6526,278.0
1605963126.6546,283.0
1605963126.6566,270.0
1605963126.6587,263.0
1605963126.6606,278.0
1605963126.6626,278.0
1605963126.6646,263.0
1605963126.6666,261.0
1605963126.6686,261.0
1605963126.6706,266.0
1605963126.6726,278.0
1605963126.6746,273.0
1605963126.6766,266.0
1605963126.6786,261.0
1605963126.6807,261.0
1605963126.6826,251.0
1605963126.6846,246.0
1605963126.6866,256.0
1605963126.6886,258.0
1605963126.6906,246.0
1605963126.6926,249.0
1605963126.6946,249.0
1605963126.6966,246.0
1605963126.6986,251.0
1605963126.7006,258.0
1605963126.7026,258.0
1605963126.7046,253.0
1605963126.7066,236.0
1605963126.7087,195.0
1605963126.7107,168.0
1605963127.1362,190.0
1605963127.1371,209.0
1605963127.1397,202.0
1605963127.1423,197.0
1605963127.1442,209.0
1605963127.1463,227.0
1605963127.1482,241.0
1605963127.1502,236.0
1605963127.1522,219.0
1605963127.1542,212.0
1605963127.1562,212.0
1605963127.1581,205.0
1605963127.1601,205.0
1605963127.1621,214.0
1605963127.1641,134.0
1605963127.1661,-168.0
1605963127.1681,-480.0
1605963127.1701,-166.0
1605963127.1721,739.0
1605963127.1741,1042.0
1605963127.1761,468.0
1605963127.1781,161.0
1605963127.1801,275.0
1605963127.1821,219.0
1605963127.1841,131.0
1605963127.1862,183.0
1605963127.1881,192.0
1605963127.1901,156.0
1605963127.1921,163.0
1605963127.1941,173.0
1605963127.1961,158.0
1605963127.1981,148.0
1605963127.2001,144.0
1605963127.2021,144.0
1605963127.2041,148.0
1605963127.2061,141.0
1605963127.2081,136.0
1605963127.2101,139.0
1605963127.2121,131.0
1605963127.2141,112.0
1605963127.2161,95.0
1605963127.2181,85.0
1605963127.2201,83.0
1605963127.2221,73.0
1605963127.2241,65.0
1605963127.2262,56.0
1605963127.2281,36.0
1605963127.2301,26.0
1605963127.2321,21.0
1605963127.2343,17.0
1605963127.2362,24.0
1605963127.2381,46.0
1605963127.2401,53.0
1605963127.2421,58.0
1605963127.2441,83.0
1605963127.2461,117.0
1605963127.2481,148.0
1605963127.2501,190.0
1605963127.2521,222.0
1605963127.2541,229.0
1605963127.2561,249.0
1605963127.2581,273.0
1605963127.2601,278.0
1605963127.2621,275.0
1605963127.2641,273.0
1605963127.2661,270.0
1605963127.2681,273.0
1605963127.2701,275.0
1605963127.2721,261.0
1605963127.2741,249.0
1605963127.2762,253.0
1605963127.2781,249.0
1605963127.2801,239.0
1605963127.6759,236.0
1605963127.6767,229.0
1605963127.6792,222.0
1605963127.6813,222.0
1605963127.6829,222.0
1605963127.6848,212.0
1605963127.6867,205.0
1605963127.6888,214.0
1605963127.6907,219.0
1605963127.6927,205.0
1605963127.6947,192.0
1605963127.6967,200.0
1605963127.6987,202.0
1605963127.7008,202.0
1605963127.7027,200.0
1605963127.7048,195.0
1605963127.7067,200.0
1605963127.7088,202.0
1605963127.7096,200.0
1605963127.7108,200.0
1605963127.7128,209.0
1605963127.7148,205.0
1605963127.7168,190.0
1605963127.7187,192.0
1605963127.7207,202.0
1605963127.7227,200.0
1605963127.7247,195.0
1605963127.727,187.0
1605963127.7288,175.0
1605963127.7307,173.0
1605963127.7327,178.0
1605963127.7347,183.0
1605963127.7368,175.0
1605963127.7387,168.0
1605963127.7394,173.0
1605963127.7417,178.0
1605963127.7438,170.0
1605963127.7458,163.0
1605963127.7478,168.0
1605963127.7497,173.0
1605963127.7517,168.0
1605963127.7537,163.0
1605963127.7558,161.0
1605963127.7577,168.0
1605963127.7597,173.0
1605963127.7617,170.0
1605963127.7637,168.0
1605963127.7658,161.0
1605963127.7677,146.0
1605963127.7684,129.0
1605963127.7698,126.0
1605963127.7717,148.0
1605963127.7737,151.0
1605963127.7758,129.0
1605963127.7777,139.0
1605963127.7797,168.0
1605963127.7817,168.0
1605963127.7837,166.0
1605963127.7858,168.0
1605963127.7877,163.0
1605963127.7897,156.0
1605963127.7917,153.0
1605963127.7937,156.0
1605963127.7958,153.0
1605963127.7977,31.0
1605963127.7984,-307.0
1605963127.8007,-529.0
1605963127.8027,-24.0
1605963127.8047,827.0
1605963127.8067,859.0
1605963127.8089,280.0
1605963127.8107,131.0
1605963127.8127,227.0
1605963128.2459,131.0
1605963128.2466,90.0
1605963128.2489,151.0
1605963128.2516,141.0
1605963128.2536,112.0
1605963128.2558,126.0
1605963128.2564,122.0
1605963128.2586,102.0
1605963128.2606,109.0
1605963128.2625,109.0
1605963128.2645,92.0
1605963128.2666,90.0
1605963128.2685,92.0
1605963128.2706,83.0
1605963128.2725,75.0
1605963128.2745,75.0
1605963128.2766,65.0
1605963128.2785,53.0
1605963128.2805,43.0
1605963128.2825,36.0
1605963128.2845,31.0
1605963128.2866,19.0
1605963128.2872,2.0
1605963128.2895,-7.0
1605963128.2915,-7.0
1605963128.2936,-7.0
1605963128.2956,-12.0
1605963128.2975,-9.0
1605963128.2995,4.0
1605963128.3015,17.0
1605963128.3036,21.0
1605963128.3056,39.0
1605963128.3076,78.0
1605963128.3096,114.0
1605963128.3115,141.0
1605963128.3135,161.0
1605963128.3156,185.0
1605963128.3175,200.0
1605963128.3182,209.0
1605963128.3205,219.0
1605963128.3225,231.0
1605963128.3245,231.0
1605963128.3266,217.0
1605963128.3285,214.0
1605963128.3305,224.0
1605963128.3326,224.0
1605963128.3345,217.0
1605963128.3366,207.0
1605963128.3385,195.0
1605963128.3405,190.0
1605963128.3425,183.0
1605963128.3446,173.0
1605963128.3466,175.0
1605963128.3485,173.0
1605963128.3492,168.0
1605963128.3505,168.0
1605963128.3527,170.0
1605963128.3546,175.0
1605963128.3565,173.0
1605963128.3585,166.0
1605963128.3605,166.0
1605963128.3625,166.0
1605963128.3645,161.0
1605963128.3666,158.0
1605963128.3685,166.0
1605963128.3705,173.0
1605963128.3725,168.0
1605963128.3745,166.0
1605963128.3766,166.0
1605963128.3785,161.0
1605963128.3792,166.0
1605963128.3815,168.0
1605963128.3835,163.0
1605963128.7862,166.0
1605963128.787,173.0
1605963128.7895,163.0
1605963128.7921,151.0
1605963128.794,156.0
1605963128.7961,153.0
1605963128.7981,141.0
1605963128.8,134.0
1605963128.802,129.0
1605963128.804,122.0
1605963128.8061,126.0
1605963128.8067,131.0
1605963128.809,126.0
1605963128.811,129.0
1605963128.813,134.0
1605963128.815,124.0
1605963128.8171,114.0
1605963128.819,129.0
1605963128.821,141.0
1605963128.823,122.0
1605963128.825,109.0
1605963128.827,107.0
1605963128.829,87.0
1605963128.831,92.0
1605963128.833,114.0
1605963128.835,114.0
1605963128.8357,109.0
1605963128.837,117.0
1605963128.839,136.0
1605963128.841,148.0
1605963128.843,146.0
1605963128.845,139.0
1605963128.847,134.0
1605963128.849,134.0
1605963128.8511,129.0
1605963128.8531,119.0
1605963128.855,34.0
1605963128.857,-263.0
1605963128.859,-541.0
1605963128.861,-178.0
1605963128.863,695.0
1605963128.865,925.0
1605963128.8657,346.0
1605963128.868,68.0
1605963128.87,185.0
1605963128.872,129.0
1605963128.874,58.0
1605963128.876,109.0
1605963128.878,112.0
1605963128.88,80.0
1605963128.882,85.0
1605963128.884,87.0
1605963128.886,83.0
1605963128.888,83.0
1605963128.89,85.0
1605963128.892,80.0
1605963128.894,75.0
1605963128.896,73.0
1605963128.8967,68.0
1605963128.898,58.0
1605963128.9,46.0
1605963128.902,48.0
1605963128.904,53.0
1605963128.906,41.0
1605963128.908,29.0
1605963128.91,24.0
1605963128.912,7.0
1605963128.914,-12.0
1605963128.916,-21.0
1605963128.918,-24.0
1605963128.92,-24.0
1605963128.922,-26.0
1605963128.924,-19.0
1605963129.3562,-14.0
1605963129.3573,-9.0
1605963129.3597,12.0
1605963129.3622,36.0
1605963129.3642,46.0
1605963129.3662,63.0
1605963129.3681,97.0
1605963129.3702,131.0
1605963129.3721,139.0
1605963129.3741,148.0
1605963129.3762,168.0
1605963129.3781,170.0
1605963129.3803,180.0
1605963129.3822,185.0
1605963129.3841,183.0
1605963129.3862,185.0
1605963129.3881,187.0
1605963129.3901,190.0
1605963129.3921,185.0
1605963129.3941,168.0
1605963129.3962,161.0
1605963129.3981,163.0
1605963129.4001,166.0
1605963129.4021,163.0
1605963129.4041,151.0
1605963129.4061,146.0
1605963129.4081,158.0
1605963129.4101,151.0
1605963129.4121,139.0
1605963129.4141,141.0
1605963129.4161,148.0
1605963129.4181,144.0
1605963129.4201,146.0
1605963129.4222,146.0
1605963129.4241,136.0
1605963129.4261,134.0
1605963129.4281,141.0
1605963129.4301,148.0
1605963129.4321,156.0
1605963129.4341,148.0
1605963129.4361,141.0
1605963129.4381,141.0
1605963129.4401,139.0
1605963129.4421,134.0
1605963129.4441,134.0
1605963129.4461,136.0
1605963129.4481,144.0
1605963129.4501,148.0
1605963129.4521,144.0
1605963129.4541,134.0
1605963129.4561,131.0
1605963129.4581,136.0
1605963129.4601,131.0
1605963129.4621,126.0
1605963129.4641,126.0
1605963129.4661,124.0
1605963129.4681,131.0
1605963129.4701,144.0
1605963129.4722,144.0
1605963129.4742,131.0
1605963129.4761,109.0
1605963129.4781,85.0
1605963129.4801,80.0
1605963129.4823,95.0
1605963129.4841,95.0
1605963129.4862,80.0
1605963129.4881,95.0
1605963129.4901,119.0
1605963129.4921,126.0
1605963129.4941,122.0
1605963129.4961,112.0
1605963129.4981,107.0
1605963129.5001,114.0
1605963129.9564,114.0
1605963129.9573,107.0
1605963129.9598,104.0
1605963129.9624,14.0
1605963129.9644,-285.0
1605963129.9665,-554.0
1605963129.9685,-185.0
1605963129.9704,688.0
1605963129.9724,903.0
1605963129.9744,317.0
1605963129.9764,46.0
1605963129.9783,166.0
1605963129.9804,114.0
1605963129.9823,34.0
1605963129.9843,75.0
1605963129.9864,85.0
1605963129.9884,63.0
1605963129.9903,70.0
1605963129.9924,70.0
1605963129.9943,63.0
1605963129.9964,63.0
1605963129.9983,58.0
1605963130.0004,51.0
1605963130.0023,46.0
1605963130.0044,46.0
1605963130.0064,43.0
1605963130.0083,31.0
1605963130.0103,21.0
1605963130.0123,21.0
1605963130.0143,14.0
1605963130.0163,4.0
1605963130.0183,-2.0
1605963130.0203,-19.0
1605963130.0224,-31.0
1605963130.0243,-31.0
1605963130.0264,-36.0
1605963130.0283,-46.0
1605963130.0303,-46.0
1605963130.0323,-43.0
1605963130.0343,-34.0
1605963130.0363,-19.0
1605963130.0385,-9.0
1605963130.0404,0.0
1605963130.0423,24.0
1605963130.0443,48.0
1605963130.0463,65.0
1605963130.0483,95.0
1605963130.0503,124.0
1605963130.0523,144.0
1605963130.0543,168.0
1605963130.0563,178.0
1605963130.0583,168.0
1605963130.0603,175.0
1605963130.0623,192.0
1605963130.0643,185.0
1605963130.0664,170.0
1605963130.0683,168.0
1605963130.0703,170.0
1605963130.0723,166.0
1605963130.0743,153.0
1605963130.0763,153.0
1605963130.0783,156.0
1605963130.0804,139.0
1605963130.0823,131.0
1605963130.0843,141.0
1605963130.0864,146.0
1605963130.0883,141.0
1605963130.0903,136.0
1605963130.0923,134.0
1605963130.0943,131.0
1605963130.0963,131.0
1605963130.0983,139.0
1605963130.1003,144.0
1605963130.4962,139.0
1605963130.4969,141.0
1605963130.498,144.0
1605963130.5,139.0
1605963130.502,141.0
1605963130.504,146.0
1605963130.5061,144.0
1605963130.508,146.0
1605963130.51,144.0
1605963130.512,141.0
1605963130.514,144.0
1605963130.516,129.0
1605963130.518,117.0
1605963130.52,119.0
1605963130.522,117.0
1605963130.524,114.0
1605963130.526,119.0
1605963130.528,122.0
1605963130.5301,119.0
1605963130.5322,112.0
1605963130.534,107.0
1605963130.536,112.0
1605963130.538,122.0
1605963130.54,124.0
1605963130.542,109.0
1605963130.544,87.0
1605963130.546,70.0
1605963130.5479,73.0
1605963130.5499,85.0
1605963130.5519,83.0
1605963130.554,90.0
1605963130.556,104.0
1605963130.5579,112.0
1605963130.5599,117.0
1605963130.5619,112.0
1605963130.5639,112.0
1605963130.566,117.0
1605963130.5679,112.0
1605963130.5699,100.0
1605963130.572,100.0
1605963130.5739,70.0
1605963130.576,-134.0
1605963130.578,-485.0
1605963130.58,-463.0
1605963130.5819,295.0
1605963130.5839,947.0
1605963130.586,620.0
1605963130.5879,107.0
1605963130.59,109.0
1605963130.5919,134.0
1605963130.5939,26.0
1605963130.596,51.0
1605963130.5979,90.0
1605963130.5999,46.0
1605963130.602,41.0
1605963130.6039,63.0
1605963130.606,51.0
1605963130.6079,41.0
1605963130.6099,48.0
1605963130.6119,53.0
1605963130.6139,46.0
1605963130.616,41.0
1605963130.618,39.0
1605963130.6199,26.0
1605963130.622,17.0
1605963130.624,17.0
1605963130.626,12.0
1605963130.6279,2.0
1605963130.63,-2.0
1605963130.6319,-7.0
1605963130.6341,-19.0
1605963130.636,-26.0
1605963130.638,-29.0
1605963131.0952,-43.0
1605963131.0962,-58.0
1605963131.0987,-51.0
1605963131.1013,-34.0
1605963131.1033,-26.0
1605963131.1054,-24.0
1605963131.1072,-7.0
1605963131.1092,12.0
1605963131.1112,24.0
1605963131.1132,46.0
1605963131.1152,73.0
1605963131.1172,87.0
1605963131.1192,109.0
1605963131.1212,136.0
1605963131.1232,146.0
1605963131.1252,151.0
1605963131.1271,161.0
1605963131.1291,170.0
1605963131.1311,163.0
1605963131.1331,151.0
1605963131.1352,151.0
1605963131.1371,156.0
1605963131.1391,148.0
1605963131.1411,139.0
1605963131.1431,131.0
1605963131.1452,131.0
1605963131.1471,134.0
1605963131.1491,134.0
1605963131.1511,126.0
1605963131.1531,122.0
1605963131.1552,117.0
1605963131.1571,117.0
1605963131.1591,126.0
1605963131.1611,131.0
1605963131.1631,129.0
1605963131.1652,126.0
1605963131.1672,122.0
1605963131.1691,129.0
1605963131.1711,136.0
1605963131.1731,124.0
1605963131.1752,114.0
1605963131.1771,134.0
1605963131.1791,144.0
1605963131.1811,139.0
1605963131.1831,136.0
1605963131.1852,134.0
1605963131.1871,134.0
1605963131.1891,134.0
1605963131.1913,129.0
1605963131.1932,129.0
1605963131.1952,139.0
1605963131.1971,144.0
1605963131.1991,136.0
1605963131.2011,131.0
1605963131.2031,126.0
1605963131.2052,124.0
1605963131.2071,134.0
1605963131.2091,136.0
1605963131.2111,117.0
1605963131.2131,97.0
1605963131.2152,90.0
1605963131.2171,100.0
1605963131.2191,100.0
1605963131.2211,102.0
1605963131.2231,124.0
1605963131.2252,136.0
1605963131.2271,136.0
1605963131.2291,136.0
1605963131.2311,131.0
1605963131.2331,126.0
1605963131.2352,122.0
1605963131.2371,114.0
1605963131.2391,117.0
1605963131.6055,58.0
1605963131.6062,-212.0
1605963131.6087,-551.0
1605963131.6113,-334.0
1605963131.6133,554.0
1605963131.6153,988.0
1605963131.6173,466.0
1605963131.6192,68.0
1605963131.6212,151.0
1605963131.6232,119.0
1605963131.6253,17.0
1605963131.6272,53.0
1605963131.6292,68.0
1605963131.6312,24.0
1605963131.6332,26.0
1605963131.6353,48.0
1605963131.6372,43.0
1605963131.6392,34.0
1605963131.6412,29.0
1605963131.6432,21.0
1605963131.6453,19.0
1605963131.6472,17.0
1605963131.6492,14.0
1605963131.6512,7.0
1605963131.6532,-4.0
1605963131.6553,-12.0
1605963131.6574,-12.0
1605963131.6593,-14.0
1605963131.6612,-19.0
1605963131.6632,-31.0
1605963131.6653,-53.0
1605963131.6672,-73.0
1605963131.6692,-78.0
1605963131.6712,-78.0
1605963131.6733,-78.0
1605963131.6753,-70.0
1605963131.6772,-63.0
1605963131.6792,-58.0
1605963131.6812,-46.0
1605963131.6832,-24.0
1605963131.6853,-2.0
1605963131.6872,17.0
1605963131.6892,53.0
1605963131.6912,90.0
1605963131.6932,109.0
1605963131.6953,131.0
1605963131.6972,156.0
1605963131.6993,163.0
1605963131.7012,168.0
1605963131.7032,178.0
1605963131.7053,183.0
1605963131.7072,180.0
1605963131.7092,178.0
1605963131.7112,166.0
1605963131.7132,144.0
1605963131.7153,144.0
1605963131.7172,151.0
1605963131.7192,139.0
1605963131.7212,131.0
1605963131.7232,134.0
1605963131.7253,122.0
1605963131.7272,109.0
1605963131.7292,114.0
1605963131.7313,124.0
1605963131.7332,122.0
1605963131.7353,109.0
1605963131.7372,109.0
1605963131.7392,119.0
1605963131.7412,119.0
1605963131.7432,114.0
1605963131.7453,119.0
1605963131.7472,124.0
1605963131.7492,119.0
1605963132.1462,112.0
1605963132.1472,114.0
1605963132.1496,117.0
1605963132.1523,114.0
1605963132.1545,122.0
1605963132.1563,129.0
1605963132.1582,122.0
1605963132.1602,107.0
1605963132.1622,107.0
1605963132.1642,109.0
1605963132.1662,100.0
1605963132.1682,104.0
1605963132.1702,122.0
1605963132.1723,112.0
1605963132.1742,80.0
1605963132.1762,70.0
1605963132.1781,83.0
1605963132.1801,83.0
1605963132.1821,75.0
1605963132.1841,85.0
1605963132.1862,97.0
1605963132.1881,104.0
1605963132.1901,112.0
1605963132.1921,107.0
1605963132.1941,92.0
1605963132.1962,102.0
1605963132.1981,104.0
1605963132.2001,90.0
1605963132.2021,87.0
1605963132.2041,48.0
1605963132.2062,-197.0
1605963132.2081,-541.0
1605963132.2101,-380.0
1605963132.2121,485.0
1605963132.2141,1000.0
1605963132.2161,522.0
1605963132.2181,61.0
1605963132.2201,124.0
1605963132.2221,126.0
1605963132.2241,21.0
1605963132.2262,41.0
1605963132.2281,65.0
1605963132.2301,43.0
1605963132.2321,46.0
1605963132.2341,53.0
1605963132.2362,36.0
1605963132.2381,26.0
1605963132.2401,36.0
1605963132.2421,31.0
1605963132.2441,17.0
1605963132.2462,19.0
1605963132.2482,24.0
1605963132.2501,12.0
1605963132.2521,0.0
1605963132.2542,-4.0
1605963132.2564,-12.0
1605963132.2582,-29.0
1605963132.2601,-43.0
1605963132.2621,-46.0
1605963132.2641,-53.0
1605963132.2662,-73.0
1605963132.2681,-90.0
1605963132.2701,-95.0
1605963132.2722,-87.0
1605963132.2741,-78.0
1605963132.2762,-73.0
1605963132.2781,-65.0
1605963132.2801,-43.0
1605963132.2821,-31.0
1605963132.2841,-19.0
1605963132.2862,12.0
1605963132.2881,41.0
1605963132.2902,56.0
1605963132.7162,80.0
1605963132.7172,109.0
1605963132.7196,117.0
1605963132.7223,126.0
1605963132.7243,134.0
1605963132.7263,131.0
1605963132.7283,131.0
1605963132.7303,134.0
1605963132.7323,131.0
1605963132.7343,124.0
1605963132.7362,114.0
1605963132.7381,102.0
1605963132.7402,95.0
1605963132.7422,102.0
1605963132.7441,100.0
1605963132.7462,90.0
1605963132.7481,90.0
1605963132.7501,97.0
1605963132.7521,95.0
1605963132.7542,90.0
1605963132.7562,92.0
1605963132.7581,92.0
1605963132.7601,100.0
1605963132.7621,107.0
1605963132.7641,102.0
1605963132.7663,104.0
1605963132.7681,109.0
1605963132.7701,107.0
1605963132.7721,107.0
1605963132.7741,114.0
1605963132.7762,119.0
1605963132.7781,112.0
1605963132.7801,104.0
1605963132.7823,112.0
1605963132.7842,109.0
1605963132.7862,109.0
1605963132.7882,117.0
1605963132.7902,122.0
1605963132.7921,119.0
1605963132.7942,114.0
1605963132.7962,112.0
1605963132.7981,102.0
1605963132.8001,83.0
1605963132.8021,75.0
1605963132.8041,75.0
1605963132.8062,80.0
1605963132.8081,90.0
1605963132.8101,100.0
1605963132.8121,109.0
1605963132.8141,114.0
1605963132.8162,119.0
1605963132.8183,114.0
1605963132.8202,107.0
1605963132.8221,102.0
1605963132.8241,95.0
1605963132.8262,80.0
1605963132.8281,-2.0
1605963132.8301,-285.0
1605963132.8321,-571.0
1605963132.8341,-244.0
1605963132.8362,649.0
1605963132.8381,937.0
1605963132.8401,373.0
1605963132.8422,56.0
1605963132.8442,146.0
1605963132.8462,95.0
1605963132.8482,12.0
1605963132.8502,51.0
1605963132.8521,61.0
1605963132.8541,41.0
1605963132.8562,48.0
1605963132.8581,48.0
1605963132.8602,41.0
1605963133.3161,46.0
1605963133.3171,51.0
1605963133.3196,36.0
1605963133.3222,21.0
1605963133.3242,21.0
1605963133.3262,12.0
1605963133.3282,-2.0
1605963133.3302,-2.0
1605963133.3321,-4.0
1605963133.3341,-17.0
1605963133.3362,-29.0
1605963133.3383,-31.0
1605963133.3401,-29.0
1605963133.3421,-39.0
1605963133.344,-56.0
1605963133.3461,-65.0
1605963133.348,-65.0
1605963133.35,-63.0
1605963133.352,-63.0
1605963133.354,-43.0
1605963133.356,-26.0
1605963133.358,-26.0
1605963133.36,-9.0
1605963133.362,17.0
1605963133.364,39.0
1605963133.3661,65.0
1605963133.3681,95.0
1605963133.37,109.0
1605963133.372,114.0
1605963133.374,119.0
1605963133.376,134.0
1605963133.378,144.0
1605963133.3801,139.0
1605963133.382,131.0
1605963133.384,134.0
1605963133.3861,136.0
1605963133.3881,134.0
1605963133.39,126.0
1605963133.392,112.0
1605963133.394,104.0
1605963133.3961,107.0
1605963133.398,107.0
1605963133.4,102.0
1605963133.402,100.0
1605963133.404,97.0
1605963133.4061,85.0
1605963133.408,83.0
1605963133.41,97.0
1605963133.412,107.0
1605963133.414,97.0
1605963133.4161,92.0
1605963133.418,100.0
1605963133.42,109.0
1605963133.422,107.0
1605963133.424,97.0
1605963133.4261,95.0
1605963133.428,100.0
1605963133.4301,109.0
1605963133.432,114.0
1605963133.434,109.0
1605963133.436,112.0
1605963133.438,119.0
1605963133.4402,114.0
1605963133.4421,109.0
1605963133.444,117.0
1605963133.446,117.0
1605963133.448,97.0
1605963133.45,70.0
1605963133.452,70.0
1605963133.454,75.0
1605963133.4561,70.0
1605963133.458,83.0
1605963133.46,102.0
1605963133.8561,107.0
1605963133.857,104.0
1605963133.8595,107.0
1605963133.8622,114.0
1605963133.8641,109.0
1605963133.8661,102.0
1605963133.8681,102.0
1605963133.8701,97.0
1605963133.872,78.0
1605963133.874,-80.0
1605963133.876,-439.0
1605963133.878,-556.0
1605963133.88,114.0
1605963133.882,910.0
1605963133.884,734.0
1605963133.886,146.0
1605963133.888,78.0
1605963133.8902,144.0
1605963133.892,34.0
1605963133.894,19.0
1605963133.8961,68.0
1605963133.898,46.0
1605963133.9,34.0
1605963133.902,53.0
1605963133.904,46.0
1605963133.906,24.0
1605963133.908,19.0
1605963133.91,24.0
1605963133.912,29.0
1605963133.914,26.0
1605963133.916,17.0
1605963133.918,0.0
1605963133.92,-4.0
1605963133.922,2.0
1605963133.924,0.0
1605963133.926,-21.0
1605963133.928,-39.0
1605963133.93,-41.0
1605963133.932,-46.0
1605963133.934,-58.0
1605963133.9362,-65.0
1605963133.9382,-68.0
1605963133.94,-75.0
1605963133.942,-78.0
1605963133.944,-63.0
1605963133.946,-36.0
1605963133.948,-21.0
1605963133.95,-14.0
1605963133.952,-4.0
1605963133.954,17.0
1605963133.956,51.0
1605963133.958,75.0
1605963133.9601,92.0
1605963133.962,122.0
1605963133.964,134.0
1605963133.9647,129.0
1605963133.9661,136.0
1605963133.968,141.0
1605963133.97,134.0
1605963133.972,139.0
1605963133.974,148.0
1605963133.976,134.0
1605963133.978,112.0
1605963133.98,112.0
1605963133.982,114.0
1605963133.984,104.0
1605963133.986,92.0
1605963133.988,85.0
1605963133.99,87.0
1605963133.992,90.0
1605963133.994,85.0
1605963133.9947,80.0
1605963133.996,83.0
1605963134.4262,83.0
1605963134.4272,87.0
1605963134.4296,97.0
1605963134.4323,92.0
1605963134.4342,87.0
1605963134.4363,97.0
1605963134.4382,104.0
1605963134.4402,95.0
1605963134.4422,80.0
1605963134.4442,80.0
1605963134.4462,90.0
1605963134.4481,92.0
1605963134.4501,85.0
1605963134.4508,87.0
1605963134.4521,97.0
1605963134.4541,90.0
1605963134.4562,87.0
1605963134.4581,97.0
1605963134.4603,102.0
1605963134.4622,102.0
1605963134.4641,92.0
1605963134.4661,70.0
1605963134.4681,56.0
1605963134.4701,63.0
1605963134.4721,78.0
1605963134.4741,78.0
1605963134.4762,80.0
1605963134.4781,90.0
1605963134.4802,97.0
1605963134.4808,102.0
1605963134.4822,104.0
1605963134.4842,92.0
1605963134.4861,78.0
1605963134.4881,78.0
1605963134.4901,85.0
1605963134.4921,63.0
1605963134.4941,-131.0
1605963134.4962,-498.0
1605963134.4981,-512.0
1605963134.5001,241.0
1605963134.5021,935.0
1605963134.5041,629.0
1605963134.5062,97.0
1605963134.5081,87.0
1605963134.5101,122.0
1605963134.5108,17.0
1605963134.5121,29.0
1605963134.5141,70.0
1605963134.5162,36.0
1605963134.5181,24.0
1605963134.5201,36.0
1605963134.5221,24.0
1605963134.5241,21.0
1605963134.5262,31.0
1605963134.5281,19.0
1605963134.5302,9.0
1605963134.5321,19.0
1605963134.5341,17.0
1605963134.5362,2.0
1605963134.5381,-4.0
1605963134.5402,-2.0
1605963134.5408,-14.0
1605963134.5421,-24.0
1605963134.5441,-21.0
1605963134.5461,-31.0
1605963134.5481,-56.0
1605963134.5501,-75.0
1605963134.5521,-70.0
1605963134.5541,-68.0
1605963134.5564,-80.0
1605963134.5582,-73.0
1605963134.5601,-56.0
1605963134.5621,-46.0
1605963134.9656,-34.0
1605963134.9665,-14.0
1605963134.9682,-4.0
1605963134.9706,19.0
1605963134.9726,56.0
1605963134.9746,73.0
1605963134.9765,90.0
1605963134.9785,117.0
1605963134.9805,122.0
1605963134.9825,119.0
1605963134.9845,126.0
1605963134.9865,136.0
1605963134.9885,141.0
1605963134.9905,139.0
1605963134.9925,129.0
1605963134.9945,124.0
1605963134.9965,124.0
1605963134.9985,117.0
1605963134.9992,114.0
1605963135.0015,114.0
1605963135.0035,104.0
1605963135.0055,95.0
1605963135.0075,90.0
1605963135.0095,85.0
1605963135.0115,90.0
1605963135.0135,87.0
1605963135.0155,83.0
1605963135.0175,80.0
1605963135.0195,75.0
1605963135.0215,78.0
1605963135.0235,87.0
1605963135.0257,90.0
1605963135.0275,87.0
1605963135.0281,92.0
1605963135.0295,102.0
1605963135.0315,92.0
1605963135.0335,78.0
1605963135.0355,83.0
1605963135.0375,95.0
1605963135.0395,92.0
1605963135.0415,87.0
1605963135.0435,87.0
1605963135.0455,90.0
1605963135.0475,87.0
1605963135.0495,97.0
1605963135.0515,112.0
1605963135.0535,107.0
1605963135.0557,85.0
1605963135.0575,53.0
1605963135.0581,46.0
1605963135.0595,65.0
1605963135.0615,70.0
1605963135.0635,68.0
1605963135.0655,85.0
1605963135.0674,97.0
1605963135.0694,100.0
1605963135.0715,95.0
1605963135.0735,85.0
1605963135.0755,92.0
1605963135.0775,97.0
1605963135.0795,85.0
1605963135.0815,83.0
1605963135.0835,73.0
1605963135.0855,-90.0
1605963135.0875,-451.0
1605963135.0881,-566.0
1605963135.0895,102.0
1605963135.0915,925.0
1605963135.0935,766.0
1605963135.0955,141.0
1605963135.0975,61.0
1605963135.0995,144.0
1605963135.1015,24.0
1605963135.5361,4.0
1605963135.537,58.0
1605963135.5387,34.0
1605963135.5406,24.0
1605963135.5426,41.0
1605963135.5433,31.0
1605963135.5446,12.0
1605963135.5465,4.0
1605963135.5486,4.0
1605963135.5506,7.0
1605963135.5525,-2.0
1605963135.5545,-12.0
1605963135.5566,-12.0
1605963135.5585,-7.0
1605963135.5605,-21.0
1605963135.5625,-36.0
1605963135.5645,-29.0
1605963135.5665,-41.0
1605963135.5685,-75.0
1605963135.5705,-83.0
1605963135.5725,-78.0
1605963135.5732,-85.0
1605963135.5745,-97.0
1605963135.5765,-97.0
1605963135.5785,-90.0
1605963135.5807,-87.0
1605963135.5825,-78.0
1605963135.5845,-63.0
1605963135.5865,-43.0
1605963135.5885,-24.0
1605963135.5905,2.0
1605963135.5925,39.0
1605963135.5945,63.0
1605963135.5948,78.0
1605963135.5965,104.0
1605963135.5985,129.0
1605963135.6005,141.0
1605963135.6025,151.0
1605963135.6045,156.0
1605963135.6065,151.0
1605963135.6085,148.0
1605963135.6105,146.0
1605963135.6125,139.0
1605963135.6145,129.0
1605963135.6165,122.0
1605963135.6185,112.0
1605963135.6205,112.0
1605963135.6225,112.0
1605963135.6245,102.0
1605963135.6265,92.0
1605963135.6285,90.0
1605963135.6305,87.0
1605963135.6325,83.0
1605963135.6345,73.0
1605963135.6365,75.0
1605963135.6385,85.0
1605963135.6405,83.0
1605963135.6425,83.0
1605963135.6445,87.0
1605963135.6465,85.0
1605963135.6485,80.0
1605963135.6505,85.0
1605963135.6525,87.0
1605963135.6545,83.0
1605963135.6565,75.0
1605963135.6585,75.0
1605963135.6605,83.0
1605963135.6625,90.0
1605963135.6645,90.0
1605963135.6665,87.0
1605963135.6685,87.0
1605963135.6705,83.0
1605963135.6725,83.0
1605963136.0761,92.0
1605963136.077,92.0
1605963136.0795,80.0
1605963136.0824,56.0
1605963136.0842,41.0
1605963136.0862,51.0
1605963136.0882,56.0
1605963136.0901,46.0
1605963136.0921,56.0
1605963136.0941,68.0
1605963136.0962,73.0
1605963136.0982,65.0
1605963136.1001,56.0
1605963136.1021,61.0
1605963136.1041,65.0
1605963136.1061,56.0
1605963136.1081,51.0
1605963136.1101,58.0
1605963136.1121,-2.0
1605963136.1141,-283.0
1605963136.1161,-600.0
1605963136.1181,-295.0
1605963136.12,615.0
1605963136.122,932.0
1605963136.1241,351.0
1605963136.1261,2.0
1605963136.128,102.0
1605963136.13,56.0
1605963136.132,-19.0
1605963136.134,41.0
1605963136.136,48.0
1605963136.138,9.0
1605963136.14,19.0
1605963136.142,19.0
1605963136.144,7.0
1605963136.1461,14.0
1605963136.148,12.0
1605963136.15,0.0
1605963136.152,2.0
1605963136.154,2.0
1605963136.1561,-2.0
1605963136.158,-9.0
1605963136.16,-21.0
1605963136.162,-31.0
1605963136.164,-29.0
1605963136.1661,-34.0
1605963136.168,-43.0
1605963136.17,-53.0
1605963136.172,-68.0
1605963136.174,-75.0
1605963136.1761,-73.0
1605963136.178,-85.0
1605963136.18,-92.0
1605963136.182,-87.0
1605963136.1842,-73.0
1605963136.1861,-53.0
1605963136.188,-43.0
1605963136.19,-21.0
1605963136.192,7.0
1605963136.194,21.0
1605963136.196,48.0
1605963136.198,80.0
1605963136.2,102.0
1605963136.202,109.0
1605963136.204,117.0
1605963136.2061,134.0
1605963136.208,139.0
1605963136.21,134.0
1605963136.212,139.0
1605963136.214,134.0
1605963136.2161,119.0
1605963136.218,119.0
1605963136.22,124.0
1605963136.6755,112.0
1605963136.6764,95.0
1605963136.6789,85.0
1605963136.6815,83.0
1605963136.6835,80.0
1605963136.6856,70.0
1605963136.6876,58.0
1605963136.6895,61.0
1605963136.6915,58.0
1605963136.6935,53.0
1605963136.6955,63.0
1605963136.6975,65.0
1605963136.6995,63.0
1605963136.7015,68.0
1605963136.7035,63.0
1605963136.7055,61.0
1605963136.7074,68.0
1605963136.7095,68.0
1605963136.717,65.0
1605963136.7184,75.0
1605963136.7204,78.0
1605963136.7224,70.0
1605963136.7244,68.0
1605963136.7265,73.0
1605963136.7285,78.0
1605963136.7305,83.0
1605963136.7324,83.0
1605963136.7344,75.0
1605963136.7365,68.0
1605963136.7384,73.0
1605963136.7404,83.0
1605963136.7424,80.0
1605963136.7447,68.0
1605963136.7465,70.0
1605963136.7484,83.0
1605963136.7504,83.0
1605963136.7524,56.0
1605963136.7544,31.0
1605963136.7565,36.0
1605963136.7584,51.0
1605963136.7604,51.0
1605963136.7625,58.0
1605963136.7645,70.0
1605963136.7665,78.0
1605963136.7684,83.0
1605963136.7704,85.0
1605963136.7724,80.0
1605963136.7744,75.0
1605963136.7764,73.0
1605963136.7784,73.0
1605963136.7804,68.0
1605963136.7824,43.0
1605963136.7844,-134.0
1605963136.7865,-490.0
1605963136.7884,-515.0
1605963136.7904,227.0
1605963136.7924,920.0
1605963136.7944,629.0
1605963136.7964,97.0
1605963136.7984,80.0
1605963136.8004,114.0
1605963136.8024,7.0
1605963136.8044,7.0
1605963136.8065,43.0
1605963136.8084,19.0
1605963136.8104,19.0
1605963136.8124,26.0
1605963136.8144,12.0
1605963136.8165,14.0
1605963136.8184,24.0
1605963136.8204,12.0
1605963136.8224,-9.0
1605963136.8244,-9.0
1605963137.2462,-2.0
1605963137.2471,-14.0
1605963137.2496,-21.0
1605963137.2522,-21.0
1605963137.2542,-36.0
1605963137.2562,-43.0
1605963137.2583,-46.0
1605963137.2602,-56.0
1605963137.2621,-70.0
1605963137.2642,-85.0
1605963137.2664,-102.0
1605963137.2682,-104.0
1605963137.2702,-100.0
1605963137.2721,-97.0
1605963137.2741,-90.0
1605963137.2762,-75.0
1605963137.2782,-58.0
1605963137.2801,-46.0
1605963137.2822,-24.0
1605963137.2841,-7.0
1605963137.2862,9.0
1605963137.2881,43.0
1605963137.2901,73.0
1605963137.2921,87.0
1605963137.2941,97.0
1605963137.2962,107.0
1605963137.2981,109.0
1605963137.3001,114.0
1605963137.3021,124.0
1605963137.3041,129.0
1605963137.3061,129.0
1605963137.3081,109.0
1605963137.3101,92.0
1605963137.3121,92.0
1605963137.3141,90.0
1605963137.3162,85.0
1605963137.3181,80.0
1605963137.3201,73.0
1605963137.3221,70.0
1605963137.3241,70.0
1605963137.3262,75.0
1605963137.3281,83.0
1605963137.3301,75.0
1605963137.3321,58.0
1605963137.3341,58.0
1605963137.3362,70.0
1605963137.3381,80.0
1605963137.3401,80.0
1605963137.3421,80.0
1605963137.3441,83.0
1605963137.3461,80.0
1605963137.3481,80.0
1605963137.3501,95.0
1605963137.3521,100.0
1605963137.3541,85.0
1605963137.3562,75.0
1605963137.3581,75.0
1605963137.3601,80.0
1605963137.3621,83.0
1605963137.3641,87.0
1605963137.3661,87.0
1605963137.3683,80.0
1605963137.3702,80.0
1605963137.3721,80.0
1605963137.3741,73.0
1605963137.3761,73.0
1605963137.3781,83.0
1605963137.3801,87.0
1605963137.3821,78.0
1605963137.3842,61.0
1605963137.3862,46.0
1605963137.3881,31.0
1605963137.3901,39.0
1605963137.786,61.0
1605963137.787,58.0
1605963137.7895,48.0
1605963137.7921,53.0
1605963137.7941,68.0
1605963137.7961,87.0
1605963137.798,83.0
1605963137.8,68.0
1605963137.802,65.0
1605963137.804,68.0
1605963137.8061,61.0
1605963137.808,48.0
1605963137.81,21.0
1605963137.812,-166.0
1605963137.814,-510.0
1605963137.816,-485.0
1605963137.818,278.0
1605963137.82,920.0
1605963137.822,576.0
1605963137.824,58.0
1605963137.826,65.0
1605963137.828,97.0
1605963137.83,-4.0
1605963137.832,12.0
1605963137.834,48.0
1605963137.836,17.0
1605963137.838,12.0
1605963137.84,26.0
1605963137.842,21.0
1605963137.8441,19.0
1605963137.846,12.0
1605963137.848,-2.0
1605963137.85,0.0
1605963137.852,2.0
1605963137.854,-4.0
1605963137.856,-12.0
1605963137.858,-14.0
1605963137.86,-21.0
1605963137.862,-29.0
1605963137.8641,-31.0
1605963137.8661,-43.0
1605963137.868,-56.0
1605963137.87,-58.0
1605963137.8719,-63.0
1605963137.8739,-75.0
1605963137.876,-90.0
1605963137.878,-95.0
1605963137.88,-87.0
1605963137.882,-78.0
1605963137.884,-65.0
1605963137.8861,-53.0
1605963137.888,-41.0
1605963137.89,-19.0
1605963137.892,-4.0
1605963137.894,17.0
1605963137.896,48.0
1605963137.898,75.0
1605963137.9,95.0
1605963137.902,114.0
1605963137.904,124.0
1605963137.906,109.0
1605963137.908,107.0
1605963137.91,122.0
1605963137.912,122.0
1605963137.914,117.0
1605963137.916,117.0
1605963137.918,114.0
1605963137.9201,100.0
1605963137.922,85.0
1605963137.924,85.0
1605963137.926,92.0
1605963137.928,87.0
1605963137.93,80.0
1605963138.3261,83.0
1605963138.3271,83.0
1605963138.3296,83.0
1605963138.3323,85.0
1605963138.3341,83.0
1605963138.3362,75.0
1605963138.3382,75.0
1605963138.3401,87.0
1605963138.3421,80.0
1605963138.3442,63.0
1605963138.3461,75.0
1605963138.3481,80.0
1605963138.3501,73.0
1605963138.3521,83.0
1605963138.3541,87.0
1605963138.356,78.0
1605963138.358,75.0
1605963138.3602,83.0
1605963138.3621,83.0
1605963138.3641,75.0
1605963138.366,80.0
1605963138.368,85.0
1605963138.37,87.0
1605963138.372,80.0
1605963138.3741,73.0
1605963138.3761,80.0
1605963138.378,85.0
1605963138.38,80.0
1605963138.382,83.0
1605963138.384,90.0
1605963138.3861,87.0
1605963138.388,73.0
1605963138.39,43.0
1605963138.3921,29.0
1605963138.394,48.0
1605963138.396,70.0
1605963138.398,65.0
1605963138.4,51.0
1605963138.402,63.0
1605963138.404,87.0
1605963138.406,95.0
1605963138.408,85.0
1605963138.41,83.0
1605963138.412,87.0
1605963138.414,85.0
1605963138.416,75.0
1605963138.418,78.0
1605963138.42,26.0
1605963138.422,-224.0
1605963138.4241,-566.0
1605963138.426,-380.0
1605963138.4281,498.0
1605963138.43,961.0
1605963138.432,446.0
1605963138.434,31.0
1605963138.436,114.0
1605963138.438,90.0
1605963138.44,-7.0
1605963138.442,39.0
1605963138.444,51.0
1605963138.446,2.0
1605963138.448,17.0
1605963138.45,43.0
1605963138.452,26.0
1605963138.454,9.0
1605963138.456,14.0
1605963138.458,17.0
1605963138.4601,12.0
1605963138.4622,7.0
1605963138.4641,0.0
1605963138.4661,-9.0
1605963138.468,-9.0
1605963138.47,-12.0
1605963138.8959,-24.0
1605963138.897,-36.0
1605963138.8994,-46.0
1605963138.902,-61.0
1605963138.904,-70.0
1605963138.9061,-83.0
1605963138.9081,-104.0
1605963138.91,-117.0
1605963138.912,-112.0
1605963138.914,-100.0
1605963138.916,-92.0
1605963138.918,-90.0
1605963138.92,-75.0
1605963138.922,-58.0
1605963138.924,-46.0
1605963138.9259,-14.0
1605963138.9279,14.0
1605963138.9299,39.0
1605963138.932,70.0
1605963138.934,92.0
1605963138.936,102.0
1605963138.9379,117.0
1605963138.9399,126.0
1605963138.9419,129.0
1605963138.9439,134.0
1605963138.946,131.0
1605963138.9479,122.0
1605963138.9499,119.0
1605963138.9519,122.0
1605963138.9539,104.0
1605963138.9559,95.0
1605963138.9579,90.0
1605963138.9599,85.0
1605963138.9619,87.0
1605963138.9639,83.0
1605963138.9659,80.0
1605963138.9679,85.0
1605963138.9699,78.0
1605963138.9719,65.0
1605963138.9739,73.0
1605963138.976,73.0
1605963138.9779,68.0
1605963138.9799,70.0
1605963138.9819,83.0
1605963138.9839,80.0
1605963138.9859,73.0
1605963138.9881,78.0
1605963138.99,83.0
1605963138.992,87.0
1605963138.9939,90.0
1605963138.996,78.0
1605963138.9979,78.0
1605963138.9999,85.0
1605963139.0019,83.0
1605963139.0039,80.0
1605963139.006,83.0
1605963139.0079,83.0
1605963139.0099,83.0
1605963139.0119,85.0
1605963139.0139,87.0
1605963139.0159,85.0
1605963139.0179,85.0
1605963139.0199,87.0
1605963139.0219,83.0
1605963139.0239,75.0
1605963139.0259,48.0
1605963139.0279,29.0
1605963139.0299,48.0
1605963139.0319,61.0
1605963139.0339,48.0
1605963139.036,58.0
1605963139.038,75.0
1605963139.04,80.0
1605963139.4358,80.0
1605963139.4366,80.0
1605963139.439,78.0
1605963139.4417,75.0
1605963139.4436,65.0
1605963139.4457,56.0
1605963139.4476,53.0
1605963139.4496,-9.0
1605963139.4516,-273.0
1605963139.4536,-578.0
1605963139.4557,-324.0
1605963139.4576,563.0
1605963139.4596,947.0
1605963139.4616,390.0
1605963139.4637,9.0
1605963139.4657,102.0
1605963139.4676,56.0
1605963139.4696,-34.0
1605963139.4716,21.0
1605963139.4736,36.0
1605963139.4756,-2.0
1605963139.4776,2.0
1605963139.4796,21.0
1605963139.4816,9.0
1605963139.4838,-2.0
1605963139.4857,7.0
1605963139.4876,2.0
1605963139.4896,-12.0
1605963139.4916,-12.0
1605963139.4937,-9.0
1605963139.4957,-17.0
1605963139.4976,-29.0
1605963139.4996,-41.0
1605963139.5016,-48.0
1605963139.5036,-56.0
1605963139.5057,-61.0
1605963139.5076,-70.0
1605963139.5096,-83.0
1605963139.5116,-97.0
1605963139.5137,-107.0
1605963139.5156,-104.0
1605963139.5176,-102.0
1605963139.5196,-109.0
1605963139.5216,-100.0
1605963139.5236,-78.0
1605963139.5256,-68.0
1605963139.5276,-58.0
1605963139.5296,-31.0
1605963139.5316,0.0
1605963139.5336,21.0
1605963139.5356,41.0
1605963139.5376,70.0
1605963139.5396,85.0
1605963139.5416,85.0
1605963139.5436,102.0
1605963139.5456,126.0
1605963139.5476,126.0
1605963139.5496,114.0
1605963139.5516,109.0
1605963139.5536,112.0
1605963139.5557,112.0
1605963139.5576,104.0
1605963139.5598,90.0
1605963139.5618,78.0
1605963139.5638,83.0
1605963139.5657,80.0
1605963139.5677,78.0
1605963139.5697,78.0
1605963139.5718,75.0
1605963139.5738,78.0
1605963139.5757,78.0
1605963139.5777,68.0
1605963139.5796,68.0
1605963140.0639,73.0
1605963140.0649,78.0
1605963140.0677,85.0
1605963140.07,83.0
1605963140.0719,80.0
1605963140.074,75.0
1605963140.076,68.0
1605963140.0779,65.0
1605963140.0799,73.0
1605963140.0819,87.0
1605963140.0839,87.0
1605963140.0859,75.0
1605963140.0879,65.0
1605963140.0898,68.0
1605963140.0918,78.0
1605963140.0938,83.0
1605963140.0959,75.0
1605963140.0978,78.0
1605963140.0999,78.0
1605963140.1018,75.0
1605963140.1038,80.0
1605963140.1059,80.0
1605963140.1078,85.0
1605963140.1098,83.0
1605963140.1118,56.0
1605963140.1138,26.0
1605963140.1159,24.0
1605963140.1178,39.0
1605963140.1198,41.0
1605963140.1218,36.0
1605963140.1238,48.0
1605963140.1259,68.0
1605963140.1278,78.0
1605963140.1298,83.0
1605963140.1318,75.0
1605963140.1338,65.0
1605963140.1358,65.0
1605963140.1378,68.0
1605963140.1398,68.0
1605963140.1418,36.0
1605963140.1438,-151.0
1605963140.1459,-488.0
1605963140.1478,-500.0
1605963140.1498,239.0
1605963140.1518,937.0
1605963140.1538,637.0
1605963140.1559,85.0
1605963140.1578,63.0
1605963140.1598,107.0
1605963140.1618,4.0
1605963140.1638,2.0
1605963140.1658,36.0
1605963140.1679,12.0
1605963140.17,17.0
1605963140.1719,29.0
1605963140.1738,7.0
1605963140.1759,2.0
1605963140.1778,17.0
1605963140.1798,7.0
1605963140.1818,-2.0
1605963140.1838,-2.0
1605963140.1859,-4.0
1605963140.1878,-14.0
1605963140.1898,-24.0
1605963140.1918,-26.0
1605963140.1938,-31.0
1605963140.1958,-43.0
1605963140.1978,-51.0
1605963140.1998,-63.0
1605963140.2018,-78.0
1605963140.2038,-85.0
1605963140.2059,-83.0
1605963140.2078,-90.0
1605963140.6357,-104.0
1605963140.6365,-97.0
1605963140.639,-80.0
1605963140.6416,-78.0
1605963140.6437,-75.0
1605963140.6456,-53.0
1605963140.6476,-31.0
1605963140.6496,-17.0
1605963140.6515,7.0
1605963140.6535,24.0
1605963140.6556,34.0
1605963140.6576,56.0
1605963140.6595,83.0
1605963140.6615,92.0
1605963140.6635,92.0
1605963140.6656,95.0
1605963140.6675,100.0
1605963140.6695,97.0
1605963140.6716,87.0
1605963140.6735,85.0
1605963140.6756,83.0
1605963140.6762,73.0
1605963140.6785,68.0
1605963140.6805,68.0
1605963140.6825,65.0
1605963140.6846,63.0
1605963140.6865,63.0
1605963140.6885,68.0
1605963140.6905,65.0
1605963140.6925,61.0
1605963140.6945,61.0
1605963140.6967,68.0
1605963140.6986,68.0
1605963140.7005,65.0
1605963140.7025,75.0
1605963140.7045,83.0
1605963140.7065,73.0
1605963140.7072,68.0
1605963140.7095,75.0
1605963140.7115,78.0
1605963140.7135,75.0
1605963140.7156,78.0
1605963140.7175,80.0
1605963140.7195,80.0
1605963140.7215,73.0
1605963140.7235,78.0
1605963140.7256,90.0
1605963140.7275,83.0
1605963140.7295,70.0
1605963140.7315,73.0
1605963140.7335,80.0
1605963140.7356,80.0
1605963140.7375,78.0
1605963140.7382,80.0
1605963140.7405,70.0
1605963140.7426,39.0
1605963140.7446,26.0
1605963140.7466,48.0
1605963140.7485,56.0
1605963140.7505,36.0
1605963140.7525,41.0
1605963140.7545,73.0
1605963140.7566,85.0
1605963140.7585,75.0
1605963140.7605,83.0
1605963140.7625,90.0
1605963140.7645,75.0
1605963140.7665,58.0
1605963140.7685,58.0
1605963140.7692,68.0
1605963140.7716,7.0
1605963140.7735,-263.0
1605963140.7756,-581.0
1605963141.1457,-332.0
1605963141.1465,554.0
1605963141.1489,944.0
1605963141.1516,415.0
1605963141.1535,36.0
1605963141.1556,104.0
1605963141.1575,65.0
1605963141.1595,-14.0
1605963141.1615,29.0
1605963141.1637,31.0
1605963141.1655,-4.0
1605963141.1675,4.0
1605963141.1682,19.0
1605963141.1705,2.0
1605963141.1725,-9.0
1605963141.1745,-7.0
1605963141.1765,-14.0
1605963141.1785,-19.0
1605963141.1805,-21.0
1605963141.1825,-24.0
1605963141.1846,-21.0
1605963141.1867,-26.0
1605963141.1886,-41.0
1605963141.1905,-46.0
1605963141.1925,-46.0
1605963141.1945,-68.0
1605963141.1965,-85.0
1605963141.1985,-80.0
1605963141.1992,-80.0
1605963141.2015,-100.0
1605963141.2035,-112.0
1605963141.2055,-107.0
1605963141.2076,-90.0
1605963141.2095,-80.0
1605963141.2115,-80.0
1605963141.2134,-68.0
1605963141.2155,-51.0
1605963141.2174,-36.0
1605963141.2195,-7.0
1605963141.2215,26.0
1605963141.2235,46.0
1605963141.2255,53.0
1605963141.2275,78.0
1605963141.2282,100.0
1605963141.2305,102.0
1605963141.2325,104.0
1605963141.2345,117.0
1605963141.2365,122.0
1605963141.2385,107.0
1605963141.2405,92.0
1605963141.2425,92.0
1605963141.2445,104.0
1605963141.2465,104.0
1605963141.2485,92.0
1605963141.2504,70.0
1605963141.2525,70.0
1605963141.2545,85.0
1605963141.2565,83.0
1605963141.2585,75.0
1605963141.2592,83.0
1605963141.2606,75.0
1605963141.2625,63.0
1605963141.2644,65.0
1605963141.2665,73.0
1605963141.2684,75.0
1605963141.2705,78.0
1605963141.2725,83.0
1605963141.2745,87.0
1605963141.2765,90.0
1605963141.2785,92.0
1605963141.2804,85.0
1605963141.2824,75.0
1605963141.2844,75.0
1605963141.716,78.0
1605963141.717,78.0
1605963141.7194,75.0
1605963141.7221,68.0
1605963141.7241,68.0
1605963141.7261,75.0
1605963141.728,75.0
1605963141.73,65.0
1605963141.7319,65.0
1605963141.7339,73.0
1605963141.736,65.0
1605963141.7379,43.0
1605963141.7399,26.0
1605963141.7419,21.0
1605963141.7439,34.0
1605963141.746,36.0
1605963141.7466,34.0
1605963141.7489,48.0
1605963141.7509,68.0
1605963141.753,73.0
1605963141.755,78.0
1605963141.7569,83.0
1605963141.7589,75.0
1605963141.7609,56.0
1605963141.7629,51.0
1605963141.765,61.0
1605963141.7669,43.0
1605963141.7689,-134.0
1605963141.7709,-500.0
1605963141.773,-559.0
1605963141.775,178.0
1605963141.7769,927.0
1605963141.7776,664.0
1605963141.7789,97.0
1605963141.7809,65.0
1605963141.7829,112.0
1605963141.785,-2.0
1605963141.7869,0.0
1605963141.7891,48.0
1605963141.791,17.0
1605963141.7929,2.0
1605963141.795,19.0
1605963141.7969,17.0
1605963141.7989,4.0
1605963141.8009,-2.0
1605963141.803,-7.0
1605963141.805,2.0
1605963141.807,2.0
1605963141.8076,-12.0
1605963141.809,-24.0
1605963141.8109,-21.0
1605963141.8129,-26.0
1605963141.815,-46.0
1605963141.8169,-53.0
1605963141.8189,-56.0
1605963141.8209,-61.0
1605963141.8229,-70.0
1605963141.825,-92.0
1605963141.8269,-102.0
1605963141.8289,-104.0
1605963141.8309,-107.0
1605963141.8329,-104.0
1605963141.8349,-102.0
1605963141.8369,-97.0
1605963141.8376,-83.0
1605963141.8389,-68.0
1605963141.8409,-48.0
1605963141.8429,-17.0
1605963141.845,17.0
1605963141.8469,36.0
1605963141.8489,43.0
1605963141.8509,68.0
1605963141.8529,92.0
1605963142.2558,97.0
1605963142.2566,102.0
1605963142.2589,109.0
1605963142.2617,112.0
1605963142.2622,107.0
1605963142.2637,104.0
1605963142.2657,107.0
1605963142.2676,100.0
1605963142.2696,80.0
1605963142.2716,70.0
1605963142.2736,73.0
1605963142.2756,65.0
1605963142.2776,56.0
1605963142.2796,53.0
1605963142.2816,61.0
1605963142.2836,58.0
1605963142.2858,39.0
1605963142.2876,41.0
1605963142.2896,61.0
1605963142.2915,63.0
1605963142.2936,51.0
1605963142.2956,56.0
1605963142.2976,63.0
1605963142.2995,63.0
1605963142.3016,68.0
1605963142.3035,73.0
1605963142.3056,70.0
1605963142.3076,65.0
1605963142.3096,70.0
1605963142.3115,70.0
1605963142.3136,70.0
1605963142.3156,73.0
1605963142.3176,70.0
1605963142.3196,68.0
1605963142.3216,75.0
1605963142.3236,83.0
1605963142.3256,87.0
1605963142.3276,85.0
1605963142.3296,61.0
1605963142.3316,26.0
1605963142.3336,31.0
1605963142.3356,53.0
1605963142.3376,56.0
1605963142.3395,53.0
1605963142.3416,56.0
1605963142.3436,65.0
1605963142.3456,75.0
1605963142.3476,70.0
1605963142.3496,63.0
1605963142.3516,70.0
1605963142.3536,70.0
1605963142.3556,65.0
1605963142.3576,65.0
1605963142.3596,17.0
1605963142.3616,-214.0
1605963142.3635,-546.0
1605963142.3656,-434.0
1605963142.3675,393.0
1605963142.3696,961.0
1605963142.3715,529.0
1605963142.3735,39.0
1605963142.3756,73.0
1605963142.3776,73.0
1605963142.3796,-29.0
1605963142.3816,2.0
1605963142.3836,36.0
1605963142.3856,2.0
1605963142.3877,-9.0
1605963142.3896,2.0
1605963142.3915,7.0
1605963142.3935,-2.0
1605963142.3956,-9.0
1605963142.3975,-9.0
1605963142.7958,-12.0
1605963142.7965,-14.0
1605963142.7989,-17.0
1605963142.8016,-21.0
1605963142.8036,-36.0
1605963142.8056,-56.0
1605963142.8077,-56.0
1605963142.8096,-61.0
1605963142.8116,-73.0
1605963142.8136,-83.0
1605963142.8156,-95.0
1605963142.8175,-109.0
1605963142.8196,-112.0
1605963142.8216,-107.0
1605963142.8236,-107.0
1605963142.8255,-104.0
1605963142.8275,-92.0
1605963142.8295,-85.0
1605963142.8315,-73.0
1605963142.8335,-51.0
1605963142.8356,-31.0
1605963142.8375,-9.0
1605963142.8395,17.0
1605963142.8415,46.0
1605963142.8435,75.0
1605963142.8456,87.0
1605963142.8475,90.0
1605963142.8495,102.0
1605963142.8515,109.0
1605963142.8535,104.0
1605963142.8556,104.0
1605963142.8575,107.0
1605963142.8595,100.0
1605963142.8615,85.0
1605963142.8635,78.0
1605963142.8656,73.0
1605963142.8675,68.0
1605963142.8695,68.0
1605963142.8715,70.0
1605963142.8735,65.0
1605963142.8756,63.0
1605963142.8775,58.0
1605963142.8795,51.0
1605963142.8815,48.0
1605963142.8835,53.0
1605963142.8858,61.0
1605963142.8876,63.0
1605963142.8895,61.0
1605963142.8915,65.0
1605963142.8935,68.0
1605963142.8956,63.0
1605963142.8975,58.0
1605963142.8995,68.0
1605963142.9015,75.0
1605963142.9035,65.0
1605963142.9056,58.0
1605963142.9075,61.0
1605963142.9095,68.0
1605963142.9115,65.0
1605963142.9135,61.0
1605963142.9156,68.0
1605963142.9175,75.0
1605963142.9195,73.0
1605963142.9215,73.0
1605963142.9235,58.0
1605963142.9256,36.0
1605963142.9275,34.0
1605963142.9295,43.0
1605963142.9315,53.0
1605963142.9335,48.0
1605963142.9356,51.0
1605963142.9375,73.0
1605963142.9395,75.0
1605963143.3959,65.0
1605963143.3968,75.0
1605963143.3993,70.0
1605963143.4019,43.0
1605963143.4039,41.0
1605963143.406,58.0
1605963143.408,19.0
1605963143.4099,-205.0
1605963143.4119,-546.0
1605963143.4139,-478.0
1605963143.416,314.0
1605963143.4179,935.0
1605963143.4199,559.0
1605963143.4219,51.0
1605963143.4239,70.0
1605963143.4259,85.0
1605963143.4279,-17.0
1605963143.4299,2.0
1605963143.4319,26.0
1605963143.4339,-4.0
1605963143.4359,-4.0
1605963143.4378,7.0
1605963143.4398,0.0
1605963143.442,0.0
1605963143.4439,2.0
1605963143.4459,-7.0
1605963143.4478,-7.0
1605963143.4498,0.0
1605963143.4518,-17.0
1605963143.4538,-36.0
1605963143.4559,-31.0
1605963143.4578,-29.0
1605963143.4598,-46.0
1605963143.4618,-53.0
1605963143.4638,-56.0
1605963143.4659,-75.0
1605963143.4678,-85.0
1605963143.4698,-78.0
1605963143.4718,-87.0
1605963143.4738,-104.0
1605963143.4758,-104.0
1605963143.4778,-92.0
1605963143.4798,-78.0
1605963143.482,-63.0
1605963143.4838,-53.0
1605963143.4859,-39.0
1605963143.4878,-24.0
1605963143.4898,-4.0
1605963143.4918,29.0
1605963143.4938,56.0
1605963143.4959,68.0
1605963143.4978,83.0
1605963143.4998,100.0
1605963143.5018,107.0
1605963143.5038,107.0
1605963143.5059,117.0
1605963143.5078,109.0
1605963143.5098,107.0
1605963143.5118,117.0
1605963143.5138,100.0
1605963143.5158,80.0
1605963143.5178,90.0
1605963143.5198,85.0
1605963143.5218,65.0
1605963143.5238,65.0
1605963143.5259,70.0
1605963143.5278,61.0
1605963143.5298,56.0
1605963143.5318,65.0
1605963143.5339,61.0
1605963143.5359,51.0
1605963143.5378,58.0
1605963143.5398,65.0
1605963143.9657,63.0
1605963143.9667,61.0
1605963143.969,61.0
1605963143.9715,63.0
1605963143.9735,68.0
1605963143.9756,70.0
1605963143.9776,73.0
1605963143.9795,75.0
1605963143.9815,68.0
1605963143.9835,58.0
1605963143.9855,63.0
1605963143.9875,68.0
1605963143.9895,58.0
1605963143.9915,63.0
1605963143.9935,70.0
1605963143.9955,68.0
1605963143.9975,70.0
1605963143.9995,68.0
1605963144.0016,51.0
1605963144.0035,34.0
1605963144.0055,29.0
1605963144.0075,41.0
1605963144.0095,43.0
1605963144.0115,43.0
1605963144.0135,53.0
1605963144.0155,63.0
1605963144.0175,61.0
1605963144.0195,63.0
1605963144.0215,75.0
1605963144.0234,75.0
1605963144.0255,58.0
1605963144.0275,48.0
1605963144.0295,63.0
1605963144.0315,58.0
1605963144.0336,-109.0
1605963144.0355,-463.0
1605963144.0375,-551.0
1605963144.0395,129.0
1605963144.0415,893.0
1605963144.0435,693.0
1605963144.0455,114.0
1605963144.0474,46.0
1605963144.0495,102.0
1605963144.0515,0.0
1605963144.0535,-14.0
1605963144.0555,26.0
1605963144.0575,4.0
1605963144.0595,0.0
1605963144.0615,21.0
1605963144.0634,12.0
1605963144.0655,0.0
1605963144.0675,0.0
1605963144.0697,2.0
1605963144.0715,0.0
1605963144.0735,-4.0
1605963144.0755,-12.0
1605963144.0775,-19.0
1605963144.0795,-21.0
1605963144.0814,-26.0
1605963144.0835,-39.0
1605963144.0855,-51.0
1605963144.0875,-63.0
1605963144.0895,-65.0
1605963144.0914,-73.0
1605963144.0935,-87.0
1605963144.0955,-95.0
1605963144.0975,-92.0
1605963144.0995,-85.0
1605963144.1014,-78.0
1605963144.1035,-70.0
1605963144.1055,-63.0
1605963144.1075,-46.0
1605963144.1095,-24.0
1605963144.5354,-12.0
1605963144.5362,0.0
1605963144.5386,21.0
1605963144.5413,48.0
1605963144.5432,70.0
1605963144.5453,95.0
1605963144.5472,112.0
1605963144.5492,114.0
1605963144.5512,119.0
1605963144.5532,122.0
1605963144.5553,112.0
1605963144.5572,112.0
1605963144.5592,117.0
1605963144.5612,109.0
1605963144.5632,97.0
1605963144.5653,92.0
1605963144.5672,87.0
1605963144.5692,78.0
1605963144.5712,73.0
1605963144.5732,73.0
1605963144.5752,70.0
1605963144.5772,65.0
1605963144.5792,58.0
1605963144.5812,61.0
1605963144.5832,68.0
1605963144.5852,63.0
1605963144.5872,61.0
1605963144.5892,68.0
1605963144.5912,65.0
1605963144.5932,65.0
1605963144.5955,70.0
1605963144.5972,73.0
1605963144.5992,70.0
1605963144.6012,75.0
1605963144.6032,75.0
1605963144.6053,75.0
1605963144.6072,73.0
1605963144.6092,61.0
1605963144.6112,58.0
1605963144.6132,65.0
1605963144.6152,70.0
1605963144.6172,80.0
1605963144.6192,90.0
1605963144.6212,85.0
1605963144.6232,70.0
1605963144.6252,53.0
1605963144.6272,31.0
1605963144.6292,39.0
1605963144.6312,58.0
1605963144.6332,48.0
1605963144.6352,41.0
1605963144.6372,63.0
1605963144.6392,70.0
1605963144.6412,68.0
1605963144.6432,78.0
1605963144.6452,78.0
1605963144.6472,65.0
1605963144.6492,63.0
1605963144.6512,70.0
1605963144.6532,70.0
1605963144.6552,-12.0
1605963144.6572,-310.0
1605963144.6592,-622.0
1605963144.6612,-297.0
1605963144.6632,622.0
1605963144.6652,930.0
1605963144.6672,349.0
1605963144.6692,19.0
1605963144.6712,117.0
1605963144.6732,63.0
1605963144.6752,-14.0
1605963144.6772,34.0
1605963144.6792,36.0
1605963145.0754,-2.0
1605963145.0761,4.0
1605963145.0786,12.0
1605963145.0812,2.0
1605963145.0832,7.0
1605963145.0852,12.0
1605963145.0872,-4.0
1605963145.0892,-17.0
1605963145.0914,-12.0
1605963145.0932,-14.0
1605963145.0952,-31.0
1605963145.0972,-46.0
1605963145.0992,-56.0
1605963145.1011,-68.0
1605963145.1031,-75.0
1605963145.1052,-75.0
1605963145.1071,-78.0
1605963145.1091,-92.0
1605963145.1111,-107.0
1605963145.1131,-114.0
1605963145.1152,-114.0
1605963145.1171,-112.0
1605963145.1191,-112.0
1605963145.1211,-102.0
1605963145.1231,-85.0
1605963145.1253,-78.0
1605963145.1272,-65.0
1605963145.1291,-39.0
1605963145.1311,-4.0
1605963145.1331,24.0
1605963145.1352,53.0
1605963145.1371,73.0
1605963145.1391,92.0
1605963145.1411,107.0
1605963145.1431,112.0
1605963145.1452,122.0
1605963145.1472,131.0
1605963145.1491,122.0
1605963145.1511,114.0
1605963145.1531,119.0
1605963145.1552,107.0
1605963145.1571,95.0
1605963145.1591,92.0
1605963145.1611,87.0
1605963145.1632,83.0
1605963145.1652,80.0
1605963145.1671,70.0
1605963145.1691,73.0
1605963145.1711,75.0
1605963145.1731,58.0
1605963145.1752,43.0
1605963145.1771,48.0
1605963145.1791,63.0
1605963145.1811,63.0
1605963145.1831,56.0
1605963145.1852,61.0
1605963145.1872,68.0
1605963145.1891,68.0
1605963145.1911,68.0
1605963145.1933,68.0
1605963145.1952,65.0
1605963145.1972,58.0
1605963145.1992,63.0
1605963145.2011,78.0
1605963145.2031,78.0
1605963145.2052,68.0
1605963145.2071,58.0
1605963145.2091,65.0
1605963145.2111,85.0
1605963145.2131,75.0
1605963145.2152,39.0
1605963145.2171,24.0
1605963145.2191,39.0
1605963145.6153,36.0
1605963145.616,29.0
1605963145.6185,53.0
1605963145.6211,61.0
1605963145.6231,48.0
1605963145.6252,61.0
1605963145.6271,75.0
1605963145.6291,63.0
1605963145.631,51.0
1605963145.6331,46.0
1605963145.6351,46.0
1605963145.637,31.0
1605963145.639,-100.0
1605963145.641,-434.0
1605963145.643,-625.0
1605963145.6451,-68.0
1605963145.647,812.0
1605963145.649,803.0
1605963145.651,166.0
1605963145.653,2.0
1605963145.6551,102.0
1605963145.657,9.0
1605963145.659,-41.0
1605963145.661,9.0
1605963145.663,7.0
1605963145.6651,-12.0
1605963145.667,0.0
1605963145.669,-7.0
1605963145.671,-17.0
1605963145.673,-7.0
1605963145.6751,-9.0
1605963145.6771,-26.0
1605963145.679,-21.0
1605963145.681,-14.0
1605963145.683,-21.0
1605963145.6851,-36.0
1605963145.687,-46.0
1605963145.6892,-58.0
1605963145.6911,-73.0
1605963145.693,-73.0
1605963145.6951,-78.0
1605963145.697,-90.0
1605963145.699,-92.0
1605963145.701,-97.0
1605963145.703,-114.0
1605963145.7051,-114.0
1605963145.707,-100.0
1605963145.709,-95.0
1605963145.711,-90.0
1605963145.713,-73.0
1605963145.7151,-48.0
1605963145.717,-36.0
1605963145.719,-19.0
1605963145.721,17.0
1605963145.723,51.0
1605963145.7251,73.0
1605963145.727,90.0
1605963145.729,109.0
1605963145.731,112.0
1605963145.733,107.0
1605963145.7351,126.0
1605963145.737,139.0
1605963145.739,122.0
1605963145.741,112.0
1605963145.743,114.0
1605963145.7451,109.0
1605963145.747,97.0
1605963145.749,83.0
1605963145.751,75.0
1605963145.753,80.0
1605963145.7551,73.0
1605963145.757,61.0
1605963145.759,65.0
1605963146.1856,75.0
1605963146.1864,70.0
1605963146.1888,65.0
1605963146.1914,70.0
1605963146.1934,65.0
1605963146.1955,48.0
1605963146.1974,41.0
1605963146.1994,56.0
1605963146.2014,61.0
1605963146.2034,48.0
1605963146.2055,46.0
1605963146.2074,56.0
1605963146.2094,65.0
1605963146.2114,58.0
1605963146.2134,53.0
1605963146.2156,63.0
1605963146.2174,70.0
1605963146.2194,65.0
1605963146.2214,68.0
1605963146.2234,61.0
1605963146.2254,39.0
1605963146.2274,34.0
1605963146.2294,41.0
1605963146.2314,34.0
1605963146.2334,26.0
1605963146.2354,46.0
1605963146.2374,58.0
1605963146.2394,58.0
1605963146.2414,65.0
1605963146.2434,68.0
1605963146.2454,68.0
1605963146.2474,63.0
1605963146.2494,56.0
1605963146.2514,61.0
1605963146.2534,61.0
1605963146.2554,-65.0
1605963146.2574,-405.0
1605963146.2594,-612.0
1605963146.2615,-75.0
1605963146.2634,805.0
1605963146.2655,817.0
1605963146.2674,192.0
1605963146.2694,19.0
1605963146.2714,119.0
1605963146.2734,41.0
1605963146.2754,-14.0
1605963146.2774,19.0
1605963146.2794,17.0
1605963146.2814,4.0
1605963146.2834,12.0
1605963146.2854,7.0
1605963146.2874,-2.0
1605963146.2894,-7.0
1605963146.2914,-4.0
1605963146.2934,-4.0
1605963146.2954,-2.0
1605963146.2974,-7.0
1605963146.2994,-21.0
1605963146.3014,-34.0
1605963146.3034,-34.0
1605963146.3054,-36.0
1605963146.3074,-53.0
1605963146.3094,-65.0
1605963146.3114,-70.0
1605963146.3134,-83.0
1605963146.3154,-92.0
1605963146.3176,-95.0
1605963146.3195,-97.0
1605963146.3214,-102.0
1605963146.3234,-97.0
1605963146.3254,-85.0
1605963146.3274,-85.0
1605963146.3294,-75.0
1605963146.7856,-51.0
1605963146.7864,-26.0
1605963146.7888,-4.0
1605963146.7914,14.0
1605963146.7934,39.0
1605963146.7955,73.0
1605963146.7974,85.0
1605963146.7994,87.0
1605963146.8014,109.0
1605963146.8034,114.0
1605963146.8055,102.0
1605963146.8074,100.0
1605963146.8094,104.0
1605963146.8114,107.0
1605963146.8134,95.0
1605963146.8154,85.0
1605963146.8174,87.0
1605963146.8194,87.0
1605963146.8214,83.0
1605963146.8234,73.0
1605963146.8254,63.0
1605963146.8274,65.0
1605963146.8294,68.0
1605963146.8314,61.0
1605963146.8334,63.0
1605963146.8354,68.0
1605963146.8374,65.0
1605963146.8394,65.0
1605963146.8414,63.0
1605963146.8434,56.0
1605963146.8454,58.0
1605963146.8474,61.0
1605963146.8494,53.0
1605963146.8514,56.0
1605963146.8534,63.0
1605963146.8554,65.0
1605963146.8574,73.0
1605963146.8594,61.0
1605963146.8614,51.0
1605963146.8634,68.0
1605963146.8654,75.0
1605963146.8674,75.0
1605963146.8694,73.0
1605963146.8714,61.0
1605963146.8737,36.0
1605963146.8755,19.0
1605963146.8774,26.0
1605963146.8794,34.0
1605963146.8815,26.0
1605963146.8834,36.0
1605963146.8854,58.0
1605963146.8874,73.0
1605963146.8894,70.0
1605963146.8914,63.0
1605963146.8935,63.0
1605963146.8954,65.0
1605963146.8974,58.0
1605963146.8994,48.0
1605963146.9014,58.0
1605963146.9034,4.0
1605963146.9055,-266.0
1605963146.9074,-600.0
1605963146.9094,-358.0
1605963146.9114,532.0
1605963146.9121,930.0
1605963146.9134,395.0
1605963146.9154,12.0
1605963146.9174,95.0
1605963146.9194,68.0
1605963146.9214,-29.0
1605963146.9234,7.0
1605963146.9255,26.0
1605963146.9274,-7.0
1605963147.3257,-7.0
1605963147.3265,7.0
1605963147.3288,2.0
1605963147.3315,-7.0
1605963147.3335,-19.0
1605963147.3355,-17.0
1605963147.3375,-9.0
1605963147.3382,-17.0
1605963147.3404,-24.0
1605963147.3424,-31.0
1605963147.3444,-41.0
1605963147.3464,-53.0
1605963147.3484,-65.0
1605963147.3504,-73.0
1605963147.3524,-78.0
1605963147.3544,-90.0
1605963147.3564,-100.0
1605963147.3584,-104.0
1605963147.3604,-112.0
1605963147.3624,-124.0
1605963147.3644,-119.0
1605963147.3664,-104.0
1605963147.3686,-97.0
1605963147.3691,-80.0
1605963147.3704,-58.0
1605963147.3724,-43.0
1605963147.3744,-29.0
1605963147.3764,-2.0
1605963147.3784,26.0
1605963147.3804,58.0
1605963147.3824,83.0
1605963147.3845,95.0
1605963147.3865,102.0
1605963147.3884,107.0
1605963147.3904,114.0
1605963147.3924,114.0
1605963147.3944,112.0
1605963147.3964,114.0
1605963147.3972,107.0
1605963147.3985,104.0
1605963147.4004,102.0
1605963147.4024,92.0
1605963147.4044,85.0
1605963147.4064,85.0
1605963147.4084,83.0
1605963147.4104,73.0
1605963147.4124,73.0
1605963147.4144,75.0
1605963147.4164,68.0
1605963147.4184,63.0
1605963147.4204,65.0
1605963147.4224,63.0
1605963147.4244,63.0
1605963147.4264,70.0
1605963147.4271,68.0
1605963147.4284,68.0
1605963147.4304,68.0
1605963147.4324,70.0
1605963147.4344,73.0
1605963147.4364,73.0
1605963147.4384,75.0
1605963147.4404,65.0
1605963147.4424,58.0
1605963147.4444,61.0
1605963147.4464,53.0
1605963147.4484,43.0
1605963147.4504,48.0
1605963147.4524,61.0
1605963147.4544,65.0
1605963147.4564,68.0
1605963147.4571,65.0
1605963147.4584,48.0
1605963147.4604,24.0
1605963147.8961,9.0
1605963147.8972,19.0
1605963147.8995,31.0
1605963147.9022,29.0
1605963147.9042,31.0
1605963147.9062,48.0
1605963147.9084,58.0
1605963147.9103,63.0
1605963147.9122,65.0
1605963147.9142,53.0
1605963147.9162,41.0
1605963147.9169,43.0
1605963147.9191,39.0
1605963147.9211,39.0
1605963147.9231,14.0
1605963147.9252,-207.0
1605963147.9271,-566.0
1605963147.9291,-478.0
1605963147.9311,341.0
1605963147.9331,910.0
1605963147.9352,500.0
1605963147.9371,31.0
1605963147.9393,70.0
1605963147.9413,83.0
1605963147.9431,-14.0
1605963147.9452,4.0
1605963147.9471,26.0
1605963147.9478,-14.0
1605963147.9491,-14.0
1605963147.9511,4.0
1605963147.9531,0.0
1605963147.9552,-4.0
1605963147.9571,-7.0
1605963147.9591,-12.0
1605963147.9611,-14.0
1605963147.9631,-17.0
1605963147.9651,-21.0
1605963147.9671,-31.0
1605963147.9691,-39.0
1605963147.9711,-41.0
1605963147.9731,-48.0
1605963147.9752,-58.0
1605963147.9771,-65.0
1605963147.9778,-65.0
1605963147.9791,-73.0
1605963147.9811,-100.0
1605963147.9831,-104.0
1605963147.9852,-104.0
1605963147.9873,-114.0
1605963147.9891,-112.0
1605963147.9911,-107.0
1605963147.9933,-95.0
1605963147.9953,-70.0
1605963147.9971,-51.0
1605963147.9991,-39.0
1605963148.0011,-12.0
1605963148.0031,21.0
1605963148.0052,48.0
1605963148.0071,63.0
1605963148.0078,85.0
1605963148.0091,104.0
1605963148.0112,104.0
1605963148.0131,112.0
1605963148.0152,122.0
1605963148.0171,122.0
1605963148.0191,122.0
1605963148.0211,119.0
1605963148.0231,117.0
1605963148.0252,107.0
1605963148.0271,97.0
1605963148.0291,104.0
1605963148.0311,102.0
1605963148.0331,83.0
1605963148.4357,75.0
1605963148.4366,78.0
1605963148.439,68.0
1605963148.4416,63.0
1605963148.4436,80.0
1605963148.4456,85.0
1605963148.4476,63.0
1605963148.4496,53.0
1605963148.4516,53.0
1605963148.4536,51.0
1605963148.4556,46.0
1605963148.4576,43.0
1605963148.4596,46.0
1605963148.4615,46.0
1605963148.4636,48.0
1605963148.4656,53.0
1605963148.4676,43.0
1605963148.4683,41.0
1605963148.4706,48.0
1605963148.4725,46.0
1605963148.4746,53.0
1605963148.4766,63.0
1605963148.4785,51.0
1605963148.4806,41.0
1605963148.4827,43.0
1605963148.4846,41.0
1605963148.4866,46.0
1605963148.4885,61.0
1605963148.4905,63.0
1605963148.4927,51.0
1605963148.4947,29.0
1605963148.4965,14.0
1605963148.4985,19.0
1605963148.4992,36.0
1605963148.5005,36.0
1605963148.5025,26.0
1605963148.5046,31.0
1605963148.5066,53.0
1605963148.5086,68.0
1605963148.5106,68.0
1605963148.5125,58.0
1605963148.5146,46.0
1605963148.5165,46.0
1605963148.5185,61.0
1605963148.5206,65.0
1605963148.5226,29.0
1605963148.5246,-163.0
1605963148.5265,-532.0
1605963148.5285,-539.0
1605963148.5306,249.0
1605963148.5325,939.0
1605963148.5345,590.0
1605963148.5365,41.0
1605963148.5385,51.0
1605963148.5406,80.0
1605963148.5425,-39.0
1605963148.5445,-17.0
1605963148.5465,26.0
1605963148.5485,-2.0
1605963148.5505,-2.0
1605963148.5525,7.0
1605963148.5546,-12.0
1605963148.5565,-19.0
1605963148.5585,-7.0
1605963148.5605,2.0
1605963148.5625,-2.0
1605963148.5645,-21.0
1605963148.5665,-21.0
1605963148.5685,-21.0
1605963148.5705,-39.0
1605963148.5725,-48.0
1605963148.5745,-46.0
1605963148.5765,-56.0
1605963148.9752,-65.0
1605963148.976,-70.0
1605963148.9784,-80.0
1605963148.981,-95.0
1605963148.983,-109.0
1605963148.9851,-117.0
1605963148.987,-124.0
1605963148.9893,-134.0
1605963148.991,-129.0
1605963148.993,-109.0
1605963148.995,-97.0
1605963148.997,-97.0
1605963148.999,-73.0
1605963149.001,-21.0
1605963149.003,14.0
1605963149.005,34.0
1605963149.007,56.0
1605963149.009,85.0
1605963149.011,107.0
1605963149.013,109.0
1605963149.015,112.0
1605963149.017,124.0
1605963149.019,126.0
1605963149.021,119.0
1605963149.023,119.0
1605963149.0251,119.0
1605963149.027,109.0
1605963149.029,102.0
1605963149.031,97.0
1605963149.033,95.0
1605963149.035,87.0
1605963149.037,78.0
1605963149.039,78.0
1605963149.041,70.0
1605963149.043,63.0
1605963149.045,65.0
1605963149.047,61.0
1605963149.049,48.0
1605963149.051,51.0
1605963149.053,63.0
1605963149.055,61.0
1605963149.057,51.0
1605963149.059,46.0
1605963149.061,46.0
1605963149.063,58.0
1605963149.065,65.0
1605963149.067,53.0
1605963149.069,46.0
1605963149.071,56.0
1605963149.073,63.0
1605963149.0751,58.0
1605963149.077,61.0
1605963149.079,61.0
1605963149.081,56.0
1605963149.083,61.0
1605963149.085,61.0
1605963149.087,63.0
1605963149.089,75.0
1605963149.0912,70.0
1605963149.093,53.0
1605963149.0951,36.0
1605963149.097,17.0
1605963149.099,24.0
1605963149.101,43.0
1605963149.103,36.0
1605963149.105,36.0
1605963149.107,63.0
1605963149.109,73.0
1605963149.111,61.0
1605963149.113,68.0
1605963149.115,78.0
1605963149.117,61.0
1605963149.119,53.0
1605963149.5454,63.0
1605963149.546,58.0
1605963149.5484,21.0
1605963149.5511,-183.0
1605963149.553,-541.0
1605963149.5551,-507.0
1605963149.557,302.0
1605963149.559,949.0
1605963149.561,556.0
1605963149.563,21.0
1605963149.5651,48.0
1605963149.567,87.0
1605963149.569,-14.0
1605963149.571,2.0
1605963149.573,34.0
1605963149.5751,-4.0
1605963149.577,-19.0
1605963149.579,7.0
1605963149.581,14.0
1605963149.583,0.0
1605963149.5851,-9.0
1605963149.587,-14.0
1605963149.589,-9.0
1605963149.591,-4.0
1605963149.593,-9.0
1605963149.5951,-24.0
1605963149.597,-29.0
1605963149.599,-29.0
1605963149.601,-43.0
1605963149.603,-56.0
1605963149.6051,-53.0
1605963149.607,-65.0
1605963149.609,-85.0
1605963149.611,-95.0
1605963149.613,-100.0
1605963149.6151,-109.0
1605963149.6172,-114.0
1605963149.6191,-112.0
1605963149.621,-97.0
1605963149.623,-85.0
1605963149.625,-85.0
1605963149.627,-68.0
1605963149.629,-31.0
1605963149.631,7.0
1605963149.633,36.0
1605963149.6351,58.0
1605963149.637,80.0
1605963149.639,100.0
1605963149.641,109.0
1605963149.643,114.0
1605963149.6451,124.0
1605963149.647,124.0
1605963149.649,109.0
1605963149.651,109.0
1605963149.653,124.0
1605963149.6551,122.0
1605963149.657,109.0
1605963149.659,107.0
1605963149.661,100.0
1605963149.663,87.0
1605963149.6651,87.0
1605963149.667,85.0
1605963149.669,73.0
1605963149.671,63.0
1605963149.673,65.0
1605963149.6751,70.0
1605963149.677,68.0
1605963149.679,61.0
1605963149.681,56.0
1605963149.683,61.0
1605963149.6851,65.0
1605963149.687,73.0
1605963149.689,70.0
1605963150.1457,63.0
1605963150.1464,65.0
1605963150.1476,68.0
1605963150.1495,68.0
1605963150.1514,73.0
1605963150.1534,73.0
1605963150.1554,63.0
1605963150.1574,63.0
1605963150.1594,63.0
1605963150.1614,56.0
1605963150.1634,56.0
1605963150.1655,58.0
1605963150.1674,61.0
1605963150.1694,58.0
1605963150.1717,58.0
1605963150.1735,61.0
1605963150.1755,65.0
1605963150.1774,65.0
1605963150.1794,68.0
1605963150.1814,70.0
1605963150.1834,65.0
1605963150.1854,41.0
1605963150.1874,21.0
1605963150.1894,21.0
1605963150.1914,34.0
1605963150.1934,39.0
1605963150.1954,26.0
1605963150.1974,24.0
1605963150.1994,53.0
1605963150.2014,73.0
1605963150.2034,61.0
1605963150.2054,51.0
1605963150.2074,61.0
1605963150.2094,61.0
1605963150.2114,48.0
1605963150.2134,51.0
1605963150.2154,58.0
1605963150.2174,-46.0
1605963150.2195,-366.0
1605963150.2214,-598.0
1605963150.2234,-134.0
1605963150.2254,734.0
1605963150.2274,834.0
1605963150.2294,234.0
1605963150.2314,9.0
1605963150.2334,104.0
1605963150.2354,34.0
1605963150.2374,-17.0
1605963150.2394,34.0
1605963150.2414,26.0
1605963150.2434,-2.0
1605963150.244,7.0
1605963150.2454,12.0
1605963150.2474,4.0
1605963150.2494,9.0
1605963150.2514,4.0
1605963150.2534,-14.0
1605963150.2554,-26.0
1605963150.2574,-24.0
1605963150.2593,-19.0
1605963150.2614,-24.0
1605963150.2634,-31.0
1605963150.2654,-41.0
1605963150.2674,-48.0
1605963150.2694,-51.0
1605963150.2716,-65.0
1605963150.2734,-75.0
1605963150.274,-73.0
1605963150.2754,-90.0
1605963150.2774,-109.0
1605963150.2794,-104.0
1605963150.2814,-100.0
1605963150.2834,-100.0
1605963150.6856,-95.0
1605963150.6864,-75.0
1605963150.6887,-61.0
1605963150.6915,-46.0
1605963150.6935,-24.0
1605963150.6955,0.0
1605963150.6975,24.0
1605963150.6981,48.0
1605963150.6994,65.0
1605963150.7014,78.0
1605963150.7034,90.0
1605963150.7054,92.0
1605963150.7074,92.0
1605963150.7094,100.0
1605963150.7114,97.0
1605963150.7134,85.0
1605963150.7155,78.0
1605963150.7174,80.0
1605963150.7194,73.0
1605963150.7214,68.0
1605963150.7233,65.0
1605963150.7254,58.0
1605963150.7274,63.0
1605963150.728,65.0
1605963150.7294,56.0
1605963150.7314,58.0
1605963150.7334,61.0
1605963150.7354,56.0
1605963150.7374,51.0
1605963150.7394,51.0
1605963150.7413,51.0
1605963150.7434,53.0
1605963150.7454,58.0
1605963150.7474,68.0
1605963150.7493,68.0
1605963150.7513,65.0
1605963150.7533,68.0
1605963150.7554,70.0
1605963150.7574,70.0
1605963150.758,70.0
1605963150.7593,63.0
1605963150.7614,63.0
1605963150.7634,73.0
1605963150.7656,78.0
1605963150.7674,65.0
1605963150.7694,61.0
1605963150.7713,70.0
1605963150.7733,80.0
1605963150.7754,73.0
1605963150.7774,53.0
1605963150.7794,56.0
1605963150.7814,70.0
1605963150.7833,63.0
1605963150.7854,53.0
1605963150.7874,58.0
1605963150.788,58.0
1605963150.7894,61.0
1605963150.7913,73.0
1605963150.7934,70.0
1605963150.7954,51.0
1605963150.7974,26.0
1605963150.7994,14.0
1605963150.8014,26.0
1605963150.8033,41.0
1605963150.8054,34.0
1605963150.8074,29.0
1605963150.8093,46.0
1605963150.8114,65.0
1605963150.8133,70.0
1605963150.8154,70.0
1605963150.8174,68.0
1605963150.818,68.0
1605963150.8194,68.0
1605963151.2556,56.0
1605963151.2563,51.0
1605963151.2587,24.0
1605963151.2614,-180.0
1605963151.2634,-520.0
1605963151.2654,-463.0
1605963151.2675,314.0
1605963151.2694,910.0
1605963151.2714,527.0
1605963151.2734,29.0
1605963151.2754,48.0
1605963151.2773,68.0
1605963151.2793,-34.0
1605963151.2813,-14.0
1605963151.282,17.0
1605963151.2833,-19.0
1605963151.2854,-29.0
1605963151.2873,-4.0
1605963151.2893,-7.0
1605963151.2913,-21.0
1605963151.2933,-19.0
1605963151.2956,-12.0
1605963151.2975,-14.0
1605963151.2993,-21.0
1605963151.3013,-29.0
1605963151.3033,-36.0
1605963151.3054,-41.0
1605963151.3073,-43.0
1605963151.3093,-51.0
1605963151.3113,-65.0
1605963151.312,-78.0
1605963151.3133,-85.0
1605963151.3154,-85.0
1605963151.3173,-95.0
1605963151.3193,-112.0
1605963151.3213,-112.0
1605963151.3233,-109.0
1605963151.3254,-117.0
1605963151.3273,-114.0
1605963151.3293,-102.0
1605963151.3313,-95.0
1605963151.3333,-80.0
1605963151.3354,-61.0
1605963151.3373,-41.0
1605963151.3393,-9.0
1605963151.3413,21.0
1605963151.342,41.0
1605963151.3433,58.0
1605963151.3454,75.0
1605963151.3474,80.0
1605963151.3493,85.0
1605963151.3514,92.0
1605963151.3533,95.0
1605963151.3554,97.0
1605963151.3573,95.0
1605963151.3593,92.0
1605963151.3613,90.0
1605963151.3633,78.0
1605963151.3654,70.0
1605963151.3673,75.0
1605963151.3693,73.0
1605963151.3713,63.0
1605963151.372,68.0
1605963151.3733,70.0
1605963151.3754,65.0
1605963151.3774,63.0
1605963151.3794,61.0
1605963151.3813,61.0
1605963151.3833,65.0
1605963151.3854,70.0
1605963151.3873,65.0
1605963151.3893,61.0
1605963151.3915,63.0
1605963151.7956,65.0
1605963151.7963,68.0
1605963151.798,65.0
1605963151.8004,61.0
1605963151.8024,56.0
1605963151.8044,56.0
1605963151.8063,63.0
1605963151.8083,65.0
1605963151.8103,56.0
1605963151.8123,46.0
1605963151.8143,46.0
1605963151.8163,53.0
1605963151.8183,63.0
1605963151.8203,61.0
1605963151.8223,53.0
1605963151.8243,46.0
1605963151.8263,48.0
1605963151.8283,46.0
1605963151.829,46.0
1605963151.8303,58.0
1605963151.8323,58.0
1605963151.8343,51.0
1605963151.8363,51.0
1605963151.8383,53.0
1605963151.8403,53.0
1605963151.8423,46.0
1605963151.8444,21.0
1605963151.8463,4.0
1605963151.8483,26.0
1605963151.8503,41.0
1605963151.8523,24.0
1605963151.8543,19.0
1605963151.8563,43.0
1605963151.8583,68.0
1605963151.8667,65.0
1605963151.8683,58.0
1605963151.8703,58.0
1605963151.8723,56.0
1605963151.8743,51.0
1605963151.8763,46.0
1605963151.8783,48.0
1605963151.8803,9.0
1605963151.8823,-234.0
1605963151.8843,-585.0
1605963151.8863,-422.0
1605963151.8883,439.0
1605963151.8903,920.0
1605963151.8924,441.0
1605963151.8943,34.0
1605963151.895,95.0
1605963151.8964,61.0
1605963151.8983,-29.0
1605963151.9003,17.0
1605963151.9023,34.0
1605963151.9043,-9.0
1605963151.9063,-4.0
1605963151.9083,14.0
1605963151.9103,-4.0
1605963151.9123,-19.0
1605963151.9143,-12.0
1605963151.9163,-9.0
1605963151.9183,-17.0
1605963151.9203,-26.0
1605963151.9223,-31.0
1605963151.9243,-36.0
1605963151.925,-46.0
1605963151.9263,-56.0
1605963151.9284,-61.0
1605963151.9303,-75.0
1605963151.9323,-90.0
1605963151.9343,-102.0
1605963151.9363,-119.0
1605963151.9383,-122.0
1605963152.3657,-119.0
1605963152.3665,-126.0
1605963152.3688,-134.0
1605963152.3715,-134.0
1605963152.3735,-131.0
1605963152.3755,-122.0
1605963152.3776,-107.0
1605963152.3795,-97.0
1605963152.3802,-85.0
1605963152.3825,-56.0
1605963152.3845,-29.0
1605963152.3865,4.0
1605963152.3885,41.0
1605963152.3905,61.0
1605963152.3925,78.0
1605963152.3945,90.0
1605963152.3964,95.0
1605963152.3984,95.0
1605963152.4004,100.0
1605963152.4025,100.0
1605963152.4045,92.0
1605963152.4064,90.0
1605963152.4084,83.0
1605963152.4104,73.0
1605963152.4112,80.0
1605963152.4135,85.0
1605963152.4155,73.0
1605963152.4174,63.0
1605963152.4196,58.0
1605963152.4215,58.0
1605963152.4234,61.0
1605963152.4255,53.0
1605963152.4274,48.0
1605963152.4295,53.0
1605963152.4314,51.0
1605963152.4335,53.0
1605963152.4354,65.0
1605963152.4375,73.0
1605963152.4394,75.0
1605963152.4414,70.0
1605963152.4422,61.0
1605963152.4445,65.0
1605963152.4464,80.0
1605963152.4485,73.0
1605963152.4504,63.0
1605963152.4524,75.0
1605963152.4545,75.0
1605963152.4565,63.0
1605963152.4584,73.0
1605963152.4604,78.0
1605963152.4625,68.0
1605963152.4645,73.0
1605963152.4664,70.0
1605963152.4684,58.0
1605963152.4704,58.0
1605963152.4724,65.0
1605963152.4732,68.0
1605963152.4755,56.0
1605963152.4774,51.0
1605963152.4794,61.0
1605963152.4814,63.0
1605963152.4835,61.0
1605963152.4854,65.0
1605963152.4874,56.0
1605963152.4894,24.0
1605963152.4914,4.0
1605963152.4934,29.0
1605963152.4955,36.0
1605963152.4974,12.0
1605963152.4994,26.0
1605963152.5014,58.0
1605963152.5034,58.0
1605963152.5041,56.0
1605963152.9052,65.0
1605963152.9059,56.0
1605963152.9083,48.0
1605963152.911,58.0
1605963152.913,56.0
1605963152.915,48.0
1605963152.9173,-9.0
1605963152.9191,-283.0
1605963152.9209,-607.0
1605963152.923,-336.0
1605963152.925,544.0
1605963152.9269,898.0
1605963152.9289,349.0
1605963152.9297,-4.0
1605963152.9319,95.0
1605963152.9339,43.0
1605963152.9359,-53.0
1605963152.9379,2.0
1605963152.9399,14.0
1605963152.942,-29.0
1605963152.9439,-17.0
1605963152.946,-2.0
1605963152.9479,-14.0
1605963152.9499,-19.0
1605963152.9519,-19.0
1605963152.9539,-26.0
1605963152.9559,-31.0
1605963152.9579,-39.0
1605963152.9599,-48.0
1605963152.9606,-46.0
1605963152.9629,-51.0
1605963152.965,-65.0
1605963152.967,-65.0
1605963152.9689,-70.0
1605963152.9709,-83.0
1605963152.9729,-92.0
1605963152.975,-107.0
1605963152.9769,-112.0
1605963152.9789,-112.0
1605963152.9809,-124.0
1605963152.9829,-129.0
1605963152.9849,-122.0
1605963152.9869,-112.0
1605963152.9889,-102.0
1605963152.9909,-90.0
1605963152.9916,-73.0
1605963152.9929,-48.0
1605963152.9949,-24.0
1605963152.9969,-2.0
1605963152.9989,26.0
1605963153.0009,58.0
1605963153.0029,73.0
1605963153.005,80.0
1605963153.0069,90.0
1605963153.0089,97.0
1605963153.0109,102.0
1605963153.0129,104.0
1605963153.0151,100.0
1605963153.017,90.0
1605963153.0189,90.0
1605963153.0209,90.0
1605963153.0216,90.0
1605963153.0229,75.0
1605963153.025,65.0
1605963153.0269,70.0
1605963153.0289,70.0
1605963153.0309,58.0
1605963153.0329,53.0
1605963153.0349,61.0
1605963153.0369,58.0
1605963153.0389,53.0
1605963153.0409,68.0
1605963153.0429,65.0
1605963153.5052,51.0
1605963153.5061,61.0
1605963153.5071,68.0
1605963153.5091,65.0
1605963153.5111,65.0
1605963153.5131,51.0
1605963153.5151,46.0
1605963153.517,58.0
1605963153.5191,56.0
1605963153.521,53.0
1605963153.523,56.0
1605963153.5251,58.0
1605963153.527,58.0
1605963153.529,58.0
1605963153.531,63.0
1605963153.533,63.0
1605963153.535,56.0
1605963153.5357,51.0
1605963153.537,63.0
1605963153.539,68.0
1605963153.541,51.0
1605963153.543,51.0
1605963153.5451,68.0
1605963153.547,61.0
1605963153.549,51.0
1605963153.551,65.0
1605963153.553,63.0
1605963153.5551,31.0
1605963153.557,12.0
1605963153.559,31.0
1605963153.561,36.0
1605963153.563,19.0
1605963153.565,31.0
1605963153.5657,56.0
1605963153.567,63.0
1605963153.5692,63.0
1605963153.5711,65.0
1605963153.573,56.0
1605963153.5751,48.0
1605963153.577,53.0
1605963153.579,51.0
1605963153.581,48.0
1605963153.583,-12.0
1605963153.585,-270.0
1605963153.587,-581.0
1605963153.589,-327.0
1605963153.591,539.0
1605963153.593,910.0
1605963153.595,378.0
1605963153.5957,-2.0
1605963153.597,78.0
1605963153.599,48.0
1605963153.601,-39.0
1605963153.603,-2.0
1605963153.6051,9.0
1605963153.607,-17.0
1605963153.609,-9.0
1605963153.611,-9.0
1605963153.613,-17.0
1605963153.6151,-9.0
1605963153.617,-12.0
1605963153.619,-26.0
1605963153.621,-34.0
1605963153.623,-29.0
1605963153.625,-36.0
1605963153.6257,-43.0
1605963153.6271,-51.0
1605963153.629,-68.0
1605963153.631,-75.0
1605963153.633,-75.0
1605963153.635,-78.0
1605963153.637,-83.0
1605963153.639,-97.0
1605963154.0458,-107.0
1605963154.0467,-100.0
1605963154.0481,-109.0
1605963154.0499,-124.0
1605963154.0518,-114.0
1605963154.0538,-97.0
1605963154.0559,-95.0
1605963154.0565,-85.0
1605963154.0578,-53.0
1605963154.0598,-36.0
1605963154.0618,-29.0
1605963154.0638,0.0
1605963154.0658,29.0
1605963154.068,39.0
1605963154.0698,58.0
1605963154.0718,80.0
1605963154.0738,85.0
1605963154.0758,85.0
1605963154.0778,95.0
1605963154.0798,107.0
1605963154.0817,102.0
1605963154.0837,85.0
1605963154.0857,83.0
1605963154.0864,85.0
1605963154.0877,78.0
1605963154.0897,75.0
1605963154.0917,70.0
1605963154.0938,63.0
1605963154.0958,58.0
1605963154.0977,58.0
1605963154.0997,61.0
1605963154.1017,61.0
1605963154.1037,68.0
1605963154.1058,75.0
1605963154.1077,68.0
1605963154.1097,61.0
1605963154.1117,53.0
1605963154.1137,65.0
1605963154.1158,80.0
1605963154.1164,75.0
1605963154.1178,68.0
1605963154.1197,68.0
1605963154.1217,63.0
1605963154.1237,61.0
1605963154.1258,73.0
1605963154.1277,75.0
1605963154.1297,61.0
1605963154.1317,58.0
1605963154.1337,75.0
1605963154.1357,80.0
1605963154.1377,65.0
1605963154.1397,63.0
1605963154.1417,75.0
1605963154.1437,70.0
1605963154.1458,58.0
1605963154.1464,65.0
1605963154.1477,78.0
1605963154.1497,78.0
1605963154.1517,68.0
1605963154.1537,58.0
1605963154.1558,43.0
1605963154.1577,17.0
1605963154.1597,17.0
1605963154.1617,43.0
1605963154.1639,39.0
1605963154.1658,26.0
1605963154.1677,51.0
1605963154.1697,73.0
1605963154.1717,78.0
1605963154.1737,73.0
1605963154.1758,63.0
1605963154.1764,53.0
1605963154.1778,61.0
1605963154.6155,65.0
1605963154.6163,63.0
1605963154.6186,34.0
1605963154.6213,-163.0
1605963154.6233,-507.0
1605963154.6254,-488.0
1605963154.6273,261.0
1605963154.6293,913.0
1605963154.6313,590.0
1605963154.6333,58.0
1605963154.6353,46.0
1605963154.6373,80.0
1605963154.638,-19.0
1605963154.6393,-9.0
1605963154.6413,29.0
1605963154.6433,-9.0
1605963154.6454,-26.0
1605963154.6473,-14.0
1605963154.6493,-9.0
1605963154.6512,-7.0
1605963154.6533,-19.0
1605963154.6553,-26.0
1605963154.6572,-21.0
1605963154.6593,-26.0
1605963154.6613,-41.0
1605963154.6633,-39.0
1605963154.6653,-36.0
1605963154.6672,-53.0
1605963154.6679,-70.0
1605963154.6692,-70.0
1605963154.6712,-85.0
1605963154.6733,-107.0
1605963154.6753,-104.0
1605963154.6773,-107.0
1605963154.6793,-122.0
1605963154.6812,-126.0
1605963154.6833,-126.0
1605963154.6853,-109.0
1605963154.6873,-97.0
1605963154.6893,-95.0
1605963154.6913,-83.0
1605963154.6933,-68.0
1605963154.6955,-48.0
1605963154.6973,-31.0
1605963154.6979,-14.0
1605963154.6993,17.0
1605963154.7012,43.0
1605963154.7032,61.0
1605963154.7053,78.0
1605963154.7073,80.0
1605963154.7092,80.0
1605963154.7113,100.0
1605963154.7133,104.0
1605963154.7153,90.0
1605963154.7174,87.0
1605963154.7194,90.0
1605963154.7214,83.0
1605963154.7234,78.0
1605963154.7254,78.0
1605963154.7273,73.0
1605963154.7279,73.0
1605963154.7293,68.0
1605963154.7313,51.0
1605963154.7333,51.0
1605963154.7353,63.0
1605963154.7375,63.0
1605963154.7393,53.0
1605963154.7413,53.0
1605963154.7432,61.0
1605963154.7453,58.0
1605963154.7473,61.0
1605963154.7493,73.0
1605963154.7512,70.0
1605963155.1551,65.0
1605963155.1558,70.0
1605963155.1575,75.0
1605963155.1599,75.0
1605963155.1619,70.0
1605963155.1639,73.0
1605963155.1659,75.0
1605963155.1679,70.0
1605963155.1699,65.0
1605963155.1719,61.0
1605963155.1739,53.0
1605963155.1759,51.0
1605963155.1778,48.0
1605963155.1798,48.0
1605963155.1818,53.0
1605963155.1826,58.0
1605963155.1848,68.0
1605963155.1854,65.0
1605963155.1868,48.0
1605963155.1888,31.0
1605963155.1912,14.0
1605963155.1929,21.0
1605963155.1949,39.0
1605963155.1968,36.0
1605963155.1988,36.0
1605963155.2008,51.0
1605963155.2028,61.0
1605963155.2049,58.0
1605963155.2068,51.0
1605963155.2088,53.0
1605963155.2108,58.0
1605963155.2128,58.0
1605963155.2148,53.0
1605963155.2154,46.0
1605963155.2168,0.0
1605963155.2188,-229.0
1605963155.2208,-563.0
1605963155.2228,-422.0
1605963155.2248,415.0
1605963155.2268,925.0
1605963155.2288,471.0
1605963155.2309,26.0
1605963155.2328,75.0
1605963155.2348,63.0
1605963155.2368,-29.0
1605963155.2388,7.0
1605963155.2408,26.0
1605963155.2428,-2.0
1605963155.2448,2.0
1605963155.2454,9.0
1605963155.2468,-2.0
1605963155.2488,-7.0
1605963155.2508,-9.0
1605963155.2528,-9.0
1605963155.2549,-14.0
1605963155.2568,-19.0
1605963155.2588,-21.0
1605963155.2608,-29.0
1605963155.2628,-39.0
1605963155.2648,-43.0
1605963155.2668,-48.0
1605963155.2688,-63.0
1605963155.2708,-78.0
1605963155.2728,-85.0
1605963155.2749,-95.0
1605963155.2754,-112.0
1605963155.2768,-117.0
1605963155.2788,-117.0
1605963155.2809,-114.0
1605963155.2828,-112.0
1605963155.2848,-107.0
1605963155.287,-102.0
1605963155.2889,-90.0
1605963155.7258,-68.0
1605963155.7267,-46.0
1605963155.7292,-29.0
1605963155.7318,4.0
1605963155.7338,34.0
1605963155.7358,36.0
1605963155.7363,39.0
1605963155.7378,70.0
1605963155.7397,100.0
1605963155.7417,92.0
1605963155.7437,87.0
1605963155.7458,97.0
1605963155.7477,92.0
1605963155.7497,87.0
1605963155.7517,92.0
1605963155.7537,85.0
1605963155.7557,78.0
1605963155.7578,75.0
1605963155.7598,65.0
1605963155.7617,61.0
1605963155.7637,58.0
1605963155.7658,48.0
1605963155.7663,46.0
1605963155.7677,56.0
1605963155.7697,58.0
1605963155.7717,51.0
1605963155.7737,46.0
1605963155.7757,41.0
1605963155.7777,46.0
1605963155.7797,56.0
1605963155.7817,56.0
1605963155.7837,56.0
1605963155.7857,65.0
1605963155.7877,63.0
1605963155.7897,61.0
1605963155.7917,65.0
1605963155.7937,65.0
1605963155.7957,63.0
1605963155.7963,70.0
1605963155.7977,78.0
1605963155.7997,68.0
1605963155.8017,51.0
1605963155.8036,56.0
1605963155.8057,73.0
1605963155.8076,73.0
1605963155.8097,63.0
1605963155.8116,63.0
1605963155.8137,68.0
1605963155.8157,58.0
1605963155.8179,29.0
1605963155.8197,19.0
1605963155.8217,34.0
1605963155.8236,41.0
1605963155.8257,36.0
1605963155.8263,41.0
1605963155.8276,56.0
1605963155.8297,65.0
1605963155.8316,73.0
1605963155.8337,70.0
1605963155.8356,63.0
1605963155.8377,61.0
1605963155.8397,58.0
1605963155.8417,56.0
1605963155.8437,53.0
1605963155.8457,-9.0
1605963155.8476,-258.0
1605963155.8496,-588.0
1605963155.8517,-417.0
1605963155.8537,458.0
1605963155.8557,959.0
1605963155.8563,461.0
1605963155.8577,17.0
1605963155.8597,87.0
1605963156.2957,78.0
1605963156.2967,-29.0
1605963156.2991,4.0
1605963156.3018,34.0
1605963156.3038,-9.0
1605963156.3058,-14.0
1605963156.3078,0.0
1605963156.3097,-19.0
1605963156.3117,-24.0
1605963156.3137,-12.0
1605963156.3157,-21.0
1605963156.3177,-29.0
1605963156.3197,-26.0
1605963156.3203,-34.0
1605963156.3217,-46.0
1605963156.3237,-53.0
1605963156.3258,-61.0
1605963156.3277,-63.0
1605963156.3297,-70.0
1605963156.3317,-90.0
1605963156.3337,-97.0
1605963156.3356,-102.0
1605963156.3376,-124.0
1605963156.3396,-134.0
1605963156.3416,-131.0
1605963156.3437,-136.0
1605963156.3457,-136.0
1605963156.3479,-124.0
1605963156.3497,-112.0
1605963156.3502,-100.0
1605963156.3516,-83.0
1605963156.3536,-61.0
1605963156.3558,-31.0
1605963156.3576,-2.0
1605963156.3596,19.0
1605963156.3616,46.0
1605963156.3636,73.0
1605963156.3657,92.0
1605963156.3676,92.0
1605963156.3696,92.0
1605963156.3716,102.0
1605963156.3736,114.0
1605963156.3757,109.0
1605963156.3777,104.0
1605963156.3782,104.0
1605963156.3796,92.0
1605963156.3816,83.0
1605963156.3836,87.0
1605963156.3856,73.0
1605963156.3876,63.0
1605963156.3896,65.0
1605963156.3916,53.0
1605963156.3936,51.0
1605963156.3957,61.0
1605963156.3976,61.0
1605963156.3996,58.0
1605963156.4016,56.0
1605963156.4036,58.0
1605963156.4057,56.0
1605963156.4076,43.0
1605963156.4082,56.0
1605963156.4096,68.0
1605963156.4116,61.0
1605963156.4136,58.0
1605963156.4157,70.0
1605963156.4176,70.0
1605963156.4196,63.0
1605963156.4216,70.0
1605963156.4236,78.0
1605963156.4257,68.0
1605963156.4276,65.0
1605963156.4296,73.0
1605963156.4316,68.0
1605963156.8657,63.0
1605963156.8666,68.0
1605963156.8691,75.0
1605963156.8717,70.0
1605963156.8737,43.0
1605963156.876,17.0
1605963156.8777,24.0
1605963156.8796,36.0
1605963156.8816,24.0
1605963156.8836,14.0
1605963156.8856,31.0
1605963156.8876,53.0
1605963156.8896,58.0
1605963156.8917,51.0
1605963156.8936,43.0
1605963156.8957,46.0
1605963156.8962,48.0
1605963156.8976,46.0
1605963156.8996,46.0
1605963156.9016,29.0
1605963156.9037,-131.0
1605963156.9057,-478.0
1605963156.9076,-585.0
1605963156.9096,75.0
1605963156.9116,888.0
1605963156.9136,722.0
1605963156.9157,102.0
1605963156.9176,21.0
1605963156.9196,107.0
1605963156.9216,-2.0
1605963156.9236,-26.0
1605963156.9256,31.0
1605963156.9262,4.0
1605963156.9276,-26.0
1605963156.9296,-4.0
1605963156.9316,-2.0
1605963156.9336,-7.0
1605963156.9356,-4.0
1605963156.9376,-7.0
1605963156.9396,-14.0
1605963156.9416,-21.0
1605963156.9436,-26.0
1605963156.9457,-26.0
1605963156.9476,-34.0
1605963156.9496,-46.0
1605963156.9516,-53.0
1605963156.9536,-61.0
1605963156.9556,-68.0
1605963156.9562,-83.0
1605963156.9576,-87.0
1605963156.9596,-87.0
1605963156.9616,-107.0
1605963156.9636,-117.0
1605963156.9656,-114.0
1605963156.9675,-122.0
1605963156.9696,-114.0
1605963156.9718,-92.0
1605963156.9737,-83.0
1605963156.9756,-75.0
1605963156.9776,-43.0
1605963156.9796,-14.0
1605963156.9816,7.0
1605963156.9836,39.0
1605963156.9856,63.0
1605963156.9862,70.0
1605963156.9876,92.0
1605963156.9896,104.0
1605963156.9916,95.0
1605963156.9936,97.0
1605963156.9956,107.0
1605963156.9976,102.0
1605963156.9996,90.0
1605963157.0016,85.0
1605963157.4358,80.0
1605963157.4368,73.0
1605963157.4392,70.0
1605963157.4419,70.0
1605963157.4439,61.0
1605963157.4459,53.0
1605963157.4479,48.0
1605963157.4485,51.0
1605963157.4499,53.0
1605963157.4519,31.0
1605963157.4539,29.0
1605963157.4559,48.0
1605963157.4578,43.0
1605963157.4598,39.0
1605963157.4616,51.0
1605963157.4639,51.0
1605963157.4658,46.0
1605963157.4678,46.0
1605963157.4698,53.0
1605963157.4718,58.0
1605963157.4738,51.0
1605963157.4758,53.0
1605963157.4764,61.0
1605963157.4778,61.0
1605963157.4798,61.0
1605963157.4818,70.0
1605963157.4838,68.0
1605963157.4858,53.0
1605963157.4878,56.0
1605963157.4898,68.0
1605963157.4918,70.0
1605963157.4938,70.0
1605963157.4958,65.0
1605963157.4977,56.0
1605963157.4999,36.0
1605963157.5018,21.0
1605963157.5038,24.0
1605963157.5058,29.0
1605963157.5064,31.0
1605963157.5078,51.0
1605963157.5098,61.0
1605963157.5117,61.0
1605963157.5137,65.0
1605963157.5158,65.0
1605963157.5178,58.0
1605963157.5198,61.0
1605963157.5218,58.0
1605963157.5238,58.0
1605963157.5258,53.0
1605963157.5278,-61.0
1605963157.5298,-385.0
1605963157.5318,-605.0
1605963157.5337,-95.0
1605963157.5358,786.0
1605963157.5364,812.0
1605963157.5377,195.0
1605963157.5398,17.0
1605963157.5418,114.0
1605963157.5438,24.0
1605963157.5458,-34.0
1605963157.5478,19.0
1605963157.5497,17.0
1605963157.5517,-12.0
1605963157.5537,-7.0
1605963157.5558,-4.0
1605963157.5578,-9.0
1605963157.5598,-4.0
1605963157.5617,-2.0
1605963157.5638,-14.0
1605963157.5658,-31.0
1605963157.5664,-26.0
1605963157.5678,-29.0
1605963157.5697,-43.0
1605963157.9753,-48.0
1605963157.9763,-46.0
1605963157.9787,-46.0
1605963157.9814,-61.0
1605963157.9834,-73.0
1605963157.9854,-78.0
1605963157.9874,-90.0
1605963157.9894,-100.0
1605963157.9914,-100.0
1605963157.9934,-117.0
1605963157.9941,-134.0
1605963157.9953,-119.0
1605963157.9976,-97.0
1605963157.9994,-87.0
1605963158.0013,-75.0
1605963158.0033,-63.0
1605963158.0054,-36.0
1605963158.0073,12.0
1605963158.0093,46.0
1605963158.0113,41.0
1605963158.0133,43.0
1605963158.0154,75.0
1605963158.0173,100.0
1605963158.0193,100.0
1605963158.0213,90.0
1605963158.0233,92.0
1605963158.0239,107.0
1605963158.0253,109.0
1605963158.0273,95.0
1605963158.0293,75.0
1605963158.0313,63.0
1605963158.0333,78.0
1605963158.0353,90.0
1605963158.0373,78.0
1605963158.0393,56.0
1605963158.0413,56.0
1605963158.0433,61.0
1605963158.0453,58.0
1605963158.0473,68.0
1605963158.0493,65.0
1605963158.0513,53.0
1605963158.0533,58.0
1605963158.0539,65.0
1605963158.0553,68.0
1605963158.0573,78.0
1605963158.0593,75.0
1605963158.0613,65.0
1605963158.0633,65.0
1605963158.0653,65.0
1605963158.0673,68.0
1605963158.0693,80.0
1605963158.0713,80.0
1605963158.0733,73.0
1605963158.0753,73.0
1605963158.0773,68.0
1605963158.0793,58.0
1605963158.0812,58.0
1605963158.0833,68.0
1605963158.0839,68.0
1605963158.0853,70.0
1605963158.0873,87.0
1605963158.0893,83.0
1605963158.0913,63.0
1605963158.0934,65.0
1605963158.0953,65.0
1605963158.0972,58.0
1605963158.0992,61.0
1605963158.1013,48.0
1605963158.1033,36.0
1605963158.1053,41.0
1605963158.1073,51.0
1605963158.1093,48.0
1605963158.1113,41.0
1605963158.5156,65.0
1605963158.5165,104.0
1605963158.5181,87.0
1605963158.52,51.0
1605963158.522,63.0
1605963158.524,70.0
1605963158.526,46.0
1605963158.528,58.0
1605963158.53,56.0
1605963158.532,-87.0
1605963158.534,-375.0
1605963158.536,-522.0
1605963158.538,-41.0
1605963158.54,695.0
1605963158.542,659.0
1605963158.5426,134.0
1605963158.544,34.0
1605963158.5459,117.0
1605963158.5479,19.0
1605963158.5499,-19.0
1605963158.5519,29.0
1605963158.5539,14.0
1605963158.5559,-9.0
1605963158.558,12.0
1605963158.5599,17.0
1605963158.5619,-7.0
1605963158.5639,-4.0
1605963158.5659,4.0
1605963158.5679,-4.0
1605963158.5699,-9.0
1605963158.5719,-12.0
1605963158.5725,-17.0
1605963158.5739,-21.0
1605963158.5759,-36.0
1605963158.5779,-51.0
1605963158.5799,-58.0
1605963158.5819,-56.0
1605963158.5839,-51.0
1605963158.5859,-63.0
1605963158.5879,-78.0
1605963158.5899,-80.0
1605963158.5921,-92.0
1605963158.594,-104.0
1605963158.5959,-95.0
1605963158.5979,-95.0
1605963158.5999,-95.0
1605963158.6019,-78.0
1605963158.6025,-65.0
1605963158.6039,-61.0
1605963158.606,-29.0
1605963158.6079,9.0
1605963158.6099,29.0
1605963158.6119,41.0
1605963158.6139,58.0
1605963158.6159,78.0
1605963158.6179,97.0
1605963158.6199,107.0
1605963158.6219,112.0
1605963158.6239,112.0
1605963158.626,104.0
1605963158.6279,100.0
1605963158.6299,92.0
1605963158.6319,95.0
1605963158.6325,97.0
1605963158.6339,90.0
1605963158.6359,83.0
1605963158.6379,80.0
1605963158.6399,68.0
1605963158.6419,58.0
1605963158.6439,70.0
1605963158.646,63.0
1605963158.6479,41.0
1605963158.6499,65.0
1605963159.0859,83.0
1605963159.0871,43.0
1605963159.0896,41.0
1605963159.0922,73.0
1605963159.0942,56.0
1605963159.0962,48.0
1605963159.097,70.0
1605963159.0982,58.0
1605963159.1002,31.0
1605963159.1022,36.0
1605963159.1042,58.0
1605963159.1062,65.0
1605963159.1082,70.0
1605963159.1102,78.0
1605963159.1122,61.0
1605963159.1142,31.0
1605963159.1162,43.0
1605963159.1182,78.0
1605963159.1202,73.0
1605963159.1225,53.0
1605963159.1242,46.0
1605963159.1262,48.0
1605963159.1268,70.0
1605963159.1282,87.0
1605963159.1302,56.0
1605963159.1322,29.0
1605963159.1342,41.0
1605963159.1361,41.0
1605963159.1381,26.0
1605963159.1401,36.0
1605963159.1421,51.0
1605963159.1441,51.0
1605963159.1461,43.0
1605963159.1481,51.0
1605963159.1502,70.0
1605963159.1521,80.0
1605963159.1541,80.0
1605963159.1561,75.0
1605963159.157,61.0
1605963159.1582,53.0
1605963159.1601,56.0
1605963159.1621,56.0
1605963159.1641,31.0
1605963159.1661,-153.0
1605963159.1681,-505.0
1605963159.1701,-488.0
1605963159.1721,275.0
1605963159.1741,881.0
1605963159.1761,517.0
1605963159.1781,51.0
1605963159.1801,92.0
1605963159.1821,87.0
1605963159.1841,-34.0
1605963159.1861,2.0
1605963159.1867,51.0
1605963159.188,12.0
1605963159.1901,2.0
1605963159.1921,19.0
1605963159.1941,2.0
1605963159.1961,-14.0
1605963159.1981,-2.0
1605963159.2001,2.0
1605963159.2021,0.0
1605963159.2041,-4.0
1605963159.2061,-14.0
1605963159.2081,-24.0
1605963159.2101,-34.0
1605963159.2121,-46.0
1605963159.2141,-43.0
1605963159.2161,-46.0
1605963159.2169,-58.0
1605963159.2181,-75.0
1605963159.2201,-80.0
1605963159.6255,-92.0
1605963159.6262,-117.0
1605963159.6286,-122.0
1605963159.6313,-114.0
1605963159.6333,-112.0
1605963159.6353,-122.0
1605963159.6373,-134.0
1605963159.6393,-126.0
1605963159.6413,-102.0
1605963159.6433,-70.0
1605963159.6439,-24.0
1605963159.6452,4.0
1605963159.6472,24.0
1605963159.6492,61.0
1605963159.6512,92.0
1605963159.6532,102.0
1605963159.6553,100.0
1605963159.6572,104.0
1605963159.6592,126.0
1605963159.6612,139.0
1605963159.6632,131.0
1605963159.6653,122.0
1605963159.6673,117.0
1605963159.6692,117.0
1605963159.6712,119.0
1605963159.6732,112.0
1605963159.6738,87.0
1605963159.6753,68.0
1605963159.6772,75.0
1605963159.6792,73.0
1605963159.6812,70.0
1605963159.6832,75.0
1605963159.6852,70.0
1605963159.6872,58.0
1605963159.6892,41.0
1605963159.6912,31.0
1605963159.6932,51.0
1605963159.6953,70.0
1605963159.6972,65.0
1605963159.6992,58.0
1605963159.7012,48.0
1605963159.7032,46.0
1605963159.7038,68.0
1605963159.7053,87.0
1605963159.7072,75.0
1605963159.7093,56.0
1605963159.7112,61.0
1605963159.7132,75.0
1605963159.7154,83.0
1605963159.7172,78.0
1605963159.7192,68.0
1605963159.7212,73.0
1605963159.7232,70.0
1605963159.7253,56.0
1605963159.7272,68.0
1605963159.7292,83.0
1605963159.7312,70.0
1605963159.7332,39.0
1605963159.7338,24.0
1605963159.7352,43.0
1605963159.7372,63.0
1605963159.7392,68.0
1605963159.7412,63.0
1605963159.7432,43.0
1605963159.7452,31.0
1605963159.7472,56.0
1605963159.7492,75.0
1605963159.7512,80.0
1605963159.7532,80.0
1605963159.7552,65.0
1605963159.7572,51.0
1605963159.7593,51.0
1605963159.7613,56.0
1605963160.2257,48.0
1605963160.2266,-92.0
1605963160.2291,-424.0
1605963160.2317,-502.0
1605963160.2337,136.0
1605963160.2357,793.0
1605963160.2379,532.0
1605963160.2397,12.0
1605963160.2417,9.0
1605963160.2437,90.0
1605963160.2456,24.0
1605963160.2476,39.0
1605963160.2497,56.0
1605963160.2516,4.0
1605963160.2523,4.0
1605963160.2536,43.0
1605963160.2557,31.0
1605963160.2576,-4.0
1605963160.2596,4.0
1605963160.2616,26.0
1605963160.2636,9.0
1605963160.2656,-9.0
1605963160.2676,9.0
1605963160.2696,9.0
1605963160.2717,-31.0
1605963160.2737,-36.0
1605963160.2758,-19.0
1605963160.2776,-43.0
1605963160.2796,-63.0
1605963160.2816,-58.0
1605963160.2822,-75.0
1605963160.2836,-102.0
1605963160.2856,-117.0
1605963160.2876,-129.0
1605963160.2896,-136.0
1605963160.2916,-134.0
1605963160.2936,-122.0
1605963160.2956,-124.0
1605963160.2976,-119.0
1605963160.2996,-85.0
1605963160.3017,-36.0
1605963160.3037,-4.0
1605963160.3057,-4.0
1605963160.3076,9.0
1605963160.3096,56.0
1605963160.3116,92.0
1605963160.3122,102.0
1605963160.3136,97.0
1605963160.3156,107.0
1605963160.3177,119.0
1605963160.3196,92.0
1605963160.3217,80.0
1605963160.3236,119.0
1605963160.3256,134.0
1605963160.3276,104.0
1605963160.3296,87.0
1605963160.3316,90.0
1605963160.3336,80.0
1605963160.3356,70.0
1605963160.3376,70.0
1605963160.3396,65.0
1605963160.3416,46.0
1605963160.3422,56.0
1605963160.3436,97.0
1605963160.3456,97.0
1605963160.3476,58.0
1605963160.3496,46.0
1605963160.3516,56.0
1605963160.3536,65.0
1605963160.3557,80.0
1605963160.3576,83.0
1605963160.3596,78.0
1605963160.3616,95.0
1605963160.8256,104.0
1605963160.8265,75.0
1605963160.829,58.0
1605963160.8301,65.0
1605963160.8319,61.0
1605963160.8336,53.0
1605963160.8356,73.0
1605963160.8377,70.0
1605963160.8396,36.0
1605963160.8416,56.0
1605963160.8436,97.0
1605963160.8456,78.0
1605963160.8475,48.0
1605963160.8495,43.0
1605963160.8515,41.0
1605963160.8535,58.0
1605963160.8555,78.0
1605963160.8575,63.0
1605963160.8595,41.0
1605963160.8601,36.0
1605963160.8615,24.0
1605963160.8635,4.0
1605963160.8655,12.0
1605963160.8675,24.0
1605963160.8695,14.0
1605963160.8715,7.0
1605963160.8736,31.0
1605963160.8756,63.0
1605963160.8775,83.0
1605963160.8795,70.0
1605963160.8815,41.0
1605963160.8835,31.0
1605963160.8855,41.0
1605963160.8875,53.0
1605963160.8895,68.0
1605963160.8901,90.0
1605963160.8915,51.0
1605963160.8935,-187.0
1605963160.8956,-502.0
1605963160.8975,-358.0
1605963160.8995,361.0
1605963160.9015,717.0
1605963160.9035,283.0
1605963160.9055,-12.0
1605963160.9075,102.0
1605963160.9095,83.0
1605963160.9115,-4.0
1605963160.9135,26.0
1605963160.9155,41.0
1605963160.9175,24.0
1605963160.9195,43.0
1605963160.9201,58.0
1605963160.9215,36.0
1605963160.9235,7.0
1605963160.9255,-17.0
1605963160.9277,-14.0
1605963160.9296,39.0
1605963160.9315,53.0
1605963160.9335,2.0
1605963160.9355,-39.0
1605963160.9375,-46.0
1605963160.9395,-29.0
1605963160.9415,-12.0
1605963160.9435,-21.0
1605963160.9455,-26.0
1605963160.9475,-39.0
1605963160.9495,-83.0
1605963160.9501,-102.0
1605963160.9515,-78.0
1605963160.9535,-78.0
1605963160.9555,-124.0
1605963160.9575,-136.0
1605963160.9595,-90.0
1605963161.3354,-73.0
1605963161.3362,-102.0
1605963161.3386,-102.0
1605963161.3412,-87.0
1605963161.3432,-58.0
1605963161.3453,0.0
1605963161.3473,39.0
1605963161.3492,41.0
1605963161.3512,48.0
1605963161.3519,80.0
1605963161.3532,104.0
1605963161.3552,107.0
1605963161.3572,109.0
1605963161.3592,83.0
1605963161.3612,58.0
1605963161.3632,87.0
1605963161.3652,109.0
1605963161.3672,104.0
1605963161.3692,100.0
1605963161.3712,78.0
1605963161.3732,61.0
1605963161.3753,63.0
1605963161.3772,65.0
1605963161.3792,56.0
1605963161.3812,51.0
1605963161.3818,48.0
1605963161.3832,41.0
1605963161.3852,51.0
1605963161.3873,63.0
1605963161.3892,43.0
1605963161.3912,31.0
1605963161.3932,46.0
1605963161.3952,48.0
1605963161.3974,48.0
1605963161.3992,68.0
1605963161.4012,70.0
1605963161.4032,51.0
1605963161.4052,41.0
1605963161.4072,39.0
1605963161.4092,53.0
1605963161.4112,65.0
1605963161.4118,58.0
1605963161.4132,58.0
1605963161.4152,63.0
1605963161.4172,56.0
1605963161.4192,51.0
1605963161.4212,56.0
1605963161.4232,56.0
1605963161.4252,51.0
1605963161.4272,41.0
1605963161.4292,36.0
1605963161.4312,48.0
1605963161.4332,53.0
1605963161.4352,34.0
1605963161.4372,26.0
1605963161.4392,46.0
1605963161.4412,61.0
1605963161.4418,53.0
1605963161.4424,53.0
1605963161.4443,68.0
1605963161.4462,56.0
1605963161.4482,39.0
1605963161.4502,31.0
1605963161.4522,12.0
1605963161.4542,2.0
1605963161.4562,24.0
1605963161.4582,46.0
1605963161.4602,43.0
1605963161.4622,36.0
1605963161.4642,43.0
1605963161.4662,61.0
1605963161.4682,63.0
1605963161.4688,48.0
1605963161.9053,46.0
1605963161.9062,61.0
1605963161.9086,73.0
1605963161.9103,73.0
1605963161.9123,61.0
1605963161.9144,7.0
1605963161.9163,-187.0
1605963161.9182,-498.0
1605963161.9203,-441.0
1605963161.9223,251.0
1605963161.9243,710.0
1605963161.9265,322.0
1605963161.9283,-41.0
1605963161.929,65.0
1605963161.9303,92.0
1605963161.9323,-7.0
1605963161.9343,14.0
1605963161.9362,43.0
1605963161.9383,-2.0
1605963161.9402,-14.0
1605963161.9422,12.0
1605963161.9443,26.0
1605963161.9462,26.0
1605963161.9482,12.0
1605963161.9502,-9.0
1605963161.9522,-17.0
1605963161.9543,-17.0
1605963161.9563,-26.0
1605963161.9582,-29.0
1605963161.9588,-19.0
1605963161.9602,-26.0
1605963161.9622,-48.0
1605963161.9642,-56.0
1605963161.9662,-63.0
1605963161.9682,-107.0
1605963161.9702,-126.0
1605963161.9722,-95.0
1605963161.9743,-90.0
1605963161.9762,-117.0
1605963161.9782,-117.0
1605963161.9802,-119.0
1605963161.9822,-131.0
1605963161.9842,-146.0
1605963161.9862,-141.0
1605963161.9882,-100.0
1605963161.9888,-63.0
1605963161.9902,-56.0
1605963161.9922,-48.0
1605963161.9942,-12.0
1605963161.9962,29.0
1605963161.9982,61.0
1605963162.0002,87.0
1605963162.0022,95.0
1605963162.0043,97.0
1605963162.0062,109.0
1605963162.0082,114.0
1605963162.0102,112.0
1605963162.0122,97.0
1605963162.0143,92.0
1605963162.0162,112.0
1605963162.0182,107.0
1605963162.0188,92.0
1605963162.0204,95.0
1605963162.0222,80.0
1605963162.0242,70.0
1605963162.0262,83.0
1605963162.0282,92.0
1605963162.0302,80.0
1605963162.0322,53.0
1605963162.0342,43.0
1605963162.0362,48.0
1605963162.0382,48.0
1605963162.0402,61.0
1605963162.4456,68.0
1605963162.4466,43.0
1605963162.449,31.0
1605963162.4506,46.0
1605963162.4513,61.0
1605963162.4527,68.0
1605963162.4547,56.0
1605963162.4567,36.0
1605963162.4586,34.0
1605963162.4606,41.0
1605963162.4626,43.0
1605963162.4646,41.0
1605963162.4666,48.0
1605963162.4686,61.0
1605963162.4706,63.0
1605963162.4726,48.0
1605963162.4747,31.0
1605963162.4766,39.0
1605963162.4786,58.0
1605963162.4806,56.0
1605963162.4812,34.0
1605963162.4826,31.0
1605963162.4846,46.0
1605963162.4866,39.0
1605963162.4886,31.0
1605963162.4906,51.0
1605963162.4926,48.0
1605963162.4946,17.0
1605963162.4966,0.0
1605963162.4985,9.0
1605963162.5005,26.0
1605963162.5025,34.0
1605963162.5046,29.0
1605963162.5065,36.0
1605963162.5086,41.0
1605963162.5105,46.0
1605963162.5111,61.0
1605963162.5125,61.0
1605963162.5145,51.0
1605963162.5165,46.0
1605963162.5187,34.0
1605963162.5206,29.0
1605963162.5225,39.0
1605963162.5246,34.0
1605963162.5265,-131.0
1605963162.5285,-483.0
1605963162.5305,-524.0
1605963162.5325,168.0
1605963162.5346,800.0
1605963162.5365,495.0
1605963162.5385,4.0
1605963162.5405,46.0
1605963162.5411,107.0
1605963162.5426,-2.0
1605963162.5446,-2.0
1605963162.5465,12.0
1605963162.5485,-14.0
1605963162.5505,14.0
1605963162.5525,21.0
1605963162.5545,-21.0
1605963162.5565,-14.0
1605963162.5585,24.0
1605963162.5605,2.0
1605963162.5625,-31.0
1605963162.5646,-17.0
1605963162.5665,-14.0
1605963162.5685,-43.0
1605963162.5705,-46.0
1605963162.5712,-41.0
1605963162.5725,-51.0
1605963162.5746,-68.0
1605963162.5765,-92.0
1605963162.5785,-104.0
1605963163.0156,-97.0
1605963163.0165,-97.0
1605963163.019,-112.0
1605963163.0216,-136.0
1605963163.0236,-153.0
1605963163.0256,-144.0
1605963163.0277,-139.0
1605963163.0296,-148.0
1605963163.0302,-136.0
1605963163.0316,-119.0
1605963163.0336,-109.0
1605963163.0357,-85.0
1605963163.0375,-41.0
1605963163.0396,-9.0
1605963163.0415,24.0
1605963163.0435,51.0
1605963163.0456,63.0
1605963163.0475,83.0
1605963163.0498,104.0
1605963163.0516,109.0
1605963163.0535,107.0
1605963163.0555,107.0
1605963163.0575,122.0
1605963163.0595,126.0
1605963163.0601,97.0
1605963163.0615,78.0
1605963163.0635,104.0
1605963163.0655,124.0
1605963163.0675,100.0
1605963163.0695,87.0
1605963163.0715,95.0
1605963163.0735,78.0
1605963163.0755,68.0
1605963163.0775,75.0
1605963163.0795,51.0
1605963163.0815,24.0
1605963163.0835,46.0
1605963163.0855,70.0
1605963163.0875,75.0
1605963163.0895,68.0
1605963163.0901,65.0
1605963163.0915,73.0
1605963163.0935,63.0
1605963163.0956,46.0
1605963163.0975,53.0
1605963163.0995,75.0
1605963163.1015,68.0
1605963163.1035,46.0
1605963163.1055,51.0
1605963163.1075,46.0
1605963163.1095,46.0
1605963163.1115,73.0
1605963163.1135,83.0
1605963163.1155,63.0
1605963163.1175,51.0
1605963163.1195,46.0
1605963163.1201,39.0
1605963163.1215,34.0
1605963163.1235,48.0
1605963163.1255,56.0
1605963163.1275,51.0
1605963163.1295,53.0
1605963163.1315,51.0
1605963163.1335,43.0
1605963163.1355,36.0
1605963163.1375,39.0
1605963163.1395,68.0
1605963163.1415,73.0
1605963163.1435,31.0
1605963163.1457,14.0
1605963163.1475,26.0
1605963163.1495,21.0
1605963163.1501,17.0
1605963163.6155,34.0
1605963163.6168,41.0
1605963163.6192,34.0
1605963163.6218,41.0
1605963163.6238,48.0
1605963163.6258,48.0
1605963163.6279,58.0
1605963163.6298,56.0
1605963163.6318,36.0
1605963163.6338,26.0
1605963163.6358,36.0
1605963163.6379,-2.0
1605963163.6398,-236.0
1605963163.6405,-549.0
1605963163.6418,-378.0
1605963163.6438,358.0
1605963163.6457,681.0
1605963163.6478,229.0
1605963163.6497,-46.0
1605963163.6518,75.0
1605963163.6538,61.0
1605963163.6558,-9.0
1605963163.6577,29.0
1605963163.6597,24.0
1605963163.6617,-24.0
1605963163.6638,-24.0
1605963163.6657,2.0
1605963163.6677,12.0
1605963163.6697,2.0
1605963163.6703,7.0
1605963163.6717,12.0
1605963163.6737,-12.0
1605963163.6757,-26.0
1605963163.6777,-12.0
1605963163.6797,-19.0
1605963163.6818,-46.0
1605963163.6837,-48.0
1605963163.6857,-36.0
1605963163.6877,-61.0
1605963163.6897,-90.0
1605963163.6918,-80.0
1605963163.6937,-65.0
1605963163.6958,-73.0
1605963163.6978,-87.0
1605963163.6997,-100.0
1605963163.7003,-114.0
1605963163.7017,-119.0
1605963163.7039,-112.0
1605963163.7058,-109.0
1605963163.7077,-109.0
1605963163.7097,-92.0
1605963163.7117,-61.0
1605963163.7137,-39.0
1605963163.7157,-12.0
1605963163.7177,19.0
1605963163.7197,46.0
1605963163.7217,63.0
1605963163.7237,68.0
1605963163.7259,90.0
1605963163.7277,117.0
1605963163.7283,114.0
1605963163.7297,97.0
1605963163.7317,97.0
1605963163.7337,109.0
1605963163.7357,104.0
1605963163.7378,87.0
1605963163.7397,92.0
1605963163.7417,100.0
1605963163.7437,83.0
1605963163.7457,70.0
1605963163.7477,78.0
1605963163.7497,78.0
1605963163.7517,73.0
1605963164.1556,63.0
1605963164.1565,56.0
1605963164.159,56.0
1605963164.1601,53.0
1605963164.1616,46.0
1605963164.1636,53.0
1605963164.1656,73.0
1605963164.1677,68.0
1605963164.1696,51.0
1605963164.1716,48.0
1605963164.1736,56.0
1605963164.1755,53.0
1605963164.1775,46.0
1605963164.1795,51.0
1605963164.1815,48.0
1605963164.1835,39.0
1605963164.1856,48.0
1605963164.1876,51.0
1605963164.1895,29.0
1605963164.1901,34.0
1605963164.1915,63.0
1605963164.1935,65.0
1605963164.1956,51.0
1605963164.1975,41.0
1605963164.1995,39.0
1605963164.2017,43.0
1605963164.2036,41.0
1605963164.2055,39.0
1605963164.2075,43.0
1605963164.2095,41.0
1605963164.2115,36.0
1605963164.2135,39.0
1605963164.2155,48.0
1605963164.2175,51.0
1605963164.2195,43.0
1605963164.2201,31.0
1605963164.2215,41.0
1605963164.2235,61.0
1605963164.2255,51.0
1605963164.2275,19.0
1605963164.2295,2.0
1605963164.2315,9.0
1605963164.2335,19.0
1605963164.2355,19.0
1605963164.2375,19.0
1605963164.2395,34.0
1605963164.2416,39.0
1605963164.2435,36.0
1605963164.2455,43.0
1605963164.2475,46.0
1605963164.2495,41.0
1605963164.2501,34.0
1605963164.2515,31.0
1605963164.2535,46.0
1605963164.2555,68.0
1605963164.2575,4.0
1605963164.2595,-261.0
1605963164.2615,-568.0
1605963164.2635,-366.0
1605963164.2655,373.0
1605963164.2675,661.0
1605963164.2695,200.0
1605963164.2715,-58.0
1605963164.2735,83.0
1605963164.2755,70.0
1605963164.2775,-21.0
1605963164.2795,12.0
1605963164.2801,19.0
1605963164.2815,-12.0
1605963164.2835,4.0
1605963164.2855,17.0
1605963164.2875,0.0
1605963164.2895,-9.0
1605963164.6954,-9.0
1605963164.6962,-14.0
1605963164.6986,-24.0
1605963164.7015,-21.0
1605963164.7033,-17.0
1605963164.7053,-24.0
1605963164.7074,-29.0
1605963164.7079,-39.0
1605963164.7093,-46.0
1605963164.7113,-51.0
1605963164.7133,-65.0
1605963164.7154,-75.0
1605963164.7173,-80.0
1605963164.7193,-97.0
1605963164.7212,-104.0
1605963164.7232,-95.0
1605963164.7252,-102.0
1605963164.7272,-109.0
1605963164.7292,-102.0
1605963164.7312,-97.0
1605963164.7332,-97.0
1605963164.7352,-90.0
1605963164.7372,-65.0
1605963164.7378,-31.0
1605963164.7392,-7.0
1605963164.7412,4.0
1605963164.7432,31.0
1605963164.7452,75.0
1605963164.7472,92.0
1605963164.7492,100.0
1605963164.7512,114.0
1605963164.7532,107.0
1605963164.7552,90.0
1605963164.7572,87.0
1605963164.7592,87.0
1605963164.7612,90.0
1605963164.7632,97.0
1605963164.7652,97.0
1605963164.7672,87.0
1605963164.7678,83.0
1605963164.7692,80.0
1605963164.7711,73.0
1605963164.7732,70.0
1605963164.7752,70.0
1605963164.7772,61.0
1605963164.7792,58.0
1605963164.7812,65.0
1605963164.7832,56.0
1605963164.7852,41.0
1605963164.7872,43.0
1605963164.7892,63.0
1605963164.7912,65.0
1605963164.7932,53.0
1605963164.7952,65.0
1605963164.7974,83.0
1605963164.7979,68.0
1605963164.7992,51.0
1605963164.8012,58.0
1605963164.8032,68.0
1605963164.8052,58.0
1605963164.8072,56.0
1605963164.8092,63.0
1605963164.8112,51.0
1605963164.8132,39.0
1605963164.8152,51.0
1605963164.8172,61.0
1605963164.8192,63.0
1605963164.8211,65.0
1605963164.8232,56.0
1605963164.8252,53.0
1605963164.8272,61.0
1605963164.8278,65.0
1605963164.8292,61.0
1605963165.2656,51.0
1605963165.2665,46.0
1605963165.269,48.0
1605963165.2716,46.0
1605963165.2736,46.0
1605963165.2756,43.0
1605963165.2777,34.0
1605963165.2796,24.0
1605963165.2816,34.0
1605963165.2836,48.0
1605963165.2856,31.0
1605963165.2876,17.0
1605963165.2896,24.0
1605963165.2916,12.0
1605963165.2922,-2.0
1605963165.2935,21.0
1605963165.2956,39.0
1605963165.2976,26.0
1605963165.2995,19.0
1605963165.3016,26.0
1605963165.3035,31.0
1605963165.3055,51.0
1605963165.3075,61.0
1605963165.3095,39.0
1605963165.3115,29.0
1605963165.3135,34.0
1605963165.3157,21.0
1605963165.3175,-7.0
1605963165.3195,-197.0
1605963165.3215,-529.0
1605963165.3221,-463.0
1605963165.3235,268.0
1605963165.3257,739.0
1605963165.3276,334.0
1605963165.3295,-43.0
1605963165.3315,48.0
1605963165.3335,75.0
1605963165.3355,-7.0
1605963165.3375,0.0
1605963165.3395,7.0
1605963165.3415,-21.0
1605963165.3435,-29.0
1605963165.3456,-14.0
1605963165.3475,-4.0
1605963165.3495,-14.0
1605963165.3515,-19.0
1605963165.3521,-17.0
1605963165.3535,-24.0
1605963165.3555,-36.0
1605963165.3576,-43.0
1605963165.3595,-29.0
1605963165.3615,-26.0
1605963165.3635,-48.0
1605963165.3655,-63.0
1605963165.3675,-63.0
1605963165.3695,-68.0
1605963165.3715,-80.0
1605963165.3736,-95.0
1605963165.3756,-90.0
1605963165.3775,-90.0
1605963165.3795,-124.0
1605963165.3815,-144.0
1605963165.3821,-117.0
1605963165.3835,-97.0
1605963165.3855,-107.0
1605963165.3875,-102.0
1605963165.3895,-80.0
1605963165.3915,-68.0
1605963165.3935,-48.0
1605963165.3955,-14.0
1605963165.3975,19.0
1605963165.3995,48.0
1605963165.4015,65.0
1605963165.8051,73.0
1605963165.806,87.0
1605963165.8084,107.0
1605963165.8095,112.0
1605963165.8111,114.0
1605963165.8131,114.0
1605963165.8151,104.0
1605963165.8172,100.0
1605963165.8191,109.0
1605963165.8211,109.0
1605963165.8233,92.0
1605963165.8251,78.0
1605963165.827,70.0
1605963165.829,68.0
1605963165.831,65.0
1605963165.833,58.0
1605963165.835,56.0
1605963165.837,65.0
1605963165.839,56.0
1605963165.8396,46.0
1605963165.841,48.0
1605963165.843,51.0
1605963165.8451,51.0
1605963165.847,46.0
1605963165.849,43.0
1605963165.851,48.0
1605963165.853,56.0
1605963165.855,78.0
1605963165.857,87.0
1605963165.859,56.0
1605963165.861,41.0
1605963165.863,65.0
1605963165.865,70.0
1605963165.867,56.0
1605963165.869,56.0
1605963165.8696,61.0
1605963165.8711,56.0
1605963165.873,51.0
1605963165.875,46.0
1605963165.877,51.0
1605963165.879,48.0
1605963165.881,39.0
1605963165.883,41.0
1605963165.8849,61.0
1605963165.887,73.0
1605963165.889,70.0
1605963165.891,56.0
1605963165.893,46.0
1605963165.895,61.0
1605963165.897,70.0
1605963165.899,58.0
1605963165.8996,43.0
1605963165.901,29.0
1605963165.903,0.0
1605963165.905,4.0
