,ecg
1607020810.1936,7000.0
1607020810.196,7943.0
1607020810.1986,9079.0
1607020810.2012,10070.0
1607020810.2035,10648.0
1607020810.2055,11220.0
1607020810.208,11762.0
1607020810.2101,12095.0
1607020810.2123,12328.0
1607020810.2145,12580.0
1607020810.2165,12976.0
1607020810.2182,13718.0
1607020810.22,14673.0
1607020810.222,14982.0
1607020810.224,13932.0
1607020810.226,12796.0
1607020810.228,13069.0
1607020810.23,13732.0
1607020810.232,13718.0
1607020810.234,13642.0
1607020810.236,13787.0
1607020810.238,13811.0
1607020810.24,13749.0
1607020810.242,13761.0
1607020810.244,13782.0
1607020810.246,13751.0
1607020810.2479,13713.0
1607020810.2499,13699.0
1607020810.2519,13680.0
1607020810.2539,13644.0
1607020810.2559,13599.0
1607020810.2579,13563.0
1607020810.2599,13544.0
1607020810.2619,13514.0
1607020810.2639,13473.0
1607020810.266,13433.0
1607020810.268,13392.0
1607020810.27,13352.0
1607020810.2719,13312.0
1607020810.2739,13250.0
1607020810.276,13186.0
1607020810.278,13119.0
1607020810.28,13029.0
1607020810.2819,12924.0
1607020810.2839,12810.0
1607020810.2859,12658.0
1607020810.288,12470.0
1607020810.2899,12290.0
1607020810.292,12131.0
1607020810.2939,11993.0
1607020810.2962,11881.0
1607020810.298,11765.0
1607020810.2999,11655.0
1607020810.3019,11572.0
1607020810.3039,11494.0
1607020810.3059,11415.0
1607020810.3079,11349.0
1607020810.3099,11266.0
1607020810.3119,11173.0
1607020810.3139,11102.0
1607020810.3159,11035.0
1607020810.3179,10950.0
1607020810.3199,10864.0
1607020810.3219,10786.0
1607020810.3239,10698.0
1607020810.3259,10612.0
1607020810.3279,10538.0
1607020810.3299,10458.0
1607020810.3319,10360.0
1607020810.3339,10270.0
1607020810.3359,10184.0
1607020810.3379,10101.0
1607020810.3399,10020.0
1607020810.7321,9928.0
1607020810.733,9845.0
1607020810.7354,9766.0
1607020810.7381,9676.0
1607020810.7401,9583.0
1607020810.7421,9502.0
1607020810.7441,9424.0
1607020810.7461,9341.0
1607020810.7481,9250.0
1607020810.75,9165.0
1607020810.752,9098.0
1607020810.754,9018.0
1607020810.756,8899.0
1607020810.7581,8808.0
1607020810.7601,8751.0
1607020810.7622,8659.0
1607020810.764,8554.0
1607020810.7661,8500.0
1607020810.7681,8466.0
1607020810.77,8404.0
1607020810.772,8314.0
1607020810.7741,8226.0
1607020810.776,8134.0
1607020810.778,8029.0
1607020810.7801,7936.0
1607020810.782,7870.0
1607020810.784,7794.0
1607020810.786,7696.0
1607020810.7882,7618.0
1607020810.79,7554.0
1607020810.792,7482.0
1607020810.794,7404.0
1607020810.796,7311.0
1607020810.798,7174.0
1607020810.8,7017.0
1607020810.802,7012.0
1607020810.804,7354.0
1607020810.806,8060.0
1607020810.8081,8542.0
1607020810.81,7777.0
1607020810.812,6318.0
1607020810.814,6014.0
1607020810.8163,6587.0
1607020810.818,6603.0
1607020810.8201,6330.0
1607020810.8219,6351.0
1607020810.824,6356.0
1607020810.826,6233.0
1607020810.828,6187.0
1607020810.8301,6176.0
1607020810.832,6104.0
1607020810.834,6040.0
1607020810.836,6002.0
1607020810.838,5955.0
1607020810.84,5900.0
1607020810.842,5855.0
1607020810.844,5814.0
1607020810.846,5776.0
1607020810.848,5736.0
1607020810.85,5693.0
1607020810.852,5660.0
1607020810.8539,5629.0
1607020810.856,5589.0
1607020810.858,5553.0
1607020810.86,5527.0
1607020810.862,5484.0
1607020810.864,5427.0
1607020810.866,5365.0
1607020810.868,5296.0
1607020810.87,5204.0
1607020810.872,5087.0
1607020810.8739,4954.0
1607020810.876,4812.0
1607020811.3021,4671.0
1607020811.3029,4548.0
1607020811.3053,4453.0
1607020811.308,4384.0
1607020811.3099,4320.0
1607020811.3119,4260.0
1607020811.3142,4215.0
1607020811.316,4182.0
1607020811.318,4137.0
1607020811.32,4082.0
1607020811.3219,4044.0
1607020811.3239,4018.0
1607020811.3259,3975.0
1607020811.328,3930.0
1607020811.3299,3894.0
1607020811.3319,3861.0
1607020811.3339,3823.0
1607020811.3359,3783.0
1607020811.3379,3737.0
1607020811.3399,3697.0
1607020811.3419,3659.0
1607020811.3439,3621.0
1607020811.3459,3585.0
1607020811.348,3547.0
1607020811.3499,3505.0
1607020811.3519,3464.0
1607020811.3539,3433.0
1607020811.3559,3400.0
1607020811.3579,3355.0
1607020811.3599,3317.0
1607020811.3619,3286.0
1607020811.3639,3248.0
1607020811.3659,3205.0
1607020811.3679,3169.0
1607020811.3699,3139.0
1607020811.3719,3105.0
1607020811.3739,3070.0
1607020811.3759,3029.0
1607020811.3779,2996.0
1607020811.3799,2968.0
1607020811.3819,2929.0
1607020811.3839,2894.0
1607020811.3859,2863.0
1607020811.3879,2827.0
1607020811.3899,2792.0
1607020811.3919,2766.0
1607020811.3945,2758.0
1607020811.3959,2763.0
1607020811.3979,2754.0
1607020811.3999,2718.0
1607020811.4019,2670.0
1607020811.404,2625.0
1607020811.4059,2578.0
1607020811.4079,2537.0
1607020811.4099,2509.0
1607020811.4119,2480.0
1607020811.4139,2452.0
1607020811.4161,2426.0
1607020811.418,2402.0
1607020811.4199,2376.0
1607020811.4219,2347.0
1607020811.4239,2307.0
1607020811.4259,2217.0
1607020811.4279,2122.0
1607020811.4299,2183.0
1607020811.4319,2571.0
1607020811.4339,3272.0
1607020811.4359,3709.0
1607020811.4379,2958.0
1607020811.4399,1646.0
1607020811.4419,1478.0
1607020811.4439,2067.0
1607020811.4459,2100.0
1607020811.842,1903.0
1607020811.843,1977.0
1607020811.8455,2012.0
1607020811.8481,1936.0
1607020811.85,1943.0
1607020811.852,1965.0
1607020811.854,1934.0
1607020811.856,1917.0
1607020811.858,1924.0
1607020811.86,1905.0
1607020811.862,1886.0
1607020811.864,1886.0
1607020811.866,1889.0
1607020811.868,1882.0
1607020811.87,1882.0
1607020811.872,1889.0
1607020811.874,1896.0
1607020811.8759,1905.0
1607020811.8779,1910.0
1607020811.8799,1910.0
1607020811.8819,1912.0
1607020811.8839,1908.0
1607020811.886,1893.0
1607020811.888,1872.0
1607020811.8899,1841.0
1607020811.8919,1789.0
1607020811.8939,1718.0
1607020811.8959,1627.0
1607020811.898,1520.0
1607020811.9,1413.0
1607020811.902,1328.0
1607020811.9039,1273.0
1607020811.9059,1233.0
1607020811.9079,1202.0
1607020811.9099,1185.0
1607020811.9121,1178.0
1607020811.914,1169.0
1607020811.9159,1162.0
1607020811.9179,1159.0
1607020811.92,1157.0
1607020811.9219,1147.0
1607020811.9239,1140.0
1607020811.9259,1140.0
1607020811.928,1138.0
1607020811.9299,1128.0
1607020811.9319,1116.0
1607020811.9339,1112.0
1607020811.9359,1107.0
1607020811.938,1097.0
1607020811.9399,1085.0
1607020811.9419,1078.0
1607020811.9439,1071.0
1607020811.9459,1062.0
1607020811.948,1055.0
1607020811.9499,1045.0
1607020811.9519,1031.0
1607020811.9539,1024.0
1607020811.9559,1019.0
1607020811.9579,1007.0
1607020811.9599,995.0
1607020811.9619,988.0
1607020811.9639,981.0
1607020811.9659,969.0
1607020811.968,960.0
1607020811.9699,950.0
1607020811.9719,945.0
1607020811.9739,943.0
1607020811.9759,931.0
1607020811.978,922.0
1607020811.9799,917.0
1607020811.9819,912.0
1607020811.9839,905.0
1607020811.9859,895.0
1607020812.3817,883.0
1607020812.3825,879.0
1607020812.3849,874.0
1607020812.3876,864.0
1607020812.3895,853.0
1607020812.3915,850.0
1607020812.3936,841.0
1607020812.3955,824.0
1607020812.3976,812.0
1607020812.3995,805.0
1607020812.4015,796.0
1607020812.4036,791.0
1607020812.4055,796.0
1607020812.4077,819.0
1607020812.4095,843.0
1607020812.4115,843.0
1607020812.4135,826.0
1607020812.4155,807.0
1607020812.4176,779.0
1607020812.4195,748.0
1607020812.4215,739.0
1607020812.4235,739.0
1607020812.4255,727.0
1607020812.4275,712.0
1607020812.4295,712.0
1607020812.4315,715.0
1607020812.4335,708.0
1607020812.4355,691.0
1607020812.4375,632.0
1607020812.4395,546.0
1607020812.4415,577.0
1607020812.4435,895.0
1607020812.4455,1544.0
1607020812.4475,2164.0
1607020812.4495,1782.0
1607020812.4515,413.0
1607020812.4535,-156.0
1607020812.4555,446.0
1607020812.4575,734.0
1607020812.4595,527.0
1607020812.4615,548.0
1607020812.4635,655.0
1607020812.4655,610.0
1607020812.4675,603.0
1607020812.4695,651.0
1607020812.4715,646.0
1607020812.4735,636.0
1607020812.4755,655.0
1607020812.4776,665.0
1607020812.4795,667.0
1607020812.4815,681.0
1607020812.4836,698.0
1607020812.4855,715.0
1607020812.4875,729.0
1607020812.4895,748.0
1607020812.4915,769.0
1607020812.4934,788.0
1607020812.4955,805.0
1607020812.4975,826.0
1607020812.4995,850.0
1607020812.5015,867.0
1607020812.5035,869.0
1607020812.5055,867.0
1607020812.5075,850.0
1607020812.5097,815.0
1607020812.5115,769.0
1607020812.5135,705.0
1607020812.5155,605.0
1607020812.5175,499.0
1607020812.5195,413.0
1607020812.5215,356.0
1607020812.5235,313.0
1607020812.5255,285.0
1607020812.9816,270.0
1607020812.9826,268.0
1607020812.985,280.0
1607020812.9877,280.0
1607020812.9897,273.0
1607020812.9917,287.0
1607020812.9937,304.0
1607020812.9957,304.0
1607020812.9977,306.0
1607020812.9996,313.0
1607020813.0016,316.0
1607020813.0037,323.0
1607020813.0057,327.0
1607020813.0076,325.0
1607020813.0096,323.0
1607020813.0116,320.0
1607020813.0136,325.0
1607020813.0156,325.0
1607020813.0176,323.0
1607020813.0195,323.0
1607020813.0216,320.0
1607020813.0236,325.0
1607020813.0256,327.0
1607020813.0276,320.0
1607020813.0296,316.0
1607020813.0316,318.0
1607020813.0336,325.0
1607020813.0356,327.0
1607020813.0376,318.0
1607020813.0396,313.0
1607020813.0416,316.0
1607020813.0436,318.0
1607020813.0456,316.0
1607020813.0476,313.0
1607020813.0496,316.0
1607020813.0516,316.0
1607020813.0536,311.0
1607020813.0556,311.0
1607020813.0576,313.0
1607020813.0596,316.0
1607020813.0616,313.0
1607020813.0636,313.0
1607020813.0658,311.0
1607020813.0677,306.0
1607020813.0696,306.0
1607020813.0716,306.0
1607020813.0738,306.0
1607020813.0756,304.0
1607020813.0777,306.0
1607020813.0796,306.0
1607020813.0816,297.0
1607020813.0836,294.0
1607020813.0856,294.0
1607020813.0876,285.0
1607020813.0896,275.0
1607020813.0916,289.0
1607020813.0936,325.0
1607020813.0956,351.0
1607020813.0976,351.0
1607020813.0996,346.0
1607020813.1016,330.0
1607020813.1036,294.0
1607020813.1056,278.0
1607020813.1076,280.0
1607020813.1096,275.0
1607020813.1116,268.0
1607020813.1136,273.0
1607020813.1156,273.0
1607020813.1176,275.0
1607020813.1195,278.0
1607020813.1216,268.0
1607020813.1236,218.0
1607020813.1256,133.0
1607020813.5519,156.0
1607020813.5529,489.0
1607020813.5554,1188.0
1607020813.558,1841.0
1607020813.56,1440.0
1607020813.5619,11.0
1607020813.5639,-608.0
1607020813.5659,-4.0
1607020813.5679,318.0
1607020813.5698,140.0
1607020813.5718,159.0
1607020813.5738,263.0
1607020813.5758,232.0
1607020813.5778,223.0
1607020813.5798,263.0
1607020813.5818,268.0
1607020813.5838,273.0
1607020813.5858,294.0
1607020813.5878,308.0
1607020813.5899,323.0
1607020813.592,339.0
1607020813.5939,356.0
1607020813.5959,373.0
1607020813.5979,399.0
1607020813.5998,420.0
1607020813.6018,439.0
1607020813.6038,465.0
1607020813.6058,496.0
1607020813.6078,518.0
1607020813.6098,539.0
1607020813.6118,558.0
1607020813.6138,567.0
1607020813.6158,565.0
1607020813.6179,548.0
1607020813.6198,525.0
1607020813.6218,480.0
1607020813.6238,411.0
1607020813.6259,320.0
1607020813.6279,223.0
1607020813.6298,137.0
1607020813.6318,78.0
1607020813.6338,45.0
1607020813.6358,23.0
1607020813.6378,14.0
1607020813.6398,11.0
1607020813.6418,11.0
1607020813.6438,19.0
1607020813.6458,33.0
1607020813.6479,42.0
1607020813.6499,52.0
1607020813.6518,64.0
1607020813.6538,68.0
1607020813.6558,76.0
1607020813.6578,85.0
1607020813.6598,90.0
1607020813.6618,92.0
1607020813.6638,97.0
1607020813.6658,99.0
1607020813.6679,106.0
1607020813.6698,111.0
1607020813.6719,111.0
1607020813.6738,114.0
1607020813.6758,116.0
1607020813.6779,118.0
1607020813.6798,118.0
1607020813.6818,121.0
1607020813.6838,125.0
1607020813.6858,125.0
1607020813.6878,123.0
1607020813.6898,123.0
1607020813.6918,125.0
1607020813.694,123.0
1607020813.6959,121.0
1607020814.0921,125.0
1607020814.093,128.0
1607020814.0955,123.0
1607020814.0981,121.0
1607020814.1,123.0
1607020814.102,123.0
1607020814.1041,121.0
1607020814.106,125.0
1607020814.108,128.0
1607020814.11,125.0
1607020814.112,118.0
1607020814.114,116.0
1607020814.116,123.0
1607020814.1181,123.0
1607020814.12,118.0
1607020814.122,125.0
1607020814.124,130.0
1607020814.126,130.0
1607020814.128,130.0
1607020814.1301,133.0
1607020814.132,133.0
1607020814.134,125.0
1607020814.136,123.0
1607020814.138,125.0
1607020814.14,133.0
1607020814.142,152.0
1607020814.144,185.0
1607020814.146,201.0
1607020814.148,199.0
1607020814.15,190.0
1607020814.152,171.0
1607020814.154,149.0
1607020814.156,137.0
1607020814.158,137.0
1607020814.16,140.0
1607020814.162,140.0
1607020814.164,140.0
1607020814.166,140.0
1607020814.168,142.0
1607020814.1701,144.0
1607020814.172,125.0
1607020814.174,57.0
1607020814.176,-14.0
1607020814.178,76.0
1607020814.18,482.0
1607020814.182,1230.0
1607020814.184,1748.0
1607020814.186,1043.0
1607020814.188,-289.0
1607020814.1902,-458.0
1607020814.1921,147.0
1607020814.194,182.0
1607020814.196,0.0
1607020814.198,106.0
1607020814.2,166.0
1607020814.202,111.0
1607020814.204,135.0
1607020814.206,180.0
1607020814.208,178.0
1607020814.21,185.0
1607020814.212,209.0
1607020814.214,218.0
1607020814.216,228.0
1607020814.218,244.0
1607020814.22,259.0
1607020814.222,278.0
1607020814.224,301.0
1607020814.226,325.0
1607020814.2281,346.0
1607020814.23,368.0
1607020814.232,396.0
1607020814.234,427.0
1607020814.236,449.0
1607020814.6623,461.0
1607020814.6632,472.0
1607020814.6657,472.0
1607020814.6684,456.0
1607020814.6703,430.0
1607020814.6723,384.0
1607020814.6744,311.0
1607020814.6764,213.0
1607020814.6782,116.0
1607020814.6802,47.0
1607020814.6822,-4.0
1607020814.6842,-38.0
1607020814.6862,-54.0
1607020814.6882,-57.0
1607020814.6903,-57.0
1607020814.6909,-52.0
1607020814.6932,-42.0
1607020814.6952,-33.0
1607020814.6972,-21.0
1607020814.6992,-11.0
1607020814.7012,-2.0
1607020814.7032,7.0
1607020814.7052,14.0
1607020814.7072,21.0
1607020814.7093,28.0
1607020814.7112,33.0
1607020814.7132,40.0
1607020814.7154,47.0
1607020814.7173,47.0
1607020814.7192,47.0
1607020814.7212,52.0
1607020814.7219,54.0
1607020814.7242,57.0
1607020814.7262,61.0
1607020814.7283,64.0
1607020814.7302,64.0
1607020814.7323,66.0
1607020814.7342,68.0
1607020814.7362,71.0
1607020814.7382,71.0
1607020814.7403,73.0
1607020814.7422,76.0
1607020814.7442,73.0
1607020814.7462,73.0
1607020814.7483,80.0
1607020814.7502,85.0
1607020814.7509,85.0
1607020814.7532,87.0
1607020814.7552,90.0
1607020814.7572,87.0
1607020814.7592,85.0
1607020814.7612,90.0
1607020814.7632,92.0
1607020814.7652,90.0
1607020814.7672,90.0
1607020814.7692,87.0
1607020814.7712,83.0
1607020814.7732,85.0
1607020814.7752,87.0
1607020814.7772,83.0
1607020814.7792,73.0
1607020814.7812,71.0
1607020814.7819,73.0
1607020814.7842,83.0
1607020814.7862,102.0
1607020814.7882,135.0
1607020814.7902,161.0
1607020814.7923,161.0
1607020814.7942,152.0
1607020814.7962,140.0
1607020814.7982,118.0
1607020814.8002,106.0
1607020814.8022,106.0
1607020815.202,106.0
1607020815.203,106.0
1607020815.2055,109.0
1607020815.2066,109.0
1607020815.2081,114.0
1607020815.2104,123.0
1607020815.2121,114.0
1607020815.2142,59.0
1607020815.2161,-28.0
1607020815.2181,-2.0
1607020815.22,320.0
1607020815.222,990.0
1607020815.224,1623.0
1607020815.226,1252.0
1607020815.228,-68.0
1607020815.23,-613.0
1607020815.232,-47.0
1607020815.234,204.0
1607020815.2359,4.0
1607020815.2367,45.0
1607020815.239,156.0
1607020815.241,111.0
1607020815.243,104.0
1607020815.2449,156.0
1607020815.247,163.0
1607020815.249,168.0
1607020815.251,187.0
1607020815.253,199.0
1607020815.255,211.0
1607020815.257,232.0
1607020815.259,256.0
1607020815.261,270.0
1607020815.263,292.0
1607020815.265,320.0
1607020815.267,346.0
1607020815.2676,365.0
1607020815.27,387.0
1607020815.2719,415.0
1607020815.2739,446.0
1607020815.276,468.0
1607020815.278,475.0
1607020815.28,477.0
1607020815.282,472.0
1607020815.284,449.0
1607020815.286,403.0
1607020815.288,339.0
1607020815.2899,254.0
1607020815.2921,149.0
1607020815.294,59.0
1607020815.296,-2.0
1607020815.298,-47.0
1607020815.2988,-73.0
1607020815.301,-85.0
1607020815.303,-87.0
1607020815.305,-78.0
1607020815.307,-61.0
1607020815.3091,-52.0
1607020815.3111,-52.0
1607020815.313,-42.0
1607020815.315,-23.0
1607020815.317,-16.0
1607020815.3189,-16.0
1607020815.321,-9.0
1607020815.3229,4.0
1607020815.325,11.0
1607020815.327,11.0
1607020815.329,23.0
1607020815.3297,35.0
1607020815.332,35.0
1607020815.3339,35.0
1607020815.336,45.0
1607020815.338,45.0
1607020815.3399,40.0
1607020815.7723,52.0
1607020815.7733,64.0
1607020815.7757,64.0
1607020815.7784,59.0
1607020815.7804,54.0
1607020815.7824,47.0
1607020815.7844,42.0
1607020815.7863,54.0
1607020815.7882,59.0
1607020815.7892,54.0
1607020815.7912,54.0
1607020815.7932,54.0
1607020815.7952,52.0
1607020815.7973,57.0
1607020815.7992,59.0
1607020815.8012,61.0
1607020815.8032,66.0
1607020815.8052,68.0
1607020815.8072,64.0
1607020815.8092,57.0
1607020815.8114,54.0
1607020815.8132,83.0
1607020815.8152,125.0
1607020815.8173,140.0
1607020815.818,147.0
1607020815.8203,152.0
1607020815.8222,128.0
1607020815.8242,102.0
1607020815.8262,95.0
1607020815.8283,87.0
1607020815.8302,85.0
1607020815.8322,99.0
1607020815.8342,104.0
1607020815.8362,106.0
1607020815.8384,109.0
1607020815.8403,97.0
1607020815.8423,97.0
1607020815.8442,92.0
1607020815.8462,14.0
1607020815.8483,-33.0
1607020815.849,175.0
1607020815.8512,736.0
1607020815.8532,1456.0
1607020815.8553,1594.0
1607020815.8573,449.0
1607020815.8592,-807.0
1607020815.8614,-596.0
1607020815.8632,104.0
1607020815.8652,118.0
1607020815.8673,33.0
1607020815.8692,149.0
1607020815.8712,159.0
1607020815.8732,125.0
1607020815.8752,166.0
1607020815.8772,187.0
1607020815.8792,187.0
1607020815.8799,204.0
1607020815.8822,216.0
1607020815.8842,240.0
1607020815.8863,273.0
1607020815.8882,273.0
1607020815.8902,278.0
1607020815.8922,318.0
1607020815.8942,349.0
1607020815.8962,368.0
1607020815.8983,399.0
1607020815.9002,432.0
1607020815.9022,465.0
1607020815.9042,496.0
1607020815.9062,522.0
1607020815.9082,541.0
1607020815.9102,553.0
1607020815.9109,556.0
1607020816.3418,527.0
1607020816.3426,472.0
1607020816.3514,411.0
1607020816.3518,301.0
1607020816.3544,161.0
1607020816.3567,49.0
1607020816.3586,-30.0
1607020816.3606,-85.0
1607020816.3625,-109.0
1607020816.3645,-125.0
1607020816.3666,-152.0
1607020816.3685,-159.0
1607020816.3707,-130.0
1607020816.3726,-106.0
1607020816.3745,-97.0
1607020816.3765,-85.0
1607020816.3786,-83.0
1607020816.3805,-71.0
1607020816.3825,-52.0
1607020816.3845,-45.0
1607020816.3866,-35.0
1607020816.3885,-26.0
1607020816.3906,-21.0
1607020816.3925,-21.0
1607020816.3945,-11.0
1607020816.3966,9.0
1607020816.3987,4.0
1607020816.4005,-16.0
1607020816.4026,-4.0
1607020816.4045,19.0
1607020816.4065,11.0
1607020816.4085,4.0
1607020816.4105,9.0
1607020816.4125,7.0
1607020816.4146,7.0
1607020816.4165,9.0
1607020816.4185,7.0
1607020816.4205,2.0
1607020816.4225,7.0
1607020816.4245,11.0
1607020816.4266,7.0
1607020816.4286,30.0
1607020816.4305,78.0
1607020816.4325,104.0
1607020816.4345,106.0
1607020816.4365,87.0
1607020816.4386,54.0
1607020816.4405,28.0
1607020816.4425,28.0
1607020816.4445,33.0
1607020816.4465,28.0
1607020816.4485,26.0
1607020816.4505,30.0
1607020816.4525,38.0
1607020816.4545,33.0
1607020816.4566,26.0
1607020816.4585,35.0
1607020816.4605,26.0
1607020816.4626,-64.0
1607020816.4645,-144.0
1607020816.4665,52.0
1607020816.4685,698.0
1607020816.4705,1539.0
1607020816.4727,1691.0
1607020816.4746,418.0
1607020816.4765,-929.0
1607020816.4785,-672.0
1607020816.4806,47.0
1607020816.4825,40.0
1607020816.4845,-26.0
1607020816.4866,97.0
1607020816.4885,99.0
1607020816.4905,73.0
1607020816.9423,121.0
1607020816.9432,144.0
1607020816.9444,149.0
1607020816.9464,163.0
1607020816.9484,163.0
1607020816.9504,173.0
1607020816.9524,213.0
1607020816.9544,237.0
1607020816.9564,254.0
1607020816.9583,275.0
1607020816.9604,289.0
1607020816.9623,325.0
1607020816.9643,377.0
1607020816.9663,415.0
1607020816.9683,453.0
1607020816.9703,501.0
1607020816.9723,525.0
1607020816.9743,546.0
1607020816.9763,572.0
1607020816.9784,560.0
1607020816.9803,527.0
1607020816.9823,465.0
1607020816.9843,349.0
1607020816.9863,213.0
1607020816.9883,90.0
1607020816.9903,-28.0
1607020816.9923,-111.0
1607020816.9943,-156.0
1607020816.9963,-199.0
1607020816.9983,-216.0
1607020817.0003,-187.0
1607020817.0023,-166.0
1607020817.0043,-173.0
1607020817.0063,-161.0
1607020817.0083,-123.0
1607020817.0103,-114.0
1607020817.0123,-125.0
1607020817.0143,-102.0
1607020817.0163,-71.0
1607020817.0183,-66.0
1607020817.0203,-59.0
1607020817.0225,-38.0
1607020817.0243,-23.0
1607020817.0263,-16.0
1607020817.0283,-7.0
1607020817.0303,-2.0
1607020817.0323,-2.0
1607020817.0343,9.0
1607020817.0363,16.0
1607020817.0383,4.0
1607020817.0403,2.0
1607020817.0423,7.0
1607020817.0443,16.0
1607020817.0463,33.0
1607020817.0483,47.0
1607020817.0503,66.0
1607020817.0523,83.0
1607020817.0543,73.0
1607020817.0563,57.0
1607020817.0583,42.0
1607020817.0603,30.0
1607020817.0623,21.0
1607020817.0644,28.0
1607020817.0663,42.0
1607020817.0683,38.0
1607020817.0703,28.0
1607020817.0723,33.0
1607020817.0743,40.0
1607020817.0763,42.0
1607020817.0783,21.0
1607020817.0803,-54.0
1607020817.0823,-109.0
1607020817.0843,83.0
1607020817.4816,696.0
1607020817.4825,1551.0
1607020817.485,1786.0
1607020817.4876,556.0
1607020817.4895,-864.0
1607020817.4916,-674.0
1607020817.4937,49.0
1607020817.4956,23.0
1607020817.4976,-66.0
1607020817.4995,73.0
1607020817.5015,76.0
1607020817.5036,42.0
1607020817.5055,95.0
1607020817.5075,109.0
1607020817.5095,90.0
1607020817.5115,106.0
1607020817.5135,133.0
1607020817.5155,147.0
1607020817.5175,168.0
1607020817.5197,192.0
1607020817.5215,209.0
1607020817.5235,230.0
1607020817.5255,261.0
1607020817.5276,292.0
1607020817.5295,332.0
1607020817.5315,373.0
1607020817.5335,408.0
1607020817.5355,441.0
1607020817.5375,477.0
1607020817.5395,501.0
1607020817.5415,499.0
1607020817.5435,480.0
1607020817.5455,449.0
1607020817.5476,380.0
1607020817.5495,268.0
1607020817.5515,144.0
1607020817.5536,16.0
1607020817.5555,-92.0
1607020817.5575,-152.0
1607020817.5595,-178.0
1607020817.5615,-201.0
1607020817.5635,-206.0
1607020817.5655,-194.0
1607020817.5675,-187.0
1607020817.5695,-175.0
1607020817.5715,-161.0
1607020817.5735,-144.0
1607020817.5755,-135.0
1607020817.5775,-130.0
1607020817.5795,-118.0
1607020817.5815,-99.0
1607020817.5835,-90.0
1607020817.5855,-85.0
1607020817.5875,-73.0
1607020817.5895,-57.0
1607020817.5915,-47.0
1607020817.5935,-45.0
1607020817.5955,-40.0
1607020817.5975,-35.0
1607020817.5995,-30.0
1607020817.6015,-33.0
1607020817.6035,-38.0
1607020817.6055,-38.0
1607020817.6075,-38.0
1607020817.6095,-30.0
1607020817.6116,-16.0
1607020817.6135,7.0
1607020817.6155,33.0
1607020817.6175,47.0
1607020817.6195,47.0
1607020817.6217,38.0
1607020817.6235,14.0
1607020817.6255,-4.0
1607020818.022,2.0
1607020818.0228,11.0
1607020818.0252,9.0
1607020818.0278,7.0
1607020818.0298,14.0
1607020818.0319,16.0
1607020818.0339,14.0
1607020818.0358,16.0
1607020818.0378,-4.0
1607020818.0399,-95.0
1607020818.0418,-180.0
1607020818.0438,-30.0
1607020818.0458,572.0
1607020818.0478,1537.0
1607020818.0499,1998.0
1607020818.0518,869.0
1607020818.0538,-684.0
1607020818.0558,-627.0
1607020818.0578,54.0
1607020818.0598,-40.0
1607020818.0617,-178.0
1607020818.0638,-14.0
1607020818.0658,-2.0
1607020818.0678,-54.0
1607020818.0698,4.0
1607020818.0718,38.0
1607020818.0739,30.0
1607020818.0758,54.0
1607020818.0778,80.0
1607020818.0798,87.0
1607020818.0818,106.0
1607020818.0837,137.0
1607020818.0858,161.0
1607020818.0878,180.0
1607020818.0898,204.0
1607020818.0918,237.0
1607020818.0938,273.0
1607020818.0958,299.0
1607020818.0978,335.0
1607020818.0998,373.0
1607020818.1018,396.0
1607020818.1037,406.0
1607020818.1058,413.0
1607020818.1077,406.0
1607020818.1098,370.0
1607020818.1117,301.0
1607020818.1138,211.0
1607020818.1157,102.0
1607020818.118,-7.0
1607020818.1198,-95.0
1607020818.1217,-149.0
1607020818.1238,-178.0
1607020818.1258,-192.0
1607020818.1278,-197.0
1607020818.1298,-194.0
1607020818.1318,-187.0
1607020818.1338,-173.0
1607020818.1358,-159.0
1607020818.1378,-149.0
1607020818.1398,-137.0
1607020818.1418,-133.0
1607020818.1438,-125.0
1607020818.1458,-111.0
1607020818.1478,-104.0
1607020818.1498,-99.0
1607020818.1517,-90.0
1607020818.1538,-80.0
1607020818.1558,-73.0
1607020818.1578,-68.0
1607020818.1598,-68.0
1607020818.1618,-66.0
1607020818.1638,-61.0
1607020818.1658,-59.0
1607020818.562,-59.0
1607020818.563,-54.0
1607020818.5655,-49.0
1607020818.5681,-47.0
1607020818.57,-47.0
1607020818.5721,-47.0
1607020818.5742,-54.0
1607020818.5761,-66.0
1607020818.5781,-71.0
1607020818.58,-71.0
1607020818.5821,-59.0
1607020818.584,-35.0
1607020818.586,-4.0
1607020818.588,16.0
1607020818.59,23.0
1607020818.592,33.0
1607020818.594,21.0
1607020818.596,-9.0
1607020818.598,-19.0
1607020818.6,-9.0
1607020818.602,-4.0
1607020818.6039,0.0
1607020818.6059,0.0
1607020818.608,-4.0
1607020818.61,0.0
1607020818.612,9.0
1607020818.6141,0.0
1607020818.616,-68.0
1607020818.618,-171.0
1607020818.62,-144.0
1607020818.622,230.0
1607020818.624,1093.0
1607020818.626,1965.0
1607020818.628,1523.0
1607020818.6299,-102.0
1607020818.6319,-708.0
1607020818.634,-73.0
1607020818.636,76.0
1607020818.6379,-185.0
1607020818.6399,-87.0
1607020818.642,23.0
1607020818.644,-47.0
1607020818.6459,-28.0
1607020818.648,35.0
1607020818.65,30.0
1607020818.6519,40.0
1607020818.6539,73.0
1607020818.6559,85.0
1607020818.658,97.0
1607020818.66,123.0
1607020818.6619,142.0
1607020818.6639,161.0
1607020818.6659,190.0
1607020818.668,216.0
1607020818.67,242.0
1607020818.6719,273.0
1607020818.674,308.0
1607020818.6761,339.0
1607020818.678,363.0
1607020818.6799,380.0
1607020818.6821,396.0
1607020818.684,396.0
1607020818.6859,375.0
1607020818.688,337.0
1607020818.6899,268.0
1607020818.6919,166.0
1607020818.6941,59.0
1607020818.696,-33.0
1607020818.698,-102.0
1607020818.6999,-149.0
1607020818.702,-173.0
1607020818.7039,-182.0
1607020818.706,-185.0
1607020819.1322,-182.0
1607020819.1331,-171.0
1607020819.1352,-159.0
1607020819.1369,-147.0
1607020819.1392,-137.0
1607020819.141,-130.0
1607020819.1429,-121.0
1607020819.1449,-109.0
1607020819.147,-102.0
1607020819.1489,-95.0
1607020819.1509,-83.0
1607020819.1529,-73.0
1607020819.1549,-68.0
1607020819.1569,-66.0
1607020819.1588,-59.0
1607020819.1608,-54.0
1607020819.1628,-49.0
1607020819.1648,-47.0
1607020819.1669,-42.0
1607020819.1688,-35.0
1607020819.1708,-33.0
1607020819.1728,-35.0
1607020819.1748,-33.0
1607020819.1769,-28.0
1607020819.1788,-28.0
1607020819.1808,-28.0
1607020819.1828,-26.0
1607020819.1849,-21.0
1607020819.187,-19.0
1607020819.1888,-16.0
1607020819.1909,-14.0
1607020819.1928,-7.0
1607020819.1948,-4.0
1607020819.1969,-2.0
1607020819.1988,0.0
1607020819.2008,2.0
1607020819.2028,2.0
1607020819.2048,7.0
1607020819.2069,11.0
1607020819.2088,14.0
1607020819.2108,14.0
1607020819.2128,14.0
1607020819.2148,19.0
1607020819.2169,23.0
1607020819.2188,26.0
1607020819.2208,28.0
1607020819.2228,28.0
1607020819.2249,26.0
1607020819.2268,26.0
1607020819.2288,33.0
1607020819.2309,38.0
1607020819.2328,35.0
1607020819.2348,30.0
1607020819.2369,33.0
1607020819.2388,38.0
1607020819.241,40.0
1607020819.2428,38.0
1607020819.2449,40.0
1607020819.2469,45.0
1607020819.2488,42.0
1607020819.2508,42.0
1607020819.2528,49.0
1607020819.2548,52.0
1607020819.2568,49.0
1607020819.2588,47.0
1607020819.2608,45.0
1607020819.2628,42.0
1607020819.2648,47.0
1607020819.2669,49.0
1607020819.2688,49.0
1607020819.2708,52.0
1607020819.2728,52.0
1607020819.2748,54.0
1607020819.6717,57.0
1607020819.6729,59.0
1607020819.6753,59.0
1607020819.678,59.0
1607020819.6799,59.0
1607020819.6819,57.0
1607020819.6839,52.0
1607020819.6859,49.0
1607020819.6878,52.0
1607020819.6898,57.0
1607020819.6918,54.0
1607020819.6938,54.0
1607020819.6959,54.0
1607020819.6979,54.0
1607020819.6998,57.0
1607020819.7018,59.0
1607020819.7038,59.0
1607020819.7058,59.0
1607020819.7078,59.0
1607020819.7098,61.0
1607020819.7118,64.0
1607020819.7138,61.0
1607020819.7158,59.0
1607020819.7178,61.0
1607020819.7198,61.0
1607020819.7218,57.0
1607020819.7238,68.0
1607020819.7258,97.0
1607020819.7278,118.0
1607020819.7298,114.0
1607020819.7318,111.0
1607020819.7338,109.0
1607020819.7358,92.0
1607020819.738,68.0
1607020819.7398,59.0
1607020819.7418,64.0
1607020819.7438,66.0
1607020819.7458,64.0
1607020819.7478,68.0
1607020819.7498,73.0
1607020819.7518,68.0
1607020819.7538,45.0
1607020819.7558,-30.0
1607020819.7578,-102.0
1607020819.7598,-21.0
1607020819.7618,422.0
1607020819.7638,1314.0
1607020819.7658,1903.0
1607020819.7678,1050.0
1607020819.7698,-337.0
1607020819.7718,-392.0
1607020819.7738,166.0
1607020819.7758,28.0
1607020819.7778,-154.0
1607020819.7798,11.0
1607020819.7818,42.0
1607020819.7838,-26.0
1607020819.7858,23.0
1607020819.7878,61.0
1607020819.7898,47.0
1607020819.7918,68.0
1607020819.7938,97.0
1607020819.7958,104.0
1607020819.7978,118.0
1607020819.7998,140.0
1607020819.8018,156.0
1607020819.8038,175.0
1607020819.8058,199.0
1607020819.8078,223.0
1607020819.8098,244.0
1607020819.8118,270.0
1607020819.8138,297.0
1607020819.8158,323.0
1607020820.2721,349.0
1607020820.2731,370.0
1607020820.2755,384.0
1607020820.2781,384.0
1607020820.2801,380.0
1607020820.2821,368.0
1607020820.2842,335.0
1607020820.2861,278.0
1607020820.2881,197.0
1607020820.2901,102.0
1607020820.2921,14.0
1607020820.2943,-57.0
1607020820.2962,-106.0
1607020820.298,-135.0
1607020820.3001,-149.0
1607020820.302,-156.0
1607020820.304,-152.0
1607020820.306,-144.0
1607020820.308,-133.0
1607020820.31,-123.0
1607020820.312,-111.0
1607020820.314,-102.0
1607020820.316,-92.0
1607020820.3181,-83.0
1607020820.32,-76.0
1607020820.3221,-66.0
1607020820.3241,-61.0
1607020820.326,-57.0
1607020820.3281,-49.0
1607020820.33,-45.0
1607020820.332,-45.0
1607020820.334,-45.0
1607020820.336,-38.0
1607020820.338,-35.0
1607020820.34,-35.0
1607020820.342,-33.0
1607020820.344,-28.0
1607020820.346,-23.0
1607020820.3481,-26.0
1607020820.35,-26.0
1607020820.352,-19.0
1607020820.354,-16.0
1607020820.356,-16.0
1607020820.358,-14.0
1607020820.36,-9.0
1607020820.362,-9.0
1607020820.364,-7.0
1607020820.366,-2.0
1607020820.368,0.0
1607020820.37,2.0
1607020820.372,0.0
1607020820.374,0.0
1607020820.376,4.0
1607020820.3781,7.0
1607020820.3801,4.0
1607020820.382,9.0
1607020820.3841,14.0
1607020820.386,14.0
1607020820.388,16.0
1607020820.39,19.0
1607020820.392,21.0
1607020820.394,23.0
1607020820.3962,23.0
1607020820.3981,23.0
1607020820.4,28.0
1607020820.402,28.0
1607020820.404,28.0
1607020820.406,30.0
1607020820.408,33.0
1607020820.41,33.0
1607020820.412,33.0
1607020820.414,35.0
1607020820.4161,38.0
1607020820.8416,38.0
1607020820.8426,35.0
1607020820.8451,38.0
1607020820.8477,38.0
1607020820.8497,33.0
1607020820.8517,35.0
1607020820.8538,40.0
1607020820.8557,38.0
1607020820.8576,28.0
1607020820.8596,23.0
1607020820.8616,28.0
1607020820.8636,33.0
1607020820.8656,33.0
1607020820.8676,33.0
1607020820.8695,35.0
1607020820.8715,38.0
1607020820.8735,40.0
1607020820.8755,40.0
1607020820.8776,40.0
1607020820.8795,40.0
1607020820.8815,40.0
1607020820.8836,40.0
1607020820.8856,40.0
1607020820.8875,45.0
1607020820.8895,59.0
1607020820.8916,85.0
1607020820.8935,99.0
1607020820.8955,95.0
1607020820.8976,90.0
1607020820.8996,83.0
1607020820.9016,66.0
1607020820.9036,49.0
1607020820.9055,40.0
1607020820.9075,42.0
1607020820.9096,49.0
1607020820.9115,47.0
1607020820.9136,47.0
1607020820.9155,54.0
1607020820.9176,54.0
1607020820.9195,47.0
1607020820.9217,4.0
1607020820.9236,-83.0
1607020820.9256,-104.0
1607020820.9276,121.0
1607020820.9295,767.0
1607020820.9316,1627.0
1607020820.9335,1615.0
1607020820.9356,285.0
1607020820.9376,-636.0
1607020820.9396,-192.0
1607020820.9416,163.0
1607020820.9436,-80.0
1607020820.9455,-95.0
1607020820.9476,54.0
1607020820.9496,16.0
1607020820.9516,-4.0
1607020820.9535,57.0
1607020820.9555,66.0
1607020820.9575,61.0
1607020820.9582,90.0
1607020820.9595,109.0
1607020820.9616,114.0
1607020820.9636,133.0
1607020820.9655,152.0
1607020820.9676,168.0
1607020820.9696,187.0
1607020820.9715,213.0
1607020820.9736,237.0
1607020820.9757,259.0
1607020820.9776,285.0
1607020820.9796,313.0
1607020820.9815,339.0
1607020820.9836,361.0
1607020821.4115,377.0
1607020821.4125,387.0
1607020821.4149,387.0
1607020821.4176,375.0
1607020821.4195,342.0
1607020821.4216,289.0
1607020821.4238,211.0
1607020821.4256,121.0
1607020821.4275,28.0
1607020821.4294,-52.0
1607020821.4314,-114.0
1607020821.4334,-142.0
1607020821.4354,-159.0
1607020821.4374,-175.0
1607020821.4394,-175.0
1607020821.4401,-163.0
1607020821.4424,-156.0
1607020821.4444,-152.0
1607020821.4467,-142.0
1607020821.4485,-130.0
1607020821.4504,-121.0
1607020821.4524,-109.0
1607020821.4544,-95.0
1607020821.4564,-90.0
1607020821.4584,-83.0
1607020821.4604,-78.0
1607020821.4624,-73.0
1607020821.4644,-68.0
1607020821.4665,-61.0
1607020821.4684,-57.0
1607020821.4705,-52.0
1607020821.4711,-49.0
1607020821.4734,-47.0
1607020821.4754,-40.0
1607020821.4775,-40.0
1607020821.4794,-42.0
1607020821.4814,-38.0
1607020821.4834,-28.0
1607020821.4854,-23.0
1607020821.4874,-23.0
1607020821.4894,-21.0
1607020821.4914,-19.0
1607020821.4934,-16.0
1607020821.4954,-14.0
1607020821.4974,-9.0
1607020821.4994,0.0
1607020821.5014,4.0
1607020821.5021,2.0
1607020821.5044,-2.0
1607020821.5064,2.0
1607020821.5085,7.0
1607020821.5104,7.0
1607020821.5125,7.0
1607020821.5144,16.0
1607020821.5164,19.0
1607020821.5184,16.0
1607020821.5204,21.0
1607020821.5224,28.0
1607020821.5244,28.0
1607020821.5264,30.0
1607020821.5285,33.0
1607020821.5304,30.0
1607020821.5324,30.0
1607020821.5331,33.0
1607020821.5354,38.0
1607020821.5374,40.0
1607020821.5394,40.0
1607020821.5414,42.0
1607020821.5435,47.0
1607020821.5456,47.0
1607020821.5475,45.0
1607020821.5494,47.0
1607020821.5514,47.0
1607020821.9515,45.0
1607020821.9524,45.0
1607020821.9541,49.0
1607020821.9565,49.0
1607020821.9585,47.0
1607020821.9605,52.0
1607020821.9625,52.0
1607020821.9645,45.0
1607020821.9665,47.0
1607020821.9685,61.0
1607020821.9704,85.0
1607020821.9724,97.0
1607020821.9744,95.0
1607020821.9764,97.0
1607020821.9783,80.0
1607020821.9803,52.0
1607020821.9823,40.0
1607020821.9843,42.0
1607020821.985,38.0
1607020821.9864,40.0
1607020821.9884,49.0
1607020821.9903,49.0
1607020821.9923,47.0
1607020821.9945,57.0
1607020821.9964,57.0
1607020821.9984,21.0
1607020822.0005,-61.0
1607020822.0024,-97.0
1607020822.0043,106.0
1607020822.0063,667.0
1607020822.0083,1437.0
1607020822.0103,1594.0
1607020822.0123,408.0
1607020822.0143,-793.0
1607020822.015,-501.0
1607020822.0174,123.0
1607020822.0193,23.0
1607020822.0213,-73.0
1607020822.0234,66.0
1607020822.0253,66.0
1607020822.0274,23.0
1607020822.0293,76.0
1607020822.0313,97.0
1607020822.0333,90.0
1607020822.0353,116.0
1607020822.0373,142.0
1607020822.0394,152.0
1607020822.0417,166.0
1607020822.0434,185.0
1607020822.044,199.0
1607020822.0464,223.0
1607020822.0483,251.0
1607020822.0503,275.0
1607020822.0523,297.0
1607020822.0543,325.0
1607020822.0563,351.0
1607020822.0583,375.0
1607020822.0604,406.0
1607020822.0625,427.0
1607020822.0643,432.0
1607020822.0663,427.0
1607020822.0684,413.0
1607020822.0705,384.0
1607020822.0723,335.0
1607020822.0743,256.0
1607020822.075,152.0
1607020822.0774,47.0
1607020822.0793,-42.0
1607020822.0813,-106.0
1607020822.0833,-149.0
1607020822.0853,-173.0
1607020822.0873,-182.0
1607020822.0893,-187.0
1607020822.492,-182.0
1607020822.493,-168.0
1607020822.4954,-156.0
1607020822.4981,-144.0
1607020822.5,-128.0
1607020822.502,-116.0
1607020822.504,-109.0
1607020822.5047,-104.0
1607020822.507,-104.0
1607020822.5089,-97.0
1607020822.5109,-87.0
1607020822.5129,-83.0
1607020822.515,-78.0
1607020822.517,-68.0
1607020822.5189,-64.0
1607020822.521,-61.0
1607020822.523,-54.0
1607020822.525,-49.0
1607020822.527,-49.0
1607020822.529,-47.0
1607020822.5309,-47.0
1607020822.5329,-45.0
1607020822.5349,-45.0
1607020822.5356,-47.0
1607020822.5379,-47.0
1607020822.5402,-40.0
1607020822.542,-38.0
1607020822.5439,-38.0
1607020822.5459,-35.0
1607020822.5479,-28.0
1607020822.5499,-28.0
1607020822.5519,-30.0
1607020822.5539,-26.0
1607020822.556,-19.0
1607020822.558,-16.0
1607020822.5599,-19.0
1607020822.562,-16.0
1607020822.564,-11.0
1607020822.5659,-11.0
1607020822.568,-7.0
1607020822.5699,-4.0
1607020822.5719,-2.0
1607020822.5739,-2.0
1607020822.5759,-2.0
1607020822.5779,-4.0
1607020822.5799,-4.0
1607020822.582,-4.0
1607020822.5839,-4.0
1607020822.5859,0.0
1607020822.5879,-7.0
1607020822.59,-14.0
1607020822.592,0.0
1607020822.5939,28.0
1607020822.5959,54.0
1607020822.598,66.0
1607020822.5999,68.0
1607020822.6019,61.0
1607020822.6039,35.0
1607020822.6059,11.0
1607020822.6079,4.0
1607020822.6099,4.0
1607020822.6119,7.0
1607020822.6139,9.0
1607020822.6159,9.0
1607020822.618,11.0
1607020822.6199,16.0
1607020822.6219,16.0
1607020822.6239,2.0
1607020822.6259,-52.0
1607020822.628,-121.0
1607020822.6299,-42.0
1607020822.6319,363.0
1607020822.6339,1102.0
1607020823.0619,1651.0
1607020823.0629,998.0
1607020823.0653,-415.0
1607020823.0683,-715.0
1607020823.07,-57.0
1607020823.072,73.0
1607020823.0741,-121.0
1607020823.0759,-30.0
1607020823.078,49.0
1607020823.0799,-7.0
1607020823.082,9.0
1607020823.084,59.0
1607020823.086,57.0
1607020823.0879,61.0
1607020823.0899,85.0
1607020823.0919,99.0
1607020823.0939,109.0
1607020823.0959,130.0
1607020823.0979,152.0
1607020823.0999,171.0
1607020823.1019,194.0
1607020823.1039,218.0
1607020823.1059,240.0
1607020823.108,268.0
1607020823.1099,297.0
1607020823.1119,327.0
1607020823.1139,354.0
1607020823.1159,375.0
1607020823.1179,389.0
1607020823.1199,392.0
1607020823.1219,387.0
1607020823.1239,363.0
1607020823.1259,313.0
1607020823.1279,240.0
1607020823.1299,147.0
1607020823.1319,45.0
1607020823.1339,-45.0
1607020823.1359,-109.0
1607020823.1379,-149.0
1607020823.1399,-173.0
1607020823.1419,-185.0
1607020823.1439,-185.0
1607020823.1459,-178.0
1607020823.1479,-168.0
1607020823.1499,-161.0
1607020823.1519,-149.0
1607020823.1539,-135.0
1607020823.1559,-125.0
1607020823.1579,-116.0
1607020823.1599,-106.0
1607020823.1619,-97.0
1607020823.1639,-90.0
1607020823.1659,-87.0
1607020823.1679,-80.0
1607020823.1701,-76.0
1607020823.1719,-71.0
1607020823.1739,-66.0
1607020823.1759,-61.0
1607020823.1779,-57.0
1607020823.1799,-52.0
1607020823.1819,-49.0
1607020823.1839,-45.0
1607020823.1859,-40.0
1607020823.1879,-40.0
1607020823.1899,-40.0
1607020823.1919,-35.0
1607020823.1939,-30.0
1607020823.1959,-28.0
1607020823.1979,-28.0
1607020823.1999,-23.0
1607020823.2019,-21.0
1607020823.2039,-19.0
1607020823.2059,-19.0
1607020823.6619,-14.0
1607020823.6628,-9.0
1607020823.6652,-9.0
1607020823.668,-9.0
1607020823.6699,-7.0
1607020823.6719,-9.0
1607020823.674,-16.0
1607020823.6759,-23.0
1607020823.6779,-21.0
1607020823.6798,-23.0
1607020823.6818,-23.0
1607020823.6838,-19.0
1607020823.6859,-7.0
1607020823.6878,19.0
1607020823.6898,49.0
1607020823.6918,66.0
1607020823.6938,64.0
1607020823.6958,49.0
1607020823.6979,30.0
1607020823.6998,14.0
1607020823.7018,7.0
1607020823.7039,7.0
1607020823.7059,7.0
1607020823.7078,11.0
1607020823.7098,16.0
1607020823.7118,19.0
1607020823.7138,19.0
1607020823.7158,16.0
1607020823.7178,-11.0
1607020823.7198,-85.0
1607020823.7218,-114.0
1607020823.7238,90.0
1607020823.726,646.0
1607020823.7278,1392.0
1607020823.7298,1485.0
1607020823.7318,323.0
1607020823.7338,-720.0
1607020823.7358,-394.0
1607020823.7378,125.0
1607020823.7397,-16.0
1607020823.7418,-95.0
1607020823.7438,42.0
1607020823.7458,38.0
1607020823.7478,0.0
1607020823.7498,52.0
1607020823.7517,71.0
1607020823.7538,61.0
1607020823.7557,83.0
1607020823.7578,109.0
1607020823.7598,114.0
1607020823.7617,128.0
1607020823.7637,149.0
1607020823.7657,168.0
1607020823.7678,187.0
1607020823.7697,211.0
1607020823.7717,235.0
1607020823.7737,261.0
1607020823.7758,285.0
1607020823.7778,308.0
1607020823.7797,337.0
1607020823.7818,361.0
1607020823.7837,375.0
1607020823.7857,382.0
1607020823.7878,382.0
1607020823.7897,365.0
1607020823.7917,332.0
1607020823.7938,273.0
1607020823.7958,190.0
1607020823.7978,87.0
1607020823.7997,-9.0
1607020823.8018,-85.0
1607020823.8039,-140.0
1607020823.8058,-175.0
1607020824.202,-190.0
1607020824.203,-192.0
1607020824.2054,-190.0
1607020824.2081,-182.0
1607020824.2101,-171.0
1607020824.212,-159.0
1607020824.2142,-147.0
1607020824.216,-135.0
1607020824.218,-125.0
1607020824.22,-114.0
1607020824.2222,-104.0
1607020824.2241,-106.0
1607020824.226,-104.0
1607020824.228,-92.0
1607020824.23,-85.0
1607020824.232,-83.0
1607020824.234,-73.0
1607020824.236,-64.0
1607020824.238,-59.0
1607020824.24,-57.0
1607020824.242,-54.0
1607020824.2441,-47.0
1607020824.246,-45.0
1607020824.248,-42.0
1607020824.25,-38.0
1607020824.252,-33.0
1607020824.254,-33.0
1607020824.256,-30.0
1607020824.258,-26.0
1607020824.26,-23.0
1607020824.262,-26.0
1607020824.264,-28.0
1607020824.266,-28.0
1607020824.268,-26.0
1607020824.27,-19.0
1607020824.2719,2.0
1607020824.274,38.0
1607020824.276,61.0
1607020824.278,64.0
1607020824.28,52.0
1607020824.282,30.0
1607020824.284,11.0
1607020824.286,2.0
1607020824.288,2.0
1607020824.2901,2.0
1607020824.292,4.0
1607020824.294,7.0
1607020824.296,9.0
1607020824.298,14.0
1607020824.3,19.0
1607020824.3019,4.0
1607020824.3039,-52.0
1607020824.306,-116.0
1607020824.308,-30.0
1607020824.31,373.0
1607020824.312,1071.0
1607020824.314,1539.0
1607020824.3159,860.0
1607020824.318,-461.0
1607020824.32,-679.0
1607020824.322,-30.0
1607020824.3242,97.0
1607020824.3261,-87.0
1607020824.328,-11.0
1607020824.3299,59.0
1607020824.3319,9.0
1607020824.334,28.0
1607020824.336,68.0
1607020824.338,64.0
1607020824.34,71.0
1607020824.342,95.0
1607020824.344,109.0
1607020824.346,121.0
1607020824.7413,140.0
1607020824.7422,156.0
1607020824.7436,175.0
1607020824.7455,199.0
1607020824.7475,220.0
1607020824.7494,244.0
1607020824.7515,273.0
1607020824.7534,299.0
1607020824.7555,323.0
1607020824.7575,342.0
1607020824.7594,358.0
1607020824.7615,370.0
1607020824.7634,370.0
1607020824.7655,356.0
1607020824.7676,330.0
1607020824.7695,282.0
1607020824.7715,204.0
1607020824.7735,106.0
1607020824.7754,9.0
1607020824.7774,-68.0
1607020824.7794,-123.0
1607020824.7814,-156.0
1607020824.7834,-171.0
1607020824.7854,-175.0
1607020824.7875,-175.0
1607020824.7894,-168.0
1607020824.7914,-156.0
1607020824.7934,-147.0
1607020824.7954,-137.0
1607020824.7974,-125.0
1607020824.7994,-114.0
1607020824.8014,-104.0
1607020824.8034,-97.0
1607020824.8054,-87.0
1607020824.8074,-80.0
1607020824.8094,-76.0
1607020824.8114,-73.0
1607020824.8134,-66.0
1607020824.8154,-59.0
1607020824.8176,-54.0
1607020824.8195,-49.0
1607020824.8214,-47.0
1607020824.8234,-42.0
1607020824.8254,-38.0
1607020824.8275,-40.0
1607020824.8295,-38.0
1607020824.8315,-38.0
1607020824.8334,-40.0
1607020824.8355,-42.0
1607020824.8375,-42.0
1607020824.8394,-28.0
1607020824.8415,-4.0
1607020824.8435,23.0
1607020824.8455,45.0
1607020824.8475,52.0
1607020824.8495,40.0
1607020824.8515,11.0
1607020824.8534,-14.0
1607020824.8555,-14.0
1607020824.8575,-11.0
1607020824.8594,-14.0
1607020824.8615,-11.0
1607020824.8635,-7.0
1607020824.8655,-4.0
1607020824.8675,0.0
1607020824.8697,4.0
1607020824.8714,-16.0
1607020824.8734,-85.0
1607020824.8754,-114.0
1607020824.8774,83.0
1607020824.8794,598.0
1607020824.8814,1266.0
1607020824.8835,1366.0
1607020825.3119,311.0
1607020825.313,-743.0
1607020825.3153,-499.0
1607020825.3179,78.0
1607020825.32,19.0
1607020825.3219,-92.0
1607020825.324,19.0
1607020825.3259,33.0
1607020825.3279,-2.0
1607020825.3298,38.0
1607020825.3318,66.0
1607020825.3338,64.0
1607020825.3359,78.0
1607020825.3378,99.0
1607020825.3398,109.0
1607020825.3418,128.0
1607020825.3438,154.0
1607020825.346,171.0
1607020825.3478,178.0
1607020825.3498,197.0
1607020825.3518,228.0
1607020825.3538,254.0
1607020825.3558,278.0
1607020825.3578,304.0
1607020825.3598,330.0
1607020825.3618,354.0
1607020825.3638,368.0
1607020825.3658,375.0
1607020825.3678,368.0
1607020825.3698,344.0
1607020825.3718,308.0
1607020825.3738,254.0
1607020825.3758,166.0
1607020825.3778,64.0
1607020825.3798,-26.0
1607020825.3818,-90.0
1607020825.3839,-130.0
1607020825.3858,-154.0
1607020825.3878,-163.0
1607020825.3898,-163.0
1607020825.3918,-159.0
1607020825.3938,-149.0
1607020825.3958,-137.0
1607020825.3978,-118.0
1607020825.3998,-109.0
1607020825.4018,-106.0
1607020825.4038,-92.0
1607020825.406,-80.0
1607020825.4078,-78.0
1607020825.4098,-76.0
1607020825.4118,-68.0
1607020825.4138,-71.0
1607020825.4158,-66.0
1607020825.4178,-54.0
1607020825.4198,-52.0
1607020825.4218,-49.0
1607020825.4238,-35.0
1607020825.4258,-35.0
1607020825.4278,-45.0
1607020825.4298,-42.0
1607020825.4318,-40.0
1607020825.4338,-40.0
1607020825.4358,-40.0
1607020825.4378,-35.0
1607020825.4398,-26.0
1607020825.4418,-7.0
1607020825.4438,21.0
1607020825.4458,45.0
1607020825.448,49.0
1607020825.4498,40.0
1607020825.4518,16.0
1607020825.4538,-7.0
1607020825.4558,-9.0
1607020825.8513,7.0
1607020825.8523,11.0
1607020825.8547,4.0
1607020825.8574,2.0
1607020825.8593,11.0
1607020825.8613,16.0
1607020825.8633,11.0
1607020825.8653,-16.0
1607020825.8673,-76.0
1607020825.8694,-83.0
1607020825.8712,161.0
1607020825.8732,722.0
1607020825.8753,1344.0
1607020825.8773,1306.0
1607020825.8792,137.0
1607020825.8812,-900.0
1607020825.8833,-572.0
1607020825.8853,45.0
1607020825.8874,14.0
1607020825.8892,-64.0
1607020825.8912,47.0
1607020825.8932,47.0
1607020825.8952,9.0
1607020825.8972,59.0
1607020825.8992,87.0
1607020825.9012,76.0
1607020825.9033,95.0
1607020825.9053,116.0
1607020825.9073,125.0
1607020825.9093,144.0
1607020825.9112,166.0
1607020825.9132,180.0
1607020825.9152,201.0
1607020825.9173,228.0
1607020825.9193,249.0
1607020825.9213,273.0
1607020825.9232,304.0
1607020825.9252,332.0
1607020825.9273,351.0
1607020825.9292,365.0
1607020825.9312,382.0
1607020825.9332,382.0
1607020825.9352,356.0
1607020825.9373,327.0
1607020825.9393,287.0
1607020825.9412,218.0
1607020825.9434,123.0
1607020825.9453,16.0
1607020825.9474,-68.0
1607020825.9492,-128.0
1607020825.9512,-166.0
1607020825.9532,-187.0
1607020825.9552,-194.0
1607020825.9573,-194.0
1607020825.9592,-187.0
1607020825.9612,-178.0
1607020825.9632,-159.0
1607020825.9652,-144.0
1607020825.9673,-137.0
1607020825.9692,-128.0
1607020825.9712,-116.0
1607020825.9733,-106.0
1607020825.9753,-97.0
1607020825.9773,-85.0
1607020825.9792,-78.0
1607020825.9812,-76.0
1607020825.9832,-71.0
1607020825.9852,-66.0
1607020825.9873,-61.0
1607020825.9892,-57.0
1607020825.9913,-57.0
1607020825.9933,-57.0
1607020825.9952,-59.0
1607020826.4219,-59.0
1607020826.4229,-61.0
1607020826.4253,-54.0
1607020826.428,-42.0
1607020826.4299,-30.0
1607020826.432,-11.0
1607020826.434,9.0
1607020826.436,16.0
1607020826.4379,2.0
1607020826.4398,-21.0
1607020826.4418,-35.0
1607020826.4438,-30.0
1607020826.4458,-26.0
1607020826.4479,-26.0
1607020826.4498,-26.0
1607020826.4519,-21.0
1607020826.4539,-19.0
1607020826.4559,-11.0
1607020826.4579,-11.0
1607020826.4598,-45.0
1607020826.4618,-114.0
1607020826.4638,-87.0
1607020826.4658,209.0
1607020826.4679,826.0
1607020826.4701,1454.0
1607020826.4719,1216.0
1607020826.4738,-92.0
1607020826.4758,-860.0
1607020826.4778,-342.0
1607020826.4798,90.0
1607020826.4818,-57.0
1607020826.4838,-78.0
1607020826.4858,33.0
1607020826.4879,9.0
1607020826.4898,-7.0
1607020826.4918,35.0
1607020826.4938,40.0
1607020826.4958,42.0
1607020826.4979,66.0
1607020826.4998,83.0
1607020826.5018,95.0
1607020826.5038,116.0
1607020826.5059,135.0
1607020826.5078,152.0
1607020826.5098,173.0
1607020826.5118,199.0
1607020826.5138,223.0
1607020826.5158,249.0
1607020826.5173,278.0
1607020826.5188,304.0
1607020826.5208,325.0
1607020826.5229,337.0
1607020826.5249,342.0
1607020826.5269,342.0
1607020826.5288,327.0
1607020826.5308,297.0
1607020826.5328,247.0
1607020826.5348,175.0
1607020826.5368,83.0
1607020826.5388,-11.0
1607020826.5409,-85.0
1607020826.5428,-130.0
1607020826.5448,-159.0
1607020826.5469,-180.0
1607020826.5488,-190.0
1607020826.5508,-185.0
1607020826.5528,-173.0
1607020826.5548,-161.0
1607020826.5569,-149.0
1607020826.5589,-137.0
1607020826.5608,-128.0
1607020826.5628,-118.0
1607020826.5648,-106.0
1607020827.0218,-97.0
1607020827.0227,-92.0
1607020827.0255,-87.0
1607020827.0279,-80.0
1607020827.0298,-73.0
1607020827.0318,-76.0
1607020827.0339,-78.0
1607020827.0358,-71.0
1607020827.0378,-64.0
1607020827.0397,-64.0
1607020827.0417,-64.0
1607020827.0437,-66.0
1607020827.0458,-68.0
1607020827.0478,-71.0
1607020827.0497,-76.0
1607020827.0517,-71.0
1607020827.0537,-52.0
1607020827.0557,-26.0
1607020827.0578,0.0
1607020827.0597,14.0
1607020827.0617,14.0
1607020827.0638,0.0
1607020827.0657,-23.0
1607020827.0677,-38.0
1607020827.0697,-38.0
1607020827.0718,-30.0
1607020827.0738,-30.0
1607020827.0757,-30.0
1607020827.0777,-33.0
1607020827.0797,-26.0
1607020827.0817,-19.0
1607020827.0837,-23.0
1607020827.0857,-76.0
1607020827.0877,-156.0
1607020827.0898,-104.0
1607020827.0917,261.0
1607020827.0937,967.0
1607020827.0957,1556.0
1607020827.0977,1031.0
1607020827.0997,-342.0
1607020827.1017,-746.0
1607020827.1037,-111.0
1607020827.1057,83.0
1607020827.1078,-118.0
1607020827.1097,-59.0
1607020827.1117,30.0
1607020827.1137,-16.0
1607020827.1157,-2.0
1607020827.1178,45.0
1607020827.1197,45.0
1607020827.1217,49.0
1607020827.1237,78.0
1607020827.1258,90.0
1607020827.1279,102.0
1607020827.1297,123.0
1607020827.1317,140.0
1607020827.1337,154.0
1607020827.1357,175.0
1607020827.1377,201.0
1607020827.1397,225.0
1607020827.1418,251.0
1607020827.1438,278.0
1607020827.1457,301.0
1607020827.1477,323.0
1607020827.1497,335.0
1607020827.1517,342.0
1607020827.1537,339.0
1607020827.1557,325.0
1607020827.1578,292.0
1607020827.1597,237.0
1607020827.1618,159.0
1607020827.1637,64.0
1607020827.1657,-23.0
1607020827.5619,-87.0
1607020827.5629,-125.0
1607020827.5653,-154.0
1607020827.568,-166.0
1607020827.57,-166.0
1607020827.5719,-156.0
1607020827.5727,-149.0
1607020827.5749,-137.0
1607020827.5769,-125.0
1607020827.5789,-116.0
1607020827.5808,-111.0
1607020827.5828,-109.0
1607020827.5849,-97.0
1607020827.587,-85.0
1607020827.5889,-83.0
1607020827.5908,-80.0
1607020827.5929,-71.0
1607020827.5949,-64.0
1607020827.5969,-61.0
1607020827.5988,-59.0
1607020827.6009,-61.0
1607020827.6029,-59.0
1607020827.6036,-52.0
1607020827.605,-49.0
1607020827.6069,-49.0
1607020827.6088,-47.0
1607020827.6109,-45.0
1607020827.6129,-42.0
1607020827.6148,-38.0
1607020827.6169,-35.0
1607020827.6189,-40.0
1607020827.6211,-45.0
1607020827.6229,-42.0
1607020827.6248,-40.0
1607020827.6269,-42.0
1607020827.6288,-33.0
1607020827.6309,-4.0
1607020827.6329,28.0
1607020827.6336,45.0
1607020827.6358,52.0
1607020827.6379,45.0
1607020827.6399,14.0
1607020827.6418,-9.0
1607020827.6439,-4.0
1607020827.6458,-2.0
1607020827.6479,-7.0
1607020827.6499,-4.0
1607020827.6518,-4.0
1607020827.6539,-4.0
1607020827.6559,0.0
1607020827.6579,-4.0
1607020827.6599,-42.0
1607020827.6618,-123.0
1607020827.6638,-135.0
1607020827.6646,111.0
1607020827.6669,720.0
1607020827.6688,1444.0
1607020827.6708,1352.0
1607020827.6729,87.0
1607020827.675,-765.0
1607020827.6769,-304.0
1607020827.6788,114.0
1607020827.6808,-64.0
1607020827.6828,-95.0
1607020827.6849,33.0
1607020827.6868,7.0
1607020827.6888,-14.0
1607020827.6909,40.0
1607020827.693,52.0
1607020827.6948,47.0
1607020827.6956,73.0
1607020827.6979,92.0
1607020827.6998,99.0
1607020828.1318,116.0
1607020828.1328,135.0
1607020828.1353,154.0
1607020828.1379,173.0
1607020828.1399,194.0
1607020828.1418,218.0
1607020828.1438,240.0
1607020828.1458,261.0
1607020828.1479,278.0
1607020828.15,297.0
1607020828.1519,316.0
1607020828.1525,327.0
1607020828.1548,325.0
1607020828.1569,311.0
1607020828.1588,289.0
1607020828.1608,254.0
1607020828.1628,190.0
1607020828.1648,104.0
1607020828.1668,14.0
1607020828.1688,-64.0
1607020828.171,-114.0
1607020828.1728,-142.0
1607020828.1748,-161.0
1607020828.1768,-166.0
1607020828.1788,-163.0
1607020828.1808,-154.0
1607020828.1828,-142.0
1607020828.1835,-130.0
1607020828.1859,-116.0
1607020828.1878,-106.0
1607020828.1898,-99.0
1607020828.1918,-92.0
1607020828.1937,-83.0
1607020828.1958,-73.0
1607020828.1978,-64.0
1607020828.1998,-61.0
1607020828.2018,-61.0
1607020828.2037,-59.0
1607020828.2058,-54.0
1607020828.2078,-49.0
1607020828.2098,-38.0
1607020828.2118,-33.0
1607020828.2125,-38.0
1607020828.2148,-40.0
1607020828.2168,-38.0
1607020828.2188,-30.0
1607020828.2209,-28.0
1607020828.2228,-28.0
1607020828.2248,-28.0
1607020828.2269,-30.0
1607020828.2288,-28.0
1607020828.2308,-19.0
1607020828.2328,-11.0
1607020828.2347,-14.0
1607020828.2368,-14.0
1607020828.2388,-11.0
1607020828.2409,-9.0
1607020828.2428,-9.0
1607020828.2434,-7.0
1607020828.2448,-2.0
1607020828.247,0.0
1607020828.2488,0.0
1607020828.2508,2.0
1607020828.2528,2.0
1607020828.2548,2.0
1607020828.2568,9.0
1607020828.2589,11.0
1607020828.2608,7.0
1607020828.2627,0.0
1607020828.2648,-7.0
1607020828.2668,-7.0
1607020828.2688,19.0
1607020828.2708,54.0
1607020828.672,73.0
1607020828.673,71.0
1607020828.6754,64.0
1607020828.6781,52.0
1607020828.68,23.0
1607020828.682,2.0
1607020828.6841,0.0
1607020828.6861,7.0
1607020828.6879,7.0
1607020828.6899,2.0
1607020828.6919,2.0
1607020828.6939,9.0
1607020828.6959,11.0
1607020828.698,-2.0
1607020828.6999,-59.0
1607020828.702,-123.0
1607020828.704,-52.0
1607020828.7047,323.0
1607020828.7069,1014.0
1607020828.7089,1539.0
1607020828.711,938.0
1607020828.7129,-437.0
1607020828.7149,-767.0
1607020828.717,-97.0
1607020828.719,102.0
1607020828.721,-80.0
1607020828.7229,-21.0
1607020828.7249,54.0
1607020828.727,7.0
1607020828.7289,21.0
1607020828.7309,66.0
1607020828.7329,66.0
1607020828.7349,78.0
1607020828.7357,104.0
1607020828.738,114.0
1607020828.7399,123.0
1607020828.742,140.0
1607020828.7439,161.0
1607020828.7461,182.0
1607020828.748,206.0
1607020828.75,225.0
1607020828.7519,249.0
1607020828.754,275.0
1607020828.756,301.0
1607020828.7579,323.0
1607020828.7599,342.0
1607020828.7619,356.0
1607020828.7639,365.0
1607020828.7659,365.0
1607020828.7666,358.0
1607020828.768,337.0
1607020828.7699,297.0
1607020828.772,232.0
1607020828.774,140.0
1607020828.7759,47.0
1607020828.7779,-28.0
1607020828.78,-87.0
1607020828.782,-130.0
1607020828.7839,-147.0
1607020828.7859,-149.0
1607020828.7879,-149.0
1607020828.79,-152.0
1607020828.7919,-144.0
1607020828.7939,-133.0
1607020828.7959,-125.0
1607020828.7979,-116.0
1607020828.7999,-102.0
1607020828.8019,-90.0
1607020828.8039,-85.0
1607020828.8059,-85.0
1607020828.808,-83.0
1607020828.8099,-76.0
1607020828.812,-71.0
1607020829.242,-66.0
1607020829.2431,-61.0
1607020829.2455,-57.0
1607020829.2482,-54.0
1607020829.2501,-54.0
1607020829.2522,-57.0
1607020829.2543,-57.0
1607020829.2561,-59.0
1607020829.2581,-54.0
1607020829.2601,-49.0
1607020829.2621,-52.0
1607020829.2641,-57.0
1607020829.2661,-54.0
1607020829.2682,-49.0
1607020829.2701,-47.0
1607020829.2721,-45.0
1607020829.2743,-42.0
1607020829.2761,-40.0
1607020829.2781,-38.0
1607020829.28,-38.0
1607020829.282,-35.0
1607020829.2841,-33.0
1607020829.2861,-28.0
1607020829.2881,-26.0
1607020829.2901,-23.0
1607020829.292,-23.0
1607020829.2941,-21.0
1607020829.296,-19.0
1607020829.298,-19.0
1607020829.3,-16.0
1607020829.302,-14.0
1607020829.3042,-9.0
1607020829.306,-7.0
1607020829.308,-4.0
1607020829.31,-4.0
1607020829.312,-4.0
1607020829.3141,-2.0
1607020829.316,2.0
1607020829.3181,2.0
1607020829.3202,2.0
1607020829.3222,4.0
1607020829.324,4.0
1607020829.326,7.0
1607020829.3281,9.0
1607020829.33,9.0
1607020829.332,2.0
1607020829.334,0.0
1607020829.336,2.0
1607020829.3381,14.0
1607020829.3401,40.0
1607020829.342,68.0
1607020829.344,83.0
1607020829.346,76.0
1607020829.3481,61.0
1607020829.35,45.0
1607020829.352,28.0
1607020829.3541,19.0
1607020829.3561,16.0
1607020829.3581,16.0
1607020829.36,21.0
1607020829.362,28.0
1607020829.364,23.0
1607020829.366,19.0
1607020829.3681,21.0
1607020829.37,9.0
1607020829.372,-54.0
1607020829.3741,-133.0
1607020829.3763,-73.0
1607020829.3781,306.0
1607020829.38,1040.0
1607020829.382,1632.0
1607020829.384,1057.0
1607020829.386,-327.0
1607020829.7819,-672.0
1607020829.783,-49.0
1607020829.7855,90.0
1607020829.7881,-106.0
1607020829.79,-35.0
1607020829.7921,42.0
1607020829.7941,-4.0
1607020829.796,7.0
1607020829.798,49.0
1607020829.8001,47.0
1607020829.802,52.0
1607020829.804,73.0
1607020829.806,85.0
1607020829.808,104.0
1607020829.81,125.0
1607020829.812,137.0
1607020829.814,152.0
1607020829.816,180.0
1607020829.8181,204.0
1607020829.82,223.0
1607020829.822,249.0
1607020829.824,278.0
1607020829.826,297.0
1607020829.828,313.0
1607020829.83,332.0
1607020829.832,342.0
1607020829.834,337.0
1607020829.836,330.0
1607020829.838,311.0
1607020829.84,273.0
1607020829.842,213.0
1607020829.844,135.0
1607020829.846,45.0
1607020829.848,-35.0
1607020829.8499,-95.0
1607020829.852,-133.0
1607020829.8541,-156.0
1607020829.8559,-166.0
1607020829.8579,-168.0
1607020829.8599,-163.0
1607020829.8619,-154.0
1607020829.8639,-142.0
1607020829.8659,-133.0
1607020829.868,-121.0
1607020829.87,-114.0
1607020829.8722,-104.0
1607020829.874,-97.0
1607020829.876,-90.0
1607020829.878,-83.0
1607020829.8799,-76.0
1607020829.8821,-71.0
1607020829.8839,-66.0
1607020829.8859,-61.0
1607020829.888,-59.0
1607020829.89,-57.0
1607020829.8919,-59.0
1607020829.8939,-54.0
1607020829.8959,-49.0
1607020829.8981,-52.0
1607020829.9,-49.0
1607020829.902,-42.0
1607020829.9039,-40.0
1607020829.906,-40.0
1607020829.9079,-38.0
1607020829.9099,-35.0
1607020829.9119,-33.0
1607020829.9139,-30.0
1607020829.9159,-28.0
1607020829.918,-26.0
1607020829.9199,-23.0
1607020829.9219,-21.0
1607020829.924,-16.0
1607020829.9259,-14.0
1607020830.3817,-11.0
1607020830.3829,-11.0
1607020830.3854,-11.0
1607020830.388,-11.0
1607020830.39,-14.0
1607020830.392,-19.0
1607020830.394,-19.0
1607020830.396,-11.0
1607020830.398,-9.0
1607020830.4,-11.0
1607020830.4021,-9.0
1607020830.404,-4.0
1607020830.406,-4.0
1607020830.408,-2.0
1607020830.41,-2.0
1607020830.412,-4.0
1607020830.414,-4.0
1607020830.416,-2.0
1607020830.4179,0.0
1607020830.42,2.0
1607020830.422,2.0
1607020830.4239,2.0
1607020830.4259,4.0
1607020830.4282,7.0
1607020830.43,7.0
1607020830.432,7.0
1607020830.4339,7.0
1607020830.436,4.0
1607020830.438,0.0
1607020830.44,2.0
1607020830.4419,7.0
1607020830.4439,23.0
1607020830.4459,52.0
1607020830.448,76.0
1607020830.4499,76.0
1607020830.4519,61.0
1607020830.454,42.0
1607020830.456,26.0
1607020830.4579,9.0
1607020830.4599,4.0
1607020830.4619,7.0
1607020830.4639,9.0
1607020830.466,11.0
1607020830.4679,11.0
1607020830.4699,11.0
1607020830.472,14.0
1607020830.4741,14.0
1607020830.4759,-19.0
1607020830.4779,-102.0
1607020830.4799,-142.0
1607020830.4819,33.0
1607020830.4839,567.0
1607020830.4859,1347.0
1607020830.4879,1532.0
1607020830.49,441.0
1607020830.492,-641.0
1607020830.4939,-394.0
1607020830.4959,104.0
1607020830.4979,-28.0
1607020830.4999,-116.0
1607020830.5019,16.0
1607020830.5039,19.0
1607020830.5059,-19.0
1607020830.508,28.0
1607020830.5099,52.0
1607020830.5119,45.0
1607020830.5139,61.0
1607020830.5159,80.0
1607020830.5179,87.0
1607020830.52,106.0
1607020830.5219,128.0
1607020830.5239,144.0
1607020830.526,163.0
1607020830.9215,185.0
1607020830.9226,206.0
1607020830.9245,228.0
1607020830.9264,254.0
1607020830.9283,280.0
1607020830.9303,304.0
1607020830.9323,323.0
1607020830.9344,339.0
1607020830.9363,346.0
1607020830.9383,342.0
1607020830.9403,323.0
1607020830.9423,297.0
1607020830.9443,254.0
1607020830.9463,187.0
1607020830.9483,99.0
1607020830.9503,14.0
1607020830.9523,-59.0
1607020830.9543,-111.0
1607020830.9564,-144.0
1607020830.9583,-161.0
1607020830.9602,-171.0
1607020830.9622,-171.0
1607020830.9642,-163.0
1607020830.9662,-152.0
1607020830.9683,-142.0
1607020830.9705,-135.0
1607020830.9723,-128.0
1607020830.9743,-118.0
1607020830.9762,-109.0
1607020830.9782,-104.0
1607020830.9802,-95.0
1607020830.9823,-87.0
1607020830.9842,-83.0
1607020830.9865,-78.0
1607020830.9882,-68.0
1607020830.9902,-61.0
1607020830.9922,-57.0
1607020830.9943,-57.0
1607020831.0018,-54.0
1607020831.0033,-49.0
1607020831.0054,-52.0
1607020831.0072,-52.0
1607020831.0093,-47.0
1607020831.0112,-42.0
1607020831.0132,-42.0
1607020831.0153,-40.0
1607020831.0173,-35.0
1607020831.0193,-35.0
1607020831.0213,-35.0
1607020831.0233,-35.0
1607020831.0252,-33.0
1607020831.0273,-33.0
1607020831.0294,-33.0
1607020831.0313,-28.0
1607020831.0332,-23.0
1607020831.0352,-21.0
1607020831.0373,-21.0
1607020831.0393,-21.0
1607020831.0413,-19.0
1607020831.0432,-14.0
1607020831.0453,-14.0
1607020831.0473,-14.0
1607020831.0492,-11.0
1607020831.0512,-7.0
1607020831.0533,-7.0
1607020831.0553,-4.0
1607020831.0573,-2.0
1607020831.0592,0.0
1607020831.0612,-2.0
1607020831.0632,0.0
1607020831.0653,7.0
1607020831.0673,7.0
1607020831.0692,7.0
1607020831.492,9.0
1607020831.4929,11.0
1607020831.4954,11.0
1607020831.4981,11.0
1607020831.5001,14.0
1607020831.5021,14.0
1607020831.5041,9.0
1607020831.506,0.0
1607020831.5079,-4.0
1607020831.5099,2.0
1607020831.5119,11.0
1607020831.5139,33.0
1607020831.5159,66.0
1607020831.518,83.0
1607020831.5199,76.0
1607020831.522,61.0
1607020831.5239,42.0
1607020831.5259,23.0
1607020831.5279,14.0
1607020831.5299,14.0
1607020831.5319,19.0
1607020831.5339,21.0
1607020831.536,23.0
1607020831.5379,23.0
1607020831.5399,28.0
1607020831.5419,28.0
1607020831.5439,14.0
1607020831.5459,-45.0
1607020831.5479,-114.0
1607020831.5499,-35.0
1607020831.5522,344.0
1607020831.554,1043.0
1607020831.556,1556.0
1607020831.5579,929.0
1607020831.5599,-375.0
1607020831.5619,-615.0
1607020831.5639,-11.0
1607020831.5659,83.0
1607020831.5679,-99.0
1607020831.57,-16.0
1607020831.572,54.0
1607020831.5739,4.0
1607020831.5759,21.0
1607020831.578,66.0
1607020831.5799,64.0
1607020831.582,68.0
1607020831.5839,92.0
1607020831.5859,102.0
1607020831.588,109.0
1607020831.59,125.0
1607020831.5919,142.0
1607020831.5939,161.0
1607020831.5959,182.0
1607020831.598,204.0
1607020831.5999,228.0
1607020831.6019,251.0
1607020831.6039,278.0
1607020831.606,301.0
1607020831.6079,320.0
1607020831.6099,339.0
1607020831.6119,351.0
1607020831.6139,354.0
1607020831.6159,349.0
1607020831.6179,330.0
1607020831.6199,289.0
1607020831.6219,230.0
1607020831.624,149.0
1607020831.6259,57.0
1607020831.628,-26.0
1607020831.6299,-92.0
1607020831.6319,-137.0
1607020831.6339,-159.0
1607020831.6359,-171.0
1607020832.0321,-175.0
1607020832.0331,-171.0
1607020832.0356,-161.0
1607020832.0382,-152.0
1607020832.0402,-142.0
1607020832.0422,-133.0
1607020832.0443,-123.0
1607020832.0461,-121.0
1607020832.0483,-121.0
1607020832.0502,-114.0
1607020832.0521,-102.0
1607020832.0541,-95.0
1607020832.0561,-90.0
1607020832.0581,-80.0
1607020832.0601,-73.0
1607020832.0621,-71.0
1607020832.0641,-64.0
1607020832.0662,-59.0
1607020832.0682,-57.0
1607020832.0701,-54.0
1607020832.0721,-49.0
1607020832.0741,-47.0
1607020832.0761,-42.0
1607020832.0781,-40.0
1607020832.0801,-38.0
1607020832.082,-38.0
1607020832.0842,-38.0
1607020832.0871,-40.0
1607020832.0892,-35.0
1607020832.0911,-33.0
1607020832.0932,-30.0
1607020832.0952,-28.0
1607020832.0971,-23.0
1607020832.0991,-21.0
1607020832.1012,-16.0
1607020832.1031,-16.0
1607020832.1051,-14.0
1607020832.1071,-9.0
1607020832.1093,-7.0
1607020832.1112,-7.0
1607020832.1131,-7.0
1607020832.1151,-4.0
1607020832.1171,-2.0
1607020832.119,-2.0
1607020832.1211,0.0
1607020832.1231,4.0
1607020832.125,4.0
1607020832.127,7.0
1607020832.1293,7.0
1607020832.1313,9.0
1607020832.1332,11.0
1607020832.1353,7.0
1607020832.137,4.0
1607020832.1391,4.0
1607020832.1411,2.0
1607020832.143,7.0
1607020832.145,23.0
1607020832.147,57.0
1607020832.149,83.0
1607020832.1512,85.0
1607020832.153,73.0
1607020832.1551,57.0
1607020832.157,35.0
1607020832.159,19.0
1607020832.161,21.0
1607020832.163,26.0
1607020832.1651,21.0
1607020832.167,21.0
1607020832.1692,26.0
1607020832.171,30.0
1607020832.173,33.0
1607020832.175,26.0
1607020832.1771,-23.0
1607020832.6017,-99.0
1607020832.6026,-76.0
1607020832.6047,209.0
1607020832.6066,822.0
1607020832.6085,1466.0
1607020832.6105,1214.0
1607020832.6125,-64.0
1607020832.6145,-722.0
1607020832.6165,-204.0
1607020832.6184,116.0
1607020832.6205,-66.0
1607020832.6225,-64.0
1607020832.6245,47.0
1607020832.6264,14.0
1607020832.6284,4.0
1607020832.6304,54.0
1607020832.6324,61.0
1607020832.6345,57.0
1607020832.6365,78.0
1607020832.6384,90.0
1607020832.6404,97.0
1607020832.6424,116.0
1607020832.6444,135.0
1607020832.6465,152.0
1607020832.6484,171.0
1607020832.6504,192.0
1607020832.6524,218.0
1607020832.6544,242.0
1607020832.6564,266.0
1607020832.6584,289.0
1607020832.6605,308.0
1607020832.6625,325.0
1607020832.6644,339.0
1607020832.6665,346.0
1607020832.6684,339.0
1607020832.6704,323.0
1607020832.6724,289.0
1607020832.6746,235.0
1607020832.6765,159.0
1607020832.6784,68.0
1607020832.6804,-16.0
1607020832.6824,-90.0
1607020832.6844,-135.0
1607020832.6864,-161.0
1607020832.6884,-175.0
1607020832.6904,-182.0
1607020832.6924,-180.0
1607020832.6944,-171.0
1607020832.6965,-161.0
1607020832.6985,-152.0
1607020832.7004,-140.0
1607020832.7024,-128.0
1607020832.7045,-121.0
1607020832.7065,-111.0
1607020832.7084,-102.0
1607020832.7104,-97.0
1607020832.7124,-90.0
1607020832.7144,-83.0
1607020832.7165,-76.0
1607020832.7184,-71.0
1607020832.7206,-66.0
1607020832.7224,-59.0
1607020832.7245,-59.0
1607020832.7266,-59.0
1607020832.7285,-54.0
1607020832.7305,-52.0
1607020832.7325,-47.0
1607020832.7345,-47.0
1607020832.7364,-45.0
1607020832.7385,-40.0
1607020832.7405,-38.0
1607020832.7424,-38.0
1607020832.7444,-35.0
1607020833.172,-30.0
1607020833.173,-28.0
1607020833.1755,-28.0
1607020833.1781,-28.0
1607020833.18,-23.0
1607020833.1821,-21.0
1607020833.1842,-28.0
1607020833.186,-38.0
1607020833.188,-35.0
1607020833.19,-30.0
1607020833.192,-30.0
1607020833.194,-28.0
1607020833.196,-4.0
1607020833.1979,35.0
1607020833.2,57.0
1607020833.2021,47.0
1607020833.204,30.0
1607020833.2059,16.0
1607020833.208,-2.0
1607020833.2099,-14.0
1607020833.2119,-11.0
1607020833.2139,-7.0
1607020833.2159,-7.0
1607020833.218,-4.0
1607020833.2199,2.0
1607020833.2219,2.0
1607020833.2239,2.0
1607020833.2259,-9.0
1607020833.228,-66.0
1607020833.2299,-123.0
1607020833.2319,0.0
1607020833.2339,439.0
1607020833.236,1121.0
1607020833.238,1478.0
1607020833.24,696.0
1607020833.2419,-551.0
1607020833.2439,-651.0
1607020833.2459,-21.0
1607020833.2479,76.0
1607020833.2499,-76.0
1607020833.252,0.0
1607020833.254,57.0
1607020833.256,21.0
1607020833.258,40.0
1607020833.2599,76.0
1607020833.2619,66.0
1607020833.2639,73.0
1607020833.2659,102.0
1607020833.2679,121.0
1607020833.2699,133.0
1607020833.272,149.0
1607020833.2739,161.0
1607020833.2759,185.0
1607020833.2779,211.0
1607020833.2799,225.0
1607020833.2819,237.0
1607020833.2839,263.0
1607020833.2859,297.0
1607020833.288,325.0
1607020833.29,351.0
1607020833.2919,368.0
1607020833.2939,373.0
1607020833.2959,375.0
1607020833.298,365.0
1607020833.2999,337.0
1607020833.3019,292.0
1607020833.3041,223.0
1607020833.306,128.0
1607020833.3081,28.0
1607020833.3099,-57.0
1607020833.3119,-116.0
1607020833.3139,-149.0
1607020833.3159,-168.0
1607020833.7415,-178.0
1607020833.7425,-175.0
1607020833.7435,-166.0
1607020833.7455,-156.0
1607020833.7475,-154.0
1607020833.7495,-149.0
1607020833.7515,-133.0
1607020833.7534,-118.0
1607020833.7554,-116.0
1607020833.7574,-121.0
1607020833.7594,-116.0
1607020833.7614,-99.0
1607020833.7634,-92.0
1607020833.7654,-92.0
1607020833.7675,-90.0
1607020833.7695,-78.0
1607020833.7715,-66.0
1607020833.7734,-64.0
1607020833.7754,-66.0
1607020833.7775,-59.0
1607020833.7794,-57.0
1607020833.7814,-66.0
1607020833.7836,-64.0
1607020833.7855,-57.0
1607020833.7874,-61.0
1607020833.7894,-59.0
1607020833.7914,-45.0
1607020833.7934,-30.0
1607020833.7954,-2.0
1607020833.7974,26.0
1607020833.7994,33.0
1607020833.8001,16.0
1607020833.8025,-7.0
1607020833.8045,-26.0
1607020833.8064,-23.0
1607020833.8084,-16.0
1607020833.8104,-19.0
1607020833.8124,-16.0
1607020833.8144,-11.0
1607020833.8165,-14.0
1607020833.8184,-11.0
1607020833.8205,2.0
1607020833.8224,-7.0
1607020833.8244,-64.0
1607020833.8267,-109.0
1607020833.8284,35.0
1607020833.8304,489.0
1607020833.8311,1138.0
1607020833.8334,1432.0
1607020833.8354,627.0
1607020833.8375,-684.0
1607020833.8394,-860.0
1607020833.8414,-168.0
1607020833.8434,52.0
1607020833.8454,-66.0
1607020833.8474,-7.0
1607020833.8494,54.0
1607020833.8514,23.0
1607020833.8534,35.0
1607020833.8555,71.0
1607020833.8574,78.0
1607020833.8594,80.0
1607020833.8614,99.0
1607020833.8621,118.0
1607020833.8634,133.0
1607020833.8654,144.0
1607020833.8674,168.0
1607020833.8694,194.0
1607020833.8714,209.0
1607020833.8735,220.0
1607020833.8754,251.0
1607020833.8774,278.0
1607020833.8794,299.0
1607020834.3119,330.0
1607020834.3129,358.0
1607020834.3153,368.0
1607020834.318,373.0
1607020834.3186,370.0
1607020834.3209,351.0
1607020834.3229,320.0
1607020834.3249,266.0
1607020834.3269,171.0
1607020834.3289,57.0
1607020834.3308,-40.0
1607020834.3329,-109.0
1607020834.335,-161.0
1607020834.3369,-197.0
1607020834.3389,-206.0
1607020834.3408,-204.0
1607020834.3429,-201.0
1607020834.3449,-194.0
1607020834.3469,-180.0
1607020834.3476,-166.0
1607020834.3499,-154.0
1607020834.3519,-144.0
1607020834.354,-133.0
1607020834.3559,-123.0
1607020834.3578,-116.0
1607020834.3598,-109.0
1607020834.3619,-102.0
1607020834.3638,-97.0
1607020834.3658,-87.0
1607020834.3679,-78.0
1607020834.3699,-78.0
1607020834.3719,-76.0
1607020834.3739,-71.0
1607020834.3758,-71.0
1607020834.3779,-68.0
1607020834.3785,-68.0
1607020834.3799,-73.0
1607020834.3819,-71.0
1607020834.3839,-57.0
1607020834.386,-35.0
1607020834.3879,-11.0
1607020834.3899,7.0
1607020834.3918,9.0
1607020834.3938,-4.0
1607020834.3958,-26.0
1607020834.3979,-42.0
1607020834.3999,-40.0
1607020834.4018,-38.0
1607020834.4039,-35.0
1607020834.4059,-30.0
1607020834.4079,-28.0
1607020834.4085,-30.0
1607020834.4108,-23.0
1607020834.4128,-19.0
1607020834.4148,-40.0
1607020834.4169,-109.0
1607020834.419,-135.0
1607020834.421,85.0
1607020834.423,646.0
1607020834.425,1335.0
1607020834.4269,1387.0
1607020834.4289,259.0
1607020834.4309,-803.0
1607020834.4328,-532.0
1607020834.4349,28.0
1607020834.4369,-42.0
1607020834.4389,-135.0
1607020834.4396,-16.0
1607020834.4409,-11.0
1607020834.4428,-47.0
1607020834.4449,-2.0
1607020834.4469,23.0
1607020834.4488,16.0
1607020834.8517,38.0
1607020834.8527,59.0
1607020834.8552,64.0
1607020834.8578,80.0
1607020834.8597,106.0
1607020834.8617,123.0
1607020834.8638,140.0
1607020834.8658,163.0
1607020834.8678,187.0
1607020834.8697,213.0
1607020834.8704,235.0
1607020834.8727,256.0
1607020834.8747,282.0
1607020834.8768,301.0
1607020834.8787,313.0
1607020834.8808,316.0
1607020834.8828,308.0
1607020834.8847,285.0
1607020834.8867,242.0
1607020834.8887,175.0
1607020834.8907,87.0
1607020834.8927,-9.0
1607020834.8947,-90.0
1607020834.8967,-144.0
1607020834.8987,-178.0
1607020834.9008,-199.0
1607020834.9014,-209.0
1607020834.9027,-206.0
1607020834.9047,-199.0
1607020834.9067,-192.0
1607020834.9087,-182.0
1607020834.9107,-166.0
1607020834.9127,-154.0
1607020834.9147,-144.0
1607020834.9167,-135.0
1607020834.9188,-125.0
1607020834.9207,-118.0
1607020834.9227,-116.0
1607020834.9247,-109.0
1607020834.9267,-102.0
1607020834.9287,-97.0
1607020834.9307,-92.0
1607020834.9314,-87.0
1607020834.9328,-83.0
1607020834.9347,-83.0
1607020834.9369,-85.0
1607020834.9387,-85.0
1607020834.9407,-83.0
1607020834.9427,-83.0
1607020834.9447,-78.0
1607020834.9467,-61.0
1607020834.9489,-35.0
1607020834.9507,-11.0
1607020834.9527,0.0
1607020834.9548,2.0
1607020834.9567,-11.0
1607020834.9587,-40.0
1607020834.9607,-54.0
1607020834.9614,-49.0
1607020834.9627,-45.0
1607020834.9647,-45.0
1607020834.9667,-42.0
1607020834.9687,-40.0
1607020834.9707,-35.0
1607020834.9728,-30.0
1607020834.9747,-33.0
1607020834.9767,-73.0
1607020834.9787,-154.0
1607020834.9807,-142.0
1607020834.9828,144.0
1607020834.9847,779.0
1607020834.9867,1459.0
1607020834.9888,1228.0
1607020835.4513,-76.0
1607020835.452,-777.0
1607020835.4544,-249.0
1607020835.457,87.0
1607020835.459,-109.0
1607020835.461,-106.0
1607020835.463,9.0
1607020835.4656,-33.0
1607020835.4671,-47.0
1607020835.469,9.0
1607020835.471,16.0
1607020835.473,11.0
1607020835.475,38.0
1607020835.477,57.0
1607020835.479,64.0
1607020835.4811,80.0
1607020835.483,102.0
1607020835.4851,118.0
1607020835.487,135.0
1607020835.489,156.0
1607020835.491,182.0
1607020835.493,206.0
1607020835.495,230.0
1607020835.497,251.0
1607020835.499,273.0
1607020835.501,292.0
1607020835.5031,299.0
1607020835.505,299.0
1607020835.507,289.0
1607020835.5091,263.0
1607020835.511,216.0
1607020835.513,142.0
1607020835.515,57.0
1607020835.517,-30.0
1607020835.519,-104.0
1607020835.5211,-154.0
1607020835.523,-182.0
1607020835.525,-194.0
1607020835.527,-199.0
1607020835.529,-194.0
1607020835.531,-182.0
1607020835.533,-173.0
1607020835.535,-166.0
1607020835.5371,-156.0
1607020835.539,-144.0
1607020835.541,-135.0
1607020835.543,-133.0
1607020835.545,-128.0
1607020835.547,-123.0
1607020835.549,-123.0
1607020835.551,-118.0
1607020835.553,-111.0
1607020835.555,-104.0
1607020835.5571,-99.0
1607020835.559,-97.0
1607020835.561,-95.0
1607020835.563,-90.0
1607020835.565,-85.0
1607020835.567,-80.0
1607020835.569,-78.0
1607020835.571,-76.0
1607020835.5731,-73.0
1607020835.5751,-73.0
1607020835.577,-76.0
1607020835.5791,-76.0
1607020835.5811,-76.0
1607020835.583,-76.0
1607020835.585,-61.0
1607020835.587,-30.0
1607020835.589,-2.0
1607020835.591,11.0
1607020835.593,16.0
1607020835.595,9.0
1607020835.9615,-16.0
1607020835.9624,-35.0
1607020835.9642,-30.0
1607020835.9661,-26.0
1607020835.9681,-28.0
1607020835.9701,-28.0
1607020835.9721,-23.0
1607020835.9743,-19.0
1607020835.9762,-16.0
1607020835.9781,-21.0
1607020835.9801,-57.0
1607020835.9821,-140.0
1607020835.9841,-163.0
1607020835.9861,66.0
1607020835.9881,655.0
1607020835.9901,1373.0
1607020835.9921,1318.0
1607020835.9941,102.0
1607020835.9961,-762.0
1607020835.9982,-335.0
1607020836.0001,92.0
1607020836.002,-76.0
1607020836.0041,-116.0
1607020836.0061,9.0
1607020836.0081,-9.0
1607020836.0101,-35.0
1607020836.0121,19.0
1607020836.0141,35.0
1607020836.0161,30.0
1607020836.0181,52.0
1607020836.0201,71.0
1607020836.0221,80.0
1607020836.024,95.0
1607020836.0261,116.0
1607020836.0281,133.0
1607020836.03,152.0
1607020836.032,171.0
1607020836.0342,194.0
1607020836.0361,220.0
1607020836.0381,244.0
1607020836.04,263.0
1607020836.0421,280.0
1607020836.0441,294.0
1607020836.0461,304.0
1607020836.048,306.0
1607020836.0501,299.0
1607020836.0522,280.0
1607020836.0541,240.0
1607020836.0561,178.0
1607020836.0582,97.0
1607020836.0601,9.0
1607020836.062,-66.0
1607020836.0641,-121.0
1607020836.066,-156.0
1607020836.068,-175.0
1607020836.0702,-180.0
1607020836.0721,-178.0
1607020836.0741,-171.0
1607020836.0762,-161.0
1607020836.0781,-152.0
1607020836.08,-140.0
1607020836.082,-128.0
1607020836.084,-118.0
1607020836.0861,-111.0
1607020836.0881,-104.0
1607020836.0901,-97.0
1607020836.092,-90.0
1607020836.0941,-90.0
1607020836.0961,-90.0
1607020836.0981,-85.0
1607020836.1,-80.0
1607020836.102,-80.0
1607020836.1041,-76.0
1607020836.5021,-73.0
1607020836.503,-76.0
1607020836.5055,-71.0
1607020836.5081,-64.0
1607020836.5101,-61.0
1607020836.5121,-66.0
1607020836.5143,-71.0
1607020836.5161,-68.0
1607020836.5181,-64.0
1607020836.5201,-61.0
1607020836.5221,-59.0
1607020836.5241,-54.0
1607020836.5261,-49.0
1607020836.5281,-47.0
1607020836.5302,-42.0
1607020836.5321,-40.0
1607020836.534,-40.0
1607020836.536,-42.0
1607020836.538,-47.0
1607020836.54,-49.0
1607020836.542,-47.0
1607020836.544,-40.0
1607020836.546,-35.0
1607020836.5481,-19.0
1607020836.55,16.0
1607020836.552,45.0
1607020836.554,47.0
1607020836.556,33.0
1607020836.558,16.0
1607020836.56,-2.0
1607020836.562,-11.0
1607020836.564,-11.0
1607020836.5661,-11.0
1607020836.568,-19.0
1607020836.57,-16.0
1607020836.572,-11.0
1607020836.5742,-7.0
1607020836.576,-4.0
1607020836.578,-9.0
1607020836.58,-57.0
1607020836.5821,-133.0
1607020836.5841,-92.0
1607020836.586,230.0
1607020836.588,876.0
1607020836.59,1480.0
1607020836.592,1088.0
1607020836.594,-228.0
1607020836.596,-746.0
1607020836.598,-159.0
1607020836.6001,104.0
1607020836.6021,-87.0
1607020836.604,-52.0
1607020836.606,52.0
1607020836.608,7.0
1607020836.61,2.0
1607020836.612,57.0
1607020836.614,61.0
1607020836.616,64.0
1607020836.6181,90.0
1607020836.62,102.0
1607020836.622,102.0
1607020836.624,121.0
1607020836.626,149.0
1607020836.628,166.0
1607020836.63,178.0
1607020836.632,199.0
1607020836.6341,228.0
1607020836.6361,249.0
1607020836.6381,268.0
1607020836.6387,289.0
1607020836.64,308.0
1607020836.642,318.0
1607020836.644,327.0
1607020837.1019,337.0
1607020837.1028,335.0
1607020837.1052,308.0
1607020837.1079,263.0
1607020837.1099,204.0
1607020837.1119,130.0
1607020837.1139,42.0
1607020837.116,-38.0
1607020837.1167,-97.0
1607020837.1188,-130.0
1607020837.1208,-154.0
1607020837.1229,-166.0
1607020837.1251,-166.0
1607020837.1269,-156.0
1607020837.1289,-142.0
1607020837.1309,-133.0
1607020837.1329,-123.0
1607020837.1348,-111.0
1607020837.1368,-102.0
1607020837.1388,-95.0
1607020837.1408,-83.0
1607020837.1428,-78.0
1607020837.1448,-76.0
1607020837.1468,-73.0
1607020837.1474,-71.0
1607020837.1488,-68.0
1607020837.1508,-68.0
1607020837.1527,-61.0
1607020837.1548,-57.0
1607020837.1568,-57.0
1607020837.1587,-57.0
1607020837.1608,-49.0
1607020837.1628,-45.0
1607020837.1648,-45.0
1607020837.1668,-42.0
1607020837.1688,-38.0
1607020837.1708,-35.0
1607020837.1728,-38.0
1607020837.1748,-33.0
1607020837.1768,-28.0
1607020837.1774,-23.0
1607020837.1788,-21.0
1607020837.1808,-16.0
1607020837.1828,-16.0
1607020837.1848,-14.0
1607020837.1869,-14.0
1607020837.1888,-19.0
1607020837.1908,-19.0
1607020837.1927,-14.0
1607020837.1947,-11.0
1607020837.1968,-11.0
1607020837.1987,-7.0
1607020837.2007,-4.0
1607020837.2028,-7.0
1607020837.2048,-9.0
1607020837.2068,-9.0
1607020837.2074,-14.0
1607020837.2088,-16.0
1607020837.2107,-14.0
1607020837.2127,-9.0
1607020837.2147,-4.0
1607020837.2168,11.0
1607020837.2187,45.0
1607020837.2209,71.0
1607020837.2228,71.0
1607020837.2249,54.0
1607020837.2269,30.0
1607020837.2288,9.0
1607020837.2308,2.0
1607020837.2328,4.0
1607020837.2347,7.0
1607020837.2368,7.0
1607020837.2374,9.0
1607020837.672,11.0
1607020837.673,11.0
1607020837.6743,16.0
1607020837.6762,7.0
1607020837.6782,-45.0
1607020837.6801,-111.0
1607020837.6822,-40.0
1607020837.6843,330.0
1607020837.6862,988.0
1607020837.6881,1478.0
1607020837.6901,893.0
1607020837.6921,-449.0
1607020837.6941,-793.0
1607020837.6961,-140.0
1607020837.6981,80.0
1607020837.6987,-90.0
1607020837.7001,-35.0
1607020837.702,47.0
1607020837.704,2.0
1607020837.706,4.0
1607020837.7081,47.0
1607020837.71,49.0
1607020837.712,54.0
1607020837.714,80.0
1607020837.7161,92.0
1607020837.7181,102.0
1607020837.7203,123.0
1607020837.7222,144.0
1607020837.7241,161.0
1607020837.7261,180.0
1607020837.7281,204.0
1607020837.7287,225.0
1607020837.7301,247.0
1607020837.732,270.0
1607020837.7341,289.0
1607020837.7361,306.0
1607020837.738,323.0
1607020837.74,332.0
1607020837.742,325.0
1607020837.744,311.0
1607020837.746,292.0
1607020837.748,256.0
1607020837.75,197.0
1607020837.7523,116.0
1607020837.7541,26.0
1607020837.756,-49.0
1607020837.758,-106.0
1607020837.7587,-147.0
1607020837.76,-168.0
1607020837.762,-175.0
1607020837.764,-178.0
1607020837.766,-173.0
1607020837.768,-159.0
1607020837.7701,-147.0
1607020837.772,-140.0
1607020837.774,-130.0
1607020837.776,-121.0
1607020837.778,-111.0
1607020837.78,-106.0
1607020837.782,-102.0
1607020837.784,-95.0
1607020837.7861,-92.0
1607020837.7881,-95.0
1607020837.7887,-90.0
1607020837.79,-83.0
1607020837.792,-80.0
1607020837.794,-78.0
1607020837.796,-76.0
1607020837.798,-71.0
1607020837.8,-68.0
1607020837.802,-66.0
1607020837.8041,-66.0
1607020837.8061,-61.0
1607020838.2123,-57.0
1607020838.2134,-59.0
1607020838.2158,-57.0
1607020838.2185,-54.0
1607020838.2192,-49.0
1607020838.2204,-47.0
1607020838.2225,-47.0
1607020838.2245,-42.0
1607020838.2266,-42.0
1607020838.2284,-47.0
1607020838.2305,-49.0
1607020838.2324,-45.0
1607020838.2344,-45.0
1607020838.2365,-45.0
1607020838.2384,-40.0
1607020838.2404,-35.0
1607020838.2424,-33.0
1607020838.2444,-28.0
1607020838.2465,-26.0
1607020838.2485,-26.0
1607020838.249,-23.0
1607020838.2506,-19.0
1607020838.2524,-14.0
1607020838.2543,-11.0
1607020838.2564,-11.0
1607020838.2583,-9.0
1607020838.2604,-4.0
1607020838.2624,-2.0
1607020838.2643,-2.0
1607020838.2665,-2.0
1607020838.2683,-2.0
1607020838.2703,-2.0
1607020838.2724,-4.0
1607020838.2744,-7.0
1607020838.2764,-4.0
1607020838.2783,2.0
1607020838.279,16.0
1607020838.2803,42.0
1607020838.2824,71.0
1607020838.2844,76.0
1607020838.2864,61.0
1607020838.2883,42.0
1607020838.2903,23.0
1607020838.2923,11.0
1607020838.2943,7.0
1607020838.2964,11.0
1607020838.2983,14.0
1607020838.3004,16.0
1607020838.3024,16.0
1607020838.3043,19.0
1607020838.3064,19.0
1607020838.3083,14.0
1607020838.309,-26.0
1607020838.3103,-104.0
1607020838.3123,-114.0
1607020838.3144,116.0
1607020838.3164,693.0
1607020838.3184,1425.0
1607020838.3203,1368.0
1607020838.3223,137.0
1607020838.3243,-698.0
1607020838.3264,-251.0
1607020838.3283,133.0
1607020838.3303,-64.0
1607020838.3323,-92.0
1607020838.3343,35.0
1607020838.3364,9.0
1607020838.3384,-14.0
1607020838.339,38.0
1607020838.3404,49.0
1607020838.3423,42.0
1607020838.3444,64.0
1607020838.3466,78.0
1607020838.7815,83.0
1607020838.7824,99.0
1607020838.7849,118.0
1607020838.7875,133.0
1607020838.7895,147.0
1607020838.7915,166.0
1607020838.7937,180.0
1607020838.7956,194.0
1607020838.7975,220.0
1607020838.7995,249.0
1607020838.8001,270.0
1607020838.8015,285.0
1607020838.8036,299.0
1607020838.8055,308.0
1607020838.8075,304.0
1607020838.8094,289.0
1607020838.8114,261.0
1607020838.8134,213.0
1607020838.8155,142.0
1607020838.8174,59.0
1607020838.8194,-21.0
1607020838.8214,-90.0
1607020838.8234,-140.0
1607020838.8254,-168.0
1607020838.8275,-185.0
1607020838.8294,-190.0
1607020838.8301,-185.0
1607020838.8315,-175.0
1607020838.8335,-166.0
1607020838.8354,-159.0
1607020838.8375,-149.0
1607020838.8394,-137.0
1607020838.8414,-128.0
1607020838.8434,-121.0
1607020838.8454,-114.0
1607020838.8474,-106.0
1607020838.8495,-99.0
1607020838.8515,-95.0
1607020838.8535,-90.0
1607020838.8554,-85.0
1607020838.8576,-78.0
1607020838.8582,-76.0
1607020838.8604,-73.0
1607020838.8624,-68.0
1607020838.8644,-64.0
1607020838.8664,-61.0
1607020838.8685,-59.0
1607020838.8704,-52.0
1607020838.8724,-49.0
1607020838.8744,-49.0
1607020838.8766,-47.0
1607020838.8785,-45.0
1607020838.8804,-42.0
1607020838.8824,-40.0
1607020838.8844,-40.0
1607020838.8866,-40.0
1607020838.8884,-35.0
1607020838.8891,-28.0
1607020838.8904,-26.0
1607020838.8924,-26.0
1607020838.8945,-26.0
1607020838.8965,-28.0
1607020838.8984,-26.0
1607020838.9004,-23.0
1607020838.9025,-21.0
1607020838.9045,-19.0
1607020838.9065,-19.0
1607020838.9084,-19.0
1607020838.9104,-16.0
1607020838.9124,-14.0
1607020838.9144,-14.0
1607020838.9165,-16.0
1607020838.9184,-14.0
1607020839.3217,-9.0
1607020839.3222,-7.0
1607020839.3236,-4.0
1607020839.3256,-7.0
1607020839.3277,-7.0
1607020839.3282,-4.0
1607020839.3296,-4.0
1607020839.3316,-9.0
1607020839.3336,-19.0
1607020839.3356,-23.0
1607020839.3376,-14.0
1607020839.3396,2.0
1607020839.3416,26.0
1607020839.3436,54.0
1607020839.3456,61.0
1607020839.3477,49.0
1607020839.3496,28.0
1607020839.3516,14.0
1607020839.3536,4.0
1607020839.3556,-2.0
1607020839.3576,-4.0
1607020839.3583,2.0
1607020839.3596,4.0
1607020839.3616,0.0
1607020839.3636,4.0
1607020839.3656,14.0
1607020839.3676,9.0
1607020839.3696,-30.0
1607020839.3718,-99.0
1607020839.3736,-83.0
1607020839.3756,175.0
1607020839.3776,758.0
1607020839.3796,1411.0
1607020839.3802,1242.0
1607020839.3816,-9.0
1607020839.3822,-762.0
1607020839.3836,-263.0
1607020839.3856,133.0
1607020839.3876,-47.0
1607020839.3896,-73.0
1607020839.3916,57.0
1607020839.3936,35.0
1607020839.3956,4.0
1607020839.3977,54.0
1607020839.3997,73.0
1607020839.4016,68.0
1607020839.4036,87.0
1607020839.4056,106.0
1607020839.4076,121.0
1607020839.4096,137.0
1607020839.4116,152.0
1607020839.4122,166.0
1607020839.4136,187.0
1607020839.4157,206.0
1607020839.4177,228.0
1607020839.4196,254.0
1607020839.4216,278.0
1607020839.4236,301.0
1607020839.4257,320.0
1607020839.4277,337.0
1607020839.4297,354.0
1607020839.4317,363.0
1607020839.4336,356.0
1607020839.4357,330.0
1607020839.4377,299.0
1607020839.4396,254.0
1607020839.4416,182.0
1607020839.4423,90.0
1607020839.4436,0.0
1607020839.4455,-68.0
1607020839.4476,-118.0
1607020839.4496,-156.0
1607020839.4517,-178.0
1607020839.8914,-175.0
1607020839.8923,-171.0
1607020839.8948,-168.0
1607020839.8975,-161.0
1607020839.8994,-147.0
1607020839.9014,-149.0
1607020839.9038,-144.0
1607020839.9054,-128.0
1607020839.9074,-116.0
1607020839.9093,-114.0
1607020839.91,-104.0
1607020839.9113,-99.0
1607020839.9134,-97.0
1607020839.9153,-92.0
1607020839.9174,-80.0
1607020839.9193,-71.0
1607020839.9213,-71.0
1607020839.9233,-73.0
1607020839.9253,-64.0
1607020839.9273,-57.0
1607020839.9293,-59.0
1607020839.9314,-57.0
1607020839.9333,-52.0
1607020839.9353,-47.0
1607020839.9373,-49.0
1607020839.9393,-49.0
1607020839.94,-47.0
1607020839.9413,-45.0
1607020839.9433,-45.0
1607020839.9453,-45.0
1607020839.9474,-38.0
1607020839.9493,-40.0
1607020839.9513,-45.0
1607020839.9533,-45.0
1607020839.9553,-38.0
1607020839.9573,-35.0
1607020839.9593,-33.0
1607020839.9613,-28.0
1607020839.9633,-28.0
1607020839.9654,-28.0
1607020839.9674,-26.0
1607020839.9693,-23.0
1607020839.97,-23.0
1607020839.9714,-26.0
1607020839.9733,-26.0
1607020839.9753,-21.0
1607020839.9773,-19.0
1607020839.9793,-21.0
1607020839.9813,-28.0
1607020839.9833,-28.0
1607020839.9853,-21.0
1607020839.9873,-14.0
1607020839.9893,9.0
1607020839.9913,45.0
1607020839.9933,61.0
1607020839.9953,54.0
1607020839.9973,35.0
1607020839.9994,11.0
1607020839.9999,-2.0
1607020840.0013,-9.0
1607020840.0033,-9.0
1607020840.0053,-2.0
1607020840.0073,0.0
1607020840.0093,-2.0
1607020840.0113,-2.0
1607020840.0133,4.0
1607020840.0153,7.0
1607020840.0174,-9.0
1607020840.0194,-71.0
1607020840.0214,-125.0
1607020840.0233,-4.0
1607020840.0253,441.0
1607020840.0273,1138.0
1607020840.4919,1482.0
1607020840.4928,655.0
1607020840.4953,-624.0
1607020840.498,-698.0
1607020840.4999,-45.0
1607020840.5019,45.0
1607020840.5041,-104.0
1607020840.5059,-19.0
1607020840.5079,35.0
1607020840.5099,-7.0
1607020840.5119,14.0
1607020840.5139,54.0
1607020840.5159,52.0
1607020840.5179,59.0
1607020840.5187,80.0
1607020840.5209,92.0
1607020840.5228,106.0
1607020840.5248,128.0
1607020840.5268,147.0
1607020840.5288,163.0
1607020840.5308,185.0
1607020840.5328,206.0
1607020840.5348,228.0
1607020840.5368,254.0
1607020840.5388,280.0
1607020840.5408,304.0
1607020840.5428,325.0
1607020840.5448,339.0
1607020840.5468,349.0
1607020840.5489,346.0
1607020840.5495,332.0
1607020840.5508,308.0
1607020840.5528,263.0
1607020840.5548,192.0
1607020840.5568,102.0
1607020840.559,7.0
1607020840.5609,-73.0
1607020840.5628,-130.0
1607020840.5648,-168.0
1607020840.567,-190.0
1607020840.5688,-199.0
1607020840.5708,-199.0
1607020840.5728,-192.0
1607020840.5749,-180.0
1607020840.5769,-171.0
1607020840.5775,-161.0
1607020840.5788,-152.0
1607020840.5808,-142.0
1607020840.5828,-135.0
1607020840.5848,-130.0
1607020840.5869,-121.0
1607020840.5888,-111.0
1607020840.5908,-106.0
1607020840.5928,-99.0
1607020840.5948,-92.0
1607020840.5968,-87.0
1607020840.5988,-85.0
1607020840.6008,-83.0
1607020840.6029,-78.0
1607020840.6048,-76.0
1607020840.6068,-71.0
1607020840.6075,-71.0
1607020840.6088,-68.0
1607020840.6108,-66.0
1607020840.6128,-64.0
1607020840.6148,-61.0
1607020840.6169,-64.0
1607020840.6188,-61.0
1607020840.6208,-57.0
1607020840.6228,-57.0
1607020840.6248,-54.0
1607020840.6269,-47.0
1607020840.6288,-45.0
1607020841.0316,-42.0
1607020841.0325,-38.0
1607020841.0342,-38.0
1607020841.0367,-38.0
1607020841.0386,-33.0
1607020841.0406,-28.0
1607020841.0426,-28.0
1607020841.0446,-28.0
1607020841.0466,-26.0
1607020841.0485,-21.0
1607020841.0505,-21.0
1607020841.0525,-30.0
1607020841.0545,-35.0
1607020841.0568,-35.0
1607020841.0585,-38.0
1607020841.0605,-35.0
1607020841.0625,-26.0
1607020841.0645,-2.0
1607020841.0652,33.0
1607020841.0665,52.0
1607020841.0687,47.0
1607020841.0705,35.0
1607020841.0725,21.0
1607020841.0745,0.0
1607020841.0766,-11.0
1607020841.0786,-14.0
1607020841.0805,-11.0
1607020841.0825,-9.0
1607020841.0845,-4.0
1607020841.0866,-4.0
1607020841.0885,-2.0
1607020841.0905,0.0
1607020841.0925,-14.0
1607020841.0945,-73.0
1607020841.0952,-140.0
1607020841.0965,-54.0
1607020841.0985,339.0
1607020841.1005,1047.0
1607020841.1025,1530.0
1607020841.1045,850.0
1607020841.1065,-444.0
1607020841.1085,-634.0
1607020841.1106,-28.0
1607020841.1125,52.0
1607020841.1145,-121.0
1607020841.1166,-33.0
1607020841.1185,30.0
1607020841.1205,-19.0
1607020841.1225,2.0
1607020841.1245,45.0
1607020841.1252,40.0
1607020841.1265,49.0
1607020841.1285,78.0
1607020841.1305,87.0
1607020841.1325,97.0
1607020841.1345,116.0
1607020841.1365,133.0
1607020841.1385,147.0
1607020841.1405,166.0
1607020841.1425,192.0
1607020841.1445,218.0
1607020841.1465,240.0
1607020841.1485,263.0
1607020841.1505,287.0
1607020841.1527,313.0
1607020841.1546,330.0
1607020841.1552,339.0
1607020841.1565,342.0
1607020841.1585,332.0
1607020841.1605,308.0
1607020841.1625,266.0
1607020841.1645,204.0
1607020841.1665,118.0
1607020841.6019,21.0
1607020841.6029,-61.0
1607020841.6053,-118.0
1607020841.6081,-156.0
1607020841.61,-180.0
1607020841.612,-192.0
1607020841.614,-190.0
1607020841.616,-187.0
1607020841.6179,-187.0
1607020841.6186,-182.0
1607020841.6199,-166.0
1607020841.6219,-149.0
1607020841.6239,-144.0
1607020841.6259,-137.0
1607020841.6279,-125.0
1607020841.6299,-116.0
1607020841.6319,-111.0
1607020841.6339,-104.0
1607020841.6359,-95.0
1607020841.638,-90.0
1607020841.6399,-87.0
1607020841.6419,-83.0
1607020841.6439,-76.0
1607020841.6459,-73.0
1607020841.6479,-73.0
1607020841.6486,-71.0
1607020841.6499,-66.0
1607020841.6519,-64.0
1607020841.6526,-64.0
1607020841.6549,-59.0
1607020841.6569,-54.0
1607020841.6589,-54.0
1607020841.6611,-54.0
1607020841.6629,-54.0
1607020841.6649,-54.0
1607020841.6669,-52.0
1607020841.6689,-47.0
1607020841.6708,-47.0
1607020841.6729,-42.0
1607020841.6748,-35.0
1607020841.6755,-35.0
1607020841.6769,-35.0
1607020841.679,-28.0
1607020841.681,-26.0
1607020841.6829,-26.0
1607020841.6849,-28.0
1607020841.6869,-28.0
1607020841.6888,-33.0
1607020841.6908,-33.0
1607020841.6929,-30.0
1607020841.6948,-23.0
1607020841.6969,0.0
1607020841.6988,35.0
1607020841.7009,57.0
1607020841.7029,47.0
1607020841.7049,33.0
1607020841.7055,21.0
1607020841.7069,2.0
1607020841.7089,-9.0
1607020841.7109,-7.0
1607020841.7129,-2.0
1607020841.7149,-4.0
1607020841.717,-4.0
1607020841.7189,0.0
1607020841.721,4.0
1607020841.7229,4.0
1607020841.725,-11.0
1607020841.727,-73.0
1607020841.7289,-130.0
1607020841.7308,-9.0
1607020841.7329,413.0
1607020841.7348,1104.0
1607020841.7355,1497.0
1607020842.1417,727.0
1607020842.1425,-520.0
1607020842.1449,-608.0
1607020842.1466,7.0
1607020842.1485,64.0
1607020842.1505,-99.0
1607020842.1525,-11.0
1607020842.1545,42.0
1607020842.1566,-4.0
1607020842.1585,9.0
1607020842.1606,42.0
1607020842.1625,42.0
1607020842.1632,54.0
1607020842.1646,76.0
1607020842.1666,90.0
1607020842.1685,106.0
1607020842.1706,125.0
1607020842.1725,137.0
1607020842.1745,152.0
1607020842.1765,180.0
1607020842.1788,206.0
1607020842.1806,225.0
1607020842.1825,251.0
1607020842.1845,280.0
1607020842.1866,301.0
1607020842.1885,318.0
1607020842.1905,332.0
1607020842.1925,344.0
1607020842.1931,344.0
1607020842.1945,330.0
1607020842.1965,306.0
1607020842.1985,273.0
1607020842.2005,211.0
1607020842.2025,121.0
1607020842.2045,21.0
1607020842.2065,-59.0
1607020842.2085,-116.0
1607020842.2105,-152.0
1607020842.2125,-175.0
1607020842.2145,-190.0
1607020842.2165,-190.0
1607020842.2185,-180.0
1607020842.2205,-171.0
1607020842.2225,-156.0
1607020842.2231,-152.0
1607020842.2245,-140.0
1607020842.2265,-121.0
1607020842.2285,-118.0
1607020842.2305,-116.0
1607020842.2325,-102.0
1607020842.2345,-90.0
1607020842.2365,-90.0
1607020842.2385,-87.0
1607020842.2405,-78.0
1607020842.2425,-71.0
1607020842.2445,-66.0
1607020842.2465,-59.0
1607020842.2485,-54.0
1607020842.2505,-49.0
1607020842.2525,-45.0
1607020842.2531,-47.0
1607020842.2545,-49.0
1607020842.2565,-45.0
1607020842.2585,-42.0
1607020842.2605,-42.0
1607020842.2625,-40.0
1607020842.2645,-33.0
1607020842.2665,-30.0
1607020842.2685,-28.0
1607020842.2705,-30.0
1607020842.2725,-33.0
1607020842.2747,-35.0
1607020842.2765,-33.0
1607020842.6815,-28.0
1607020842.6825,-30.0
1607020842.6849,-33.0
1607020842.686,-33.0
1607020842.6875,-28.0
1607020842.6895,-28.0
1607020842.6915,-30.0
1607020842.6936,-23.0
1607020842.6955,14.0
1607020842.6976,47.0
1607020842.6995,45.0
1607020842.7015,35.0
1607020842.7035,23.0
1607020842.7056,0.0
1607020842.7076,-14.0
1607020842.7095,-11.0
1607020842.7115,-9.0
1607020842.7135,-9.0
1607020842.7155,-4.0
1607020842.7161,-4.0
1607020842.7175,-9.0
1607020842.7195,-7.0
1607020842.7216,-4.0
1607020842.7235,-38.0
1607020842.7255,-109.0
1607020842.7274,-104.0
1607020842.7295,161.0
1607020842.7315,755.0
1607020842.7334,1397.0
1607020842.7355,1257.0
1607020842.7375,9.0
1607020842.7395,-891.0
1607020842.7415,-463.0
1607020842.7435,59.0
1607020842.7455,-23.0
1607020842.7461,-71.0
1607020842.7474,38.0
1607020842.7494,35.0
1607020842.7514,11.0
1607020842.7534,54.0
1607020842.7554,71.0
1607020842.7575,66.0
1607020842.7594,83.0
1607020842.7614,104.0
1607020842.7634,116.0
1607020842.7654,130.0
1607020842.7675,149.0
1607020842.7694,168.0
1607020842.7714,192.0
1607020842.7736,211.0
1607020842.7755,232.0
1607020842.7762,256.0
1607020842.7774,282.0
1607020842.7794,304.0
1607020842.7814,327.0
1607020842.7834,351.0
1607020842.7854,365.0
1607020842.7875,365.0
1607020842.7894,358.0
1607020842.7914,342.0
1607020842.7934,308.0
1607020842.7954,249.0
1607020842.7975,161.0
1607020842.7995,61.0
1607020842.8014,-30.0
1607020842.8034,-99.0
1607020842.8054,-147.0
1607020842.8061,-178.0
1607020842.8074,-192.0
1607020842.8094,-197.0
1607020842.8114,-192.0
1607020842.8134,-182.0
1607020842.8154,-168.0
1607020843.2515,-154.0
1607020843.2525,-144.0
1607020843.2549,-137.0
1607020843.2567,-130.0
1607020843.2587,-128.0
1607020843.2606,-123.0
1607020843.2626,-111.0
1607020843.2646,-104.0
1607020843.2652,-99.0
1607020843.2666,-92.0
1607020843.2685,-85.0
1607020843.2705,-80.0
1607020843.2725,-78.0
1607020843.2745,-76.0
1607020843.2766,-71.0
1607020843.2785,-68.0
1607020843.2805,-68.0
1607020843.2825,-64.0
1607020843.2845,-59.0
1607020843.2865,-59.0
1607020843.2885,-59.0
1607020843.2905,-61.0
1607020843.2925,-59.0
1607020843.2945,-57.0
1607020843.2951,-57.0
1607020843.2965,-54.0
1607020843.2985,-47.0
1607020843.3007,-45.0
1607020843.3025,-45.0
1607020843.3045,-42.0
1607020843.3065,-40.0
1607020843.3085,-40.0
1607020843.3105,-40.0
1607020843.3125,-40.0
1607020843.3145,-42.0
1607020843.3165,-42.0
1607020843.3185,-38.0
1607020843.3204,-21.0
1607020843.3225,11.0
1607020843.3231,40.0
1607020843.3245,45.0
1607020843.3265,35.0
1607020843.3285,19.0
1607020843.3305,-2.0
1607020843.3325,-16.0
1607020843.3345,-19.0
1607020843.3365,-21.0
1607020843.3385,-23.0
1607020843.3405,-23.0
1607020843.3425,-21.0
1607020843.3445,-19.0
1607020843.3464,-14.0
1607020843.3485,-16.0
1607020843.3504,-52.0
1607020843.3525,-130.0
1607020843.3531,-147.0
1607020843.3545,73.0
1607020843.3565,646.0
1607020843.3584,1380.0
1607020843.3605,1402.0
1607020843.3625,211.0
1607020843.3645,-755.0
1607020843.3665,-396.0
1607020843.3685,78.0
1607020843.3705,-57.0
1607020843.3725,-114.0
1607020843.3745,9.0
1607020843.3765,0.0
1607020843.3785,-28.0
1607020843.3805,19.0
1607020843.3826,35.0
1607020843.3831,30.0
1607020843.3845,54.0
1607020843.8516,76.0
1607020843.8525,83.0
1607020843.8552,95.0
1607020843.8576,116.0
1607020843.8596,128.0
1607020843.8619,137.0
1607020843.8637,156.0
1607020843.8657,182.0
1607020843.8676,209.0
1607020843.8696,232.0
1607020843.8716,261.0
1607020843.8737,287.0
1607020843.8756,306.0
1607020843.8764,316.0
1607020843.8776,323.0
1607020843.8796,323.0
1607020843.8816,306.0
1607020843.8836,270.0
1607020843.8856,216.0
1607020843.8876,144.0
1607020843.8896,52.0
1607020843.8916,-38.0
1607020843.8936,-106.0
1607020843.8956,-152.0
1607020843.8976,-180.0
1607020843.8996,-197.0
1607020843.9015,-197.0
1607020843.9036,-190.0
1607020843.9055,-185.0
1607020843.9062,-175.0
1607020843.9076,-161.0
1607020843.9096,-147.0
1607020843.9115,-140.0
1607020843.9135,-130.0
1607020843.9155,-121.0
1607020843.9176,-114.0
1607020843.9195,-106.0
1607020843.9215,-99.0
1607020843.9235,-90.0
1607020843.9255,-85.0
1607020843.9276,-80.0
1607020843.9295,-76.0
1607020843.9316,-68.0
1607020843.9335,-61.0
1607020843.9355,-61.0
1607020843.9362,-61.0
1607020843.9375,-57.0
1607020843.9395,-52.0
1607020843.9415,-49.0
1607020843.9435,-47.0
1607020843.9455,-47.0
1607020843.9475,-45.0
1607020843.9495,-40.0
1607020843.9515,-38.0
1607020843.9535,-35.0
1607020843.9555,-33.0
1607020843.9577,-33.0
1607020843.9596,-30.0
1607020843.9615,-26.0
1607020843.9635,-23.0
1607020843.9655,-21.0
1607020843.9662,-19.0
1607020843.9675,-16.0
1607020843.9695,-19.0
1607020843.9715,-26.0
1607020843.9735,-26.0
1607020843.9755,-26.0
1607020843.9775,-28.0
1607020843.9795,-28.0
1607020843.9815,-28.0
1607020843.9835,-16.0
1607020843.9855,19.0
1607020843.9876,49.0
1607020844.3918,52.0
1607020844.3928,40.0
1607020844.3944,26.0
1607020844.3969,7.0
1607020844.3988,-7.0
1607020844.4008,-9.0
1607020844.4028,-7.0
1607020844.4049,-7.0
1607020844.4069,-4.0
1607020844.4088,-7.0
1607020844.4108,-11.0
1607020844.4128,-14.0
1607020844.4148,-14.0
1607020844.4169,-57.0
1607020844.4188,-142.0
1607020844.4208,-140.0
1607020844.4228,128.0
1607020844.4248,746.0
1607020844.4254,1442.0
1607020844.4268,1290.0
1607020844.4288,28.0
1607020844.4308,-746.0
1607020844.4328,-287.0
1607020844.4349,87.0
1607020844.4369,-80.0
1607020844.4389,-99.0
1607020844.4409,16.0
1607020844.4429,-4.0
1607020844.4449,-21.0
1607020844.4469,23.0
1607020844.4488,35.0
1607020844.4508,33.0
1607020844.4528,57.0
1607020844.4547,71.0
1607020844.4555,80.0
1607020844.4568,97.0
1607020844.4588,114.0
1607020844.4608,128.0
1607020844.4629,147.0
1607020844.4648,171.0
1607020844.4668,194.0
1607020844.4688,218.0
1607020844.4707,242.0
1607020844.4727,268.0
1607020844.4748,294.0
1607020844.4768,308.0
1607020844.4788,323.0
1607020844.4808,330.0
1607020844.4828,327.0
1607020844.4848,308.0
1607020844.4854,275.0
1607020844.4868,223.0
1607020844.4888,149.0
1607020844.4907,57.0
1607020844.4927,-30.0
1607020844.4947,-97.0
1607020844.4968,-142.0
1607020844.4988,-168.0
1607020844.5008,-180.0
1607020844.5028,-185.0
1607020844.5048,-180.0
1607020844.5068,-173.0
1607020844.5088,-168.0
1607020844.5107,-159.0
1607020844.5128,-147.0
1607020844.5148,-137.0
1607020844.5154,-130.0
1607020844.5167,-123.0
1607020844.5187,-118.0
1607020844.5208,-109.0
1607020844.5228,-99.0
1607020844.5248,-92.0
1607020844.5268,-85.0
1607020844.963,-80.0
1607020844.9639,-76.0
1607020844.9653,-68.0
1607020844.9672,-64.0
1607020844.9692,-61.0
1607020844.9712,-57.0
1607020844.9732,-54.0
1607020844.9739,-61.0
1607020844.9752,-64.0
1607020844.9771,-57.0
1607020844.9791,-52.0
1607020844.9811,-54.0
1607020844.9835,-49.0
1607020844.9852,-47.0
1607020844.9871,-47.0
1607020844.9891,-42.0
1607020844.9911,-40.0
1607020844.9931,-35.0
1607020844.9952,-30.0
1607020844.9971,-30.0
1607020844.9991,-28.0
1607020845.0011,-26.0
1607020845.0031,-23.0
1607020845.0037,-21.0
1607020845.0051,-19.0
1607020845.0071,-16.0
1607020845.0091,-19.0
1607020845.0111,-16.0
1607020845.0131,-16.0
1607020845.0151,-16.0
1607020845.0171,-14.0
1607020845.0191,-11.0
1607020845.0211,-11.0
1607020845.0231,-11.0
1607020845.0251,-14.0
1607020845.0271,-14.0
1607020845.0291,-14.0
1607020845.0312,-11.0
1607020845.0331,-4.0
1607020845.0337,28.0
1607020845.0352,61.0
1607020845.0372,68.0
1607020845.0391,57.0
1607020845.0412,42.0
1607020845.0431,23.0
1607020845.0451,7.0
1607020845.0472,2.0
1607020845.0493,7.0
1607020845.0524,9.0
1607020845.0542,2.0
1607020845.0562,0.0
1607020845.0582,2.0
1607020845.0602,2.0
1607020845.0622,2.0
1607020845.0642,-23.0
1607020845.0648,-102.0
1607020845.0662,-147.0
1607020845.0683,28.0
1607020845.0702,534.0
1607020845.0722,1240.0
1607020845.0742,1411.0
1607020845.0762,392.0
1607020845.0782,-677.0
1607020845.0804,-477.0
1607020845.0822,57.0
1607020845.0842,-11.0
1607020845.0863,-111.0
1607020845.0885,2.0
1607020845.0901,19.0
1607020845.0921,-19.0
1607020845.0943,21.0
1607020845.0951,47.0
1607020845.0961,40.0
1607020845.5015,57.0
1607020845.502,76.0
1607020845.5042,83.0
1607020845.5069,99.0
1607020845.509,118.0
1607020845.511,133.0
1607020845.513,152.0
1607020845.515,175.0
1607020845.517,190.0
1607020845.5189,201.0
1607020845.5209,228.0
1607020845.5229,256.0
1607020845.5249,280.0
1607020845.527,301.0
1607020845.5289,316.0
1607020845.5296,323.0
1607020845.5309,323.0
1607020845.5329,313.0
1607020845.5349,289.0
1607020845.537,249.0
1607020845.5389,185.0
1607020845.5409,99.0
1607020845.5429,7.0
1607020845.545,-68.0
1607020845.547,-125.0
1607020845.5489,-163.0
1607020845.5509,-182.0
1607020845.5529,-185.0
1607020845.5549,-173.0
1607020845.557,-166.0
1607020845.5589,-163.0
1607020845.5596,-149.0
1607020845.561,-137.0
1607020845.563,-128.0
1607020845.5649,-118.0
1607020845.567,-111.0
1607020845.5689,-104.0
1607020845.5709,-99.0
1607020845.5729,-92.0
1607020845.5749,-83.0
1607020845.577,-76.0
1607020845.5791,-66.0
1607020845.581,-57.0
1607020845.5829,-52.0
1607020845.5849,-54.0
1607020845.587,-52.0
1607020845.5889,-47.0
1607020845.5895,-49.0
1607020845.5909,-52.0
1607020845.5929,-49.0
1607020845.5949,-47.0
1607020845.597,-47.0
1607020845.599,-47.0
1607020845.6009,-45.0
1607020845.6029,-42.0
1607020845.6049,-40.0
1607020845.607,-35.0
1607020845.6089,-33.0
1607020845.6109,-33.0
1607020845.613,-30.0
1607020845.615,-26.0
1607020845.617,-23.0
1607020845.6189,-26.0
1607020845.6196,-26.0
1607020845.6209,-19.0
1607020845.6229,-14.0
1607020845.6249,-16.0
1607020845.627,-16.0
1607020845.6289,-11.0
1607020845.6309,-9.0
1607020845.633,-9.0
1607020845.6351,-9.0
1607020845.637,-7.0
1607020846.0717,-4.0
1607020846.0723,-2.0
1607020846.0746,-4.0
1607020846.0763,-2.0
1607020846.0783,-2.0
1607020846.0803,-11.0
1607020846.0822,-16.0
1607020846.0843,-11.0
1607020846.0863,-9.0
1607020846.0883,-9.0
1607020846.0902,14.0
1607020846.0923,47.0
1607020846.0929,57.0
1607020846.0943,47.0
1607020846.0963,33.0
1607020846.0983,16.0
1607020846.1003,-2.0
1607020846.1022,-11.0
1607020846.1043,-9.0
1607020846.1065,-4.0
1607020846.1083,-2.0
1607020846.1103,-2.0
1607020846.1123,0.0
1607020846.1143,4.0
1607020846.1163,4.0
1607020846.1182,-11.0
1607020846.1203,-73.0
1607020846.1223,-133.0
1607020846.1229,-26.0
1607020846.1242,384.0
1607020846.1263,1062.0
1607020846.1283,1461.0
1607020846.1302,753.0
1607020846.1323,-482.0
1607020846.1343,-648.0
1607020846.1363,-59.0
1607020846.1383,54.0
1607020846.1403,-85.0
1607020846.1423,-11.0
1607020846.1443,38.0
1607020846.1464,-7.0
1607020846.1484,7.0
1607020846.1503,47.0
1607020846.1523,47.0
1607020846.1529,54.0
1607020846.1542,80.0
1607020846.1564,92.0
1607020846.1583,102.0
1607020846.1602,121.0
1607020846.1623,137.0
1607020846.1643,156.0
1607020846.1663,175.0
1607020846.1683,194.0
1607020846.1702,218.0
1607020846.1722,244.0
1607020846.1743,268.0
1607020846.1763,287.0
1607020846.1782,308.0
1607020846.1803,330.0
1607020846.1823,339.0
1607020846.1829,339.0
1607020846.1842,335.0
1607020846.1863,318.0
1607020846.1883,285.0
1607020846.1902,225.0
1607020846.1923,142.0
1607020846.1942,52.0
1607020846.1963,-28.0
1607020846.1982,-87.0
1607020846.2002,-133.0
1607020846.2024,-161.0
1607020846.2043,-173.0
1607020846.2063,-175.0
1607020846.6116,-173.0
1607020846.6125,-163.0
1607020846.6149,-154.0
1607020846.616,-147.0
1607020846.6176,-137.0
1607020846.6196,-130.0
1607020846.6216,-123.0
1607020846.6237,-116.0
1607020846.6255,-109.0
1607020846.6276,-104.0
1607020846.6296,-97.0
1607020846.6316,-90.0
1607020846.6336,-85.0
1607020846.6356,-78.0
1607020846.6375,-71.0
1607020846.6395,-68.0
1607020846.6415,-66.0
1607020846.6435,-64.0
1607020846.6455,-61.0
1607020846.6462,-59.0
1607020846.6475,-57.0
1607020846.6495,-57.0
1607020846.6515,-54.0
1607020846.6535,-49.0
1607020846.6555,-47.0
1607020846.6576,-45.0
1607020846.6596,-40.0
1607020846.6615,-40.0
1607020846.6636,-40.0
1607020846.6655,-38.0
1607020846.6675,-38.0
1607020846.6695,-35.0
1607020846.6715,-30.0
1607020846.6735,-26.0
1607020846.6755,-28.0
1607020846.6762,-30.0
1607020846.6775,-28.0
1607020846.6795,-21.0
1607020846.6815,-14.0
1607020846.6835,-16.0
1607020846.6855,-19.0
1607020846.6875,-16.0
1607020846.6895,-14.0
1607020846.6915,-11.0
1607020846.6935,-7.0
1607020846.6955,-7.0
1607020846.6975,-9.0
1607020846.6995,-7.0
1607020846.7017,-4.0
1607020846.7035,-4.0
1607020846.7055,-4.0
1607020846.7062,-7.0
1607020846.7075,-7.0
1607020846.7095,-4.0
1607020846.7115,11.0
1607020846.7134,49.0
1607020846.7155,76.0
1607020846.7175,78.0
1607020846.7196,66.0
1607020846.7216,47.0
1607020846.7235,26.0
1607020846.7256,14.0
1607020846.7276,14.0
1607020846.7295,14.0
1607020846.7315,9.0
1607020846.7335,11.0
1607020846.7355,19.0
1607020846.7361,21.0
1607020846.7375,23.0
1607020846.7395,21.0
1607020846.7415,-11.0
1607020846.7435,-83.0
1607020846.7455,-85.0
1607020847.2123,166.0
1607020847.2131,746.0
1607020847.2148,1397.0
1607020847.2169,1276.0
1607020847.2188,57.0
1607020847.2194,-796.0
1607020847.2208,-382.0
1607020847.2228,85.0
1607020847.2248,-14.0
1607020847.2268,-59.0
1607020847.2289,40.0
1607020847.2308,35.0
1607020847.2328,19.0
1607020847.2348,57.0
1607020847.2368,73.0
1607020847.2387,76.0
1607020847.2407,92.0
1607020847.2427,106.0
1607020847.2447,123.0
1607020847.2468,142.0
1607020847.2487,156.0
1607020847.2494,166.0
1607020847.2507,187.0
1607020847.2527,211.0
1607020847.2547,230.0
1607020847.2567,251.0
1607020847.2589,270.0
1607020847.2608,294.0
1607020847.2628,320.0
1607020847.2647,344.0
1607020847.2668,361.0
1607020847.2687,365.0
1607020847.2707,368.0
1607020847.2727,363.0
1607020847.2747,332.0
1607020847.2768,278.0
1607020847.2788,211.0
1607020847.2793,123.0
1607020847.2807,21.0
1607020847.2827,-61.0
1607020847.2847,-116.0
1607020847.2868,-147.0
1607020847.2887,-166.0
1607020847.2907,-182.0
1607020847.2927,-182.0
1607020847.2948,-171.0
1607020847.2968,-163.0
1607020847.2987,-156.0
1607020847.3007,-144.0
1607020847.3027,-130.0
1607020847.3047,-118.0
1607020847.3068,-114.0
1607020847.3088,-111.0
1607020847.3093,-97.0
1607020847.3107,-85.0
1607020847.3128,-87.0
1607020847.3147,-85.0
1607020847.3168,-71.0
1607020847.3187,-64.0
1607020847.3207,-64.0
1607020847.3227,-61.0
1607020847.3247,-57.0
1607020847.3268,-57.0
1607020847.3288,-59.0
1607020847.3308,-52.0
1607020847.3327,-38.0
1607020847.3347,-35.0
1607020847.3368,-40.0
1607020847.3387,-40.0
1607020847.3393,-40.0
1607020847.3407,-42.0
1607020847.3427,-45.0
1607020847.3448,-40.0
1607020847.7815,-35.0
1607020847.7824,-38.0
1607020847.7849,-38.0
1607020847.7876,-28.0
1607020847.7898,-28.0
1607020847.7915,-38.0
1607020847.7936,-33.0
1607020847.7955,-21.0
1607020847.7974,-21.0
1607020847.7994,-33.0
1607020847.8015,-35.0
1607020847.8034,-26.0
1607020847.8041,-23.0
1607020847.8054,-28.0
1607020847.8074,-30.0
1607020847.8094,-35.0
1607020847.8115,-35.0
1607020847.8135,-30.0
1607020847.8154,-33.0
1607020847.8174,-21.0
1607020847.8194,19.0
1607020847.8214,40.0
1607020847.8234,33.0
1607020847.8254,30.0
1607020847.8275,26.0
1607020847.8294,2.0
1607020847.8314,-9.0
1607020847.8334,-2.0
1607020847.834,-9.0
1607020847.8354,-14.0
1607020847.8375,-2.0
1607020847.8394,0.0
1607020847.8414,-2.0
1607020847.8434,4.0
1607020847.8454,2.0
1607020847.8474,-38.0
1607020847.8494,-106.0
1607020847.8514,-97.0
1607020847.8534,168.0
1607020847.8554,774.0
1607020847.8574,1447.0
1607020847.8594,1342.0
1607020847.8615,71.0
1607020847.8635,-910.0
1607020847.864,-525.0
1607020847.8655,21.0
1607020847.8675,-33.0
1607020847.8694,-76.0
1607020847.8714,30.0
1607020847.872,26.0
1607020847.8744,2.0
1607020847.8765,45.0
1607020847.8784,66.0
1607020847.8804,59.0
1607020847.8824,76.0
1607020847.8846,95.0
1607020847.8865,102.0
1607020847.8884,121.0
1607020847.8904,142.0
1607020847.891,159.0
1607020847.8924,178.0
1607020847.8945,199.0
1607020847.8964,220.0
1607020847.8985,242.0
1607020847.9004,273.0
1607020847.9024,308.0
1607020847.9044,335.0
1607020847.9065,351.0
1607020847.9084,368.0
1607020847.9104,382.0
1607020847.9124,380.0
1607020847.9144,365.0
1607020847.9164,335.0
1607020848.3219,275.0
1607020848.3228,194.0
1607020848.3253,97.0
1607020848.328,2.0
1607020848.3299,-85.0
1607020848.3319,-149.0
1607020848.334,-182.0
1607020848.3359,-199.0
1607020848.3379,-213.0
1607020848.3398,-220.0
1607020848.3418,-220.0
1607020848.3438,-218.0
1607020848.3459,-206.0
1607020848.3479,-187.0
1607020848.3498,-175.0
1607020848.352,-166.0
1607020848.3529,-154.0
1607020848.3539,-142.0
1607020848.3558,-135.0
1607020848.3578,-130.0
1607020848.3598,-116.0
1607020848.3618,-111.0
1607020848.3638,-111.0
1607020848.3658,-104.0
1607020848.3678,-95.0
1607020848.3698,-87.0
1607020848.3718,-85.0
1607020848.3738,-83.0
1607020848.3758,-80.0
1607020848.3779,-80.0
1607020848.3799,-80.0
1607020848.3804,-78.0
1607020848.3818,-78.0
1607020848.384,-78.0
1607020848.3859,-76.0
1607020848.3878,-73.0
1607020848.3898,-71.0
1607020848.3918,-73.0
1607020848.3938,-71.0
1607020848.3958,-64.0
1607020848.3978,-59.0
1607020848.3998,-59.0
1607020848.4018,-59.0
1607020848.4038,-57.0
1607020848.4058,-57.0
1607020848.4078,-59.0
1607020848.4098,-59.0
1607020848.4104,-59.0
1607020848.4118,-49.0
1607020848.4138,-21.0
1607020848.4158,16.0
1607020848.4178,33.0
1607020848.4198,21.0
1607020848.4218,4.0
1607020848.4238,-7.0
1607020848.4258,-23.0
1607020848.4278,-33.0
1607020848.4298,-33.0
1607020848.4318,-30.0
1607020848.4338,-28.0
1607020848.4358,-28.0
1607020848.4378,-28.0
1607020848.4398,-21.0
1607020848.4404,-14.0
1607020848.4418,-30.0
1607020848.4438,-97.0
1607020848.4458,-178.0
1607020848.4478,-114.0
1607020848.4498,273.0
1607020848.4518,1019.0
1607020848.4538,1630.0
1607020848.4558,1074.0
1607020848.4578,-330.0
1607020848.862,-729.0
1607020848.8632,-121.0
1607020848.8656,42.0
1607020848.8673,-149.0
1607020848.8692,-83.0
1607020848.8699,2.0
1607020848.8712,-42.0
1607020848.8733,-38.0
1607020848.8752,2.0
1607020848.8772,4.0
1607020848.8792,14.0
1607020848.8814,35.0
1607020848.8832,49.0
1607020848.8852,66.0
1607020848.8873,87.0
1607020848.8892,104.0
1607020848.8912,123.0
1607020848.8932,144.0
1607020848.8952,166.0
1607020848.8972,190.0
1607020848.8991,220.0
1607020848.8998,249.0
1607020848.9011,278.0
1607020848.9031,304.0
1607020848.9051,327.0
1607020848.9072,344.0
1607020848.9092,349.0
1607020848.9112,344.0
1607020848.9131,318.0
1607020848.9151,273.0
1607020848.9172,209.0
1607020848.9191,121.0
1607020848.9211,21.0
1607020848.9231,-64.0
1607020848.9251,-130.0
1607020848.9272,-175.0
1607020848.9291,-197.0
1607020848.9297,-201.0
1607020848.9311,-204.0
1607020848.9331,-204.0
1607020848.9352,-192.0
1607020848.9372,-180.0
1607020848.9391,-171.0
1607020848.9411,-161.0
1607020848.9431,-149.0
1607020848.9452,-140.0
1607020848.9472,-133.0
1607020848.9492,-128.0
1607020848.9511,-118.0
1607020848.9531,-106.0
1607020848.9551,-104.0
1607020848.9571,-102.0
1607020848.9591,-92.0
1607020848.9597,-87.0
1607020848.9611,-85.0
1607020848.9631,-83.0
1607020848.9651,-76.0
1607020848.9672,-71.0
1607020848.9691,-68.0
1607020848.9711,-68.0
1607020848.9731,-68.0
1607020848.9751,-64.0
1607020848.9773,-61.0
1607020848.9792,-61.0
1607020848.9811,-57.0
1607020848.9831,-57.0
1607020848.9851,-59.0
1607020848.9872,-57.0
1607020848.9891,-54.0
1607020848.9897,-54.0
1607020848.9911,-54.0
1607020848.9931,-54.0
1607020848.9951,-54.0
1607020849.4319,-59.0
1607020849.4329,-61.0
1607020849.4353,-54.0
1607020849.438,-52.0
1607020849.4401,-49.0
1607020849.4421,-33.0
1607020849.4442,0.0
1607020849.4459,23.0
1607020849.448,16.0
1607020849.45,0.0
1607020849.4505,-14.0
1607020849.452,-26.0
1607020849.454,-35.0
1607020849.456,-38.0
1607020849.458,-35.0
1607020849.46,-30.0
1607020849.4619,-28.0
1607020849.4639,-23.0
1607020849.4659,-21.0
1607020849.4679,-23.0
1607020849.4698,-35.0
1607020849.4718,-80.0
1607020849.4738,-159.0
1607020849.4759,-137.0
1607020849.4778,171.0
1607020849.4799,838.0
1607020849.4805,1518.0
1607020849.4819,1214.0
1607020849.4839,-121.0
1607020849.4859,-753.0
1607020849.4878,-218.0
1607020849.4898,78.0
1607020849.4918,-102.0
1607020849.4938,-83.0
1607020849.4958,16.0
1607020849.4978,-19.0
1607020849.4998,-19.0
1607020849.5018,33.0
1607020849.5038,40.0
1607020849.5058,40.0
1607020849.508,61.0
1607020849.5099,78.0
1607020849.5104,92.0
1607020849.5119,114.0
1607020849.5138,130.0
1607020849.5158,142.0
1607020849.5178,159.0
1607020849.5198,185.0
1607020849.5218,213.0
1607020849.5238,240.0
1607020849.5258,263.0
1607020849.5278,292.0
1607020849.5298,313.0
1607020849.5318,332.0
1607020849.5338,349.0
1607020849.5358,356.0
1607020849.5379,354.0
1607020849.5398,346.0
1607020849.5404,311.0
1607020849.5418,242.0
1607020849.5438,159.0
1607020849.5458,64.0
1607020849.5478,-28.0
1607020849.5498,-97.0
1607020849.5518,-147.0
1607020849.5538,-178.0
1607020849.5559,-190.0
1607020849.5578,-187.0
1607020849.5599,-182.0
1607020849.5618,-171.0
1607020849.5638,-161.0
1607020849.5658,-156.0
1607020849.5678,-144.0
1607020849.9713,-133.0
1607020849.9719,-121.0
1607020849.9743,-109.0
1607020849.977,-102.0
1607020849.979,-95.0
1607020849.981,-90.0
1607020849.9831,-87.0
1607020849.985,-87.0
1607020849.987,-80.0
1607020849.989,-78.0
1607020849.991,-76.0
1607020849.993,-66.0
1607020849.995,-64.0
1607020849.997,-57.0
1607020849.999,-47.0
1607020849.9996,-54.0
1607020850.001,-54.0
1607020850.003,-42.0
1607020850.0053,-38.0
1607020850.007,-40.0
1607020850.0089,-42.0
1607020850.011,-45.0
1607020850.0129,-40.0
1607020850.0149,-30.0
1607020850.017,-26.0
1607020850.019,-28.0
1607020850.0209,-33.0
1607020850.0229,-28.0
1607020850.0249,-21.0
1607020850.027,-19.0
1607020850.0289,-19.0
1607020850.0295,-21.0
1607020850.0309,-21.0
1607020850.0329,-23.0
1607020850.0349,-19.0
1607020850.0369,0.0
1607020850.0389,28.0
1607020850.0409,54.0
1607020850.0429,61.0
1607020850.0449,54.0
1607020850.047,33.0
1607020850.0489,11.0
1607020850.0509,-2.0
1607020850.0529,-7.0
1607020850.0551,-9.0
1607020850.057,-11.0
1607020850.0589,-7.0
1607020850.0595,-4.0
1607020850.061,-2.0
1607020850.0629,4.0
1607020850.0649,4.0
1607020850.0669,-26.0
1607020850.0689,-104.0
1607020850.0709,-149.0
1607020850.0729,23.0
1607020850.0749,541.0
1607020850.077,1271.0
1607020850.0789,1516.0
1607020850.0809,515.0
1607020850.0829,-741.0
1607020850.0849,-665.0
1607020850.087,-16.0
1607020850.0889,11.0
1607020850.0895,-104.0
1607020850.0909,-2.0
1607020850.0929,26.0
1607020850.095,-9.0
1607020850.097,26.0
1607020850.0989,54.0
1607020850.1011,47.0
1607020850.103,61.0
1607020850.1049,83.0
1607020850.107,92.0
1607020850.6019,109.0
1607020850.6028,123.0
1607020850.6053,137.0
1607020850.6079,152.0
1607020850.6099,168.0
1607020850.6106,197.0
1607020850.6119,225.0
1607020850.614,249.0
1607020850.6159,275.0
1607020850.6179,301.0
1607020850.6199,323.0
1607020850.6219,339.0
1607020850.6239,354.0
1607020850.6259,358.0
1607020850.6278,346.0
1607020850.6298,318.0
1607020850.6318,273.0
1607020850.6338,201.0
1607020850.6358,106.0
1607020850.6378,7.0
1607020850.6398,-73.0
1607020850.6405,-130.0
1607020850.6418,-168.0
1607020850.644,-190.0
1607020850.646,-197.0
1607020850.6479,-194.0
1607020850.6498,-187.0
1607020850.6519,-178.0
1607020850.6538,-168.0
1607020850.6558,-154.0
1607020850.6578,-142.0
1607020850.6598,-133.0
1607020850.6618,-123.0
1607020850.6638,-121.0
1607020850.6658,-116.0
1607020850.6678,-109.0
1607020850.6698,-99.0
1607020850.6704,-95.0
1607020850.6718,-92.0
1607020850.6738,-87.0
1607020850.6758,-80.0
1607020850.6778,-76.0
1607020850.6798,-73.0
1607020850.6818,-66.0
1607020850.6838,-66.0
1607020850.6858,-73.0
1607020850.6878,-73.0
1607020850.69,-64.0
1607020850.6918,-59.0
1607020850.6938,-61.0
1607020850.6958,-64.0
1607020850.6978,-59.0
1607020850.6998,-49.0
1607020850.7004,-49.0
1607020850.7018,-47.0
1607020850.7038,-40.0
1607020850.7058,-38.0
1607020850.7078,-40.0
1607020850.7098,-38.0
1607020850.7118,-30.0
1607020850.7138,-28.0
1607020850.7158,-26.0
1607020850.7178,-26.0
1607020850.7198,-26.0
1607020850.7218,-26.0
1607020850.7238,-30.0
1607020850.7258,-33.0
1607020850.7278,-35.0
1607020850.7298,-33.0
1607020850.7304,-14.0
1607020850.7318,21.0
1607020850.7338,45.0
1607020850.7358,45.0
1607020851.1714,35.0
1607020851.1723,23.0
1607020851.1747,4.0
1607020851.1774,-11.0
1607020851.1794,-14.0
1607020851.1814,-9.0
1607020851.1835,-2.0
1607020851.1854,-7.0
1607020851.1874,-14.0
1607020851.1893,-16.0
1607020851.1899,-11.0
1607020851.1913,-11.0
1607020851.1933,-54.0
1607020851.1953,-144.0
1607020851.1974,-173.0
1607020851.1993,35.0
1607020851.2013,603.0
1607020851.2034,1383.0
1607020851.2054,1492.0
1607020851.2074,323.0
1607020851.2093,-729.0
1607020851.2113,-427.0
1607020851.2133,66.0
1607020851.2153,-66.0
1607020851.2173,-137.0
1607020851.2195,-9.0
1607020851.2199,-14.0
1607020851.2213,-42.0
1607020851.2233,7.0
1607020851.2253,23.0
1607020851.2273,19.0
1607020851.2293,42.0
1607020851.2313,61.0
1607020851.2333,71.0
1607020851.2353,90.0
1607020851.2373,109.0
1607020851.2393,123.0
1607020851.2413,144.0
1607020851.2433,163.0
1607020851.2453,180.0
1607020851.2473,206.0
1607020851.2493,235.0
1607020851.2499,261.0
1607020851.2513,287.0
1607020851.2533,311.0
1607020851.2553,327.0
1607020851.2573,342.0
1607020851.2593,344.0
1607020851.2613,327.0
1607020851.2633,299.0
1607020851.2653,251.0
1607020851.2673,178.0
1607020851.2693,90.0
1607020851.2713,-4.0
1607020851.2733,-83.0
1607020851.2753,-133.0
1607020851.2773,-171.0
1607020851.2793,-194.0
1607020851.2799,-194.0
1607020851.2813,-190.0
1607020851.2833,-187.0
1607020851.2853,-178.0
1607020851.2873,-163.0
1607020851.2893,-156.0
1607020851.2913,-144.0
1607020851.2933,-130.0
1607020851.2953,-121.0
1607020851.2973,-116.0
1607020851.2993,-106.0
1607020851.3013,-97.0
1607020851.3033,-95.0
1607020851.3053,-90.0
1607020851.3073,-83.0
1607020851.7417,-78.0
1607020851.7428,-78.0
1607020851.7445,-73.0
1607020851.7466,-66.0
1607020851.7484,-64.0
1607020851.7503,-59.0
1607020851.7523,-57.0
1607020851.7543,-54.0
1607020851.7563,-52.0
1607020851.7583,-59.0
1607020851.7604,-64.0
1607020851.7624,-59.0
1607020851.7643,-54.0
1607020851.7663,-59.0
1607020851.7683,-64.0
1607020851.7704,-59.0
1607020851.7723,-54.0
1607020851.7729,-52.0
1607020851.7743,-49.0
1607020851.7763,-49.0
1607020851.7782,-45.0
1607020851.7802,-40.0
1607020851.7822,-40.0
1607020851.7842,-38.0
1607020851.7863,-30.0
1607020851.7883,-28.0
1607020851.7903,-30.0
1607020851.7923,-33.0
1607020851.7943,-33.0
1607020851.7963,-35.0
1607020851.7982,-38.0
1607020851.8002,-35.0
1607020851.8022,-26.0
1607020851.8028,2.0
1607020851.8042,28.0
1607020851.8063,42.0
1607020851.8082,35.0
1607020851.8102,21.0
1607020851.8122,7.0
1607020851.8142,-7.0
1607020851.8162,-16.0
1607020851.8182,-14.0
1607020851.8202,-14.0
1607020851.8222,-14.0
1607020851.8243,-11.0
1607020851.8264,-9.0
1607020851.8283,0.0
1607020851.8303,2.0
1607020851.8323,-23.0
1607020851.8328,-95.0
1607020851.8342,-154.0
1607020851.8363,-42.0
1607020851.8382,392.0
1607020851.8402,1135.0
1607020851.8424,1580.0
1607020851.8443,791.0
1607020851.8462,-525.0
1607020851.8482,-648.0
1607020851.8502,-33.0
1607020851.8523,26.0
1607020851.8542,-133.0
1607020851.8562,-35.0
1607020851.8582,16.0
1607020851.8602,-30.0
1607020851.8622,-4.0
1607020851.8628,33.0
1607020851.8642,30.0
1607020851.8662,40.0
1607020851.8682,61.0
1607020851.8702,76.0
1607020851.8722,92.0
1607020851.8742,116.0
1607020851.8762,130.0
1607020852.2512,144.0
1607020852.252,163.0
1607020852.2543,180.0
1607020852.2572,206.0
1607020852.259,240.0
1607020852.2596,263.0
1607020852.2611,287.0
1607020852.2631,311.0
1607020852.265,330.0
1607020852.267,337.0
1607020852.269,344.0
1607020852.271,344.0
1607020852.273,325.0
1607020852.275,285.0
1607020852.277,223.0
1607020852.279,133.0
1607020852.281,38.0
1607020852.283,-49.0
1607020852.285,-123.0
1607020852.287,-166.0
1607020852.2876,-190.0
1607020852.289,-199.0
1607020852.291,-197.0
1607020852.2931,-194.0
1607020852.295,-194.0
1607020852.297,-185.0
1607020852.2989,-168.0
1607020852.3009,-159.0
1607020852.3029,-147.0
1607020852.3049,-130.0
1607020852.307,-125.0
1607020852.3089,-123.0
1607020852.3111,-109.0
1607020852.313,-104.0
1607020852.3149,-102.0
1607020852.3169,-92.0
1607020852.3175,-87.0
1607020852.3189,-85.0
1607020852.3209,-78.0
1607020852.3229,-73.0
1607020852.3249,-71.0
1607020852.327,-71.0
1607020852.3289,-71.0
1607020852.3309,-68.0
1607020852.333,-66.0
1607020852.3349,-59.0
1607020852.337,-54.0
1607020852.3389,-59.0
1607020852.3409,-59.0
