Time,ECG
1606922746.8497,-57
1606922746.8525,95
1606922746.8552,945
1606922746.8579,2493
1606922746.8600,3694
1606922746.8620,4328
1606922746.8638,5024
1606922746.8656,5706
1606922746.8676,6165
1606922746.8696,6591
1606922746.8717,7019
1606922746.8740,7357
1606922746.8764,7646
1606922746.8785,7940
1606922746.8810,8204
1606922746.8829,8421
1606922746.8846,8625
1606922746.8866,8821
1606922746.8886,8998
1606922746.8906,9151
1606922746.8926,9302
1606922746.8946,9448
1606922746.8966,9563
1606922746.8986,9670
1606922746.9006,9790
1606922746.9025,9893
1606922746.9045,9984
1606922746.9065,10082
1606922746.9085,10170
1606922746.9105,10264
1606922746.9125,10362
1606922746.9145,10429
1606922746.9165,10460
1606922746.9185,10465
1606922746.9205,10457
1606922746.9224,10481
1606922746.9245,10529
1606922746.9265,10558
1606922746.9285,10572
1606922746.9305,10591
1606922746.9325,10608
1606922746.9345,10620
1606922746.9365,10656
1606922746.9385,10780
1606922746.9405,11218
1606922746.9426,11948
1606922746.9445,12276
1606922746.9465,11369
1606922746.9485,9709
1606922746.9505,9182
1606922746.9527,10020
1606922746.9545,10505
1606922746.9565,10359
1606922746.9585,10398
1606922746.9604,10508
1606922746.9625,10434
1606922746.9644,10388
1606922746.9664,10395
1606922746.9684,10343
1606922746.9704,10300
1606922746.9724,10285
1606922746.9744,10256
1606922746.9764,10221
1606922746.9784,10180
1606922746.9804,10139
1606922746.9824,10103
1606922746.9844,10072
1606922746.9864,10053
1606922746.9884,10029
1606922746.9904,9993
1606922746.9924,9965
1606922746.9944,9945
1606922746.9964,9910
1606922747.3876,9852
1606922747.3885,9795
1606922747.3910,9730
1606922747.3936,9637
1606922747.3956,9524
1606922747.3976,9405
1606922747.3997,9264
1606922747.4017,9091
1606922747.4037,8909
1606922747.4057,8749
1606922747.4077,8630
1606922747.4096,8519
1606922747.4116,8393
1606922747.4136,8297
1606922747.4156,8244
1606922747.4176,8177
1606922747.4196,8106
1606922747.4216,8055
1606922747.4236,8007
1606922747.4256,7940
1606922747.4276,7871
1606922747.4296,7804
1606922747.4316,7735
1606922747.4335,7668
1606922747.4355,7603
1606922747.4375,7539
1606922747.4395,7474
1606922747.4416,7395
1606922747.4437,7321
1606922747.4456,7256
1606922747.4475,7189
1606922747.4495,7117
1606922747.4515,7046
1606922747.4536,6979
1606922747.4557,6912
1606922747.4576,6840
1606922747.4596,6770
1606922747.4616,6708
1606922747.4635,6641
1606922747.4656,6572
1606922747.4675,6507
1606922747.4695,6445
1606922747.4716,6383
1606922747.4735,6323
1606922747.4755,6254
1606922747.4776,6180
1606922747.4795,6117
1606922747.4816,6062
1606922747.4835,5998
1606922747.4855,5940
1606922747.4875,5880
1606922747.4895,5821
1606922747.4915,5761
1606922747.4935,5699
1606922747.4955,5627
1606922747.4975,5560
1606922747.4995,5495
1606922747.5015,5440
1606922747.5035,5395
1606922747.5055,5361
1606922747.5075,5340
1606922747.5095,5318
1606922747.5116,5263
1606922747.5135,5175
1606922747.5155,5077
1606922747.5175,4998
1606922747.5195,4940
1606922747.5215,4892
1606922747.5235,4837
1606922747.5255,4780
1606922747.5275,4727
1606922747.5295,4679
1606922747.5316,4643
1606922747.9579,4646
1606922747.9588,4828
1606922747.9604,5397
1606922747.9624,6017
1606922747.9643,5818
1606922747.9663,4404
1606922747.9685,3012
1606922747.9704,3218
1606922747.9724,4105
1606922747.9743,4158
1606922747.9763,3942
1606922747.9783,4067
1606922747.9803,4091
1606922747.9823,3954
1606922747.9843,3942
1606922747.9863,3950
1606922747.9883,3887
1606922747.9903,3847
1606922747.9923,3832
1606922747.9943,3797
1606922747.9963,3765
1606922747.9983,3749
1606922748.0003,3732
1606922748.0023,3713
1606922748.0043,3698
1606922748.0063,3686
1606922748.0083,3679
1606922748.0103,3675
1606922748.0123,3667
1606922748.0143,3658
1606922748.0162,3646
1606922748.0183,3622
1606922748.0202,3579
1606922748.0223,3526
1606922748.0243,3471
1606922748.0263,3395
1606922748.0282,3287
1606922748.0303,3155
1606922748.0323,3009
1606922748.0342,2873
1606922748.0363,2758
1606922748.0383,2670
1606922748.0403,2603
1606922748.0423,2548
1606922748.0442,2505
1606922748.0463,2473
1606922748.0482,2457
1606922748.0503,2445
1606922748.0523,2426
1606922748.0543,2402
1606922748.0563,2380
1606922748.0583,2361
1606922748.0603,2339
1606922748.0623,2318
1606922748.0643,2294
1606922748.0663,2265
1606922748.0683,2241
1606922748.0705,2222
1606922748.0724,2196
1606922748.0743,2162
1606922748.0763,2134
1606922748.0783,2110
1606922748.0803,2086
1606922748.0823,2057
1606922748.0843,2033
1606922748.0863,2012
1606922748.0883,1988
1606922748.0903,1964
1606922748.0923,1942
1606922748.0943,1923
1606922748.0963,1897
1606922748.0983,1875
1606922748.1003,1859
1606922748.4977,1835
1606922748.4985,1811
1606922748.5000,1792
1606922748.5018,1775
1606922748.5038,1751
1606922748.5059,1727
1606922748.5080,1713
1606922748.5099,1696
1606922748.5119,1674
1606922748.5138,1655
1606922748.5158,1629
1606922748.5178,1607
1606922748.5198,1593
1606922748.5219,1571
1606922748.5238,1550
1606922748.5258,1533
1606922748.5278,1519
1606922748.5298,1500
1606922748.5318,1481
1606922748.5338,1469
1606922748.5358,1457
1606922748.5378,1433
1606922748.5398,1402
1606922748.5419,1397
1606922748.5438,1406
1606922748.5458,1421
1606922748.5479,1440
1606922748.5498,1447
1606922748.5518,1418
1606922748.5538,1361
1606922748.5558,1308
1606922748.5578,1282
1606922748.5598,1270
1606922748.5618,1256
1606922748.5638,1241
1606922748.5660,1232
1606922748.5679,1217
1606922748.5698,1210
1606922748.5719,1232
1606922748.5738,1342
1606922748.5758,1753
1606922748.5778,2430
1606922748.5798,2734
1606922748.5818,1969
1606922748.5838,452
1606922748.5858,-165
1606922748.5878,636
1606922748.5898,1213
1606922748.5918,1021
1606922748.5938,1007
1606922748.5958,1172
1606922748.5978,1117
1606922748.5998,1067
1606922748.6018,1122
1606922748.6038,1122
1606922748.6058,1098
1606922748.6079,1110
1606922748.6098,1117
1606922748.6118,1117
1606922748.6138,1129
1606922748.6158,1136
1606922748.6178,1146
1606922748.6198,1169
1606922748.6218,1191
1606922748.6238,1205
1606922748.6258,1225
1606922748.6278,1251
1606922748.6298,1275
1606922748.6318,1289
1606922748.6338,1296
1606922748.6358,1301
1606922748.6378,1291
1606922748.6398,1260
1606922749.0381,1215
1606922749.0389,1158
1606922749.0414,1081
1606922749.0440,976
1606922749.0459,851
1606922749.0480,746
1606922749.0501,660
1606922749.0519,583
1606922749.0539,535
1606922749.0559,521
1606922749.0579,521
1606922749.0599,523
1606922749.0620,523
1606922749.0641,523
1606922749.0660,528
1606922749.0679,538
1606922749.0699,545
1606922749.0720,545
1606922749.0739,543
1606922749.0759,545
1606922749.0779,547
1606922749.0799,538
1606922749.0819,521
1606922749.0839,514
1606922749.0859,519
1606922749.0879,516
1606922749.0899,500
1606922749.0919,490
1606922749.0939,492
1606922749.0959,492
1606922749.0979,480
1606922749.0999,478
1606922749.1019,483
1606922749.1039,476
1606922749.1059,466
1606922749.1079,468
1606922749.1099,473
1606922749.1120,468
1606922749.1139,459
1606922749.1159,456
1606922749.1179,454
1606922749.1199,456
1606922749.1220,454
1606922749.1239,447
1606922749.1259,445
1606922749.1279,442
1606922749.1299,440
1606922749.1319,437
1606922749.1339,435
1606922749.1359,433
1606922749.1379,433
1606922749.1399,425
1606922749.1419,418
1606922749.1439,421
1606922749.1459,423
1606922749.1479,418
1606922749.1499,413
1606922749.1519,418
1606922749.1539,421
1606922749.1559,411
1606922749.1579,406
1606922749.1599,409
1606922749.1619,397
1606922749.1639,389
1606922749.1661,404
1606922749.1679,421
1606922749.1699,430
1606922749.1720,456
1606922749.1739,478
1606922749.1759,464
1606922749.1779,425
1606922749.1799,392
1606922749.1819,378
1606922749.6080,366
1606922749.6089,366
1606922749.6114,373
1606922749.6140,361
1606922749.6160,334
1606922749.6180,330
1606922749.6201,361
1606922749.6220,478
1606922749.6239,830
1606922749.6259,1488
1606922749.6279,2009
1606922749.6299,1531
1606922749.6319,-69
1606922749.6339,-1114
1606922749.6360,-521
1606922749.6379,260
1606922749.6399,275
1606922749.6420,258
1606922749.6439,430
1606922749.6459,442
1606922749.6479,387
1606922749.6499,425
1606922749.6519,445
1606922749.6539,421
1606922749.6559,437
1606922749.6579,459
1606922749.6599,456
1606922749.6619,471
1606922749.6641,495
1606922749.6659,495
1606922749.6680,528
1606922749.6699,586
1606922749.6719,593
1606922749.6739,607
1606922749.6759,667
1606922749.6779,701
1606922749.6799,703
1606922749.6819,727
1606922749.6839,744
1606922749.6859,732
1606922749.6879,720
1606922749.6899,689
1606922749.6921,629
1606922749.6939,574
1606922749.6959,490
1606922749.6979,358
1606922749.6999,248
1606922749.7019,181
1606922749.7039,110
1606922749.7059,55
1606922749.7079,31
1606922749.7100,19
1606922749.7119,33
1606922749.7139,59
1606922749.7159,59
1606922749.7179,59
1606922749.7199,57
1606922749.7219,33
1606922749.7239,69
1606922749.7259,145
1606922749.7279,133
1606922749.7299,95
1606922749.7319,124
1606922749.7339,131
1606922749.7359,105
1606922749.7379,102
1606922749.7399,122
1606922749.7419,129
1606922749.7439,102
1606922749.7458,93
1606922749.7479,136
1606922749.7499,141
1606922749.7519,100
1606922750.2083,100
1606922750.2092,126
1606922750.2118,119
1606922750.2144,95
1606922750.2163,107
1606922750.2184,122
1606922750.2205,95
1606922750.2224,93
1606922750.2243,122
1606922750.2263,110
1606922750.2283,95
1606922750.2304,107
1606922750.2323,93
1606922750.2343,88
1606922750.2362,131
1606922750.2382,129
1606922750.2402,83
1606922750.2423,98
1606922750.2443,143
1606922750.2462,138
1606922750.2484,122
1606922750.2503,129
1606922750.2522,119
1606922750.2542,117
1606922750.2563,141
1606922750.2582,145
1606922750.2602,136
1606922750.2623,143
1606922750.2642,150
1606922750.2662,124
1606922750.2682,117
1606922750.2702,150
1606922750.2723,191
1606922750.2742,224
1606922750.2762,241
1606922750.2783,234
1606922750.2802,215
1606922750.2823,174
1606922750.2842,141
1606922750.2862,150
1606922750.2882,162
1606922750.2902,148
1606922750.2922,138
1606922750.2942,160
1606922750.2962,172
1606922750.2982,191
1606922750.3002,279
1606922750.3022,636
1606922750.3042,1335
1606922750.3062,1796
1606922750.3082,1186
1606922750.3102,-363
1606922750.3123,-1189
1606922750.3143,-440
1606922750.3162,279
1606922750.3182,133
1606922750.3202,81
1606922750.3223,279
1606922750.3242,258
1606922750.3262,189
1606922750.3282,246
1606922750.3302,270
1606922750.3323,251
1606922750.3343,265
1606922750.3362,294
1606922750.3382,320
1606922750.3402,344
1606922750.3423,351
1606922750.3442,368
1606922750.3462,404
1606922750.3482,421
1606922750.3504,428
1606922750.3587,473
1606922750.7477,514
1606922750.7485,523
1606922750.7540,567
1606922750.7545,612
1606922750.7563,610
1606922750.7589,593
1606922750.7606,581
1606922750.7625,545
1606922750.7645,492
1606922750.7665,416
1606922750.7685,301
1606922750.7705,179
1606922750.7725,102
1606922750.7745,47
1606922750.7765,-23
1606922750.7784,-66
1606922750.7805,-86
1606922750.7825,-102
1606922750.7845,-98
1606922750.7865,-69
1606922750.7884,-45
1606922750.7905,-33
1606922750.7925,-23
1606922750.7944,-9
1606922750.7965,-4
1606922750.7985,2
1606922750.8006,16
1606922750.8025,14
1606922750.8045,2
1606922750.8065,-2
1606922750.8085,9
1606922750.8105,28
1606922750.8125,33
1606922750.8145,26
1606922750.8165,31
1606922750.8185,35
1606922750.8205,31
1606922750.8225,19
1606922750.8245,19
1606922750.8265,21
1606922750.8284,9
1606922750.8305,23
1606922750.8325,52
1606922750.8345,38
1606922750.8364,28
1606922750.8384,40
1606922750.8405,35
1606922750.8425,33
1606922750.8445,50
1606922750.8466,47
1606922750.8485,40
1606922750.8506,52
1606922750.8525,64
1606922750.8544,64
1606922750.8565,69
1606922750.8585,69
1606922750.8605,62
1606922750.8625,64
1606922750.8645,66
1606922750.8665,66
1606922750.8685,81
1606922750.8705,88
1606922750.8725,81
1606922750.8745,78
1606922750.8765,83
1606922750.8785,83
1606922750.8804,78
1606922750.8825,88
1606922750.8845,90
1606922750.8865,83
1606922750.8885,81
1606922750.8905,81
1606922750.8925,93
1606922751.3178,117
1606922751.3188,138
1606922751.3213,169
1606922751.3239,186
1606922751.3259,162
1606922751.3279,138
1606922751.3299,133
1606922751.3319,105
1606922751.3338,78
1606922751.3358,98
1606922751.3378,105
1606922751.3398,93
1606922751.3418,86
1606922751.3438,86
1606922751.3458,133
1606922751.3477,287
1606922751.3498,722
1606922751.3519,1392
1606922751.3538,1619
1606922751.3545,715
1606922751.3558,-770
1606922751.3578,-1119
1606922751.3598,-232
1606922751.3618,212
1606922751.3637,28
1606922751.3657,78
1606922751.3678,229
1606922751.3699,174
1606922751.3718,153
1606922751.3737,210
1606922751.3757,215
1606922751.3777,200
1606922751.3797,212
1606922751.3818,236
1606922751.3837,263
1606922751.3844,275
1606922751.3857,277
1606922751.3877,303
1606922751.3897,356
1606922751.3918,394
1606922751.3937,411
1606922751.3957,433
1606922751.3978,464
1606922751.3997,495
1606922751.4018,533
1606922751.4037,559
1606922751.4057,545
1606922751.4078,538
1606922751.4097,540
1606922751.4118,500
1606922751.4137,447
1606922751.4144,385
1606922751.4157,260
1606922751.4177,131
1606922751.4197,50
1606922751.4217,-19
1606922751.4237,-90
1606922751.4257,-129
1606922751.4277,-138
1606922751.4297,-143
1606922751.4318,-126
1606922751.4337,-88
1606922751.4357,-78
1606922751.4377,-95
1606922751.4397,-88
1606922751.4418,-47
1606922751.4438,-28
1606922751.4444,-55
1606922751.4457,-52
1606922751.4477,-21
1606922751.4497,-35
1606922751.4518,-43
1606922751.4537,-19
1606922751.8574,-33
1606922751.8581,-55
1606922751.8605,-19
1606922751.8633,7
1606922751.8652,-21
1606922751.8674,-33
1606922751.8693,-23
1606922751.8712,-21
1606922751.8719,-16
1606922751.8741,-16
1606922751.8761,-26
1606922751.8781,-21
1606922751.8801,-14
1606922751.8823,-14
1606922751.8841,-19
1606922751.8862,-4
1606922751.8881,2
1606922751.8901,-16
1606922751.8922,-14
1606922751.8942,31
1606922751.8961,45
1606922751.8981,21
1606922751.9001,21
1606922751.9021,33
1606922751.9029,19
1606922751.9041,14
1606922751.9062,45
1606922751.9081,47
1606922751.9102,23
1606922751.9122,47
1606922751.9142,69
1606922751.9162,47
1606922751.9181,26
1606922751.9201,33
1606922751.9222,66
1606922751.9241,78
1606922751.9261,55
1606922751.9281,64
1606922751.9301,71
1606922751.9322,52
1606922751.9328,74
1606922751.9341,110
1606922751.9362,119
1606922751.9381,138
1606922751.9401,167
1606922751.9422,136
1606922751.9441,81
1606922751.9462,78
1606922751.9481,78
1606922751.9501,59
1606922751.9521,62
1606922751.9542,78
1606922751.9562,69
1606922751.9581,62
1606922751.9601,100
1606922751.9608,177
1606922751.9623,454
1606922751.9642,1091
1606922751.9662,1677
1606922751.9681,1327
1606922751.9701,-177
1606922751.9722,-1296
1606922751.9741,-789
1606922751.9761,35
1606922751.9781,59
1606922751.9801,-2
1606922751.9822,162
1606922751.9841,184
1606922751.9861,131
1606922751.9881,174
1606922751.9902,208
1606922751.9908,198
1606922751.9922,217
1606922752.4277,244
1606922752.4287,244
1606922752.4311,246
1606922752.4338,275
1606922752.4358,308
1606922752.4377,322
1606922752.4398,330
1606922752.4418,356
1606922752.4437,394
1606922752.4457,425
1606922752.4477,464
1606922752.4497,502
1606922752.4504,528
1606922752.4517,545
1606922752.4537,552
1606922752.4557,540
1606922752.4577,512
1606922752.4596,461
1606922752.4617,380
1606922752.4636,275
1606922752.4656,157
1606922752.4676,50
1606922752.4696,-40
1606922752.4717,-107
1606922752.4736,-150
1606922752.4756,-179
1606922752.4776,-186
1606922752.4796,-174
1606922752.4803,-160
1606922752.4817,-145
1606922752.4836,-133
1606922752.4856,-119
1606922752.4876,-105
1606922752.4896,-93
1606922752.4919,-83
1606922752.4937,-78
1606922752.4956,-76
1606922752.4976,-76
1606922752.4996,-69
1606922752.5017,-62
1606922752.5036,-59
1606922752.5057,-62
1606922752.5076,-62
1606922752.5096,-64
1606922752.5104,-66
1606922752.5116,-66
1606922752.5137,-64
1606922752.5157,-59
1606922752.5177,-57
1606922752.5196,-55
1606922752.5216,-50
1606922752.5237,-43
1606922752.5256,-40
1606922752.5276,-38
1606922752.5297,-33
1606922752.5317,-23
1606922752.5336,-23
1606922752.5357,-23
1606922752.5376,-16
1606922752.5396,-11
1606922752.5403,-9
1606922752.5417,-7
1606922752.5437,-4
1606922752.5456,-2
1606922752.5476,2
1606922752.5496,4
1606922752.5517,9
1606922752.5536,16
1606922752.5556,16
1606922752.5576,14
1606922752.5596,11
1606922752.5617,7
1606922752.5636,9
1606922752.9678,21
1606922752.9686,45
1606922752.9710,78
1606922752.9737,114
1606922752.9757,126
1606922752.9779,110
1606922752.9798,69
1606922752.9817,31
1606922752.9836,16
1606922752.9856,23
1606922752.9876,31
1606922752.9896,31
1606922752.9918,33
1606922752.9936,38
1606922752.9956,55
1606922752.9976,102
1606922752.9996,287
1606922753.0016,827
1606922753.0036,1509
1606922753.0057,1502
1606922753.0076,258
1606922753.0096,-1186
1606922753.0116,-1124
1606922753.0136,-136
1606922753.0156,124
1606922753.0176,-43
1606922753.0196,95
1606922753.0216,198
1606922753.0236,114
1606922753.0256,129
1606922753.0276,186
1606922753.0296,177
1606922753.0316,177
1606922753.0336,203
1606922753.0356,210
1606922753.0376,222
1606922753.0396,246
1606922753.0416,265
1606922753.0436,279
1606922753.0456,308
1606922753.0476,342
1606922753.0496,375
1606922753.0516,406
1606922753.0536,445
1606922753.0556,485
1606922753.0576,516
1606922753.0596,531
1606922753.0616,535
1606922753.0636,528
1606922753.0656,500
1606922753.0676,452
1606922753.0696,380
1606922753.0717,277
1606922753.0736,155
1606922753.0756,40
1606922753.0776,-47
1606922753.0796,-110
1606922753.0816,-155
1606922753.0836,-179
1606922753.0856,-186
1606922753.0876,-186
1606922753.0896,-179
1606922753.0916,-162
1606922753.0937,-143
1606922753.0956,-126
1606922753.0976,-117
1606922753.0996,-107
1606922753.1016,-93
1606922753.1036,-83
1606922753.1056,-76
1606922753.1076,-71
1606922753.1096,-66
1606922753.1116,-59
1606922753.6278,-55
1606922753.6292,-50
1606922753.6317,-50
1606922753.6342,-55
1606922753.6362,-64
1606922753.6382,-64
1606922753.6403,-62
1606922753.6423,-62
1606922753.6442,-59
1606922753.6462,-57
1606922753.6482,-55
1606922753.6502,-52
1606922753.6522,-45
1606922753.6542,-40
1606922753.6562,-38
1606922753.6582,-35
1606922753.6602,-28
1606922753.6622,-23
1606922753.6642,-23
1606922753.6661,-21
1606922753.6681,-19
1606922753.6702,-16
1606922753.6722,-11
1606922753.6741,-7
1606922753.6763,-2
1606922753.6782,2
1606922753.6802,4
1606922753.6823,9
1606922753.6842,11
1606922753.6862,14
1606922753.6881,14
1606922753.6912,9
1606922753.6933,9
1606922753.6951,9
1606922753.6971,19
1606922753.6992,38
1606922753.7012,62
1606922753.7031,95
1606922753.7051,119
1606922753.7071,110
1606922753.7091,81
1606922753.7114,47
1606922753.7132,23
1606922753.7151,26
1606922753.7171,33
1606922753.7191,31
1606922753.7212,31
1606922753.7231,33
1606922753.7251,40
1606922753.7271,69
1606922753.7291,143
1606922753.7311,418
1606922753.7331,1033
1606922753.7351,1547
1606922753.7371,1129
1606922753.7391,-308
1606922753.7411,-1318
1606922753.7431,-820
1606922753.7451,-14
1606922753.7471,52
1606922753.7491,-7
1606922753.7511,145
1606922753.7531,177
1606922753.7551,122
1606922753.7571,160
1606922753.7591,193
1606922753.7612,181
1606922753.7631,196
1606922753.7651,220
1606922753.7671,224
1606922753.7691,239
1606922753.7711,260
1606922753.7731,284
1606922754.1078,306
1606922754.1085,330
1606922754.1109,358
1606922754.1136,394
1606922754.1156,433
1606922754.1176,468
1606922754.1196,500
1606922754.1216,528
1606922754.1235,547
1606922754.1255,550
1606922754.1275,538
1606922754.1295,509
1606922754.1316,459
1606922754.1336,378
1606922754.1357,263
1606922754.1375,141
1606922754.1396,31
1606922754.1415,-64
1606922754.1435,-136
1606922754.1457,-174
1606922754.1476,-193
1606922754.1495,-205
1606922754.1516,-200
1606922754.1535,-189
1606922754.1556,-179
1606922754.1575,-167
1606922754.1595,-153
1606922754.1616,-141
1606922754.1635,-126
1606922754.1655,-114
1606922754.1675,-105
1606922754.1695,-95
1606922754.1715,-86
1606922754.1735,-81
1606922754.1755,-78
1606922754.1775,-76
1606922754.1795,-71
1606922754.1816,-71
1606922754.1835,-69
1606922754.1856,-66
1606922754.1875,-64
1606922754.1895,-66
1606922754.1916,-69
1606922754.1935,-66
1606922754.1955,-59
1606922754.1975,-57
1606922754.1996,-57
1606922754.2016,-57
1606922754.2035,-50
1606922754.2055,-50
1606922754.2075,-52
1606922754.2095,-45
1606922754.2116,-35
1606922754.2135,-33
1606922754.2156,-28
1606922754.2175,-23
1606922754.2195,-23
1606922754.2216,-21
1606922754.2235,-14
1606922754.2255,-11
1606922754.2275,-11
1606922754.2295,-11
1606922754.2316,-4
1606922754.2335,0
1606922754.2357,-4
1606922754.2376,-4
1606922754.2395,11
1606922754.2416,28
1606922754.2435,43
1606922754.2455,74
1606922754.2477,105
1606922754.2496,107
1606922754.2516,76
1606922754.7076,35
1606922754.7088,4
1606922754.7111,-2
1606922754.7137,7
1606922754.7158,19
1606922754.7177,23
1606922754.7199,21
1606922754.7218,16
1606922754.7237,38
1606922754.7257,107
1606922754.7277,330
1606922754.7297,892
1606922754.7317,1507
1606922754.7336,1339
1606922754.7357,26
1606922754.7376,-1236
1606922754.7396,-1038
1606922754.7417,-184
1606922754.7436,23
1606922754.7456,-40
1606922754.7476,95
1606922754.7496,160
1606922754.7518,107
1606922754.7536,126
1606922754.7557,169
1606922754.7576,167
1606922754.7596,169
1606922754.7617,193
1606922754.7636,210
1606922754.7656,229
1606922754.7676,251
1606922754.7696,270
1606922754.7717,291
1606922754.7736,318
1606922754.7756,344
1606922754.7776,380
1606922754.7796,421
1606922754.7817,461
1606922754.7836,497
1606922754.7857,531
1606922754.7876,552
1606922754.7896,559
1606922754.7917,555
1606922754.7936,533
1606922754.7956,483
1606922754.7976,401
1606922754.7996,282
1606922754.8017,153
1606922754.8038,43
1606922754.8057,-50
1606922754.8076,-124
1606922754.8096,-174
1606922754.8117,-203
1606922754.8136,-210
1606922754.8156,-205
1606922754.8176,-196
1606922754.8196,-177
1606922754.8217,-160
1606922754.8236,-150
1606922754.8256,-143
1606922754.8276,-129
1606922754.8296,-110
1606922754.8317,-95
1606922754.8336,-90
1606922754.8357,-86
1606922754.8376,-83
1606922754.8396,-76
1606922754.8417,-69
1606922754.8436,-71
1606922754.8456,-74
1606922754.8476,-74
1606922754.8496,-69
1606922754.8517,-69
1606922755.2475,-66
1606922755.2483,-66
1606922755.2508,-66
1606922755.2534,-62
1606922755.2553,-59
1606922755.2573,-57
1606922755.2595,-47
1606922755.2614,-43
1606922755.2634,-50
1606922755.2653,-52
1606922755.2673,-43
1606922755.2694,-43
1606922755.2715,-55
1606922755.2733,-59
1606922755.2753,-52
1606922755.2773,-50
1606922755.2793,-47
1606922755.2813,-38
1606922755.2833,-35
1606922755.2853,-43
1606922755.2873,-31
1606922755.2893,-7
1606922755.2913,14
1606922755.2933,35
1606922755.2953,57
1606922755.2973,66
1606922755.2995,47
1606922755.3014,7
1606922755.3033,-19
1606922755.3053,-19
1606922755.3073,-9
1606922755.3093,-7
1606922755.3114,-4
1606922755.3133,2
1606922755.3153,4
1606922755.3173,28
1606922755.3193,98
1606922755.3213,320
1606922755.3233,887
1606922755.3253,1545
1606922755.3273,1433
1606922755.3293,83
1606922755.3314,-1284
1606922755.3333,-1124
1606922755.3353,-239
1606922755.3373,-4
1606922755.3393,-59
1606922755.3413,81
1606922755.3433,148
1606922755.3453,100
1606922755.3473,119
1606922755.3493,157
1606922755.3513,155
1606922755.3533,165
1606922755.3553,184
1606922755.3573,196
1606922755.3593,215
1606922755.3613,236
1606922755.3633,251
1606922755.3653,272
1606922755.3673,299
1606922755.3692,330
1606922755.3713,368
1606922755.3733,406
1606922755.3753,447
1606922755.3773,488
1606922755.3793,516
1606922755.3813,535
1606922755.3833,543
1606922755.3853,533
1606922755.3873,500
1606922755.3893,445
1606922755.3913,358
1606922755.8765,239
1606922755.8775,110
1606922755.8800,-7
1606922755.8826,-95
1606922755.8849,-155
1606922755.8866,-198
1606922755.8886,-217
1606922755.8906,-220
1606922755.8925,-217
1606922755.8945,-212
1606922755.8966,-198
1606922755.8985,-179
1606922755.9005,-162
1606922755.9025,-150
1606922755.9045,-136
1606922755.9065,-124
1606922755.9085,-114
1606922755.9105,-105
1606922755.9125,-95
1606922755.9145,-88
1606922755.9165,-81
1606922755.9185,-78
1606922755.9205,-76
1606922755.9225,-74
1606922755.9245,-71
1606922755.9265,-71
1606922755.9285,-71
1606922755.9305,-66
1606922755.9325,-64
1606922755.9345,-62
1606922755.9365,-59
1606922755.9385,-57
1606922755.9405,-52
1606922755.9425,-52
1606922755.9445,-47
1606922755.9465,-47
1606922755.9485,-47
1606922755.9505,-40
1606922755.9524,-35
1606922755.9545,-35
1606922755.9565,-35
1606922755.9585,-33
1606922755.9605,-23
1606922755.9625,-16
1606922755.9645,-16
1606922755.9665,-16
1606922755.9685,-11
1606922755.9705,-16
1606922755.9725,-31
1606922755.9745,-28
1606922755.9765,-9
1606922755.9785,11
1606922755.9805,38
1606922755.9825,64
1606922755.9845,78
1606922755.9867,69
1606922755.9885,35
1606922755.9905,4
1606922755.9925,-11
1606922755.9945,-11
1606922755.9965,-2
1606922755.9985,0
1606922756.0005,-2
1606922756.0025,4
1606922756.0045,14
1606922756.0065,43
1606922756.0085,143
1606922756.0105,538
1606922756.0125,1239
1606922756.0145,1614
1606922756.0165,897
1606922756.0185,-653
1606922756.0205,-1349
1606922756.3274,-564
1606922756.3282,93
1606922756.3306,-33
1606922756.3333,-43
1606922756.3353,136
1606922756.3372,107
1606922756.3392,62
1606922756.3414,122
1606922756.3432,138
1606922756.3452,124
1606922756.3472,143
1606922756.3492,160
1606922756.3513,167
1606922756.3532,191
1606922756.3551,215
1606922756.3571,232
1606922756.3591,260
1606922756.3613,294
1606922756.3632,325
1606922756.3651,363
1606922756.3671,409
1606922756.3691,449
1606922756.3712,485
1606922756.3731,516
1606922756.3752,535
1606922756.3771,535
1606922756.3791,519
1606922756.3812,478
1606922756.3832,411
1606922756.3851,308
1606922756.3872,179
1606922756.3892,50
1606922756.3912,-52
1606922756.3933,-131
1606922756.3952,-186
1606922756.3971,-212
1606922756.3992,-220
1606922756.4012,-222
1606922756.4031,-217
1606922756.4051,-205
1606922756.4072,-189
1606922756.4091,-174
1606922756.4112,-160
1606922756.4132,-143
1606922756.4151,-124
1606922756.4171,-117
1606922756.4191,-110
1606922756.4213,-98
1606922756.4232,-86
1606922756.4251,-81
1606922756.4271,-74
1606922756.4291,-69
1606922756.4313,-71
1606922756.4331,-71
1606922756.4352,-69
1606922756.4372,-66
1606922756.4391,-64
1606922756.4412,-66
1606922756.4432,-66
1606922756.4451,-62
1606922756.4472,-62
1606922756.4491,-64
1606922756.4512,-62
1606922756.4532,-55
1606922756.4551,-50
1606922756.4571,-47
1606922756.4592,-47
1606922756.4613,-43
1606922756.4631,-40
1606922756.4651,-40
1606922756.4671,-40
1606922756.4691,-35
1606922756.4712,-35
1606922756.9576,-33
1606922756.9586,-28
1606922756.9604,-23
1606922756.9624,-26
1606922756.9643,-31
1606922756.9663,-28
1606922756.9683,-19
1606922756.9704,-16
1606922756.9723,-19
1606922756.9742,-14
1606922756.9762,-7
1606922756.9784,-7
1606922756.9803,-9
1606922756.9822,-4
1606922756.9842,-9
1606922756.9863,-23
1606922756.9882,-19
1606922756.9902,4
1606922756.9923,31
1606922756.9942,62
1606922756.9962,88
1606922756.9982,86
1606922757.0002,62
1606922757.0023,28
1606922757.0042,4
1606922757.0062,2
1606922757.0082,9
1606922757.0102,9
1606922757.0123,9
1606922757.0142,9
1606922757.0162,11
1606922757.0182,28
1606922757.0202,76
1606922757.0223,272
1606922757.0242,830
1606922757.0262,1500
1606922757.0282,1490
1606922757.0303,311
1606922757.0323,-1091
1606922757.0342,-1074
1606922757.0362,-141
1606922757.0382,98
1606922757.0402,-81
1606922757.0422,47
1606922757.0442,153
1606922757.0462,74
1606922757.0482,88
1606922757.0503,145
1606922757.0523,136
1606922757.0542,136
1606922757.0562,165
1606922757.0582,179
1606922757.0602,189
1606922757.0623,210
1606922757.0642,229
1606922757.0662,253
1606922757.0682,287
1606922757.0702,320
1606922757.0723,351
1606922757.0742,387
1606922757.0762,430
1606922757.0782,473
1606922757.0804,502
1606922757.0823,521
1606922757.0842,538
1606922757.0862,540
1606922757.0882,519
1606922757.0902,473
1606922757.0923,399
1606922757.0942,296
1606922757.0963,169
1606922757.0982,43
1606922757.1002,-59
1606922757.5272,-136
1606922757.5278,-186
1606922757.5290,-212
1606922757.5310,-220
1606922757.5330,-217
1606922757.5350,-210
1606922757.5370,-196
1606922757.5390,-181
1606922757.5410,-172
1606922757.5430,-162
1606922757.5450,-148
1606922757.5471,-133
1606922757.5490,-131
1606922757.5510,-126
1606922757.5530,-117
1606922757.5550,-107
1606922757.5570,-102
1606922757.5590,-98
1606922757.5610,-90
1606922757.5630,-90
1606922757.5650,-93
1606922757.5670,-90
1606922757.5690,-86
1606922757.5710,-86
1606922757.5730,-90
1606922757.5750,-88
1606922757.5770,-81
1606922757.5790,-71
1606922757.5810,-66
1606922757.5830,-71
1606922757.5850,-71
1606922757.5870,-66
1606922757.5890,-62
1606922757.5910,-59
1606922757.5930,-55
1606922757.5950,-50
1606922757.5970,-45
1606922757.5991,-45
1606922757.6011,-45
1606922757.6030,-40
1606922757.6051,-28
1606922757.6071,-21
1606922757.6090,-23
1606922757.6097,-23
1606922757.6121,-16
1606922757.6140,-14
1606922757.6160,-16
1606922757.6181,-23
1606922757.6200,-21
1606922757.6221,-16
1606922757.6240,-16
1606922757.6260,-16
1606922757.6280,-11
1606922757.6300,-14
1606922757.6320,-16
1606922757.6340,-7
1606922757.6360,-2
1606922757.6380,-9
1606922757.6400,-9
1606922757.6407,9
1606922757.6420,33
1606922757.6440,59
1606922757.6460,83
1606922757.6480,90
1606922757.6501,74
1606922757.6521,38
1606922757.6540,7
1606922757.6560,4
1606922757.6580,14
1606922757.6600,16
1606922757.6620,11
1606922757.6640,16
1606922757.6660,28
1606922758.0680,43
1606922758.0690,78
1606922758.0714,229
1606922758.0741,729
1606922758.0760,1461
1606922758.0781,1650
1606922758.0803,567
1606922758.0820,-1014
1606922758.0839,-1239
1606922758.0859,-322
1606922758.0879,43
1606922758.0899,-88
1606922758.0919,23
1606922758.0939,138
1606922758.0959,74
1606922758.0967,69
1606922758.0979,126
1606922758.0999,126
1606922758.1021,122
1606922758.1040,148
1606922758.1059,165
1606922758.1079,177
1606922758.1099,198
1606922758.1120,220
1606922758.1139,241
1606922758.1159,270
1606922758.1179,301
1606922758.1199,330
1606922758.1220,368
1606922758.1239,409
1606922758.1259,445
1606922758.1266,473
1606922758.1290,497
1606922758.1312,509
1606922758.1330,502
1606922758.1349,480
1606922758.1369,437
1606922758.1389,370
1606922758.1411,270
1606922758.1429,148
1606922758.1449,28
1606922758.1469,-69
1606922758.1489,-138
1606922758.1509,-191
1606922758.1529,-224
1606922758.1549,-234
1606922758.1556,-229
1606922758.1569,-217
1606922758.1589,-205
1606922758.1609,-189
1606922758.1629,-172
1606922758.1649,-157
1606922758.1669,-143
1606922758.1689,-133
1606922758.1709,-124
1606922758.1729,-112
1606922758.1749,-102
1606922758.1769,-100
1606922758.1789,-93
1606922758.1809,-86
1606922758.1829,-83
1606922758.1849,-86
1606922758.1856,-83
1606922758.1869,-83
1606922758.1889,-83
1606922758.1909,-83
1606922758.1929,-83
1606922758.1949,-81
1606922758.1969,-76
1606922758.1991,-74
1606922758.2010,-74
1606922758.2029,-69
1606922758.2049,-66
1606922758.6079,-66
1606922758.6089,-62
1606922758.6106,-57
1606922758.6129,-55
1606922758.6149,-55
1606922758.6169,-52
1606922758.6189,-52
1606922758.6209,-47
1606922758.6229,-47
1606922758.6248,-45
1606922758.6268,-43
1606922758.6288,-50
1606922758.6308,-57
1606922758.6328,-45
1606922758.6348,-38
1606922758.6368,-40
1606922758.6388,-40
1606922758.6408,-31
1606922758.6415,-28
1606922758.6439,-26
1606922758.6458,-21
1606922758.6478,-19
1606922758.6498,-16
1606922758.6518,-14
1606922758.6538,-14
1606922758.6558,-7
1606922758.6578,-2
1606922758.6598,-2
1606922758.6618,-2
1606922758.6638,0
1606922758.6658,-9
1606922758.6678,-16
1606922758.6698,-4
1606922758.6718,19
1606922758.6725,47
1606922758.6738,74
1606922758.6758,88
1606922758.6778,86
1606922758.6798,55
1606922758.6819,16
1606922758.6838,2
1606922758.6858,7
1606922758.6878,11
1606922758.6899,16
1606922758.6919,19
1606922758.6938,19
1606922758.6958,28
1606922758.6980,50
1606922758.6999,141
1606922758.7019,528
1606922758.7026,1239
1606922758.7038,1658
1606922758.7058,1012
1606922758.7078,-514
1606922758.7098,-1272
1606922758.7119,-533
1606922758.7138,124
1606922758.7158,-21
1606922758.7178,-45
1606922758.7198,141
1606922758.7218,110
1606922758.7238,57
1606922758.7258,122
1606922758.7278,141
1606922758.7298,124
1606922758.7319,145
1606922758.7325,165
1606922758.7348,172
1606922758.7368,191
1606922758.7388,220
1606922758.7409,236
1606922758.7428,258
1606922758.7448,291
1606922759.1477,325
1606922759.1485,358
1606922759.1509,399
1606922759.1536,437
1606922759.1555,471
1606922759.1576,495
1606922759.1596,512
1606922759.1603,519
1606922759.1626,502
1606922759.1645,461
1606922759.1665,406
1606922759.1685,325
1606922759.1705,208
1606922759.1725,83
1606922759.1745,-23
1606922759.1765,-105
1606922759.1785,-172
1606922759.1806,-215
1606922759.1826,-227
1606922759.1845,-224
1606922759.1865,-224
1606922759.1885,-215
1606922759.1892,-196
1606922759.1906,-184
1606922759.1926,-177
1606922759.1948,-162
1606922759.1966,-150
1606922759.1985,-143
1606922759.2005,-131
1606922759.2026,-122
1606922759.2045,-114
1606922759.2065,-107
1606922759.2085,-102
1606922759.2105,-102
1606922759.2125,-100
1606922759.2145,-100
1606922759.2165,-100
1606922759.2185,-98
1606922759.2205,-95
1606922759.2225,-95
1606922759.2245,-95
1606922759.2265,-93
1606922759.2285,-90
1606922759.2305,-88
1606922759.2325,-83
1606922759.2345,-76
1606922759.2365,-74
1606922759.2385,-76
1606922759.2405,-74
1606922759.2426,-64
1606922759.2445,-59
1606922759.2465,-59
1606922759.2485,-57
1606922759.2505,-50
1606922759.2526,-47
1606922759.2545,-47
1606922759.2565,-40
1606922759.2585,-33
1606922759.2605,-38
1606922759.2625,-40
1606922759.2645,-31
1606922759.2665,-23
1606922759.2685,-23
1606922759.2705,-23
1606922759.2725,-19
1606922759.2745,-14
1606922759.2765,-14
1606922759.2785,-11
1606922759.2805,-7
1606922759.2826,-2
1606922759.2845,-2
1606922759.2865,0
1606922759.2885,4
1606922759.6880,7
1606922759.6890,9
1606922759.6914,11
1606922759.6943,14
1606922759.6962,16
1606922759.6981,11
1606922759.7003,4
1606922759.7021,7
1606922759.7040,14
1606922759.7061,9
1606922759.7080,0
1606922759.7100,0
1606922759.7120,16
1606922759.7140,38
1606922759.7160,69
1606922759.7180,100
1606922759.7200,107
1606922759.7221,86
1606922759.7240,50
1606922759.7260,21
1606922759.7281,9
1606922759.7300,11
1606922759.7321,16
1606922759.7340,16
1606922759.7360,19
1606922759.7380,23
1606922759.7400,35
1606922759.7421,66
1606922759.7440,198
1606922759.7460,657
1606922759.7480,1361
1606922759.7500,1607
1606922759.7520,710
1606922759.7540,-803
1606922759.7560,-1201
1606922759.7580,-325
1606922759.7600,131
1606922759.7620,-59
1606922759.7640,-2
1606922759.7660,155
1606922759.7680,88
1606922759.7700,64
1606922759.7720,133
1606922759.7740,141
1606922759.7760,126
1606922759.7780,153
1606922759.7800,167
1606922759.7820,172
1606922759.7840,198
1606922759.7859,220
1606922759.7879,234
1606922759.7900,265
1606922759.7920,299
1606922759.7940,325
1606922759.7963,356
1606922759.7980,401
1606922759.8000,440
1606922759.8020,466
1606922759.8040,488
1606922759.8060,507
1606922759.8080,514
1606922759.8100,500
1606922759.8120,468
1606922759.8140,411
1606922759.8160,318
1606922759.8180,198
1606922759.8201,76
1606922759.8220,-26
1606922759.8240,-107
1606922759.8260,-172
1606922759.8280,-212
1606922759.8300,-229
1606922759.8320,-229
1606922760.2874,-222
1606922760.2883,-212
1606922760.2908,-203
1606922760.2934,-196
1606922760.2954,-184
1606922760.2974,-167
1606922760.2995,-153
1606922760.3015,-141
1606922760.3034,-133
1606922760.3054,-133
1606922760.3074,-136
1606922760.3094,-129
1606922760.3114,-114
1606922760.3134,-110
1606922760.3153,-110
1606922760.3173,-112
1606922760.3193,-110
1606922760.3214,-100
1606922760.3233,-95
1606922760.3253,-98
1606922760.3273,-98
1606922760.3293,-93
1606922760.3313,-86
1606922760.3333,-81
1606922760.3353,-78
1606922760.3373,-74
1606922760.3393,-66
1606922760.3413,-64
1606922760.3433,-62
1606922760.3453,-59
1606922760.3473,-57
1606922760.3493,-55
1606922760.3515,-52
1606922760.3533,-45
1606922760.3553,-38
1606922760.3573,-33
1606922760.3593,-33
1606922760.3613,-31
1606922760.3633,-26
1606922760.3653,-23
1606922760.3673,-19
1606922760.3693,-16
1606922760.3713,-19
1606922760.3733,-19
1606922760.3753,-11
1606922760.3773,-9
1606922760.3793,-9
1606922760.3813,-4
1606922760.3833,-2
1606922760.3853,2
1606922760.3928,4
1606922760.3944,7
1606922760.3963,11
1606922760.3983,16
1606922760.4003,11
1606922760.4023,4
1606922760.4043,9
1606922760.4063,26
1606922760.4083,45
1606922760.4103,69
1606922760.4123,95
1606922760.4143,107
1606922760.4163,95
1606922760.4183,62
1606922760.4203,26
1606922760.4222,14
1606922760.4242,23
1606922760.4263,28
1606922760.4283,26
1606922760.4303,26
1606922760.4323,28
1606922760.4343,43
1606922760.4363,78
1606922760.8575,205
1606922760.8584,645
1606922760.8609,1368
1606922760.8626,1655
1606922760.8646,712
1606922760.8665,-887
1606922760.8685,-1296
1606922760.8705,-437
1606922760.8724,21
1606922760.8744,-83
1606922760.8768,2
1606922760.8786,136
1606922760.8805,86
1606922760.8825,71
1606922760.8845,124
1606922760.8865,129
1606922760.8885,122
1606922760.8905,148
1606922760.8925,165
1606922760.8945,172
1606922760.8964,191
1606922760.8984,215
1606922760.9004,234
1606922760.9024,258
1606922760.9044,289
1606922760.9064,320
1606922760.9084,356
1606922760.9105,392
1606922760.9125,425
1606922760.9144,456
1606922760.9164,480
1606922760.9184,490
1606922760.9204,480
1606922760.9225,466
1606922760.9244,430
1606922760.9264,366
1606922760.9284,279
1606922760.9304,165
1606922760.9324,43
1606922760.9344,-62
1606922760.9364,-138
1606922760.9384,-193
1606922760.9404,-227
1606922760.9425,-244
1606922760.9444,-244
1606922760.9464,-234
1606922760.9484,-220
1606922760.9504,-205
1606922760.9524,-186
1606922760.9544,-167
1606922760.9564,-155
1606922760.9584,-145
1606922760.9604,-133
1606922760.9625,-124
1606922760.9644,-119
1606922760.9664,-112
1606922760.9684,-105
1606922760.9704,-98
1606922760.9724,-95
1606922760.9744,-95
1606922760.9764,-93
1606922760.9786,-90
1606922760.9805,-90
1606922760.9825,-88
1606922760.9844,-88
1606922760.9864,-86
1606922760.9884,-81
1606922760.9904,-83
1606922760.9924,-86
1606922760.9944,-81
1606922760.9964,-76
1606922760.9984,-74
1606922761.0005,-69
1606922761.4272,-64
1606922761.4281,-64
1606922761.4294,-59
1606922761.4314,-50
1606922761.4333,-45
1606922761.4353,-45
1606922761.4373,-43
1606922761.4393,-38
1606922761.4414,-35
1606922761.4433,-43
1606922761.4453,-43
1606922761.4473,-35
1606922761.4493,-31
1606922761.4514,-33
1606922761.4533,-31
1606922761.4553,-26
1606922761.4573,-21
1606922761.4593,-16
1606922761.4613,-14
1606922761.4633,-14
1606922761.4653,-11
1606922761.4673,-9
1606922761.4693,-9
1606922761.4713,-7
1606922761.4733,-4
1606922761.4753,-9
1606922761.4773,-19
1606922761.4793,-16
1606922761.4813,0
1606922761.4833,26
1606922761.4853,62
1606922761.4873,88
1606922761.4892,95
1606922761.4913,81
1606922761.4933,47
1606922761.4953,14
1606922761.4973,2
1606922761.4993,9
1606922761.5013,16
1606922761.5034,19
1606922761.5053,19
1606922761.5073,21
1606922761.5093,40
1606922761.5113,78
1606922761.5133,253
1606922761.5153,796
1606922761.5173,1481
1606922761.5193,1533
1606922761.5213,409
1606922761.5233,-1026
1606922761.5253,-1086
1606922761.5273,-155
1606922761.5293,112
1606922761.5313,-83
1606922761.5333,28
1606922761.5353,143
1606922761.5373,66
1606922761.5393,71
1606922761.5413,129
1606922761.5433,117
1606922761.5453,112
1606922761.5473,138
1606922761.5493,155
1606922761.5513,165
1606922761.5533,186
1606922761.5553,210
1606922761.5573,232
1606922761.5594,258
1606922761.5614,291
1606922761.5633,327
1606922761.5653,361
1606922761.5673,394
1606922761.5693,430
1606922761.9675,461
1606922761.9682,483
1606922761.9706,495
1606922761.9733,490
1606922761.9753,471
1606922761.9773,430
1606922761.9794,361
1606922761.9813,256
1606922761.9834,136
1606922761.9852,19
1606922761.9872,-86
1606922761.9892,-169
1606922761.9913,-220
1606922761.9932,-246
1606922761.9952,-260
1606922761.9972,-260
1606922761.9992,-251
1606922762.0014,-236
1606922762.0033,-217
1606922762.0052,-200
1606922762.0072,-186
1606922762.0092,-169
1606922762.0112,-155
1606922762.0132,-145
1606922762.0152,-136
1606922762.0172,-126
1606922762.0193,-119
1606922762.0213,-114
1606922762.0232,-107
1606922762.0252,-105
1606922762.0272,-102
1606922762.0292,-100
1606922762.0312,-93
1606922762.0332,-88
1606922762.0352,-90
1606922762.0372,-90
1606922762.0392,-86
1606922762.0412,-83
1606922762.0432,-81
1606922762.0452,-76
1606922762.0472,-71
1606922762.0492,-71
1606922762.0513,-69
1606922762.0532,-64
1606922762.0552,-59
1606922762.0572,-52
1606922762.0592,-52
1606922762.0612,-50
1606922762.0632,-45
1606922762.0652,-43
1606922762.0672,-40
1606922762.0692,-33
1606922762.0713,-35
1606922762.0732,-40
1606922762.0752,-38
1606922762.0772,-31
1606922762.0792,-26
1606922762.0812,-23
1606922762.0832,-21
1606922762.0852,-19
1606922762.0873,-16
1606922762.0893,-11
1606922762.0912,-7
1606922762.0932,-7
1606922762.0952,-7
1606922762.0972,-2
1606922762.0992,0
1606922762.1012,2
1606922762.1034,4
1606922762.1053,7
1606922762.1072,4
1606922762.1092,-4
1606922762.1113,-2
1606922762.5677,14
1606922762.5687,38
1606922762.5712,71
1606922762.5738,100
1606922762.5758,100
1606922762.5778,76
1606922762.5798,43
1606922762.5821,7
1606922762.5837,-9
1606922762.5857,0
1606922762.5877,7
1606922762.5898,2
1606922762.5917,4
1606922762.5936,14
1606922762.5956,31
1606922762.5976,76
1606922762.5997,299
1606922762.6017,890
1606922762.6037,1519
1606922762.6056,1402
1606922762.6076,148
1606922762.6096,-1150
1606922762.6117,-976
1606922762.6137,-76
1606922762.6157,69
1606922762.6176,-90
1606922762.6196,57
1606922762.6217,136
1606922762.6236,55
1606922762.6256,76
1606922762.6277,129
1606922762.6296,112
1606922762.6317,117
1606922762.6336,150
1606922762.6356,162
1606922762.6376,169
1606922762.6397,189
1606922762.6417,210
1606922762.6436,229
1606922762.6456,256
1606922762.6476,287
1606922762.6496,320
1606922762.6517,354
1606922762.6536,392
1606922762.6556,428
1606922762.6576,456
1606922762.6598,468
1606922762.6618,473
1606922762.6637,471
1606922762.6656,454
1606922762.6676,411
1606922762.6696,342
1606922762.6717,248
1606922762.6737,126
1606922762.6757,7
1606922762.6776,-86
1606922762.6796,-153
1606922762.6817,-200
1606922762.6836,-229
1606922762.6856,-244
1606922762.6877,-244
1606922762.6896,-232
1606922762.6916,-210
1606922762.6936,-193
1606922762.6956,-184
1606922762.6976,-172
1606922762.6997,-160
1606922762.7017,-148
1606922762.7037,-141
1606922762.7056,-133
1606922762.7076,-126
1606922762.7097,-122
1606922762.7117,-117
1606922763.1076,-110
1606922763.1082,-105
1606922763.1107,-105
1606922763.1133,-98
1606922763.1154,-100
1606922763.1173,-107
1606922763.1194,-105
1606922763.1213,-100
1606922763.1233,-105
1606922763.1253,-110
1606922763.1273,-105
1606922763.1293,-98
1606922763.1313,-100
1606922763.1332,-105
1606922763.1352,-100
1606922763.1373,-95
1606922763.1392,-88
1606922763.1413,-83
1606922763.1433,-74
1606922763.1452,-69
1606922763.1472,-69
1606922763.1492,-64
1606922763.1513,-57
1606922763.1532,-55
1606922763.1554,-55
1606922763.1573,-47
1606922763.1592,-43
1606922763.1613,-40
1606922763.1632,-43
1606922763.1652,-43
1606922763.1672,-35
1606922763.1692,-26
1606922763.1713,-23
1606922763.1732,-26
1606922763.1752,-23
1606922763.1772,-19
1606922763.1793,-11
1606922763.1813,-9
1606922763.1832,-11
1606922763.1852,-14
1606922763.1872,-21
1606922763.1892,-21
1606922763.1913,-4
1606922763.1932,16
1606922763.1952,33
1606922763.1973,59
1606922763.1992,88
1606922763.2013,86
1606922763.2032,52
1606922763.2052,14
1606922763.2072,-4
1606922763.2092,-2
1606922763.2113,2
1606922763.2132,2
1606922763.2152,9
1606922763.2172,14
1606922763.2192,21
1606922763.2213,52
1606922763.2232,143
1606922763.2252,480
1606922763.2273,1165
1606922763.2293,1662
1606922763.2313,1091
1606922763.2333,-480
1606922763.2352,-1342
1606922763.2372,-672
1606922763.2392,11
1606922763.2413,-43
1606922763.2432,-45
1606922763.2452,119
1606922763.2472,110
1606922763.2492,66
1606922763.2513,124
1606922763.6777,148
1606922763.6785,131
1606922763.6805,145
1606922763.6823,174
1606922763.6842,189
1606922763.6862,198
1606922763.6882,217
1606922763.6902,241
1606922763.6922,260
1606922763.6942,282
1606922763.6962,311
1606922763.6982,344
1606922763.7002,385
1606922763.7022,425
1606922763.7041,461
1606922763.7061,488
1606922763.7081,512
1606922763.7101,521
1606922763.7122,509
1606922763.7142,480
1606922763.7162,430
1606922763.7181,344
1606922763.7201,232
1606922763.7222,107
1606922763.7241,-11
1606922763.7262,-110
1606922763.7282,-181
1606922763.7301,-224
1606922763.7322,-248
1606922763.7342,-258
1606922763.7361,-258
1606922763.7382,-251
1606922763.7401,-234
1606922763.7422,-215
1606922763.7441,-203
1606922763.7461,-189
1606922763.7483,-172
1606922763.7502,-160
1606922763.7522,-155
1606922763.7542,-150
1606922763.7561,-141
1606922763.7581,-131
1606922763.7602,-126
1606922763.7622,-124
1606922763.7642,-124
1606922763.7661,-124
1606922763.7681,-122
1606922763.7701,-114
1606922763.7722,-107
1606922763.7742,-107
1606922763.7761,-107
1606922763.7782,-107
1606922763.7801,-105
1606922763.7823,-98
1606922763.7843,-93
1606922763.7861,-90
1606922763.7882,-90
1606922763.7903,-83
1606922763.7922,-78
1606922763.7941,-74
1606922763.7948,-71
1606922763.7962,-69
1606922763.7981,-64
1606922763.8002,-59
1606922763.8022,-57
1606922763.8041,-57
1606922763.8061,-47
1606922763.8082,-40
1606922763.8101,-40
1606922763.8122,-40
1606922763.8141,-35
1606922763.8161,-33
1606922763.8182,-31
1606922764.2482,-26
1606922764.2495,-23
1606922764.2519,-31
1606922764.2546,-26
1606922764.2565,-7
1606922764.2585,7
1606922764.2606,33
1606922764.2624,62
1606922764.2644,74
1606922764.2664,59
1606922764.2684,19
1606922764.2704,-26
1606922764.2724,-40
1606922764.2744,-26
1606922764.2764,-21
1606922764.2784,-26
1606922764.2803,-21
1606922764.2811,-11
1606922764.2834,0
1606922764.2854,31
1606922764.2874,145
1606922764.2893,581
1606922764.2914,1323
1606922764.2934,1660
1606922764.2955,777
1606922764.2974,-846
1606922764.2994,-1351
1606922764.3014,-483
1606922764.3034,45
1606922764.3054,-86
1606922764.3074,-33
1606922764.3096,117
1606922764.3115,71
1606922764.3120,47
1606922764.3133,107
1606922764.3153,114
1606922764.3173,107
1606922764.3195,131
1606922764.3214,148
1606922764.3234,155
1606922764.3254,179
1606922764.3274,203
1606922764.3294,220
1606922764.3314,246
1606922764.3333,277
1606922764.3354,306
1606922764.3374,339
1606922764.3394,375
1606922764.3414,413
1606922764.3421,449
1606922764.3444,471
1606922764.3464,480
1606922764.3484,480
1606922764.3504,464
1606922764.3524,423
1606922764.3544,358
1606922764.3564,270
1606922764.3584,153
1606922764.3604,31
1606922764.3624,-69
1606922764.3644,-141
1606922764.3664,-196
1606922764.3684,-229
1606922764.3704,-241
1606922764.3724,-239
1606922764.3731,-232
1606922764.3754,-217
1606922764.3774,-200
1606922764.3794,-184
1606922764.3814,-174
1606922764.3834,-165
1606922764.3854,-153
1606922764.3874,-143
1606922764.8175,-138
1606922764.8184,-133
1606922764.8209,-129
1606922764.8235,-117
1606922764.8255,-112
1606922764.8275,-112
1606922764.8296,-110
1606922764.8303,-110
1606922764.8325,-114
1606922764.8346,-117
1606922764.8365,-112
1606922764.8384,-110
1606922764.8404,-114
1606922764.8424,-119
1606922764.8444,-112
1606922764.8464,-105
1606922764.8485,-105
1606922764.8504,-105
1606922764.8524,-95
1606922764.8544,-93
1606922764.8564,-90
1606922764.8584,-83
1606922764.8604,-78
1606922764.8611,-74
1606922764.8624,-71
1606922764.8644,-66
1606922764.8664,-66
1606922764.8684,-62
1606922764.8704,-55
1606922764.8724,-47
1606922764.8744,-45
1606922764.8764,-45
1606922764.8784,-43
1606922764.8804,-40
1606922764.8824,-35
1606922764.8844,-33
1606922764.8864,-33
1606922764.8885,-35
1606922764.8892,-38
1606922764.8914,-28
1606922764.8934,-7
1606922764.8954,16
1606922764.8974,52
1606922764.8994,78
1606922764.9014,74
1606922764.9034,47
1606922764.9054,11
1606922764.9074,-14
1606922764.9094,-14
1606922764.9114,-4
1606922764.9134,-2
1606922764.9154,-2
1606922764.9174,2
1606922764.9194,9
1606922764.9201,28
1606922764.9224,90
1606922764.9244,366
1606922764.9264,1007
1606922764.9284,1571
1606922764.9304,1251
1606922764.9326,-141
1606922764.9344,-1272
1606922764.9364,-849
1606922764.9384,4
1606922764.9404,33
1606922764.9424,-90
1606922764.9444,81
1606922764.9464,119
1606922764.9484,47
1606922764.9504,88
1606922764.9511,126
1606922764.9524,110
1606922764.9544,124
1606922765.3275,148
1606922765.3286,157
1606922765.3311,174
1606922765.3336,200
1606922765.3357,222
1606922765.3376,244
1606922765.3397,270
1606922765.3416,301
1606922765.3435,337
1606922765.3457,373
1606922765.3476,406
1606922765.3483,445
1606922765.3496,478
1606922765.3517,490
1606922765.3536,495
1606922765.3555,490
1606922765.3575,464
1606922765.3595,411
1606922765.3616,332
1606922765.3635,224
1606922765.3655,98
1606922765.3675,-19
1606922765.3696,-107
1606922765.3716,-177
1606922765.3735,-227
1606922765.3755,-248
1606922765.3775,-251
1606922765.3782,-246
1606922765.3795,-234
1606922765.3816,-217
1606922765.3835,-200
1606922765.3855,-186
1606922765.3876,-172
1606922765.3895,-162
1606922765.3916,-150
1606922765.3935,-141
1606922765.3955,-131
1606922765.3975,-126
1606922765.3997,-119
1606922765.4017,-114
1606922765.4036,-114
1606922765.4055,-112
1606922765.4075,-112
1606922765.4095,-112
1606922765.4116,-112
1606922765.4135,-110
1606922765.4155,-107
1606922765.4175,-105
1606922765.4196,-102
1606922765.4216,-102
1606922765.4235,-98
1606922765.4255,-90
1606922765.4275,-86
1606922765.4295,-86
1606922765.4316,-81
1606922765.4335,-76
1606922765.4356,-74
1606922765.4375,-74
1606922765.4395,-66
1606922765.4416,-62
1606922765.4435,-62
1606922765.4455,-59
1606922765.4475,-52
1606922765.4495,-47
1606922765.4516,-43
1606922765.4535,-40
1606922765.4555,-38
1606922765.4575,-33
1606922765.4595,-33
1606922765.4616,-31
1606922765.4635,-26
1606922765.4655,-21
1606922765.4675,-21
1606922765.8678,-19
1606922765.8687,-19
1606922765.8712,-21
1606922765.8738,-21
1606922765.8758,-16
1606922765.8778,-14
1606922765.8798,-26
1606922765.8819,-31
1606922765.8837,-14
1606922765.8857,11
1606922765.8877,38
1606922765.8897,64
1606922765.8918,76
1606922765.8937,62
1606922765.8957,26
1606922765.8977,-7
1606922765.8999,-16
1606922765.9018,-11
1606922765.9037,-7
1606922765.9057,-7
1606922765.9077,-2
1606922765.9097,4
1606922765.9117,16
1606922765.9137,50
1606922765.9157,229
1606922765.9177,763
1606922765.9197,1440
1606922765.9217,1507
1606922765.9237,413
1606922765.9257,-1019
1606922765.9277,-1119
1606922765.9297,-203
1606922765.9317,90
1606922765.9337,-95
1606922765.9357,16
1606922765.9377,136
1606922765.9397,59
1606922765.9417,62
1606922765.9437,122
1606922765.9457,114
1606922765.9477,119
1606922765.9497,145
1606922765.9517,155
1606922765.9537,167
1606922765.9557,193
1606922765.9577,210
1606922765.9598,227
1606922765.9617,256
1606922765.9637,287
1606922765.9657,318
1606922765.9677,354
1606922765.9696,392
1606922765.9717,433
1606922765.9737,468
1606922765.9757,492
1606922765.9777,504
1606922765.9797,500
1606922765.9817,483
1606922765.9837,447
1606922765.9857,385
1606922765.9877,291
1606922765.9897,167
1606922765.9917,43
1606922765.9937,-52
1606922765.9957,-129
1606922765.9977,-191
1606922765.9997,-227
1606922766.0019,-244
1606922766.0037,-246
1606922766.0057,-239
1606922766.0076,-222
1606922766.0096,-208
1606922766.0117,-198
1606922766.4377,-184
1606922766.4386,-165
1606922766.4411,-153
1606922766.4437,-148
1606922766.4457,-150
1606922766.4477,-148
1606922766.4497,-138
1606922766.4518,-136
1606922766.4537,-133
1606922766.4557,-124
1606922766.4577,-122
1606922766.4597,-124
1606922766.4618,-124
1606922766.4637,-124
1606922766.4657,-124
1606922766.4676,-117
1606922766.4697,-112
1606922766.4717,-114
1606922766.4737,-112
1606922766.4757,-110
1606922766.4777,-107
1606922766.4797,-100
1606922766.4817,-93
1606922766.4836,-88
1606922766.4856,-86
1606922766.4876,-81
1606922766.4896,-71
1606922766.4917,-69
1606922766.4936,-71
1606922766.4956,-64
1606922766.4976,-59
1606922766.4996,-57
1606922766.5017,-57
1606922766.5036,-50
1606922766.5056,-43
1606922766.5076,-43
1606922766.5096,-40
1606922766.5117,-33
1606922766.5136,-31
1606922766.5156,-38
1606922766.5176,-35
1606922766.5196,-26
1606922766.5217,-21
1606922766.5236,-21
1606922766.5256,-19
1606922766.5278,-19
1606922766.5297,-23
1606922766.5317,-11
1606922766.5336,9
1606922766.5356,21
1606922766.5376,40
1606922766.5396,71
1606922766.5417,83
1606922766.5436,59
1606922766.5456,16
1606922766.5476,-7
1606922766.5496,-7
1606922766.5517,0
1606922766.5536,0
1606922766.5556,-4
1606922766.5576,-7
1606922766.5596,-2
1606922766.5617,21
1606922766.5636,76
1606922766.5656,251
1606922766.5676,772
1606922766.5696,1483
1606922766.5717,1559
1606922766.5736,368
1606922766.5756,-1134
1606922766.5776,-1198
1606922766.5796,-294
1606922766.5817,9
1606922767.0376,-95
1606922767.0384,28
1606922767.0409,124
1606922767.0435,66
1606922767.0455,76
1606922767.0475,117
1606922767.0496,107
1606922767.0515,114
1606922767.0535,145
1606922767.0555,153
1606922767.0575,160
1606922767.0595,186
1606922767.0616,210
1606922767.0635,229
1606922767.0655,258
1606922767.0675,287
1606922767.0695,318
1606922767.0715,351
1606922767.0734,387
1606922767.0754,423
1606922767.0774,454
1606922767.0794,476
1606922767.0815,488
1606922767.0836,485
1606922767.0856,461
1606922767.0875,418
1606922767.0894,356
1606922767.0914,263
1606922767.0934,141
1606922767.0954,21
1606922767.0974,-71
1606922767.0994,-143
1606922767.1015,-196
1606922767.1035,-229
1606922767.1054,-236
1606922767.1074,-232
1606922767.1094,-220
1606922767.1115,-208
1606922767.1134,-196
1606922767.1154,-186
1606922767.1174,-169
1606922767.1194,-157
1606922767.1215,-143
1606922767.1234,-133
1606922767.1254,-129
1606922767.1274,-126
1606922767.1294,-117
1606922767.1315,-112
1606922767.1334,-107
1606922767.1354,-102
1606922767.1374,-102
1606922767.1394,-100
1606922767.1415,-98
1606922767.1434,-102
1606922767.1454,-107
1606922767.1474,-105
1606922767.1494,-105
1606922767.1515,-105
1606922767.1534,-102
1606922767.1554,-98
1606922767.1575,-95
1606922767.1594,-95
1606922767.1614,-93
1606922767.1634,-90
1606922767.1654,-83
1606922767.1674,-78
1606922767.1694,-76
1606922767.1715,-74
1606922767.1734,-71
1606922767.1754,-66
1606922767.1774,-59
1606922767.1794,-57
1606922767.1815,-57
1606922767.5778,-50
1606922767.5789,-47
1606922767.5811,-47
1606922767.5838,-43
1606922767.5857,-35
1606922767.5877,-33
1606922767.5898,-33
1606922767.5918,-31
1606922767.5937,-26
1606922767.5957,-23
1606922767.5977,-28
1606922767.5997,-33
1606922767.6017,-28
1606922767.6037,-23
1606922767.6057,-23
1606922767.6077,-21
1606922767.6097,-14
1606922767.6117,-19
1606922767.6137,-28
1606922767.6157,-23
1606922767.6177,-7
1606922767.6197,14
1606922767.6217,47
1606922767.6237,76
1606922767.6256,81
1606922767.6276,62
1606922767.6296,26
1606922767.6317,-2
1606922767.6336,-7
1606922767.6356,0
1606922767.6376,2
1606922767.6396,2
1606922767.6417,7
1606922767.6436,9
1606922767.6456,23
1606922767.6476,59
1606922767.6496,248
1606922767.6517,815
1606922767.6536,1502
1606922767.6556,1512
1606922767.6576,344
1606922767.6596,-1067
1606922767.6617,-1062
1606922767.6636,-133
1606922767.6656,88
1606922767.6676,-107
1606922767.6697,21
1606922767.6717,129
1606922767.6737,50
1606922767.6757,59
1606922767.6777,119
1606922767.6796,107
1606922767.6818,105
1606922767.6837,133
1606922767.6856,143
1606922767.6877,155
1606922767.6896,179
1606922767.6917,200
1606922767.6936,220
1606922767.6956,251
1606922767.6976,282
1606922767.6996,313
1606922767.7017,346
1606922767.7037,387
1606922767.7056,425
1606922767.7076,454
1606922767.7097,478
1606922767.7117,490
1606922767.7136,485
1606922767.7156,464
1606922767.7177,425
1606922767.7197,363
1606922767.7217,267
1606922768.1479,148
1606922768.1487,28
1606922768.1513,-71
1606922768.1538,-145
1606922768.1558,-196
1606922768.1578,-224
1606922768.1599,-236
1606922768.1618,-244
1606922768.1638,-241
1606922768.1658,-224
1606922768.1678,-208
1606922768.1698,-196
1606922768.1718,-181
1606922768.1737,-167
1606922768.1757,-155
1606922768.1777,-148
1606922768.1797,-141
1606922768.1818,-133
1606922768.1837,-129
1606922768.1857,-126
1606922768.1877,-122
1606922768.1897,-114
1606922768.1918,-114
1606922768.1937,-110
1606922768.1957,-107
1606922768.1977,-107
1606922768.1997,-110
1606922768.2018,-107
1606922768.2037,-105
1606922768.2057,-102
1606922768.2079,-98
1606922768.2098,-95
1606922768.2118,-90
1606922768.2137,-86
1606922768.2157,-86
1606922768.2177,-83
1606922768.2197,-76
1606922768.2218,-74
1606922768.2237,-78
1606922768.2257,-76
1606922768.2277,-69
1606922768.2297,-64
1606922768.2318,-62
1606922768.2337,-59
1606922768.2357,-57
1606922768.2377,-55
1606922768.2397,-50
1606922768.2418,-47
1606922768.2437,-43
1606922768.2457,-38
1606922768.2477,-38
1606922768.2497,-35
1606922768.2518,-31
1606922768.2538,-26
1606922768.2557,-26
1606922768.2577,-26
1606922768.2597,-21
1606922768.2618,-19
1606922768.2637,-16
1606922768.2657,-14
1606922768.2677,-7
1606922768.2697,-7
1606922768.2718,-7
1606922768.2737,-4
1606922768.2757,0
1606922768.2777,2
1606922768.2797,2
1606922768.2818,2
1606922768.2837,4
1606922768.2857,4
1606922768.2877,7
1606922768.2897,7
1606922768.2918,-2
1606922768.7173,0
1606922768.7180,19
1606922768.7204,43
1606922768.7231,74
1606922768.7250,98
1606922768.7270,93
1606922768.7291,66
1606922768.7311,28
1606922768.7332,0
1606922768.7351,-9
1606922768.7371,-2
1606922768.7390,4
1606922768.7411,0
1606922768.7430,0
1606922768.7450,9
1606922768.7470,28
1606922768.7490,76
1606922768.7511,318
1606922768.7531,933
1606922768.7550,1550
1606922768.7570,1368
1606922768.7590,66
1606922768.7610,-1177
1606922768.7630,-913
1606922768.7650,-38
1606922768.7670,47
1606922768.7691,-105
1606922768.7710,62
1606922768.7730,122
1606922768.7750,35
1606922768.7770,64
1606922768.7790,112
1606922768.7811,95
1606922768.7830,102
1606922768.7850,131
1606922768.7870,136
1606922768.7890,143
1606922768.7910,172
1606922768.7930,196
1606922768.7950,215
1606922768.7970,239
1606922768.7990,270
1606922768.8010,303
1606922768.8030,337
1606922768.8050,378
1606922768.8070,413
1606922768.8090,442
1606922768.8111,464
1606922768.8130,473
1606922768.8150,473
1606922768.8170,454
1606922768.8190,411
1606922768.8210,346
1606922768.8230,258
1606922768.8250,138
1606922768.8271,16
1606922768.8290,-83
1606922768.8311,-150
1606922768.8330,-200
1606922768.8352,-234
1606922768.8371,-248
1606922768.8390,-246
1606922768.8410,-234
1606922768.8430,-220
1606922768.8450,-203
1606922768.8470,-186
1606922768.8490,-177
1606922768.8511,-167
1606922768.8531,-155
1606922768.8550,-143
1606922768.8570,-136
1606922768.8590,-131
1606922768.8610,-124
1606922769.2573,-114
1606922769.2581,-112
1606922769.2606,-112
1606922769.2632,-102
1606922769.2651,-100
1606922769.2671,-107
1606922769.2692,-114
1606922769.2712,-110
1606922769.2732,-110
1606922769.2751,-114
1606922769.2771,-117
1606922769.2791,-110
1606922769.2811,-105
1606922769.2831,-105
1606922769.2851,-105
1606922769.2871,-98
1606922769.2891,-88
1606922769.2911,-83
1606922769.2931,-83
1606922769.2951,-81
1606922769.2971,-74
1606922769.2991,-71
1606922769.3011,-74
1606922769.3031,-76
1606922769.3051,-66
1606922769.3071,-59
1606922769.3091,-57
1606922769.3111,-52
1606922769.3131,-52
1606922769.3151,-50
1606922769.3171,-43
1606922769.3191,-38
1606922769.3211,-38
1606922769.3231,-38
1606922769.3251,-31
1606922769.3271,-26
1606922769.3291,-26
1606922769.3313,-23
1606922769.3331,-21
1606922769.3351,-19
1606922769.3371,-16
1606922769.3391,-14
1606922769.3411,-14
1606922769.3431,-11
1606922769.3451,-7
1606922769.3471,0
1606922769.3491,2
1606922769.3511,2
1606922769.3531,-2
1606922769.3551,-7
1606922769.3571,2
1606922769.3591,19
1606922769.3611,35
1606922769.3631,59
1606922769.3651,88
1606922769.3671,93
1606922769.3691,76
1606922769.3711,40
1606922769.3731,2
1606922769.3751,-7
1606922769.3771,7
1606922769.3791,14
1606922769.3811,9
1606922769.3831,11
1606922769.3851,14
1606922769.3871,23
1606922769.3891,59
1606922769.3911,215
1606922769.3931,710
1606922769.3951,1423
1606922769.3971,1619
1606922769.3991,593
1606922769.4011,-961
1606922769.8575,-1220
1606922769.8584,-318
1606922769.8610,52
1606922769.8636,-95
1606922769.8655,4
1606922769.8675,131
1606922769.8697,71
1606922769.8715,59
1606922769.8735,114
1606922769.8754,112
1606922769.8774,107
1606922769.8795,133
1606922769.8815,150
1606922769.8834,160
1606922769.8854,181
1606922769.8876,198
1606922769.8894,215
1606922769.8916,236
1606922769.8934,263
1606922769.8954,296
1606922769.8974,339
1606922769.8994,380
1606922769.9014,409
1606922769.9034,440
1606922769.9054,476
1606922769.9074,497
1606922769.9094,495
1606922769.9114,480
1606922769.9134,452
1606922769.9154,392
1606922769.9174,301
1606922769.9194,184
1606922769.9214,59
1606922769.9235,-62
1606922769.9254,-157
1606922769.9275,-212
1606922769.9294,-239
1606922769.9314,-258
1606922769.9334,-265
1606922769.9354,-260
1606922769.9374,-246
1606922769.9394,-224
1606922769.9414,-205
1606922769.9434,-193
1606922769.9454,-179
1606922769.9474,-169
1606922769.9494,-160
1606922769.9514,-150
1606922769.9534,-143
1606922769.9554,-138
1606922769.9574,-129
1606922769.9594,-122
1606922769.9614,-122
1606922769.9634,-117
1606922769.9654,-110
1606922769.9674,-110
1606922769.9694,-114
1606922769.9714,-112
1606922769.9734,-107
1606922769.9754,-105
1606922769.9774,-100
1606922769.9794,-98
1606922769.9814,-98
1606922769.9834,-93
1606922769.9854,-88
1606922769.9874,-83
1606922769.9896,-78
1606922769.9916,-76
1606922769.9935,-74
1606922769.9954,-74
1606922769.9974,-69
1606922769.9994,-62
1606922770.0014,-57
1606922770.3975,-55
1606922770.3980,-50
1606922770.3997,-47
1606922770.4015,-47
1606922770.4034,-50
1606922770.4054,-55
1606922770.4061,-50
1606922770.4074,-47
1606922770.4095,-50
1606922770.4115,-47
1606922770.4134,-45
1606922770.4154,-47
1606922770.4174,-47
1606922770.4194,-47
1606922770.4215,-45
1606922770.4235,-38
1606922770.4255,-38
1606922770.4274,-38
1606922770.4294,-33
1606922770.4315,-33
1606922770.4334,-28
1606922770.4354,-14
1606922770.4361,2
1606922770.4374,23
1606922770.4394,55
1606922770.4415,71
1606922770.4434,50
1606922770.4455,7
1606922770.4474,-26
1606922770.4494,-23
1606922770.4515,-11
1606922770.4534,-11
1606922770.4554,-14
1606922770.4574,-11
1606922770.4594,-7
1606922770.4615,4
1606922770.4634,35
1606922770.4654,160
1606922770.4661,626
1606922770.4685,1373
1606922770.4704,1670
1606922770.4724,727
1606922770.4744,-885
1606922770.4764,-1299
1606922770.4786,-401
1606922770.4805,57
1606922770.4824,-102
1606922770.4844,-31
1606922770.4865,117
1606922770.4884,59
1606922770.4905,43
1606922770.4925,105
1606922770.4946,107
1606922770.4965,95
1606922770.4971,124
1606922770.4994,138
1606922770.5015,145
1606922770.5034,169
1606922770.5054,198
1606922770.5074,215
1606922770.5094,236
1606922770.5115,265
1606922770.5135,294
1606922770.5155,325
1606922770.5175,366
1606922770.5195,406
1606922770.5215,437
1606922770.5235,464
1606922770.5255,480
1606922770.5275,478
1606922770.5282,459
1606922770.5294,423
1606922770.5316,363
1606922770.9681,270
1606922770.9688,143
1606922770.9699,19
1606922770.9719,-81
1606922770.9739,-160
1606922770.9759,-215
1606922770.9779,-248
1606922770.9799,-263
1606922770.9819,-265
1606922770.9825,-265
1606922770.9848,-260
1606922770.9868,-239
1606922770.9890,-217
1606922770.9909,-205
1606922770.9928,-193
1606922770.9948,-174
1606922770.9968,-162
1606922770.9989,-155
1606922771.0008,-143
1606922771.0028,-133
1606922771.0048,-129
1606922771.0068,-124
1606922771.0090,-117
1606922771.0109,-112
1606922771.0115,-107
1606922771.0138,-107
1606922771.0158,-107
1606922771.0178,-105
1606922771.0199,-100
1606922771.0219,-100
1606922771.0238,-100
1606922771.0258,-98
1606922771.0278,-98
1606922771.0298,-95
1606922771.0319,-90
1606922771.0338,-83
1606922771.0358,-78
1606922771.0378,-81
1606922771.0398,-78
1606922771.0419,-69
1606922771.0425,-64
1606922771.0448,-62
1606922771.0468,-57
1606922771.0489,-52
1606922771.0509,-52
1606922771.0528,-50
1606922771.0548,-45
1606922771.0568,-43
1606922771.0588,-38
1606922771.0608,-33
1606922771.0629,-31
1606922771.0648,-31
1606922771.0668,-26
1606922771.0688,-23
1606922771.0709,-19
1606922771.0728,-16
1606922771.0735,-16
1606922771.0749,-14
1606922771.0768,-11
1606922771.0788,-9
1606922771.0809,-9
1606922771.0828,-4
1606922771.0848,-2
1606922771.0868,-4
1606922771.0888,-9
1606922771.0908,-19
1606922771.0928,-16
1606922771.0948,-4
1606922771.0968,11
1606922771.0988,40
1606922771.1008,74
1606922771.1028,86
1606922771.1035,69
1606922771.5082,33
1606922771.5109,2
1606922771.5121,-9
1606922771.5139,-4
1606922771.5158,0
1606922771.5178,2
1606922771.5199,4
1606922771.5219,4
1606922771.5238,16
1606922771.5258,45
1606922771.5278,153
1606922771.5298,576
1606922771.5305,1282
1606922771.5328,1603
1606922771.5348,808
1606922771.5368,-722
1606922771.5388,-1268
1606922771.5408,-433
1606922771.5428,100
1606922771.5448,-83
1606922771.5468,-57
1606922771.5488,112
1606922771.5508,59
1606922771.5528,23
1606922771.5548,90
1606922771.5568,98
1606922771.5588,83
1606922771.5608,112
1606922771.5615,136
1606922771.5638,143
1606922771.5658,162
1606922771.5678,184
1606922771.5699,203
1606922771.5718,227
1606922771.5738,256
1606922771.5758,287
1606922771.5778,325
1606922771.5798,363
1606922771.5818,399
1606922771.5838,437
1606922771.5858,468
1606922771.5878,485
1606922771.5898,490
1606922771.5918,478
1606922771.5925,447
1606922771.5948,394
1606922771.5968,306
1606922771.5988,189
1606922771.6008,64
1606922771.6028,-50
1606922771.6048,-138
1606922771.6070,-198
1606922771.6088,-234
1606922771.6108,-253
1606922771.6134,-260
1606922771.6148,-258
1606922771.6168,-244
1606922771.6188,-224
1606922771.6208,-212
1606922771.6228,-203
1606922771.6249,-186
1606922771.6268,-174
1606922771.6288,-165
1606922771.6308,-153
1606922771.6328,-138
1606922771.6348,-131
1606922771.6368,-129
1606922771.6388,-122
1606922771.6408,-114
1606922771.6428,-110
1606922771.6448,-107
1606922771.6468,-105
1606922771.6488,-102
1606922772.0476,-105
1606922772.0482,-102
1606922772.0507,-98
1606922772.0533,-95
1606922772.0553,-98
1606922772.0573,-93
1606922772.0593,-88
1606922772.0614,-90
1606922772.0633,-95
1606922772.0653,-93
1606922772.0673,-86
1606922772.0693,-83
1606922772.0713,-81
1606922772.0733,-78
1606922772.0753,-74
1606922772.0773,-71
1606922772.0793,-69
1606922772.0813,-66
1606922772.0833,-59
1606922772.0852,-55
1606922772.0872,-52
1606922772.0892,-50
1606922772.0913,-45
1606922772.0932,-43
1606922772.0952,-43
1606922772.0972,-35
1606922772.0992,-31
1606922772.1013,-31
1606922772.1032,-31
1606922772.1054,-23
1606922772.1073,-21
1606922772.1092,-21
1606922772.1113,-19
1606922772.1132,-14
1606922772.1152,-11
1606922772.1172,-14
1606922772.1192,-11
1606922772.1213,-7
1606922772.1232,-4
1606922772.1252,-11
1606922772.1272,-19
1606922772.1292,-9
1606922772.1313,9
1606922772.1332,26
1606922772.1352,52
1606922772.1372,81
1606922772.1392,83
1606922772.1413,64
1606922772.1432,26
1606922772.1452,-7
1606922772.1472,-9
1606922772.1492,-2
1606922772.1512,-7
1606922772.1533,-9
1606922772.1552,-2
1606922772.1572,2
1606922772.1592,14
1606922772.1613,43
1606922772.1632,181
1606922772.1652,665
1606922772.1673,1361
1606922772.1692,1555
1606922772.1713,614
1606922772.1732,-878
1606922772.1752,-1203
1606922772.1772,-313
1606922772.1792,102
1606922772.1813,-90
1606922772.1833,-23
1606922772.1852,122
1606922772.1872,55
1606922772.1892,38
1606922772.1913,105
1606922772.6178,105
1606922772.6186,98
1606922772.6210,126
1606922772.6237,143
1606922772.6257,145
1606922772.6277,155
1606922772.6298,174
1606922772.6319,200
1606922772.6337,229
1606922772.6357,256
1606922772.6376,287
1606922772.6396,325
1606922772.6416,363
1606922772.6436,397
1606922772.6456,433
1606922772.6476,464
1606922772.6496,483
1606922772.6517,485
1606922772.6537,476
1606922772.6557,442
1606922772.6577,385
1606922772.6596,294
1606922772.6617,174
1606922772.6636,47
1606922772.6656,-62
1606922772.6677,-148
1606922772.6696,-215
1606922772.6717,-251
1606922772.6736,-260
1606922772.6756,-260
1606922772.6776,-256
1606922772.6796,-246
1606922772.6816,-229
1606922772.6836,-212
1606922772.6856,-200
1606922772.6876,-189
1606922772.6896,-174
1606922772.6916,-160
1606922772.6936,-148
1606922772.6956,-138
1606922772.6976,-133
1606922772.6996,-131
1606922772.7017,-124
1606922772.7036,-114
1606922772.7056,-114
1606922772.7076,-119
1606922772.7096,-119
1606922772.7116,-117
1606922772.7136,-112
1606922772.7156,-107
1606922772.7176,-105
1606922772.7196,-105
1606922772.7216,-100
1606922772.7236,-95
1606922772.7256,-93
1606922772.7276,-90
1606922772.7296,-86
1606922772.7316,-86
1606922772.7337,-83
1606922772.7356,-76
1606922772.7376,-69
1606922772.7396,-64
1606922772.7416,-62
1606922772.7436,-57
1606922772.7456,-55
1606922772.7476,-52
1606922772.7496,-45
1606922772.7516,-45
1606922772.7536,-47
1606922772.7556,-45
1606922772.7576,-40
1606922772.7596,-38
1606922772.7616,-35
1606922773.1572,-28
1606922773.1579,-26
1606922773.1603,-26
1606922773.1630,-21
1606922773.1649,-19
1606922773.1669,-23
1606922773.1690,-28
1606922773.1710,-28
1606922773.1729,-21
1606922773.1749,-14
1606922773.1769,-11
1606922773.1789,-19
1606922773.1810,-23
1606922773.1829,-7
1606922773.1849,14
1606922773.1870,28
1606922773.1889,52
1606922773.1909,76
1606922773.1929,78
1606922773.1949,50
1606922773.1969,9
1606922773.1989,-14
1606922773.2010,-11
1606922773.2029,-2
1606922773.2049,0
1606922773.2069,0
1606922773.2089,2
1606922773.2109,2
1606922773.2129,21
1606922773.2149,74
1606922773.2169,260
1606922773.2189,796
1606922773.2209,1497
1606922773.2229,1540
1606922773.2249,320
1606922773.2269,-1162
1606922773.2290,-1167
1606922773.2310,-256
1606922773.2329,9
1606922773.2349,-105
1606922773.2368,26
1606922773.2375,117
1606922773.2388,59
1606922773.2409,74
1606922773.2428,126
1606922773.2448,119
1606922773.2469,114
1606922773.2489,138
1606922773.2510,155
1606922773.2529,167
1606922773.2548,184
1606922773.2569,208
1606922773.2588,229
1606922773.2610,253
1606922773.2628,279
1606922773.2649,313
1606922773.2669,354
1606922773.2675,392
1606922773.2688,430
1606922773.2709,466
1606922773.2728,490
1606922773.2748,502
1606922773.2769,502
1606922773.2788,485
1606922773.2809,445
1606922773.2829,373
1606922773.2849,272
1606922773.2869,150
1606922773.2889,21
1606922773.2909,-88
1606922773.2928,-169
1606922773.2948,-224
1606922773.2968,-260
1606922773.7874,-272
1606922773.7883,-272
1606922773.7908,-265
1606922773.7935,-258
1606922773.7954,-246
1606922773.7974,-227
1606922773.7996,-210
1606922773.8014,-196
1606922773.8034,-184
1606922773.8054,-172
1606922773.8074,-162
1606922773.8093,-153
1606922773.8114,-145
1606922773.8133,-138
1606922773.8156,-133
1606922773.8174,-131
1606922773.8180,-126
1606922773.8194,-119
1606922773.8214,-119
1606922773.8233,-122
1606922773.8254,-122
1606922773.8273,-117
1606922773.8293,-114
1606922773.8314,-112
1606922773.8333,-112
1606922773.8353,-105
1606922773.8373,-98
1606922773.8393,-95
1606922773.8414,-90
1606922773.8433,-88
1606922773.8453,-88
1606922773.8473,-86
1606922773.8480,-81
1606922773.8503,-78
1606922773.8524,-74
1606922773.8543,-71
1606922773.8563,-66
1606922773.8584,-59
1606922773.8603,-57
1606922773.8623,-55
1606922773.8643,-52
1606922773.8663,-45
1606922773.8683,-43
1606922773.8703,-40
1606922773.8723,-38
1606922773.8743,-33
1606922773.8763,-31
1606922773.8770,-28
1606922773.8783,-26
1606922773.8803,-19
1606922773.8823,-16
1606922773.8843,-21
1606922773.8863,-16
1606922773.8883,-11
1606922773.8903,-16
1606922773.8923,-26
1606922773.8943,-21
1606922773.8963,-2
1606922773.8983,21
1606922773.9003,52
1606922773.9023,78
1606922773.9043,83
1606922773.9063,62
1606922773.9070,23
1606922773.9083,-2
1606922773.9105,-7
1606922773.9124,0
1606922773.9143,4
1606922773.9163,4
1606922773.9183,4
1606922773.9203,9
1606922773.9223,26
1606922773.9243,66
1606922774.3271,248
1606922774.3279,801
1606922774.3303,1485
1606922774.3314,1512
1606922774.3329,339
1606922774.3349,-1100
1606922774.3369,-1107
1606922774.3389,-167
1606922774.3410,83
1606922774.3429,-100
1606922774.3449,26
1606922774.3469,131
1606922774.3489,47
1606922774.3510,50
1606922774.3529,107
1606922774.3549,98
1606922774.3569,95
1606922774.3589,124
1606922774.3610,138
1606922774.3615,145
1606922774.3629,167
1606922774.3649,189
1606922774.3668,215
1606922774.3689,241
1606922774.3709,263
1606922774.3728,294
1606922774.3749,332
1606922774.3769,373
1606922774.3789,411
1606922774.3809,449
1606922774.3828,478
1606922774.3848,490
1606922774.3869,488
1606922774.3889,466
1606922774.3909,425
1606922774.3915,358
1606922774.3928,258
1606922774.3948,129
1606922774.3968,4
1606922774.3989,-100
1606922774.4009,-174
1606922774.4028,-229
1606922774.4049,-265
1606922774.4070,-277
1606922774.4089,-277
1606922774.4109,-270
1606922774.4128,-253
1606922774.4148,-232
1606922774.4169,-217
1606922774.4190,-203
1606922774.4209,-189
1606922774.4215,-174
1606922774.4229,-165
1606922774.4249,-153
1606922774.4268,-141
1606922774.4288,-133
1606922774.4309,-129
1606922774.4329,-119
1606922774.4349,-114
1606922774.4368,-112
1606922774.4388,-107
1606922774.4409,-105
1606922774.4429,-107
1606922774.4449,-105
1606922774.4469,-100
1606922774.4488,-98
1606922774.4510,-95
1606922774.4515,-95
1606922774.4528,-93
1606922774.4548,-90
1606922774.4568,-86
1606922774.4589,-81
1606922774.4609,-78
1606922774.8672,-76
1606922774.8679,-76
1606922774.8702,-74
1606922774.8730,-69
1606922774.8750,-64
1606922774.8769,-59
1606922774.8790,-57
1606922774.8810,-55
1606922774.8829,-50
1606922774.8849,-47
1606922774.8856,-52
1606922774.8870,-52
1606922774.8889,-47
1606922774.8910,-43
1606922774.8929,-43
1606922774.8949,-40
1606922774.8969,-35
1606922774.8989,-38
1606922774.9010,-40
1606922774.9029,-33
1606922774.9049,-28
1606922774.9071,-28
1606922774.9090,-26
1606922774.9108,-23
1606922774.9129,-19
1606922774.9149,-16
1606922774.9156,-14
1606922774.9169,-14
1606922774.9189,-21
1606922774.9209,-23
1606922774.9229,-7
1606922774.9249,14
1606922774.9269,40
1606922774.9289,69
1606922774.9310,83
1606922774.9329,71
1606922774.9349,43
1606922774.9369,7
1606922774.9389,-9
1606922774.9409,-4
1606922774.9429,2
1606922774.9449,0
1606922774.9455,0
1606922774.9469,4
1606922774.9489,14
1606922774.9510,38
1606922774.9529,131
1606922774.9549,502
1606922774.9569,1179
1606922774.9589,1583
1606922774.9610,952
1606922774.9629,-557
1606922774.9649,-1315
1606922774.9669,-576
1606922774.9689,98
1606922774.9709,-31
1606922774.9729,-59
1606922774.9749,122
1606922774.9755,100
1606922774.9769,50
1606922774.9789,107
1606922774.9810,124
1606922774.9829,107
1606922774.9849,126
1606922774.9869,145
1606922774.9889,153
1606922774.9909,172
1606922774.9929,196
1606922774.9949,212
1606922774.9969,234
1606922774.9990,267
1606922775.0010,301
1606922775.0030,334
1606922775.4378,368
1606922775.4388,409
1606922775.4412,447
1606922775.4439,480
1606922775.4459,502
1606922775.4479,507
1606922775.4500,495
1606922775.4519,461
1606922775.4538,404
1606922775.4558,320
1606922775.4578,203
1606922775.4598,69
1606922775.4618,-50
1606922775.4638,-138
1606922775.4658,-205
1606922775.4664,-248
1606922775.4677,-270
1606922775.4698,-272
1606922775.4718,-267
1606922775.4738,-258
1606922775.4758,-241
1606922775.4777,-227
1606922775.4798,-210
1606922775.4818,-196
1606922775.4837,-181
1606922775.4857,-169
1606922775.4877,-160
1606922775.4897,-148
1606922775.4918,-133
1606922775.4937,-129
1606922775.4957,-131
1606922775.4964,-124
1606922775.4978,-112
1606922775.4997,-107
1606922775.5018,-107
1606922775.5037,-107
1606922775.5057,-107
1606922775.5078,-105
1606922775.5098,-105
1606922775.5118,-100
1606922775.5137,-95
1606922775.5157,-93
1606922775.5177,-88
1606922775.5197,-81
1606922775.5218,-78
1606922775.5237,-81
1606922775.5257,-78
1606922775.5265,-74
1606922775.5288,-69
1606922775.5307,-64
1606922775.5330,-57
1606922775.5348,-50
1606922775.5368,-45
1606922775.5387,-47
1606922775.5408,-43
1606922775.5427,-40
1606922775.5447,-43
1606922775.5467,-43
1606922775.5487,-35
1606922775.5507,-33
1606922775.5527,-31
1606922775.5547,-28
1606922775.5567,-23
1606922775.5575,-19
1606922775.5598,-14
1606922775.5618,-14
1606922775.5637,-11
1606922775.5657,-9
1606922775.5677,-9
1606922775.5697,-7
1606922775.5718,0
1606922775.5737,0
1606922775.5757,-11
1606922776.0074,-14
1606922776.0080,2
1606922776.0104,19
1606922776.0116,38
1606922776.0131,66
1606922776.0151,81
1606922776.0171,76
1606922776.0192,45
1606922776.0211,0
1606922776.0230,-23
1606922776.0250,-14
1606922776.0270,-7
1606922776.0290,-14
1606922776.0311,-9
1606922776.0330,0
1606922776.0350,2
1606922776.0370,31
1606922776.0390,119
1606922776.0411,440
1606922776.0418,1107
1606922776.0440,1641
1606922776.0460,1146
1606922776.0480,-425
1606922776.0501,-1397
1606922776.0521,-768
1606922776.0540,-16
1606922776.0561,-45
1606922776.0580,-66
1606922776.0602,110
1606922776.0621,117
1606922776.0640,62
1606922776.0660,107
1606922776.0681,133
1606922776.0701,124
1606922776.0720,141
1606922776.0727,157
1606922776.0750,165
1606922776.0770,191
1606922776.0791,212
1606922776.0811,224
1606922776.0830,248
1606922776.0850,284
1606922776.0870,318
1606922776.0890,349
1606922776.0911,389
1606922776.0931,435
1606922776.0950,476
1606922776.0970,507
1606922776.0990,533
1606922776.1010,545
1606922776.1030,540
1606922776.1037,516
1606922776.1051,466
1606922776.1072,385
1606922776.1091,265
1606922776.1111,119
1606922776.1131,-16
1606922776.1152,-124
1606922776.1171,-198
1606922776.1190,-244
1606922776.1211,-265
1606922776.1230,-277
1606922776.1250,-282
1606922776.1270,-277
1606922776.1290,-258
1606922776.1311,-239
1606922776.1330,-224
1606922776.1338,-212
1606922776.1360,-203
1606922776.1381,-196
1606922776.1400,-184
1606922776.1421,-172
1606922776.1440,-165
1606922776.5177,-157
1606922776.5184,-150
1606922776.5207,-143
1606922776.5235,-136
1606922776.5255,-131
1606922776.5274,-126
1606922776.5297,-136
1606922776.5315,-138
1606922776.5334,-126
1606922776.5354,-126
1606922776.5361,-136
1606922776.5374,-129
1606922776.5394,-124
1606922776.5415,-126
1606922776.5434,-122
1606922776.5454,-112
1606922776.5474,-105
1606922776.5494,-105
1606922776.5515,-100
1606922776.5535,-95
1606922776.5554,-88
1606922776.5574,-78
1606922776.5594,-76
1606922776.5615,-76
1606922776.5634,-64
1606922776.5654,-57
1606922776.5661,-59
1606922776.5674,-55
1606922776.5694,-47
1606922776.5714,-47
1606922776.5734,-45
1606922776.5754,-38
1606922776.5774,-35
1606922776.5794,-35
1606922776.5814,-28
1606922776.5834,-26
1606922776.5854,-35
1606922776.5874,-43
1606922776.5894,-31
1606922776.5914,-19
1606922776.5934,-16
1606922776.5954,19
1606922776.5961,74
1606922776.5974,81
1606922776.5994,45
1606922776.6014,7
1606922776.6034,-23
1606922776.6054,-26
1606922776.6074,-9
1606922776.6094,-16
1606922776.6114,-35
1606922776.6134,-21
1606922776.6154,-4
1606922776.6174,-21
1606922776.6194,4
1606922776.6214,222
1606922776.6234,768
1606922776.6256,1509
1606922776.6262,1739
1606922776.6274,638
1606922776.6294,-1083
1606922776.6314,-1382
1606922776.6334,-370
1606922776.6354,55
1606922776.6374,-119
1606922776.6394,-9
1606922776.6414,136
1606922776.6434,55
1606922776.6454,26
1606922776.6474,83
1606922776.6494,105
1606922776.6514,117
1606922776.6534,131
1606922777.1179,133
1606922777.1188,160
1606922777.1212,189
1606922777.1239,193
1606922777.1259,203
1606922777.1279,234
1606922777.1300,263
1606922777.1319,291
1606922777.1338,325
1606922777.1358,361
1606922777.1379,399
1606922777.1398,435
1606922777.1418,461
1606922777.1438,476
1606922777.1445,478
1606922777.1468,464
1606922777.1488,428
1606922777.1509,368
1606922777.1529,270
1606922777.1548,143
1606922777.1568,19
1606922777.1588,-76
1606922777.1608,-153
1606922777.1628,-208
1606922777.1648,-234
1606922777.1668,-244
1606922777.1688,-253
1606922777.1709,-253
1606922777.1728,-239
1606922777.1748,-227
1606922777.1755,-215
1606922777.1778,-196
1606922777.1798,-179
1606922777.1818,-169
1606922777.1838,-160
1606922777.1860,-143
1606922777.1878,-136
1606922777.1898,-138
1606922777.1919,-138
1606922777.1938,-122
1606922777.1958,-90
1606922777.1978,-86
1606922777.1998,-100
1606922777.2018,-93
1606922777.2038,-83
1606922777.2045,-93
1606922777.2058,-90
1606922777.2078,-83
1606922777.2098,-90
1606922777.2118,-98
1606922777.2138,-88
1606922777.2158,-86
1606922777.2178,-95
1606922777.2198,-93
1606922777.2218,-76
1606922777.2238,-64
1606922777.2258,-71
1606922777.2278,-74
1606922777.2298,-59
1606922777.2318,-52
1606922777.2338,-59
1606922777.2345,-57
1606922777.2368,-45
1606922777.2388,-43
1606922777.2408,-45
1606922777.2428,-43
1606922777.2448,-45
1606922777.2468,-40
1606922777.2488,-23
1606922777.2509,-23
1606922777.2528,-31
1606922777.2548,-28
1606922777.2568,-19
1606922777.7178,-14
1606922777.7187,-16
1606922777.7193,-28
1606922777.7207,-31
1606922777.7226,-14
1606922777.7246,4
1606922777.7267,28
1606922777.7286,62
1606922777.7307,74
1606922777.7326,64
1606922777.7346,43
1606922777.7366,0
1606922777.7386,-26
1606922777.7409,-23
1606922777.7426,-16
1606922777.7446,-14
1606922777.7466,-7
1606922777.7486,-4
1606922777.7493,0
1606922777.7506,21
1606922777.7525,81
1606922777.7545,363
1606922777.7565,1024
1606922777.7585,1586
1606922777.7605,1205
1606922777.7625,-239
1606922777.7645,-1291
1606922777.7666,-777
1606922777.7685,21
1606922777.7705,-14
1606922777.7725,-105
1606922777.7745,93
1606922777.7766,110
1606922777.7785,33
1606922777.7792,81
1606922777.7805,117
1606922777.7826,102
1606922777.7845,119
1606922777.7865,141
1606922777.7885,143
1606922777.7906,167
1606922777.7925,196
1606922777.7945,205
1606922777.7965,222
1606922777.7986,260
1606922777.8005,301
1606922777.8025,330
1606922777.8045,366
1606922777.8065,411
1606922777.8085,449
1606922777.8092,485
1606922777.8105,516
1606922777.8125,523
1606922777.8145,512
1606922777.8165,490
1606922777.8185,440
1606922777.8205,349
1606922777.8225,236
1606922777.8245,112
1606922777.8265,-14
1606922777.8285,-112
1606922777.8305,-177
1606922777.8325,-227
1606922777.8345,-253
1606922777.8367,-251
1606922777.8386,-244
1606922777.8392,-239
1606922777.8400,-229
1606922777.8416,-217
1606922777.8435,-200
1606922777.8455,-181
1606922777.8475,-169
1606922777.8496,-162
1606922778.2572,-153
1606922778.2579,-145
1606922778.2603,-136
1606922778.2614,-122
1606922778.2629,-114
1606922778.2649,-114
1606922778.2669,-112
1606922778.2690,-107
1606922778.2710,-107
1606922778.2729,-117
1606922778.2749,-124
1606922778.2769,-122
1606922778.2789,-119
1606922778.2810,-124
1606922778.2829,-122
1606922778.2849,-114
1606922778.2869,-112
1606922778.2889,-112
1606922778.2909,-112
1606922778.2915,-107
1606922778.2929,-98
1606922778.2949,-88
1606922778.2969,-86
1606922778.2989,-83
1606922778.3010,-76
1606922778.3029,-71
1606922778.3049,-69
1606922778.3069,-62
1606922778.3089,-55
1606922778.3109,-50
1606922778.3129,-50
1606922778.3149,-40
1606922778.3169,-33
1606922778.3189,-40
1606922778.3209,-43
1606922778.3215,-31
1606922778.3229,-21
1606922778.3249,-21
1606922778.3269,-23
1606922778.3289,-23
1606922778.3309,-9
1606922778.3329,7
1606922778.3351,23
1606922778.3369,50
1606922778.3389,66
1606922778.3409,55
1606922778.3429,19
1606922778.3449,-16
1606922778.3469,-23
1606922778.3489,-14
1606922778.3509,-11
1606922778.3515,-9
1606922778.3529,-9
1606922778.3550,-4
1606922778.3569,7
1606922778.3589,28
1606922778.3609,100
1606922778.3629,416
1606922778.3649,1071
1606922778.3669,1574
1606922778.3689,1095
1606922778.3709,-404
1606922778.3729,-1366
1606922778.3749,-772
1606922778.3769,-7
1606922778.3789,-19
1606922778.3810,-59
1606922778.3815,112
1606922778.3829,119
1606922778.3849,64
1606922778.3869,117
1606922778.3889,145
1606922778.3909,131
1606922778.7971,148
1606922778.7978,169
1606922778.8001,167
1606922778.8019,189
1606922778.8038,224
1606922778.8058,241
1606922778.8078,256
1606922778.8098,284
1606922778.8119,320
1606922778.8138,356
1606922778.8144,389
1606922778.8158,430
1606922778.8178,473
1606922778.8198,514
1606922778.8218,545
1606922778.8238,562
1606922778.8259,562
1606922778.8278,540
1606922778.8298,480
1606922778.8318,382
1606922778.8340,258
1606922778.8359,119
1606922778.8378,-14
1606922778.8398,-122
1606922778.8418,-189
1606922778.8438,-234
1606922778.8444,-265
1606922778.8458,-272
1606922778.8478,-267
1606922778.8498,-263
1606922778.8518,-246
1606922778.8538,-222
1606922778.8558,-215
1606922778.8578,-208
1606922778.8598,-189
1606922778.8618,-179
1606922778.8638,-177
1606922778.8658,-167
1606922778.8678,-143
1606922778.8698,-131
1606922778.8718,-131
1606922778.8738,-126
1606922778.8744,-122
1606922778.8758,-124
1606922778.8778,-133
1606922778.8798,-129
1606922778.8818,-119
1606922778.8838,-122
1606922778.8858,-119
1606922778.8878,-110
1606922778.8898,-112
1606922778.8918,-122
1606922778.8938,-119
1606922778.8958,-105
1606922778.8978,-95
1606922778.8998,-95
1606922778.9018,-93
1606922778.9038,-88
1606922778.9044,-83
1606922778.9058,-76
1606922778.9078,-71
1606922778.9098,-69
1606922778.9118,-71
1606922778.9138,-71
1606922778.9158,-66
1606922778.9178,-59
1606922778.9198,-55
1606922778.9218,-57
1606922778.9238,-62
1606922778.9258,-52
1606922778.9278,-31
1606922778.9299,-23
1606922778.9318,-28
1606922779.3674,-7
1606922779.3683,28
1606922779.3707,38
1606922779.3735,9
1606922779.3754,-35
1606922779.3774,-62
1606922779.3797,-55
1606922779.3814,-47
1606922779.3834,-55
1606922779.3854,-50
1606922779.3874,-45
1606922779.3894,-47
1606922779.3914,-14
1606922779.3934,78
1606922779.3940,311
1606922779.3954,861
1606922779.3974,1483
1606922779.3994,1303
1606922779.4014,-81
1606922779.4033,-1399
1606922779.4053,-1181
1606922779.4073,-299
1606922779.4093,-64
1606922779.4114,-95
1606922779.4133,47
1606922779.4153,102
1606922779.4173,57
1606922779.4193,83
1606922779.4214,114
1606922779.4233,110
1606922779.4239,124
1606922779.4254,145
1606922779.4273,155
1606922779.4293,172
1606922779.4314,198
1606922779.4333,215
1606922779.4353,234
1606922779.4373,265
1606922779.4393,299
1606922779.4414,330
1606922779.4433,368
1606922779.4453,418
1606922779.4473,464
1606922779.4493,497
1606922779.4513,526
1606922779.4533,543
1606922779.4539,533
1606922779.4553,500
1606922779.4573,449
1606922779.4595,361
1606922779.4614,234
1606922779.4633,100
1606922779.4653,-19
1606922779.4673,-124
1606922779.4693,-198
1606922779.4713,-234
1606922779.4733,-256
1606922779.4753,-270
1606922779.4773,-270
1606922779.4793,-256
1606922779.4813,-239
1606922779.4833,-224
1606922779.4839,-215
1606922779.4853,-196
1606922779.4873,-177
1606922779.4893,-162
1606922779.4913,-155
1606922779.4933,-148
1606922779.4953,-136
1606922779.4973,-126
1606922779.4993,-124
1606922779.5013,-124
1606922779.5034,-117
1606922779.9070,-117
1606922779.9077,-119
1606922779.9101,-114
1606922779.9128,-110
1606922779.9147,-110
1606922779.9154,-117
1606922779.9167,-117
1606922779.9188,-105
1606922779.9208,-105
1606922779.9227,-117
1606922779.9247,-117
1606922779.9267,-105
1606922779.9287,-102
1606922779.9308,-102
1606922779.9327,-95
1606922779.9347,-93
1606922779.9367,-95
1606922779.9387,-93
1606922779.9408,-90
1606922779.9427,-86
1606922779.9447,-81
1606922779.9453,-76
1606922779.9467,-76
1606922779.9487,-83
1606922779.9507,-74
1606922779.9527,-50
1606922779.9547,-33
1606922779.9568,-14
1606922779.9587,16
1606922779.9608,38
1606922779.9627,31
1606922779.9647,-2
1606922779.9667,-38
1606922779.9687,-52
1606922779.9707,-45
1606922779.9727,-40
1606922779.9747,-40
1606922779.9753,-33
1606922779.9767,-26
1606922779.9787,-21
1606922779.9807,2
1606922779.9827,78
1606922779.9847,392
1606922779.9867,1076
1606922779.9887,1631
1606922779.9910,1172
1606922779.9927,-358
1606922779.9947,-1406
1606922779.9967,-863
1606922779.9987,-35
1606922780.0007,-23
1606922780.0027,-102
1606922780.0033,71
1606922780.0047,98
1606922780.0067,35
1606922780.0087,76
1606922780.0107,110
1606922780.0127,98
1606922780.0147,110
1606922780.0167,136
1606922780.0187,148
1606922780.0207,165
1606922780.0227,189
1606922780.0247,210
1606922780.0267,236
1606922780.0287,270
1606922780.0307,303
1606922780.0327,342
1606922780.0333,385
1606922780.0347,433
1606922780.0367,478
1606922780.0387,512
1606922780.0407,535
1606922780.5076,545
1606922780.5083,535
1606922780.5105,507
1606922780.5123,442
1606922780.5143,339
1606922780.5165,203
1606922780.5183,55
1606922780.5204,-69
1606922780.5223,-162
1606922780.5243,-234
1606922780.5249,-277
1606922780.5263,-289
1606922780.5284,-291
1606922780.5303,-287
1606922780.5323,-272
1606922780.5343,-256
1606922780.5363,-241
1606922780.5383,-224
1606922780.5403,-208
1606922780.5423,-193
1606922780.5443,-179
1606922780.5463,-167
1606922780.5483,-157
1606922780.5503,-143
1606922780.5523,-133
1606922780.5543,-129
1606922780.5549,-124
1606922780.5563,-117
1606922780.5583,-114
1606922780.5603,-114
1606922780.5623,-110
1606922780.5643,-105
1606922780.5663,-107
1606922780.5683,-110
1606922780.5703,-107
1606922780.5723,-105
1606922780.5743,-105
1606922780.5763,-102
1606922780.5783,-98
1606922780.5803,-98
1606922780.5823,-98
1606922780.5842,-93
1606922780.5849,-88
1606922780.5863,-86
1606922780.5883,-83
1606922780.5903,-76
1606922780.5923,-69
1606922780.5943,-66
1606922780.5963,-64
1606922780.5983,-59
1606922780.6003,-59
1606922780.6023,-59
1606922780.6043,-57
1606922780.6063,-55
1606922780.6083,-52
1606922780.6103,-50
1606922780.6124,-47
1606922780.6143,-47
1606922780.6149,-40
1606922780.6163,-35
1606922780.6183,-38
1606922780.6203,-33
1606922780.6223,-28
1606922780.6242,-28
1606922780.6263,-33
1606922780.6283,-31
1606922780.6303,-14
1606922780.6323,2
1606922780.6343,23
1606922780.6363,50
1606922780.6383,66
1606922780.6403,59
1606922780.6423,26
1606922781.0778,-14
1606922781.0787,-28
1606922781.0812,-28
1606922781.0828,-28
1606922781.0848,-26
1606922781.0867,-19
1606922781.0887,-16
1606922781.0909,-14
1606922781.0927,7
1606922781.0947,71
1606922781.0967,325
1606922781.0987,947
1606922781.1008,1557
1606922781.1027,1323
1606922781.1033,-43
1606922781.1047,-1294
1606922781.1068,-1000
1606922781.1088,-98
1606922781.1107,16
1606922781.1127,-122
1606922781.1147,40
1606922781.1167,107
1606922781.1187,33
1606922781.1207,62
1606922781.1226,110
1606922781.1246,98
1606922781.1267,105
1606922781.1286,131
1606922781.1307,143
1606922781.1326,160
1606922781.1333,184
1606922781.1346,200
1606922781.1366,224
1606922781.1386,256
1606922781.1408,289
1606922781.1427,325
1606922781.1446,368
1606922781.1466,409
1606922781.1486,447
1606922781.1506,483
1606922781.1526,509
1606922781.1547,526
1606922781.1567,528
1606922781.1586,507
1606922781.1606,459
1606922781.1626,382
1606922781.1632,270
1606922781.1646,136
1606922781.1666,9
1606922781.1686,-95
1606922781.1706,-172
1606922781.1726,-222
1606922781.1746,-248
1606922781.1766,-258
1606922781.1786,-256
1606922781.1806,-248
1606922781.1826,-232
1606922781.1846,-217
1606922781.1867,-203
1606922781.1887,-186
1606922781.1907,-172
1606922781.1927,-162
1606922781.1932,-153
1606922781.1946,-143
1606922781.1966,-136
1606922781.1986,-129
1606922781.2006,-122
1606922781.2026,-117
1606922781.2046,-114
1606922781.2066,-117
1606922781.2086,-114
1606922781.2106,-110
1606922781.2126,-112
1606922781.6178,-117
1606922781.6187,-117
1606922781.6211,-110
1606922781.6238,-107
1606922781.6258,-107
1606922781.6265,-107
1606922781.6278,-102
1606922781.6298,-102
1606922781.6317,-105
1606922781.6337,-107
1606922781.6357,-98
1606922781.6377,-93
1606922781.6399,-98
1606922781.6418,-100
1606922781.6437,-90
1606922781.6457,-81
1606922781.6477,-81
1606922781.6497,-81
1606922781.6518,-76
1606922781.6537,-74
1606922781.6557,-74
1606922781.6563,-66
1606922781.6577,-64
1606922781.6597,-66
1606922781.6617,-66
1606922781.6637,-62
1606922781.6657,-55
1606922781.6677,-47
1606922781.6697,-47
1606922781.6717,-47
1606922781.6737,-43
1606922781.6757,-38
1606922781.6777,-33
1606922781.6797,-31
1606922781.6817,-26
1606922781.6836,-19
1606922781.6856,-19
1606922781.6863,-21
1606922781.6876,-11
1606922781.6897,-9
1606922781.6917,-9
1606922781.6936,-7
1606922781.6957,-7
1606922781.6976,-7
1606922781.6996,-7
1606922781.7017,-2
1606922781.7037,0
1606922781.7056,-4
1606922781.7077,2
1606922781.7096,11
1606922781.7117,9
1606922781.7137,2
1606922781.7156,11
1606922781.7163,35
1606922781.7176,43
1606922781.7196,52
1606922781.7217,78
1606922781.7236,95
1606922781.7257,74
1606922781.7277,28
1606922781.7296,-2
1606922781.7317,-2
1606922781.7336,2
1606922781.7358,2
1606922781.7378,2
1606922781.7397,4
1606922781.7417,4
1606922781.7436,19
1606922781.7456,57
1606922781.7463,186
1606922781.7476,636
1606922781.7497,1339
1606922781.7517,1610
1606922782.1571,710
1606922782.1578,-863
1606922782.1590,-1299
1606922782.1610,-406
1606922782.1629,78
1606922782.1649,-81
1606922782.1669,-19
1606922782.1690,136
1606922782.1710,83
1606922782.1716,57
1606922782.1730,112
1606922782.1749,114
1606922782.1769,105
1606922782.1789,133
1606922782.1810,153
1606922782.1829,160
1606922782.1849,181
1606922782.1869,203
1606922782.1889,217
1606922782.1909,244
1606922782.1929,279
1606922782.1949,315
1606922782.1969,351
1606922782.1989,389
1606922782.2009,430
1606922782.2015,473
1606922782.2029,512
1606922782.2049,531
1606922782.2069,535
1606922782.2095,526
1606922782.2109,500
1606922782.2130,447
1606922782.2149,358
1606922782.2169,241
1606922782.2189,110
1606922782.2209,-11
1606922782.2229,-112
1606922782.2249,-189
1606922782.2269,-234
1606922782.2289,-256
1606922782.2309,-265
1606922782.2316,-267
1606922782.2329,-253
1606922782.2349,-234
1606922782.2369,-220
1606922782.2388,-208
1606922782.2409,-196
1606922782.2429,-181
1606922782.2449,-167
1606922782.2469,-160
1606922782.2489,-153
1606922782.2509,-145
1606922782.2529,-138
1606922782.2550,-136
1606922782.2569,-133
1606922782.2589,-136
1606922782.2609,-136
1606922782.2614,-136
1606922782.2629,-131
1606922782.2649,-131
1606922782.2669,-131
1606922782.2689,-129
1606922782.2709,-126
1606922782.2729,-124
1606922782.2749,-122
1606922782.2769,-117
1606922782.2789,-117
1606922782.2809,-114
1606922782.2829,-107
1606922782.2849,-102
1606922782.2869,-100
1606922782.2889,-95
1606922782.2909,-93
1606922782.6973,-88
1606922782.6982,-83
1606922782.7007,-78
1606922782.7033,-76
1606922782.7053,-76
1606922782.7073,-76
1606922782.7094,-76
1606922782.7113,-78
1606922782.7133,-71
1606922782.7152,-66
1606922782.7172,-64
1606922782.7193,-64
1606922782.7213,-59
1606922782.7232,-52
1606922782.7252,-50
1606922782.7273,-47
1606922782.7279,-43
1606922782.7292,-40
1606922782.7313,-40
1606922782.7334,-35
1606922782.7353,-31
1606922782.7372,-26
1606922782.7392,-26
1606922782.7412,-26
1606922782.7432,-21
1606922782.7452,-16
1606922782.7472,-19
1606922782.7492,-23
1606922782.7513,-19
1606922782.7532,-7
1606922782.7552,11
1606922782.7572,43
1606922782.7579,69
1606922782.7592,78
1606922782.7613,62
1606922782.7632,23
1606922782.7652,-9
1606922782.7672,-19
1606922782.7692,-11
1606922782.7712,-7
1606922782.7732,-7
1606922782.7752,-9
1606922782.7772,-7
1606922782.7792,9
1606922782.7813,43
1606922782.7832,155
1606922782.7852,590
1606922782.7872,1339
1606922782.7878,1701
1606922782.7892,856
1606922782.7912,-784
1606922782.7932,-1375
1606922782.7952,-519
1606922782.7972,52
1606922782.7992,-90
1606922782.8012,-52
1606922782.8032,114
1606922782.8052,71
1606922782.8072,38
1606922782.8092,100
1606922782.8112,112
1606922782.8132,100
1606922782.8152,124
1606922782.8172,145
1606922782.8178,153
1606922782.8192,169
1606922782.8212,189
1606922782.8232,208
1606922782.8252,234
1606922782.8272,260
1606922782.8294,291
1606922782.8313,330
1606922782.8332,373
1606922783.2679,411
1606922783.2688,449
1606922783.2713,483
1606922783.2739,504
1606922783.2759,500
1606922783.2766,480
1606922783.2779,454
1606922783.2800,399
1606922783.2819,306
1606922783.2838,184
1606922783.2858,52
1606922783.2878,-66
1606922783.2898,-155
1606922783.2918,-220
1606922783.2938,-258
1606922783.2958,-277
1606922783.2978,-284
1606922783.2998,-279
1606922783.3019,-265
1606922783.3038,-251
1606922783.3058,-236
1606922783.3064,-217
1606922783.3078,-200
1606922783.3098,-189
1606922783.3118,-174
1606922783.3138,-160
1606922783.3158,-150
1606922783.3178,-143
1606922783.3198,-138
1606922783.3218,-129
1606922783.3238,-122
1606922783.3258,-119
1606922783.3278,-117
1606922783.3298,-112
1606922783.3318,-110
1606922783.3338,-110
1606922783.3358,-107
1606922783.3364,-102
1606922783.3378,-102
1606922783.3398,-105
1606922783.3418,-105
1606922783.3438,-100
1606922783.3458,-95
1606922783.3478,-93
1606922783.3498,-90
1606922783.3519,-86
1606922783.3538,-83
1606922783.3558,-81
1606922783.3580,-76
1606922783.3598,-71
1606922783.3618,-66
1606922783.3638,-64
1606922783.3658,-64
1606922783.3664,-59
1606922783.3678,-55
1606922783.3697,-52
1606922783.3718,-50
1606922783.3738,-47
1606922783.3758,-43
1606922783.3778,-40
1606922783.3798,-40
1606922783.3818,-38
1606922783.3838,-33
1606922783.3858,-31
1606922783.3878,-28
1606922783.3898,-26
1606922783.3919,-23
1606922783.3939,-23
1606922783.3959,-19
1606922783.3965,-14
1606922783.3980,-16
1606922783.3999,-14
1606922783.4018,-11
1606922783.8680,-9
1606922783.8691,-7
1606922783.8714,-7
1606922783.8743,-4
1606922783.8761,-4
1606922783.8781,-9
1606922783.8802,-14
1606922783.8821,-9
1606922783.8841,-4
1606922783.8861,-7
1606922783.8868,-4
1606922783.8881,0
1606922783.8902,-9
1606922783.8922,-14
1606922783.8941,-4
1606922783.8961,14
1606922783.8981,40
1606922783.9001,71
1606922783.9021,88
1606922783.9041,81
1606922783.9061,55
1606922783.9081,16
1606922783.9101,-7
1606922783.9121,-7
1606922783.9141,-2
1606922783.9161,-2
1606922783.9169,-2
1606922783.9181,2
1606922783.9201,4
1606922783.9221,23
1606922783.9241,76
1606922783.9261,318
1606922783.9281,928
1606922783.9300,1531
1606922783.9321,1335
1606922783.9341,35
1606922783.9361,-1215
1606922783.9380,-961
1606922783.9401,-62
1606922783.9420,40
1606922783.9441,-122
1606922783.9460,40
1606922783.9467,107
1606922783.9480,26
1606922783.9500,55
1606922783.9520,100
1606922783.9540,86
1606922783.9560,93
1606922783.9580,122
1606922783.9600,131
1606922783.9620,141
1606922783.9640,162
1606922783.9660,184
1606922783.9680,208
1606922783.9700,239
1606922783.9721,270
1606922783.9741,303
1606922783.9762,342
1606922783.9766,385
1606922783.9780,423
1606922783.9800,459
1606922783.9821,488
1606922783.9840,504
1606922783.9860,504
1606922783.9880,488
1606922783.9900,447
1606922783.9920,385
1606922783.9940,289
1606922783.9960,162
1606922783.9980,33
1606922784.0000,-74
1606922784.0021,-155
1606922784.0040,-215
1606922784.4080,-246
1606922784.4093,-260
1606922784.4116,-265
1606922784.4144,-256
1606922784.4156,-241
1606922784.4173,-224
1606922784.4193,-210
1606922784.4213,-196
1606922784.4234,-181
1606922784.4253,-172
1606922784.4276,-167
1606922784.4294,-162
1606922784.4313,-150
1606922784.4333,-141
1606922784.4340,-138
1606922784.4353,-131
1606922784.4373,-124
1606922784.4393,-119
1606922784.4413,-117
1606922784.4433,-114
1606922784.4453,-112
1606922784.4473,-112
1606922784.4493,-112
1606922784.4513,-110
1606922784.4533,-110
1606922784.4553,-114
1606922784.4573,-114
1606922784.4592,-107
1606922784.4613,-100
1606922784.4633,-100
1606922784.4638,-98
1606922784.4652,-90
1606922784.4672,-88
1606922784.4693,-83
1606922784.4713,-78
1606922784.4733,-71
1606922784.4753,-64
1606922784.4773,-62
1606922784.4793,-64
1606922784.4813,-62
1606922784.4832,-57
1606922784.4852,-57
1606922784.4873,-52
1606922784.4893,-45
1606922784.4912,-43
1606922784.4932,-40
1606922784.4939,-38
1606922784.4953,-35
1606922784.4973,-33
1606922784.4993,-33
1606922784.5013,-31
1606922784.5033,-26
1606922784.5053,-21
1606922784.5073,-21
1606922784.5093,-16
1606922784.5115,-11
1606922784.5132,-19
1606922784.5152,-19
1606922784.5172,-11
1606922784.5193,-4
1606922784.5212,-2
1606922784.5232,-7
1606922784.5238,-11
1606922784.5252,-9
1606922784.5272,-7
1606922784.5292,-7
1606922784.5312,-2
1606922784.5332,2
1606922784.5352,0
1606922784.5372,-2
1606922784.5392,0
1606922784.5412,7
1606922784.5433,4
1606922785.0377,-7
1606922785.0388,-4
1606922785.0405,11
1606922785.0429,33
1606922785.0449,62
1606922785.0468,86
1606922785.0488,83
1606922785.0510,52
1606922785.0529,7
1606922785.0548,-19
1606922785.0568,-19
1606922785.0589,-14
1606922785.0609,-16
1606922785.0629,-14
1606922785.0648,-7
1606922785.0668,-2
1606922785.0689,11
1606922785.0709,52
1606922785.0714,217
1606922785.0728,736
1606922785.0748,1421
1606922785.0768,1514
1606922785.0788,409
1606922785.0809,-1081
1606922785.0828,-1198
1606922785.0848,-260
1606922785.0868,55
1606922785.0888,-110
1606922785.0909,4
1606922785.0928,124
1606922785.0948,55
1606922785.0968,55
1606922785.0988,114
1606922785.1010,105
1606922785.1014,102
1606922785.1028,133
1606922785.1048,148
1606922785.1068,155
1606922785.1089,177
1606922785.1108,200
1606922785.1127,220
1606922785.1147,253
1606922785.1167,287
1606922785.1187,313
1606922785.1208,349
1606922785.1228,394
1606922785.1247,437
1606922785.1267,476
1606922785.1287,504
1606922785.1308,528
1606922785.1313,538
1606922785.1327,526
1606922785.1347,495
1606922785.1367,435
1606922785.1387,344
1606922785.1408,224
1606922785.1427,90
1606922785.1447,-31
1606922785.1467,-126
1606922785.1487,-193
1606922785.1508,-236
1606922785.1527,-260
1606922785.1547,-265
1606922785.1567,-260
1606922785.1588,-258
1606922785.1608,-241
1606922785.1613,-215
1606922785.1627,-203
1606922785.1647,-196
1606922785.1667,-179
1606922785.1688,-162
1606922785.1708,-157
1606922785.1727,-148
1606922785.5172,-138
1606922785.5178,-131
1606922785.5202,-126
1606922785.5229,-122
1606922785.5249,-119
1606922785.5269,-119
1606922785.5290,-114
1606922785.5310,-110
1606922785.5316,-112
1606922785.5329,-117
1606922785.5349,-117
1606922785.5371,-112
1606922785.5389,-114
1606922785.5410,-117
1606922785.5428,-110
1606922785.5448,-105
1606922785.5468,-112
1606922785.5488,-117
1606922785.5509,-110
1606922785.5528,-100
1606922785.5549,-98
1606922785.5568,-93
1606922785.5588,-86
1606922785.5609,-86
1606922785.5614,-88
1606922785.5628,-81
1606922785.5648,-71
1606922785.5668,-69
1606922785.5688,-66
1606922785.5708,-62
1606922785.5728,-57
1606922785.5748,-52
1606922785.5768,-47
1606922785.5788,-47
1606922785.5809,-45
1606922785.5828,-38
1606922785.5848,-35
1606922785.5868,-35
1606922785.5888,-31
1606922785.5909,-23
1606922785.5914,-23
1606922785.5928,-26
1606922785.5948,-23
1606922785.5968,-16
1606922785.5988,-16
1606922785.6009,-14
1606922785.6028,-11
1606922785.6048,-11
1606922785.6068,-11
1606922785.6088,-11
1606922785.6109,-14
1606922785.6128,-21
1606922785.6148,-9
1606922785.6168,11
1606922785.6188,26
1606922785.6208,50
1606922785.6214,76
1606922785.6228,76
1606922785.6248,52
1606922785.6268,11
1606922785.6288,-16
1606922785.6308,-19
1606922785.6330,-9
1606922785.6349,-4
1606922785.6369,-7
1606922785.6389,-7
1606922785.6409,-4
1606922785.6428,11
1606922785.6448,57
1606922785.6468,253
1606922785.6488,827
1606922785.6509,1543
1606922785.6514,1531
1606922786.0874,244
1606922786.0884,-1220
1606922786.0909,-1146
1606922786.0934,-196
1606922786.0954,23
1606922786.0975,-133
1606922786.0995,4
1606922786.1015,98
1606922786.1035,26
1606922786.1054,43
1606922786.1074,93
1606922786.1094,83
1606922786.1115,88
1606922786.1121,119
1606922786.1135,129
1606922786.1155,138
1606922786.1174,162
1606922786.1194,181
1606922786.1214,200
1606922786.1234,229
1606922786.1253,263
1606922786.1273,296
1606922786.1293,334
1606922786.1314,375
1606922786.1333,413
1606922786.1353,449
1606922786.1374,478
1606922786.1394,492
1606922786.1413,495
1606922786.1419,476
1606922786.1433,435
1606922786.1453,370
1606922786.1473,279
1606922786.1493,157
1606922786.1514,31
1606922786.1533,-76
1606922786.1553,-157
1606922786.1573,-215
1606922786.1593,-248
1606922786.1613,-260
1606922786.1635,-263
1606922786.1654,-260
1606922786.1673,-246
1606922786.1693,-224
1606922786.1713,-210
1606922786.1719,-196
1606922786.1733,-184
1606922786.1753,-172
1606922786.1773,-162
1606922786.1793,-150
1606922786.1813,-141
1606922786.1833,-131
1606922786.1853,-129
1606922786.1873,-124
1606922786.1893,-117
1606922786.1913,-112
1606922786.1933,-112
1606922786.1953,-112
1606922786.1973,-107
1606922786.1993,-107
1606922786.2013,-107
1606922786.2019,-105
1606922786.2033,-102
1606922786.2053,-100
1606922786.2073,-98
1606922786.2093,-98
1606922786.2114,-98
1606922786.2134,-98
1606922786.2153,-95
1606922786.2173,-90
1606922786.2193,-86
1606922786.2213,-83
1606922786.2233,-78
1606922786.6273,-74
1606922786.6282,-69
1606922786.6306,-66
1606922786.6317,-64
1606922786.6332,-62
1606922786.6352,-59
1606922786.6373,-62
1606922786.6392,-66
1606922786.6413,-66
1606922786.6432,-59
1606922786.6452,-57
1606922786.6472,-57
1606922786.6492,-52
1606922786.6513,-47
1606922786.6532,-43
1606922786.6552,-43
1606922786.6572,-40
1606922786.6592,-35
1606922786.6614,-31
1606922786.6619,-31
1606922786.6632,-28
1606922786.6652,-23
1606922786.6672,-23
1606922786.6692,-23
1606922786.6712,-21
1606922786.6732,-19
1606922786.6752,-19
1606922786.6772,-23
1606922786.6792,-31
1606922786.6812,-21
1606922786.6832,-2
1606922786.6852,14
1606922786.6873,38
1606922786.6892,66
1606922786.6912,74
1606922786.6918,52
1606922786.6932,11
1606922786.6952,-16
1606922786.6972,-23
1606922786.6992,-19
1606922786.7012,-14
1606922786.7032,-16
1606922786.7052,-16
1606922786.7072,-14
1606922786.7092,0
1606922786.7112,40
1606922786.7132,208
1606922786.7152,729
1606922786.7172,1414
1606922786.7192,1509
1606922786.7212,456
1606922786.7218,-1007
1606922786.7232,-1189
1606922786.7252,-265
1606922786.7273,81
1606922786.7292,-112
1606922786.7312,-16
1606922786.7332,114
1606922786.7352,40
1606922786.7372,35
1606922786.7392,95
1606922786.7412,83
1606922786.7432,81
1606922786.7452,112
1606922786.7472,124
1606922786.7492,131
1606922786.7512,157
1606922786.7518,181
1606922786.7532,203
1606922786.7553,229
1606922786.7572,258
1606922786.7592,289
1606922786.7612,330
1606922787.2574,370
1606922787.2583,411
1606922787.2609,447
1606922787.2635,476
1606922787.2655,492
1606922787.2674,490
1606922787.2696,476
1606922787.2702,447
1606922787.2714,387
1606922787.2734,296
1606922787.2754,179
1606922787.2774,50
1606922787.2794,-66
1606922787.2814,-153
1606922787.2834,-212
1606922787.2854,-253
1606922787.2874,-272
1606922787.2894,-272
1606922787.2914,-267
1606922787.2935,-256
1606922787.2954,-241
1606922787.2974,-222
1606922787.2994,-205
1606922787.3000,-191
1606922787.3014,-179
1606922787.3033,-167
1606922787.3054,-155
1606922787.3073,-148
1606922787.3093,-141
1606922787.3114,-136
1606922787.3133,-131
1606922787.3153,-126
1606922787.3174,-122
1606922787.3193,-117
1606922787.3213,-112
1606922787.3233,-112
1606922787.3253,-110
1606922787.3273,-107
1606922787.3293,-105
1606922787.3299,-105
1606922787.3314,-102
1606922787.3333,-100
1606922787.3353,-95
1606922787.3374,-93
1606922787.3393,-90
1606922787.3413,-86
1606922787.3433,-81
1606922787.3455,-78
1606922787.3474,-76
1606922787.3493,-69
1606922787.3514,-64
1606922787.3533,-64
1606922787.3553,-64
1606922787.3573,-64
1606922787.3579,-62
1606922787.3593,-57
1606922787.3614,-55
1606922787.3633,-50
1606922787.3653,-45
1606922787.3673,-45
1606922787.3693,-45
1606922787.3713,-43
1606922787.3733,-40
1606922787.3753,-38
1606922787.3773,-35
1606922787.3793,-33
1606922787.3814,-31
1606922787.3833,-28
1606922787.3853,-26
1606922787.3873,-19
1606922787.3879,-16
1606922787.3893,-16
1606922787.3913,-16
1606922787.8574,-16
1606922787.8583,-14
1606922787.8608,-11
1606922787.8634,-7
1606922787.8654,-2
1606922787.8674,-4
1606922787.8695,-9
1606922787.8714,2
1606922787.8734,14
1606922787.8754,16
1606922787.8774,38
1606922787.8794,71
1606922787.8814,78
1606922787.8820,43
1606922787.8833,-7
1606922787.8853,-31
1606922787.8874,-28
1606922787.8893,-19
1606922787.8913,-19
1606922787.8933,-23
1606922787.8953,-23
1606922787.8973,-19
1606922787.8993,-2
1606922787.9014,38
1606922787.9033,208
1606922787.9055,720
1606922787.9073,1392
1606922787.9093,1490
1606922787.9114,447
1606922787.9119,-1024
1606922787.9133,-1208
1606922787.9153,-284
1606922787.9173,66
1606922787.9193,-114
1606922787.9213,-9
1606922787.9233,119
1606922787.9253,45
1606922787.9273,40
1606922787.9293,102
1606922787.9313,98
1606922787.9333,95
1606922787.9353,126
1606922787.9373,143
1606922787.9393,148
1606922787.9413,169
1606922787.9419,191
1606922787.9433,208
1606922787.9453,236
1606922787.9473,272
1606922787.9493,308
1606922787.9513,349
1606922787.9533,387
1606922787.9553,421
1606922787.9573,459
1606922787.9593,497
1606922787.9613,521
1606922787.9633,526
1606922787.9653,516
1606922787.9673,485
1606922787.9693,425
1606922787.9713,339
1606922787.9719,220
1606922787.9733,83
1606922787.9753,-35
1606922787.9773,-129
1606922787.9793,-198
1606922787.9813,-244
1606922787.9833,-265
1606922787.9853,-267
1606922787.9873,-258
1606922787.9893,-248
1606922787.9913,-239
1606922787.9933,-220
1606922788.3372,-198
1606922788.3379,-184
1606922788.3395,-174
1606922788.3423,-162
1606922788.3441,-150
1606922788.3460,-141
1606922788.3479,-138
1606922788.3500,-129
1606922788.3520,-119
1606922788.3540,-119
1606922788.3559,-122
1606922788.3579,-114
1606922788.3599,-112
1606922788.3619,-114
1606922788.3639,-114
1606922788.3659,-117
1606922788.3679,-114
1606922788.3699,-112
1606922788.3705,-117
1606922788.3719,-122
1606922788.3739,-114
1606922788.3759,-107
1606922788.3779,-105
1606922788.3799,-100
1606922788.3820,-95
1606922788.3839,-93
1606922788.3859,-88
1606922788.3879,-83
1606922788.3899,-81
1606922788.3919,-78
1606922788.3939,-69
1606922788.3959,-66
1606922788.3979,-64
1606922788.3999,-62
1606922788.4005,-57
1606922788.4019,-50
1606922788.4039,-47
1606922788.4059,-47
1606922788.4079,-45
1606922788.4099,-45
1606922788.4119,-45
1606922788.4139,-40
1606922788.4159,-35
1606922788.4179,-33
1606922788.4199,-33
1606922788.4219,-31
1606922788.4239,-28
1606922788.4259,-28
1606922788.4279,-16
1606922788.4299,2
1606922788.4305,7
1606922788.4319,14
1606922788.4339,47
1606922788.4359,71
1606922788.4380,55
1606922788.4400,11
1606922788.4419,-19
1606922788.4439,-23
1606922788.4459,-14
1606922788.4479,-9
1606922788.4499,-11
1606922788.4519,-11
1606922788.4539,-7
1606922788.4559,7
1606922788.4579,52
1606922788.4599,169
1606922788.4605,545
1606922788.4619,1220
1606922788.4639,1619
1606922788.4659,897
1606922788.4679,-712
1606922788.4699,-1421
1606922788.4719,-657
1606922788.9073,-21
1606922788.9082,-71
1606922788.9106,-40
1606922788.9123,107
1606922788.9143,88
1606922788.9163,59
1606922788.9183,110
1606922788.9203,117
1606922788.9209,102
1606922788.9222,124
1606922788.9242,143
1606922788.9263,148
1606922788.9282,167
1606922788.9302,193
1606922788.9322,210
1606922788.9342,232
1606922788.9362,258
1606922788.9382,289
1606922788.9402,325
1606922788.9422,363
1606922788.9442,401
1606922788.9462,440
1606922788.9482,476
1606922788.9502,497
1606922788.9509,500
1606922788.9522,490
1606922788.9542,464
1606922788.9562,409
1606922788.9582,327
1606922788.9602,212
1606922788.9622,76
1606922788.9642,-47
1606922788.9663,-141
1606922788.9682,-205
1606922788.9702,-253
1606922788.9722,-279
1606922788.9742,-284
1606922788.9762,-275
1606922788.9782,-263
1606922788.9802,-246
1606922788.9808,-229
1606922788.9822,-212
1606922788.9842,-198
1606922788.9862,-186
1606922788.9882,-174
1606922788.9903,-162
1606922788.9922,-155
1606922788.9942,-150
1606922788.9962,-143
1606922788.9982,-133
1606922789.0002,-129
1606922789.0022,-126
1606922789.0042,-122
1606922789.0062,-117
1606922789.0082,-117
1606922789.0102,-114
1606922789.0108,-112
1606922789.0122,-110
1606922789.0142,-107
1606922789.0162,-105
1606922789.0182,-102
1606922789.0202,-95
1606922789.0222,-90
1606922789.0242,-88
1606922789.0262,-83
1606922789.0282,-81
1606922789.0302,-78
1606922789.0322,-78
1606922789.0342,-71
1606922789.0362,-64
1606922789.0382,-62
1606922789.0402,-59
1606922789.0408,-55
1606922789.4478,-52
1606922789.4487,-50
1606922789.4512,-47
1606922789.4539,-43
1606922789.4558,-43
1606922789.4579,-50
1606922789.4598,-50
1606922789.4618,-43
1606922789.4638,-43
1606922789.4658,-50
1606922789.4680,-52
1606922789.4698,-47
1606922789.4718,-43
1606922789.4724,-40
1606922789.4737,-38
1606922789.4758,-31
1606922789.4778,-28
1606922789.4798,-31
1606922789.4818,-38
1606922789.4837,-31
1606922789.4857,-11
1606922789.4877,4
1606922789.4897,31
1606922789.4917,59
1606922789.4937,71
1606922789.4958,52
1606922789.4977,11
1606922789.4997,-21
1606922789.5018,-31
1606922789.5023,-23
1606922789.5037,-16
1606922789.5057,-14
1606922789.5078,-14
1606922789.5098,-9
1606922789.5118,4
1606922789.5137,38
1606922789.5157,167
1606922789.5177,622
1606922789.5197,1313
1606922789.5217,1564
1606922789.5237,705
1606922789.5257,-813
1606922789.5277,-1287
1606922789.5297,-418
1606922789.5317,105
1606922789.5324,-74
1606922789.5337,-35
1606922789.5357,129
1606922789.5377,69
1606922789.5397,35
1606922789.5417,102
1606922789.5438,110
1606922789.5458,93
1606922789.5478,119
1606922789.5499,141
1606922789.5518,145
1606922789.5537,167
1606922789.5557,189
1606922789.5577,208
1606922789.5597,229
1606922789.5617,263
1606922789.5625,296
1606922789.5638,334
1606922789.5657,373
1606922789.5677,409
1606922789.5697,445
1606922789.5717,476
1606922789.5738,495
1606922789.5757,495
1606922789.5777,485
1606922789.5797,454
1606922789.5818,397
1606922789.5837,311
1606922790.0477,198
1606922790.0486,66
1606922790.0503,-50
1606922790.0527,-141
1606922790.0547,-205
1606922790.0567,-248
1606922790.0587,-275
1606922790.0608,-284
1606922790.0627,-277
1606922790.0647,-260
1606922790.0667,-251
1606922790.0687,-232
1606922790.0707,-210
1606922790.0726,-198
1606922790.0746,-186
1606922790.0766,-174
1606922790.0786,-165
1606922790.0807,-162
1606922790.0812,-155
1606922790.0826,-145
1606922790.0847,-138
1606922790.0866,-133
1606922790.0886,-131
1606922790.0907,-126
1606922790.0926,-122
1606922790.0946,-117
1606922790.0966,-117
1606922790.0986,-114
1606922790.1007,-110
1606922790.1026,-110
1606922790.1046,-105
1606922790.1066,-100
1606922790.1086,-95
1606922790.1108,-93
1606922790.1189,-90
1606922790.1207,-86
1606922790.1226,-78
1606922790.1246,-76
1606922790.1266,-74
1606922790.1288,-69
1606922790.1309,-64
1606922790.1326,-62
1606922790.1346,-59
1606922790.1366,-55
1606922790.1386,-50
1606922790.1406,-45
1606922790.1426,-45
1606922790.1446,-43
1606922790.1466,-40
1606922790.1472,-40
1606922790.1485,-40
1606922790.1506,-35
1606922790.1526,-33
1606922790.1546,-33
1606922790.1566,-28
1606922790.1586,-26
1606922790.1606,-23
1606922790.1626,-21
1606922790.1646,-19
1606922790.1666,-16
1606922790.1686,-14
1606922790.1706,-11
1606922790.1726,-9
1606922790.1745,-9
1606922790.1766,-19
1606922790.1772,-16
1606922790.1786,4
1606922790.1806,28
1606922790.1826,57
1606922790.1846,83
1606922790.1866,88
1606922790.1886,69
1606922790.1906,33
1606922790.5874,0
1606922790.5882,-9
1606922790.5907,-2
1606922790.5933,-4
1606922790.5953,-14
1606922790.5973,-9
1606922790.5994,-2
1606922790.6001,7
1606922790.6023,40
1606922790.6043,179
1606922790.6063,631
1606922790.6083,1282
1606922790.6103,1471
1606922790.6124,581
1606922790.6143,-887
1606922790.6157,-1270
1606922790.6173,-394
1606922790.6195,81
1606922790.6213,-90
1606922790.6232,-35
1606922790.6253,119
1606922790.6273,62
1606922790.6279,38
1606922790.6293,102
1606922790.6313,107
1606922790.6332,95
1606922790.6353,119
1606922790.6373,136
1606922790.6393,145
1606922790.6412,167
1606922790.6432,191
1606922790.6452,210
1606922790.6472,236
1606922790.6492,267
1606922790.6513,299
1606922790.6532,332
1606922790.6552,375
1606922790.6572,416
1606922790.6579,452
1606922790.6592,478
1606922790.6613,497
1606922790.6632,500
1606922790.6652,485
1606922790.6672,454
1606922790.6692,399
1606922790.6713,311
1606922790.6732,196
1606922790.6752,66
1606922790.6772,-47
1606922790.6792,-136
1606922790.6813,-203
1606922790.6832,-244
1606922790.6852,-258
1606922790.6872,-260
1606922790.6879,-260
1606922790.6892,-248
1606922790.6912,-229
1606922790.6932,-212
1606922790.6952,-200
1606922790.6972,-184
1606922790.6992,-165
1606922790.7013,-157
1606922790.7032,-153
1606922790.7052,-145
1606922790.7072,-136
1606922790.7092,-129
1606922790.7113,-122
1606922790.7132,-117
1606922790.7154,-114
1606922790.7173,-114
1606922790.7179,-114
1606922790.7192,-110
1606922790.7212,-105
1606922791.1875,-105
1606922791.1885,-107
1606922791.1909,-112
1606922791.1936,-114
1606922791.1955,-110
1606922791.1976,-102
1606922791.1997,-98
1606922791.2016,-95
1606922791.2036,-98
1606922791.2056,-102
1606922791.2075,-95
1606922791.2082,-83
1606922791.2095,-81
1606922791.2115,-81
1606922791.2135,-76
1606922791.2155,-71
1606922791.2175,-69
1606922791.2195,-62
1606922791.2215,-55
1606922791.2235,-55
1606922791.2255,-55
1606922791.2275,-50
1606922791.2295,-47
1606922791.2315,-43
1606922791.2335,-40
1606922791.2355,-35
1606922791.2375,-33
1606922791.2381,-33
1606922791.2395,-31
1606922791.2415,-26
1606922791.2435,-21
1606922791.2455,-21
1606922791.2475,-23
1606922791.2495,-19
1606922791.2515,-16
1606922791.2535,-16
1606922791.2555,-16
1606922791.2575,-7
1606922791.2595,-2
1606922791.2615,-7
1606922791.2634,-7
1606922791.2654,-7
1606922791.2674,-7
1606922791.2681,-9
1606922791.2695,-7
1606922791.2715,9
1606922791.2736,35
1606922791.2755,64
1606922791.2774,86
1606922791.2794,90
1606922791.2816,71
1606922791.2834,33
1606922791.2854,-7
1606922791.2875,-11
1606922791.2894,2
1606922791.2914,2
1606922791.2935,-4
1606922791.2954,4
1606922791.2975,16
1606922791.2981,28
1606922791.2994,76
1606922791.3015,260
1606922791.3034,779
1606922791.3055,1433
1606922791.3074,1464
1606922791.3094,301
1606922791.3115,-1146
1606922791.3134,-1169
1606922791.3154,-239
1606922791.3175,38
1606922791.3194,-100
1606922791.3214,31
1606922791.3234,129
1606922791.6971,64
1606922791.6977,81
1606922791.6996,133
1606922791.7015,122
1606922791.7035,119
1606922791.7055,148
1606922791.7075,157
1606922791.7095,169
1606922791.7115,193
1606922791.7135,212
1606922791.7155,227
1606922791.7175,251
1606922791.7195,277
1606922791.7215,301
1606922791.7235,334
1606922791.7255,380
1606922791.7275,428
1606922791.7281,464
1606922791.7295,492
1606922791.7316,514
1606922791.7335,516
1606922791.7355,492
1606922791.7376,456
1606922791.7395,404
1606922791.7416,318
1606922791.7435,193
1606922791.7455,52
1606922791.7475,-64
1606922791.7495,-150
1606922791.7515,-217
1606922791.7535,-263
1606922791.7555,-279
1606922791.7575,-277
1606922791.7581,-277
1606922791.7595,-267
1606922791.7615,-244
1606922791.7635,-224
1606922791.7655,-210
1606922791.7675,-193
1606922791.7695,-184
1606922791.7715,-179
1606922791.7735,-165
1606922791.7755,-150
1606922791.7776,-148
1606922791.7795,-143
1606922791.7815,-133
1606922791.7835,-131
1606922791.7855,-129
1606922791.7875,-122
1606922791.7881,-119
1606922791.7895,-119
1606922791.7915,-114
1606922791.7935,-114
1606922791.7955,-117
1606922791.7975,-117
1606922791.7995,-114
1606922791.8015,-110
1606922791.8035,-107
1606922791.8055,-105
1606922791.8075,-95
1606922791.8095,-90
1606922791.8115,-93
1606922791.8135,-95
1606922791.8155,-93
1606922791.8175,-88
1606922791.8181,-81
1606922791.8195,-76
1606922791.8215,-74
1606922791.8235,-74
1606922791.8255,-66
1606922791.8275,-59
1606922791.8295,-55
1606922791.8315,-55
1606922792.2677,-55
1606922792.2686,-47
1606922792.2713,-40
1606922792.2738,-40
1606922792.2757,-43
1606922792.2777,-35
1606922792.2784,-31
1606922792.2797,-40
1606922792.2817,-45
1606922792.2836,-35
1606922792.2856,-31
1606922792.2877,-33
1606922792.2897,-35
1606922792.2917,-33
1606922792.2937,-28
1606922792.2956,-28
1606922792.2976,-33
1606922792.2996,-28
1606922792.3017,-14
1606922792.3037,0
1606922792.3056,23
1606922792.3076,57
1606922792.3082,71
1606922792.3096,57
1606922792.3116,26
1606922792.3137,-9
1606922792.3156,-23
1606922792.3176,-19
1606922792.3196,-11
1606922792.3216,-11
1606922792.3236,-14
1606922792.3256,-9
1606922792.3276,0
1606922792.3296,33
1606922792.3316,131
1606922792.3336,488
1606922792.3356,1177
1606922792.3376,1631
1606922792.3382,983
1606922792.3396,-619
1606922792.3416,-1425
1606922792.3436,-681
1606922792.3456,14
1606922792.3476,-57
1606922792.3496,-59
1606922792.3516,105
1606922792.3536,86
1606922792.3556,43
1606922792.3576,98
1606922792.3596,117
1606922792.3616,100
1606922792.3636,122
1606922792.3656,143
1606922792.3677,150
1606922792.3682,162
1606922792.3696,184
1606922792.3716,203
1606922792.3736,227
1606922792.3756,253
