Time,ECG
1602587563.8860,-7
1602587563.8864,46
1602587563.8889,499
1602587563.8915,1518
1602587563.8935,2459
1602587563.8955,2985
1602587563.8975,3489
1602587563.8995,4035
1602587563.9015,4457
1602587563.9035,4838
1602587563.9055,5226
1602587563.9075,5563
1602587563.9095,5856
1602587563.9115,6142
1602587563.9135,6424
1602587563.9155,6678
1602587563.9175,6911
1602587563.9195,7129
1602587563.9216,7328
1602587563.9235,7530
1602587563.9255,7731
1602587563.9275,7903
1602587563.9295,8046
1602587563.9315,8204
1602587563.9335,8371
1602587563.9355,8502
1602587563.9375,8599
1602587563.9395,8703
1602587563.9415,8825
1602587563.9435,8926
1602587563.9455,8999
1602587563.9475,9077
1602587563.9495,9164
1602587563.9515,9232
1602587563.9535,9288
1602587563.9555,9341
1602587563.9575,9390
1602587563.9595,9436
1602587563.9615,9482
1602587563.9635,9535
1602587563.9655,9705
1602587563.9675,10013
1602587563.9695,10107
1602587563.9715,9642
1602587563.9735,9157
1602587563.9755,9317
1602587563.9775,9620
1602587563.9795,9591
1602587563.9815,9571
1602587563.9835,9652
1602587563.9860,9632
1602587563.9875,9586
1602587563.9895,9591
1602587563.9915,9579
1602587563.9935,9542
1602587563.9955,9528
1602587563.9975,9521
1602587563.9995,9477
1602587564.0016,9426
1602587564.0035,9411
1602587564.0055,9387
1602587564.0075,9327
1602587564.0095,9280
1602587564.0115,9254
1602587564.0135,9217
1602587564.0155,9166
1602587564.0175,9108
1602587564.0195,9065
1602587564.0215,9040
1602587564.0235,8989
1602587564.0255,8912
1602587564.0275,8861
1602587564.0295,8829
1602587564.3959,8776
1602587564.3963,8711
1602587564.3988,8655
1602587564.4014,8592
1602587564.4034,8517
1602587564.4054,8439
1602587564.4074,8369
1602587564.4094,8310
1602587564.4115,8233
1602587564.4134,8131
1602587564.4154,8049
1602587564.4174,7983
1602587564.4194,7901
1602587564.4214,7813
1602587564.4234,7743
1602587564.4254,7665
1602587564.4274,7559
1602587564.4294,7464
1602587564.4314,7403
1602587564.4333,7331
1602587564.4354,7246
1602587564.4374,7171
1602587564.4394,7108
1602587564.4413,7040
1602587564.4434,6964
1602587564.4455,6897
1602587564.4474,6834
1602587564.4494,6763
1602587564.4515,6693
1602587564.4535,6630
1602587564.4554,6564
1602587564.4574,6492
1602587564.4594,6414
1602587564.4614,6344
1602587564.4634,6281
1602587564.4654,6213
1602587564.4674,6138
1602587564.4694,6072
1602587564.4714,6002
1602587564.4734,5924
1602587564.4755,5842
1602587564.4774,5771
1602587564.4794,5713
1602587564.4814,5648
1602587564.4834,5575
1602587564.4854,5500
1602587564.4874,5437
1602587564.4894,5369
1602587564.4913,5306
1602587564.4934,5255
1602587564.4954,5192
1602587564.4974,5121
1602587564.4994,5066
1602587564.5014,5010
1602587564.5034,4942
1602587564.5053,4867
1602587564.5074,4809
1602587564.5094,4762
1602587564.5114,4709
1602587564.5134,4644
1602587564.5154,4590
1602587564.5174,4544
1602587564.5194,4476
1602587564.5213,4406
1602587564.5234,4357
1602587564.5254,4311
1602587564.5274,4256
1602587564.5293,4205
1602587564.5314,4156
1602587564.5334,4105
1602587564.5354,4052
1602587564.5374,4001
1602587564.5394,3957
1602587564.9362,3919
1602587564.9366,3882
1602587564.9390,3819
1602587564.9417,3749
1602587564.9437,3705
1602587564.9457,3666
1602587564.9478,3606
1602587564.9497,3547
1602587564.9517,3504
1602587564.9537,3453
1602587564.9557,3397
1602587564.9577,3361
1602587564.9597,3327
1602587564.9616,3278
1602587564.9636,3230
1602587564.9657,3201
1602587564.9677,3225
1602587564.9697,3375
1602587564.9717,3560
1602587564.9737,3349
1602587564.9757,2730
1602587564.9777,2480
1602587564.9797,2759
1602587564.9817,2881
1602587564.9837,2791
1602587564.9857,2803
1602587564.9877,2805
1602587564.9897,2735
1602587564.9917,2699
1602587564.9937,2684
1602587564.9957,2645
1602587564.9977,2604
1602587564.9997,2568
1602587565.0017,2541
1602587565.0037,2519
1602587565.0057,2483
1602587565.0077,2437
1602587565.0097,2410
1602587565.0117,2388
1602587565.0137,2369
1602587565.0157,2349
1602587565.0177,2325
1602587565.0197,2303
1602587565.0217,2272
1602587565.0237,2226
1602587565.0257,2199
1602587565.0276,2197
1602587565.0296,2177
1602587565.0317,2153
1602587565.0337,2136
1602587565.0356,2117
1602587565.0376,2092
1602587565.0397,2071
1602587565.0416,2039
1602587565.0437,2000
1602587565.0457,1971
1602587565.0477,1952
1602587565.0498,1923
1602587565.0517,1881
1602587565.0537,1845
1602587565.0556,1813
1602587565.0577,1777
1602587565.0596,1741
1602587565.0616,1702
1602587565.0636,1661
1602587565.0656,1624
1602587565.0677,1600
1602587565.0697,1576
1602587565.0716,1544
1602587565.0736,1522
1602587565.0756,1506
1602587565.0776,1486
1602587565.0796,1469
1602587565.5059,1452
1602587565.5063,1433
1602587565.5087,1418
1602587565.5115,1404
1602587565.5133,1382
1602587565.5154,1360
1602587565.5174,1338
1602587565.5193,1316
1602587565.5213,1304
1602587565.5233,1299
1602587565.5254,1285
1602587565.5273,1268
1602587565.5293,1246
1602587565.5313,1217
1602587565.5333,1190
1602587565.5353,1183
1602587565.5373,1178
1602587565.5393,1161
1602587565.5413,1137
1602587565.5433,1120
1602587565.5453,1108
1602587565.5473,1096
1602587565.5493,1081
1602587565.5513,1069
1602587565.5533,1052
1602587565.5553,1030
1602587565.5574,1018
1602587565.5593,1013
1602587565.5613,999
1602587565.5633,977
1602587565.5654,974
1602587565.5673,972
1602587565.5693,943
1602587565.5713,921
1602587565.5733,923
1602587565.5755,923
1602587565.5774,914
1602587565.5793,899
1602587565.5813,887
1602587565.5833,882
1602587565.5853,882
1602587565.5873,873
1602587565.5893,851
1602587565.5914,841
1602587565.5933,839
1602587565.5953,826
1602587565.5973,812
1602587565.5993,812
1602587565.6013,817
1602587565.6033,829
1602587565.6053,819
1602587565.6073,788
1602587565.6093,773
1602587565.6113,771
1602587565.6133,759
1602587565.6153,746
1602587565.6173,737
1602587565.6193,720
1602587565.6213,708
1602587565.6234,696
1602587565.6253,681
1602587565.6273,679
1602587565.6293,683
1602587565.6313,676
1602587565.6333,674
1602587565.6353,756
1602587565.6374,979
1602587565.6393,1147
1602587565.6413,846
1602587565.6433,266
1602587565.6453,181
1602587565.6473,504
1602587565.6493,586
1602587566.0458,543
1602587566.0462,606
1602587566.0486,625
1602587566.0511,584
1602587566.0532,584
1602587566.0551,599
1602587566.0573,586
1602587566.0592,572
1602587566.0612,565
1602587566.0632,562
1602587566.0652,562
1602587566.0672,557
1602587566.0692,557
1602587566.0713,565
1602587566.0733,567
1602587566.0752,562
1602587566.0772,545
1602587566.0792,528
1602587566.0812,523
1602587566.0832,533
1602587566.0852,545
1602587566.0872,545
1602587566.0892,543
1602587566.0912,543
1602587566.0932,548
1602587566.0952,550
1602587566.0973,548
1602587566.0992,545
1602587566.1012,548
1602587566.1032,543
1602587566.1053,526
1602587566.1072,514
1602587566.1092,511
1602587566.1112,502
1602587566.1132,485
1602587566.1152,463
1602587566.1172,443
1602587566.1192,438
1602587566.1211,426
1602587566.1232,397
1602587566.1252,371
1602587566.1272,356
1602587566.1292,354
1602587566.1312,344
1602587566.1332,332
1602587566.1352,329
1602587566.1372,341
1602587566.1392,346
1602587566.1412,332
1602587566.1432,327
1602587566.1452,332
1602587566.1472,329
1602587566.1492,324
1602587566.1512,332
1602587566.1532,337
1602587566.1553,332
1602587566.1572,324
1602587566.1592,322
1602587566.1612,322
1602587566.1632,317
1602587566.1652,303
1602587566.1672,295
1602587566.1692,298
1602587566.1712,293
1602587566.1733,286
1602587566.1753,286
1602587566.1772,286
1602587566.1792,286
1602587566.1812,278
1602587566.1832,269
1602587566.1852,266
1602587566.1872,261
1602587566.1892,254
1602587566.6155,247
1602587566.6160,242
1602587566.6178,247
1602587566.6195,249
1602587566.6215,237
1602587566.6235,220
1602587566.6255,218
1602587566.6275,223
1602587566.6295,227
1602587566.6315,220
1602587566.6335,208
1602587566.6355,206
1602587566.6375,210
1602587566.6395,210
1602587566.6414,210
1602587566.6435,215
1602587566.6455,218
1602587566.6475,210
1602587566.6495,210
1602587566.6515,208
1602587566.6535,203
1602587566.6555,196
1602587566.6575,201
1602587566.6595,215
1602587566.6615,230
1602587566.6636,249
1602587566.6655,242
1602587566.6675,208
1602587566.6695,208
1602587566.6715,227
1602587566.6735,223
1602587566.6755,208
1602587566.6775,201
1602587566.6795,189
1602587566.6815,179
1602587566.6835,184
1602587566.6855,191
1602587566.6876,196
1602587566.6894,198
1602587566.6914,184
1602587566.6935,210
1602587566.6955,385
1602587566.6976,666
1602587566.6995,686
1602587566.7015,147
1602587566.7035,-346
1602587566.7055,-147
1602587566.7075,164
1602587566.7095,145
1602587566.7115,150
1602587566.7135,227
1602587566.7155,206
1602587566.7175,172
1602587566.7195,186
1602587566.7215,196
1602587566.7235,194
1602587566.7255,198
1602587566.7275,198
1602587566.7295,196
1602587566.7315,208
1602587566.7335,218
1602587566.7355,215
1602587566.7375,218
1602587566.7395,223
1602587566.7414,220
1602587566.7435,213
1602587566.7455,213
1602587566.7475,223
1602587566.7495,232
1602587566.7515,232
1602587566.7534,235
1602587566.7555,240
1602587566.7575,247
1602587567.2155,252
1602587567.2159,249
1602587567.2183,242
1602587567.2210,247
1602587567.2229,257
1602587567.2249,242
1602587567.2270,218
1602587567.2289,215
1602587567.2309,215
1602587567.2329,206
1602587567.2350,196
1602587567.2369,186
1602587567.2390,179
1602587567.2410,160
1602587567.2429,123
1602587567.2449,109
1602587567.2469,113
1602587567.2490,99
1602587567.2510,80
1602587567.2529,80
1602587567.2551,84
1602587567.2570,84
1602587567.2589,89
1602587567.2609,101
1602587567.2630,99
1602587567.2649,92
1602587567.2669,94
1602587567.2689,106
1602587567.2709,109
1602587567.2729,104
1602587567.2750,106
1602587567.2769,106
1602587567.2789,104
1602587567.2809,101
1602587567.2829,106
1602587567.2849,113
1602587567.2869,104
1602587567.2889,84
1602587567.2910,84
1602587567.2929,94
1602587567.2949,87
1602587567.2969,87
1602587567.2989,97
1602587567.3009,99
1602587567.3029,94
1602587567.3049,89
1602587567.3069,87
1602587567.3089,80
1602587567.3109,72
1602587567.3129,77
1602587567.3149,82
1602587567.3169,82
1602587567.3189,82
1602587567.3210,82
1602587567.3229,80
1602587567.3249,87
1602587567.3269,92
1602587567.3293,77
1602587567.3310,65
1602587567.3329,80
1602587567.3349,87
1602587567.3369,80
1602587567.3389,84
1602587567.3410,87
1602587567.3429,82
1602587567.3450,82
1602587567.3469,87
1602587567.3489,87
1602587567.3509,84
1602587567.3529,77
1602587567.3549,67
1602587567.3570,70
1602587567.3590,77
1602587567.7558,84
1602587567.7563,97
1602587567.7585,116
1602587567.7612,128
1602587567.7634,118
1602587567.7652,92
1602587567.7672,80
1602587567.7692,94
1602587567.7712,106
1602587567.7732,92
1602587567.7752,63
1602587567.7772,43
1602587567.7792,53
1602587567.7812,72
1602587567.7832,77
1602587567.7852,70
1602587567.7872,75
1602587567.7892,77
1602587567.7912,84
1602587567.7932,210
1602587567.7952,487
1602587567.7972,591
1602587567.7992,147
1602587567.8012,-378
1602587567.8032,-278
1602587567.8052,36
1602587567.8072,46
1602587567.8092,29
1602587567.8112,101
1602587567.8132,106
1602587567.8152,92
1602587567.8172,106
1602587567.8192,101
1602587567.8212,94
1602587567.8232,101
1602587567.8252,113
1602587567.8272,123
1602587567.8292,128
1602587567.8312,111
1602587567.8332,109
1602587567.8352,130
1602587567.8372,140
1602587567.8392,143
1602587567.8412,145
1602587567.8432,145
1602587567.8452,147
1602587567.8472,150
1602587567.8492,150
1602587567.8512,157
1602587567.8533,169
1602587567.8552,181
1602587567.8572,184
1602587567.8592,186
1602587567.8612,196
1602587567.8632,194
1602587567.8652,189
1602587567.8672,191
1602587567.8692,186
1602587567.8712,177
1602587567.8732,172
1602587567.8752,164
1602587567.8772,150
1602587567.8792,135
1602587567.8812,121
1602587567.8832,101
1602587567.8852,82
1602587567.8872,75
1602587567.8892,67
1602587567.8912,55
1602587567.8932,43
1602587567.8952,41
1602587567.8972,43
1602587567.8992,41
1602587568.3262,33
1602587568.3266,29
1602587568.3290,38
1602587568.3316,50
1602587568.3336,53
1602587568.3356,48
1602587568.3376,55
1602587568.3396,55
1602587568.3415,50
1602587568.3436,53
1602587568.3456,58
1602587568.3476,48
1602587568.3497,46
1602587568.3516,50
1602587568.3536,41
1602587568.3556,33
1602587568.3576,38
1602587568.3596,43
1602587568.3616,43
1602587568.3637,41
1602587568.3656,36
1602587568.3676,41
1602587568.3696,48
1602587568.3717,43
1602587568.3736,38
1602587568.3743,38
1602587568.3756,41
1602587568.3777,33
1602587568.3796,31
1602587568.3816,29
1602587568.3836,24
1602587568.3856,29
1602587568.3876,38
1602587568.3896,46
1602587568.3915,46
1602587568.3936,46
1602587568.3956,38
1602587568.3976,31
1602587568.3996,38
1602587568.4016,48
1602587568.4036,46
1602587568.4043,41
1602587568.4056,46
1602587568.4076,53
1602587568.4096,48
1602587568.4116,38
1602587568.4136,38
1602587568.4156,43
1602587568.4175,46
1602587568.4196,48
1602587568.4216,50
1602587568.4236,48
1602587568.4256,50
1602587568.4277,55
1602587568.4296,55
1602587568.4316,50
1602587568.4336,55
1602587568.4343,75
1602587568.4366,87
1602587568.4386,77
1602587568.4406,60
1602587568.4426,63
1602587568.4446,75
1602587568.4466,72
1602587568.4486,70
1602587568.4506,65
1602587568.4526,53
1602587568.4545,46
1602587568.4566,50
1602587568.4586,50
1602587568.4605,55
1602587568.4626,63
1602587568.4633,55
1602587568.8658,58
1602587568.8662,147
1602587568.8680,380
1602587568.8700,574
1602587568.8721,310
1602587568.8741,-278
1602587568.8760,-395
1602587568.8780,-55
1602587568.8800,58
1602587568.8820,-12
1602587568.8840,36
1602587568.8860,80
1602587568.8879,50
1602587568.8900,43
1602587568.8907,65
1602587568.8920,67
1602587568.8940,60
1602587568.8960,70
1602587568.8980,77
1602587568.9000,80
1602587568.9020,87
1602587568.9040,89
1602587568.9060,92
1602587568.9080,104
1602587568.9100,116
1602587568.9120,109
1602587568.9140,101
1602587568.9160,106
1602587568.9180,116
1602587568.9200,126
1602587568.9207,130
1602587568.9220,138
1602587568.9240,140
1602587568.9260,147
1602587568.9280,155
1602587568.9300,162
1602587568.9320,162
1602587568.9340,157
1602587568.9360,155
1602587568.9380,160
1602587568.9400,157
1602587568.9420,155
1602587568.9440,147
1602587568.9460,130
1602587568.9479,111
1602587568.9500,97
1602587568.9507,87
1602587568.9520,70
1602587568.9540,50
1602587568.9560,38
1602587568.9580,29
1602587568.9600,19
1602587568.9620,19
1602587568.9640,16
1602587568.9660,14
1602587568.9680,12
1602587568.9701,14
1602587568.9720,19
1602587568.9740,26
1602587568.9760,31
1602587568.9780,33
1602587568.9800,31
1602587568.9807,31
1602587568.9820,38
1602587568.9840,41
1602587568.9860,41
1602587568.9879,41
1602587568.9900,41
1602587568.9920,43
1602587568.9939,36
1602587568.9960,31
1602587568.9980,36
1602587569.0000,43
1602587569.4361,43
1602587569.4366,38
1602587569.4390,33
1602587569.4402,31
1602587569.4416,29
1602587569.4436,24
1602587569.4456,16
1602587569.4476,12
1602587569.4496,12
1602587569.4516,16
1602587569.4536,12
1602587569.4556,4
1602587569.4576,12
1602587569.4596,16
1602587569.4616,12
1602587569.4636,21
1602587569.4656,38
1602587569.4676,29
1602587569.4696,16
1602587569.4703,26
1602587569.4716,33
1602587569.4737,36
1602587569.4756,36
1602587569.4776,31
1602587569.4796,33
1602587569.4817,38
1602587569.4836,36
1602587569.4856,36
1602587569.4876,43
1602587569.4896,41
1602587569.4916,33
1602587569.4936,38
1602587569.4956,38
1602587569.4976,38
1602587569.4998,48
1602587569.5003,58
1602587569.5016,53
1602587569.5037,46
1602587569.5056,50
1602587569.5076,53
1602587569.5097,46
1602587569.5116,48
1602587569.5136,70
1602587569.5157,80
1602587569.5176,70
1602587569.5196,63
1602587569.5216,63
1602587569.5236,63
1602587569.5256,65
1602587569.5276,60
1602587569.5283,46
1602587569.5297,41
1602587569.5316,46
1602587569.5336,50
1602587569.5356,46
1602587569.5376,50
1602587569.5396,58
1602587569.5416,50
1602587569.5436,87
1602587569.5457,271
1602587569.5476,528
1602587569.5497,468
1602587569.5516,-80
1602587569.5536,-436
1602587569.5557,-184
1602587569.5577,53
1602587569.5583,16
1602587569.5596,38
1602587569.5617,89
1602587569.5636,63
1602587569.5656,50
1602587569.5676,72
1602587569.5696,75
1602587569.9753,80
1602587569.9757,92
1602587569.9781,94
1602587569.9808,94
1602587569.9828,94
1602587569.9848,94
1602587569.9868,104
1602587569.9888,109
1602587569.9895,92
1602587569.9908,89
1602587569.9928,104
1602587569.9948,109
1602587569.9969,106
1602587569.9988,109
1602587570.0008,116
1602587570.0027,128
1602587570.0045,138
1602587570.0058,145
1602587570.0078,145
1602587570.0099,145
1602587570.0118,152
1602587570.0138,160
1602587570.0158,162
1602587570.0177,160
1602587570.0198,152
1602587570.0218,145
1602587570.0238,143
1602587570.0258,138
1602587570.0278,128
1602587570.0298,111
1602587570.0318,97
1602587570.0337,80
1602587570.0358,53
1602587570.0378,36
1602587570.0398,29
1602587570.0417,21
1602587570.0438,16
1602587570.0458,16
1602587570.0478,12
1602587570.0498,12
1602587570.0518,19
1602587570.0537,21
1602587570.0558,21
1602587570.0578,31
1602587570.0598,41
1602587570.0618,33
1602587570.0638,31
1602587570.0657,36
1602587570.0678,38
1602587570.0698,48
1602587570.0718,53
1602587570.0738,46
1602587570.0758,43
1602587570.0778,48
1602587570.0798,36
1602587570.0818,21
1602587570.0838,26
1602587570.0858,33
1602587570.0878,26
1602587570.0897,26
1602587570.0918,31
1602587570.0938,31
1602587570.0958,33
1602587570.0979,21
1602587570.0998,16
1602587570.1018,29
1602587570.1038,31
1602587570.1058,29
1602587570.1078,36
1602587570.1098,31
1602587570.1118,21
1602587570.1137,21
1602587570.1157,36
1602587570.5756,48
1602587570.5760,46
1602587570.5784,43
1602587570.5810,41
1602587570.5830,33
1602587570.5850,26
1602587570.5870,36
1602587570.5890,50
1602587570.5910,41
1602587570.5930,21
1602587570.5950,26
1602587570.5970,36
1602587570.5990,29
1602587570.6010,29
1602587570.6030,41
1602587570.6050,48
1602587570.6070,43
1602587570.6090,43
1602587570.6111,48
1602587570.6130,50
1602587570.6150,53
1602587570.6170,53
1602587570.6190,41
1602587570.6210,38
1602587570.6230,50
1602587570.6249,65
1602587570.6270,77
1602587570.6290,80
1602587570.6310,60
1602587570.6330,50
1602587570.6350,67
1602587570.6370,77
1602587570.6391,63
1602587570.6410,43
1602587570.6430,38
1602587570.6450,48
1602587570.6470,53
1602587570.6490,48
1602587570.6510,43
1602587570.6530,46
1602587570.6550,43
1602587570.6572,48
1602587570.6591,155
1602587570.6610,419
1602587570.6630,611
1602587570.6650,286
1602587570.6670,-346
1602587570.6690,-441
1602587570.6710,-80
1602587570.6730,43
1602587570.6750,4
1602587570.6770,53
1602587570.6790,72
1602587570.6810,58
1602587570.6831,72
1602587570.6850,77
1602587570.6870,65
1602587570.6890,75
1602587570.6910,84
1602587570.6930,84
1602587570.6950,87
1602587570.6970,89
1602587570.6990,92
1602587570.7010,104
1602587570.7030,111
1602587570.7050,104
1602587570.7070,104
1602587570.7090,111
1602587570.7110,113
1602587570.7130,121
1602587570.7150,133
1602587570.7170,135
1602587570.7190,133
1602587571.1154,135
1602587571.1158,138
1602587571.1183,143
1602587571.1209,150
1602587571.1229,155
1602587571.1249,157
1602587571.1269,152
1602587571.1289,147
1602587571.1309,145
1602587571.1329,138
1602587571.1349,121
1602587571.1368,99
1602587571.1390,89
1602587571.1409,82
1602587571.1429,60
1602587571.1449,36
1602587571.1469,31
1602587571.1489,21
1602587571.1509,0
1602587571.1530,-16
1602587571.1549,-14
1602587571.1569,-7
1602587571.1589,-7
1602587571.1609,-7
1602587571.1629,-4
1602587571.1649,-7
1602587571.1669,-4
1602587571.1689,7
1602587571.1708,16
1602587571.1729,14
1602587571.1749,14
1602587571.1769,24
1602587571.1789,29
1602587571.1809,16
1602587571.1829,7
1602587571.1849,16
1602587571.1868,21
1602587571.1888,12
1602587571.1909,7
1602587571.1929,14
1602587571.1949,19
1602587571.1969,12
1602587571.1989,9
1602587571.2009,9
1602587571.2028,9
1602587571.2049,12
1602587571.2069,21
1602587571.2089,21
1602587571.2109,16
1602587571.2129,9
1602587571.2149,4
1602587571.2169,7
1602587571.2189,19
1602587571.2209,21
1602587571.2229,14
1602587571.2249,16
1602587571.2269,24
1602587571.2289,31
1602587571.2309,31
1602587571.2329,21
1602587571.2349,21
1602587571.2368,31
1602587571.2389,31
1602587571.2409,33
1602587571.2428,41
1602587571.2449,36
1602587571.2469,24
1602587571.2489,29
1602587571.2508,36
1602587571.2529,31
1602587571.2550,36
1602587571.2569,50
1602587571.2589,46
1602587571.6860,31
1602587571.6864,26
1602587571.6888,38
1602587571.6915,48
1602587571.6935,43
1602587571.6955,43
1602587571.6974,43
1602587571.6994,36
1602587571.7015,38
1602587571.7035,50
1602587571.7054,48
1602587571.7074,43
1602587571.7095,43
1602587571.7114,41
1602587571.7134,46
1602587571.7154,48
1602587571.7174,38
1602587571.7194,31
1602587571.7214,29
1602587571.7234,19
1602587571.7254,21
1602587571.7274,36
1602587571.7294,43
1602587571.7315,36
1602587571.7334,26
1602587571.7354,48
1602587571.7374,196
1602587571.7394,470
1602587571.7414,538
1602587571.7434,58
1602587571.7456,-448
1602587571.7474,-303
1602587571.7494,12
1602587571.7514,12
1602587571.7534,0
1602587571.7554,58
1602587571.7574,48
1602587571.7594,41
1602587571.7669,65
1602587571.7685,60
1602587571.7704,55
1602587571.7724,60
1602587571.7744,65
1602587571.7764,75
1602587571.7784,77
1602587571.7804,75
1602587571.7824,72
1602587571.7844,77
1602587571.7866,82
1602587571.7885,94
1602587571.7904,106
1602587571.7924,106
1602587571.7944,99
1602587571.7964,101
1602587571.7984,118
1602587571.8004,121
1602587571.8024,116
1602587571.8044,121
1602587571.8064,128
1602587571.8083,130
1602587571.8104,133
1602587571.8124,140
1602587571.8144,147
1602587571.8164,140
1602587571.8185,130
1602587571.8204,126
1602587571.8224,123
1602587571.8244,118
1602587571.8264,106
1602587571.8284,84
1602587571.8304,75
1602587571.8324,65
1602587571.8344,48
1602587572.2564,31
1602587572.2568,14
1602587572.2587,0
1602587572.2607,-2
1602587572.2627,-4
1602587572.2647,-14
1602587572.2667,-16
1602587572.2687,-16
1602587572.2707,-26
1602587572.2727,-33
1602587572.2747,-24
1602587572.2767,-12
1602587572.2787,-7
1602587572.2806,-7
1602587572.2827,-2
1602587572.2847,0
1602587572.2867,-7
1602587572.2887,-4
1602587572.2907,4
1602587572.2927,4
1602587572.2947,2
1602587572.2967,7
1602587572.2987,2
1602587572.3007,-4
1602587572.3026,4
1602587572.3047,9
1602587572.3068,9
1602587572.3087,9
1602587572.3106,7
1602587572.3126,4
1602587572.3147,7
1602587572.3166,9
1602587572.3186,9
1602587572.3206,4
1602587572.3226,2
1602587572.3247,9
1602587572.3266,16
1602587572.3286,19
1602587572.3306,16
1602587572.3326,19
1602587572.3346,26
1602587572.3366,24
1602587572.3386,14
1602587572.3407,16
1602587572.3426,26
1602587572.3447,26
1602587572.3466,21
1602587572.3486,21
1602587572.3506,21
1602587572.3526,24
1602587572.3547,36
1602587572.3566,48
1602587572.3586,46
1602587572.3606,33
1602587572.3626,26
1602587572.3647,16
1602587572.3666,21
1602587572.3686,38
1602587572.3706,46
1602587572.3726,43
1602587572.3747,43
1602587572.3766,36
1602587572.3786,36
1602587572.3806,46
1602587572.3826,50
1602587572.3847,58
1602587572.3866,70
1602587572.3887,70
1602587572.3907,55
1602587572.3927,41
1602587572.3946,41
1602587572.3967,58
1602587572.3987,58
1602587572.7958,41
1602587572.7967,33
1602587572.7992,36
1602587572.8018,29
1602587572.8040,29
1602587572.8058,31
1602587572.8078,29
1602587572.8098,36
1602587572.8118,33
1602587572.8138,50
1602587572.8158,194
1602587572.8177,458
1602587572.8197,506
1602587572.8217,29
1602587572.8238,-451
1602587572.8257,-293
1602587572.8277,2
1602587572.8297,-16
1602587572.8317,-19
1602587572.8336,60
1602587572.8356,50
1602587572.8377,26
1602587572.8397,53
1602587572.8417,58
1602587572.8437,43
1602587572.8456,50
1602587572.8476,70
1602587572.8496,72
1602587572.8517,63
1602587572.8536,60
1602587572.8557,70
1602587572.8576,75
1602587572.8597,80
1602587572.8616,84
1602587572.8637,89
1602587572.8656,94
1602587572.8677,97
1602587572.8697,109
1602587572.8717,113
1602587572.8737,111
1602587572.8756,113
1602587572.8776,123
1602587572.8798,126
1602587572.8816,128
1602587572.8837,133
1602587572.8857,135
1602587572.8876,138
1602587572.8896,135
1602587572.8918,128
1602587572.8937,128
1602587572.8956,121
1602587572.8976,111
1602587572.8996,106
1602587572.9017,94
1602587572.9037,80
1602587572.9058,63
1602587572.9077,46
1602587572.9096,31
1602587572.9116,16
1602587572.9137,7
1602587572.9158,9
1602587572.9176,-2
1602587572.9197,-19
1602587572.9217,-14
1602587572.9239,-4
1602587572.9257,-9
1602587572.9277,-12
1602587572.9297,-14
1602587572.9318,-9
1602587572.9337,2
1602587572.9358,9
1602587572.9377,2
1602587572.9397,-2
1602587573.3360,7
1602587573.3368,14
1602587573.3393,16
1602587573.3418,19
1602587573.3439,24
1602587573.3459,9
1602587573.3480,-7
1602587573.3500,-4
1602587573.3519,0
1602587573.3538,-2
1602587573.3558,-4
1602587573.3578,-7
1602587573.3599,0
1602587573.3618,7
1602587573.3639,2
1602587573.3658,-2
1602587573.3678,-2
1602587573.3698,-2
1602587573.3718,7
1602587573.3738,14
1602587573.3758,7
1602587573.3778,2
1602587573.3798,14
1602587573.3818,16
1602587573.3839,14
1602587573.3858,26
1602587573.3878,24
1602587573.3898,2
1602587573.3918,7
1602587573.3938,24
1602587573.3958,21
1602587573.3978,21
1602587573.3998,31
1602587573.4020,26
1602587573.4038,24
1602587573.4058,29
1602587573.4078,31
1602587573.4098,29
1602587573.4118,24
1602587573.4138,19
1602587573.4158,29
1602587573.4178,33
1602587573.4199,36
1602587573.4218,41
1602587573.4239,43
1602587573.4258,43
1602587573.4278,36
1602587573.4298,36
1602587573.4318,48
1602587573.4338,60
1602587573.4358,60
1602587573.4378,63
1602587573.4398,70
1602587573.4418,55
1602587573.4439,41
1602587573.4457,50
1602587573.4478,58
1602587573.4498,55
1602587573.4518,43
1602587573.4538,36
1602587573.4558,38
1602587573.4578,29
1602587573.4598,19
1602587573.4618,26
1602587573.4639,41
1602587573.4658,36
1602587573.4678,50
1602587573.4698,184
1602587573.4718,443
1602587573.4738,538
1602587573.4758,123
1602587573.4778,-392
1602587573.4798,-315
1602587573.9361,-16
1602587573.9369,2
1602587573.9393,-2
1602587573.9420,65
1602587573.9440,48
1602587573.9459,29
1602587573.9480,55
1602587573.9499,63
1602587573.9519,60
1602587573.9539,70
1602587573.9559,72
1602587573.9581,60
1602587573.9600,55
1602587573.9619,65
1602587573.9640,75
1602587573.9659,77
1602587573.9678,82
1602587573.9699,89
1602587573.9719,97
1602587573.9739,99
1602587573.9759,104
1602587573.9779,113
1602587573.9799,113
1602587573.9819,109
1602587573.9839,111
1602587573.9859,123
1602587573.9878,130
1602587573.9899,133
1602587573.9918,138
1602587573.9939,145
1602587573.9959,147
1602587573.9979,143
1602587573.9999,130
1602587574.0019,130
1602587574.0039,130
1602587574.0059,113
1602587574.0079,99
1602587574.0099,94
1602587574.0118,87
1602587574.0139,67
1602587574.0159,50
1602587574.0179,41
1602587574.0199,33
1602587574.0219,19
1602587574.0239,2
1602587574.0260,-12
1602587574.0278,-14
1602587574.0299,-12
1602587574.0319,-12
1602587574.0339,-14
1602587574.0359,-14
1602587574.0378,-9
1602587574.0399,-4
1602587574.0418,2
1602587574.0439,2
1602587574.0459,0
1602587574.0479,-2
1602587574.0499,2
1602587574.0520,12
1602587574.0539,16
1602587574.0559,16
1602587574.0579,12
1602587574.0600,0
1602587574.0620,0
1602587574.0640,7
1602587574.0659,14
1602587574.0679,14
1602587574.0699,14
1602587574.0719,14
1602587574.0740,12
1602587574.0759,4
1602587574.0779,0
1602587574.0799,7
1602587574.5060,16
1602587574.5069,16
1602587574.5093,14
1602587574.5119,16
1602587574.5139,14
1602587574.5160,12
1602587574.5179,16
1602587574.5199,21
1602587574.5219,19
1602587574.5239,7
1602587574.5259,4
1602587574.5279,2
1602587574.5299,0
1602587574.5319,9
1602587574.5339,19
1602587574.5358,16
1602587574.5379,19
1602587574.5399,21
1602587574.5418,16
1602587574.5439,16
1602587574.5459,24
1602587574.5479,29
1602587574.5498,29
1602587574.5519,24
1602587574.5539,29
1602587574.5559,29
1602587574.5578,26
1602587574.5599,33
1602587574.5618,41
1602587574.5639,43
1602587574.5659,43
1602587574.5679,43
1602587574.5699,46
1602587574.5718,65
1602587574.5739,87
1602587574.5759,82
1602587574.5779,53
1602587574.5798,38
1602587574.5818,50
1602587574.5839,58
1602587574.5860,36
1602587574.5878,19
1602587574.5899,26
1602587574.5918,29
1602587574.5939,21
1602587574.5959,26
1602587574.5979,43
1602587574.5999,38
1602587574.6019,29
1602587574.6038,109
1602587574.6059,354
1602587574.6079,572
1602587574.6099,315
1602587574.6119,-300
1602587574.6139,-446
1602587574.6159,-104
1602587574.6179,24
1602587574.6199,-16
1602587574.6219,43
1602587574.6239,67
1602587574.6259,36
1602587574.6278,48
1602587574.6298,63
1602587574.6319,55
1602587574.6339,63
1602587574.6358,75
1602587574.6379,80
1602587574.6399,80
1602587574.6418,77
1602587574.6439,80
1602587574.6458,84
1602587574.6478,92
1602587574.6499,92
1602587575.0456,94
1602587575.0464,92
1602587575.0490,92
1602587575.0516,99
1602587575.0536,109
1602587575.0555,113
1602587575.0575,118
1602587575.0595,126
1602587575.0615,133
1602587575.0635,133
1602587575.0654,128
1602587575.0674,128
1602587575.0694,138
1602587575.0714,140
1602587575.0735,133
1602587575.0754,123
1602587575.0774,116
1602587575.0782,111
1602587575.0806,104
1602587575.0826,87
1602587575.0844,70
1602587575.0864,67
1602587575.0884,58
1602587575.0904,24
1602587575.0925,0
1602587575.0944,2
1602587575.0964,2
1602587575.0984,0
1602587575.1004,-2
1602587575.1024,-4
1602587575.1044,-9
1602587575.1064,-12
1602587575.1071,-9
1602587575.1094,-7
1602587575.1114,-7
1602587575.1135,-7
1602587575.1154,4
1602587575.1175,9
1602587575.1194,2
1602587575.1214,0
1602587575.1234,4
1602587575.1254,12
1602587575.1274,16
1602587575.1294,14
1602587575.1314,9
1602587575.1335,9
1602587575.1354,12
1602587575.1374,12
1602587575.1381,12
1602587575.1404,12
1602587575.1425,12
1602587575.1445,21
1602587575.1464,19
1602587575.1484,2
1602587575.1504,-2
1602587575.1524,14
1602587575.1544,19
1602587575.1564,12
1602587575.1585,21
1602587575.1605,24
1602587575.1624,9
1602587575.1645,12
1602587575.1664,26
1602587575.1684,33
1602587575.1691,31
1602587575.1704,26
1602587575.1724,16
1602587575.1744,16
1602587575.1764,24
1602587575.1786,24
1602587575.1804,26
1602587575.1824,33
1602587575.1844,33
1602587575.6159,29
1602587575.6167,33
1602587575.6191,41
1602587575.6218,29
1602587575.6238,24
1602587575.6244,36
1602587575.6267,38
1602587575.6287,24
1602587575.6307,14
1602587575.6327,29
1602587575.6347,41
1602587575.6367,33
1602587575.6386,33
1602587575.6407,41
1602587575.6426,38
1602587575.6447,53
1602587575.6466,75
1602587575.6487,63
1602587575.6506,43
1602587575.6527,48
1602587575.6547,50
1602587575.6554,43
1602587575.6567,50
1602587575.6586,48
1602587575.6606,24
1602587575.6626,19
1602587575.6647,31
1602587575.6666,29
1602587575.6686,24
1602587575.6706,31
1602587575.6727,53
1602587575.6747,184
1602587575.6767,458
1602587575.6787,579
1602587575.6807,135
1602587575.6827,-443
1602587575.6847,-375
1602587575.6853,-31
1602587575.6877,-2
1602587575.6896,-19
1602587575.6916,67
1602587575.6937,67
1602587575.6957,41
1602587575.6976,67
1602587575.6997,75
1602587575.7016,60
1602587575.7037,63
1602587575.7058,67
1602587575.7077,67
1602587575.7096,75
1602587575.7117,82
1602587575.7137,89
1602587575.7156,97
1602587575.7163,94
1602587575.7176,84
1602587575.7196,92
1602587575.7217,106
1602587575.7238,106
1602587575.7257,109
1602587575.7276,118
1602587575.7297,121
1602587575.7316,121
1602587575.7337,130
1602587575.7357,140
1602587575.7376,143
1602587575.7396,140
1602587575.7416,140
1602587575.7437,145
1602587575.7456,147
1602587575.7464,140
1602587575.7487,133
1602587575.7506,128
1602587575.7527,118
1602587576.1558,104
1602587576.1565,92
1602587576.1588,84
1602587576.1615,65
1602587576.1636,38
1602587576.1655,26
1602587576.1675,19
1602587576.1695,7
1602587576.1715,-9
1602587576.1735,-16
1602587576.1742,-16
1602587576.1764,-21
1602587576.1784,-16
1602587576.1805,-16
1602587576.1824,-31
1602587576.1845,-19
1602587576.1864,4
1602587576.1884,-2
1602587576.1904,-12
1602587576.1924,-4
1602587576.1945,2
1602587576.1965,2
1602587576.1984,-2
1602587576.2004,-2
1602587576.2024,-4
1602587576.2047,-7
1602587576.2052,-2
1602587576.2075,4
1602587576.2094,2
1602587576.2114,-2
1602587576.2135,0
1602587576.2155,4
1602587576.2175,0
1602587576.2195,-4
1602587576.2214,-2
1602587576.2235,-9
1602587576.2254,-4
1602587576.2274,4
1602587576.2294,2
1602587576.2314,2
1602587576.2335,9
1602587576.2354,14
1602587576.2361,12
1602587576.2374,4
1602587576.2395,0
1602587576.2414,4
1602587576.2435,9
1602587576.2454,9
1602587576.2475,9
1602587576.2494,9
1602587576.2514,9
1602587576.2535,9
1602587576.2554,14
1602587576.2574,19
1602587576.2594,16
1602587576.2615,16
1602587576.2635,19
1602587576.2654,14
1602587576.2661,14
1602587576.2674,21
1602587576.2694,24
1602587576.2715,19
1602587576.2735,12
1602587576.2755,14
1602587576.2774,24
1602587576.2794,31
1602587576.2814,36
1602587576.2835,43
1602587576.2855,50
1602587576.2874,58
1602587576.2894,53
1602587576.2915,29
1602587576.2935,21
1602587576.6961,46
1602587576.6968,48
1602587576.6993,29
1602587576.7022,24
1602587576.7039,26
1602587576.7058,16
1602587576.7079,4
1602587576.7099,7
1602587576.7119,7
1602587576.7139,-4
1602587576.7159,-4
1602587576.7179,77
1602587576.7199,307
1602587576.7219,538
1602587576.7239,317
1602587576.7259,-295
1602587576.7279,-480
1602587576.7299,-133
1602587576.7319,12
1602587576.7339,-50
1602587576.7358,2
1602587576.7378,41
1602587576.7398,4
1602587576.7419,12
1602587576.7439,38
1602587576.7458,38
1602587576.7478,43
1602587576.7498,60
1602587576.7518,53
1602587576.7538,36
1602587576.7559,38
1602587576.7578,58
1602587576.7598,63
1602587576.7618,58
1602587576.7639,65
1602587576.7658,75
1602587576.7679,80
1602587576.7698,87
1602587576.7718,89
1602587576.7739,92
1602587576.7758,92
1602587576.7778,94
1602587576.7799,97
1602587576.7818,109
1602587576.7839,123
1602587576.7859,123
1602587576.7878,123
1602587576.7899,130
1602587576.7918,126
1602587576.7938,121
1602587576.7958,123
1602587576.7978,123
1602587576.7999,111
1602587576.8018,99
1602587576.8040,89
1602587576.8059,77
1602587576.8078,60
1602587576.8098,36
1602587576.8118,7
1602587576.8139,0
1602587576.8159,2
1602587576.8178,-4
1602587576.8198,-14
1602587576.8218,-16
1602587576.8239,-21
1602587576.8258,-16
1602587576.8278,-4
1602587576.8298,-9
1602587576.8318,-21
1602587576.8339,-24
1602587576.8358,-14
1602587576.8378,-4
1602587576.8398,-2
1602587577.2960,0
1602587577.2967,-2
1602587577.2992,-7
1602587577.3018,-7
1602587577.3039,-12
1602587577.3058,-24
1602587577.3079,-19
1602587577.3098,-14
1602587577.3120,-19
1602587577.3139,-21
1602587577.3158,-21
1602587577.3179,-16
1602587577.3198,-12
1602587577.3218,-14
1602587577.3238,-21
1602587577.3258,-26
1602587577.3278,-21
1602587577.3298,-12
1602587577.3318,-14
1602587577.3338,-7
1602587577.3357,0
1602587577.3377,-7
1602587577.3398,-9
1602587577.3417,4
1602587577.3438,4
1602587577.3457,-2
1602587577.3478,0
1602587577.3497,4
1602587577.3517,0
1602587577.3539,9
1602587577.3558,19
1602587577.3578,9
1602587577.3599,7
1602587577.3618,12
1602587577.3637,12
1602587577.3657,9
1602587577.3677,14
1602587577.3697,19
1602587577.3718,12
1602587577.3738,12
1602587577.3757,26
1602587577.3777,29
1602587577.3797,16
1602587577.3817,19
1602587577.3838,29
1602587577.3857,19
1602587577.3878,9
1602587577.3897,26
1602587577.3917,46
1602587577.3938,55
1602587577.3957,63
1602587577.3977,60
1602587577.3997,33
1602587577.4017,26
1602587577.4039,48
1602587577.4057,48
1602587577.4077,26
1602587577.4098,19
1602587577.4117,24
1602587577.4138,29
1602587577.4158,36
1602587577.4178,33
1602587577.4198,26
1602587577.4217,26
1602587577.4238,24
1602587577.4257,55
1602587577.4278,225
1602587577.4297,494
1602587577.4317,475
1602587577.4338,-67
1602587577.4358,-485
1602587577.4377,-257
1602587577.4397,12
1602587577.9258,-24
1602587577.9264,-14
1602587577.9288,55
1602587577.9314,36
1602587577.9334,19
1602587577.9353,46
1602587577.9374,55
1602587577.9394,48
1602587577.9413,41
1602587577.9434,38
1602587577.9455,41
1602587577.9474,43
1602587577.9494,46
1602587577.9514,50
1602587577.9534,58
1602587577.9553,67
1602587577.9573,63
1602587577.9593,60
1602587577.9614,72
1602587577.9634,82
1602587577.9653,87
1602587577.9674,99
1602587577.9693,99
1602587577.9713,97
1602587577.9734,111
1602587577.9754,123
1602587577.9774,121
1602587577.9794,113
1602587577.9814,113
1602587577.9834,121
1602587577.9854,130
1602587577.9874,128
1602587577.9894,113
1602587577.9914,106
1602587577.9934,104
1602587577.9954,97
1602587577.9974,77
1602587577.9994,58
1602587578.0014,48
1602587578.0034,41
1602587578.0054,24
1602587578.0074,4
1602587578.0094,-7
1602587578.0114,-21
1602587578.0134,-29
1602587578.0154,-24
1602587578.0174,-21
1602587578.0194,-24
1602587578.0214,-14
1602587578.0234,-4
1602587578.0254,-2
1602587578.0275,-12
1602587578.0293,-9
1602587578.0314,4
1602587578.0334,2
1602587578.0353,-4
1602587578.0374,-4
1602587578.0393,-4
1602587578.0413,-2
1602587578.0434,-4
1602587578.0454,-7
1602587578.0475,-2
1602587578.0494,-4
1602587578.0514,-14
1602587578.0534,-16
1602587578.0554,-16
1602587578.0574,-26
1602587578.0594,-26
1602587578.0614,-14
1602587578.0634,-9
1602587578.0654,-16
1602587578.0674,-16
1602587578.0694,-12
1602587578.4057,-14
1602587578.4063,-16
1602587578.4078,-9
1602587578.4098,-7
1602587578.4119,-7
1602587578.4139,4
1602587578.4158,7
1602587578.4178,-7
1602587578.4198,-14
1602587578.4218,-7
1602587578.4238,0
1602587578.4258,7
1602587578.4278,12
1602587578.4298,7
1602587578.4318,0
1602587578.4338,2
1602587578.4358,4
1602587578.4378,2
1602587578.4398,-2
1602587578.4418,4
1602587578.4438,19
1602587578.4458,14
1602587578.4478,0
1602587578.4498,4
1602587578.4518,12
1602587578.4538,12
1602587578.4558,14
1602587578.4578,19
1602587578.4598,21
1602587578.4618,33
1602587578.4638,46
1602587578.4658,50
1602587578.4678,48
1602587578.4698,43
1602587578.4718,41
1602587578.4738,38
1602587578.4758,31
1602587578.4778,24
1602587578.4799,19
1602587578.4819,19
1602587578.4839,26
1602587578.4858,24
1602587578.4878,24
1602587578.4898,33
1602587578.4918,29
1602587578.4938,36
1602587578.4958,174
1602587578.4978,463
1602587578.4998,567
1602587578.5018,109
1602587578.5038,-453
1602587578.5058,-371
1602587578.5078,-36
1602587578.5098,-9
1602587578.5118,-14
1602587578.5138,58
1602587578.5158,43
1602587578.5178,21
1602587578.5198,50
1602587578.5218,53
1602587578.5238,41
1602587578.5258,60
1602587578.5278,80
1602587578.5298,75
1602587578.5318,60
1602587578.5338,67
1602587578.5358,80
1602587578.5378,84
1602587578.5398,84
1602587578.5418,82
1602587578.5438,94
1602587578.5458,106
1602587578.5478,101
1602587578.9756,99
1602587578.9764,113
1602587578.9788,123
1602587578.9815,126
1602587578.9835,126
1602587578.9854,128
1602587578.9874,121
1602587578.9894,118
1602587578.9914,121
1602587578.9934,128
1602587578.9954,130
1602587578.9974,126
1602587578.9994,118
1602587579.0014,126
1602587579.0034,116
1602587579.0054,87
1602587579.0074,77
1602587579.0096,80
1602587579.0115,58
1602587579.0134,31
1602587579.0154,21
1602587579.0174,14
1602587579.0194,7
1602587579.0214,7
1602587579.0234,-2
1602587579.0254,-14
1602587579.0274,-9
1602587579.0294,-4
1602587579.0314,-4
1602587579.0334,2
1602587579.0354,7
1602587579.0374,4
1602587579.0394,7
1602587579.0414,19
1602587579.0434,29
1602587579.0454,26
1602587579.0473,16
1602587579.0494,9
1602587579.0514,14
1602587579.0534,21
1602587579.0554,26
1602587579.0574,14
1602587579.0594,-2
1602587579.0614,4
1602587579.0634,16
1602587579.0654,12
1602587579.0674,2
1602587579.0694,0
1602587579.0715,-4
1602587579.0735,-9
1602587579.0756,-4
1602587579.0774,-4
1602587579.0794,-9
1602587579.0814,-7
1602587579.0834,0
1602587579.0854,7
1602587579.0874,7
1602587579.0894,4
1602587579.0914,7
1602587579.0934,7
1602587579.0954,4
1602587579.0974,7
1602587579.0994,14
1602587579.1014,16
1602587579.1034,14
1602587579.1054,12
1602587579.1074,19
1602587579.1094,26
1602587579.1115,21
1602587579.1134,9
1602587579.1154,14
1602587579.1173,26
1602587579.1194,21
1602587579.5154,9
1602587579.5162,16
1602587579.5187,31
1602587579.5213,31
1602587579.5233,31
1602587579.5253,41
1602587579.5272,63
1602587579.5292,65
1602587579.5312,43
1602587579.5333,29
1602587579.5352,31
1602587579.5372,33
1602587579.5392,31
1602587579.5412,29
1602587579.5433,19
1602587579.5452,12
1602587579.5472,14
1602587579.5492,19
1602587579.5512,26
1602587579.5533,33
1602587579.5552,26
1602587579.5572,31
1602587579.5592,147
1602587579.5611,417
1602587579.5632,606
1602587579.5652,257
1602587579.5672,-392
1602587579.5692,-468
1602587579.5712,-84
1602587579.5733,14
1602587579.5752,-38
1602587579.5772,36
1602587579.5792,70
1602587579.5812,38
1602587579.5833,43
1602587579.5852,58
1602587579.5872,60
1602587579.5892,72
1602587579.5912,70
1602587579.5932,58
1602587579.5952,58
1602587579.5972,58
1602587579.5992,60
1602587579.6012,70
1602587579.6033,75
1602587579.6052,77
1602587579.6073,75
1602587579.6092,77
1602587579.6112,92
1602587579.6133,104
1602587579.6152,109
1602587579.6172,118
1602587579.6192,121
1602587579.6212,116
1602587579.6233,123
1602587579.6252,138
1602587579.6272,145
1602587579.6292,147
1602587579.6312,145
1602587579.6333,140
1602587579.6353,133
1602587579.6372,135
1602587579.6392,133
1602587579.6412,118
1602587579.6433,109
1602587579.6452,104
1602587579.6472,84
1602587579.6492,65
1602587579.6512,55
1602587579.6533,41
1602587579.6552,21
1602587579.6572,4
1602587579.6592,4
1602587580.0862,2
1602587580.0872,-12
1602587580.0896,-14
1602587580.0922,-4
1602587580.0943,-12
1602587580.0962,-21
1602587580.0982,-24
1602587580.1002,-14
1602587580.1022,-2
1602587580.1041,-2
1602587580.1061,-12
1602587580.1081,-2
1602587580.1101,12
1602587580.1122,7
1602587580.1141,4
1602587580.1161,19
1602587580.1181,24
1602587580.1201,14
1602587580.1222,4
1602587580.1242,2
1602587580.1261,0
1602587580.1281,-7
1602587580.1301,-16
1602587580.1321,-16
1602587580.1343,-16
1602587580.1361,-16
1602587580.1381,-14
1602587580.1401,-14
1602587580.1421,-9
1602587580.1442,2
1602587580.1461,-2
1602587580.1481,-24
1602587580.1501,-24
1602587580.1521,-4
1602587580.1541,-4
1602587580.1561,-14
1602587580.1581,-14
1602587580.1601,-12
1602587580.1621,-7
1602587580.1642,0
1602587580.1661,2
1602587580.1681,2
1602587580.1701,7
1602587580.1721,4
1602587580.1741,4
1602587580.1761,7
1602587580.1781,4
1602587580.1801,2
1602587580.1821,9
1602587580.1842,14
1602587580.1861,9
1602587580.1881,9
1602587580.1901,4
1602587580.1921,4
1602587580.1941,19
1602587580.1961,36
1602587580.1981,43
1602587580.2001,46
1602587580.2021,38
1602587580.2041,26
1602587580.2061,24
1602587580.2081,33
1602587580.2101,33
1602587580.2121,21
1602587580.2141,12
1602587580.2161,12
1602587580.2181,16
1602587580.2201,21
1602587580.2222,24
1602587580.2241,26
1602587580.2261,26
1602587580.2281,26
1602587580.2302,84
1602587580.6858,305
1602587580.6867,565
1602587580.6893,417
1602587580.6918,-203
1602587580.6938,-506
1602587580.6957,-189
1602587580.6977,31
1602587580.6997,-29
1602587580.7017,0
1602587580.7037,58
1602587580.7057,29
1602587580.7077,12
1602587580.7096,38
1602587580.7117,43
1602587580.7137,43
1602587580.7156,50
1602587580.7177,53
1602587580.7196,58
1602587580.7217,63
1602587580.7237,65
1602587580.7256,72
1602587580.7276,82
1602587580.7296,80
1602587580.7316,80
1602587580.7337,80
1602587580.7357,82
1602587580.7377,87
1602587580.7396,92
1602587580.7417,99
1602587580.7436,104
1602587580.7457,106
1602587580.7477,118
1602587580.7496,126
1602587580.7516,116
1602587580.7536,116
1602587580.7557,128
1602587580.7577,140
1602587580.7596,140
1602587580.7617,133
1602587580.7637,126
1602587580.7656,123
1602587580.7676,113
1602587580.7697,94
1602587580.7717,75
1602587580.7736,60
1602587580.7756,46
1602587580.7776,31
1602587580.7797,19
1602587580.7817,12
1602587580.7836,-2
1602587580.7857,-16
1602587580.7876,-12
1602587580.7896,-9
1602587580.7918,-16
1602587580.7937,-14
1602587580.7956,-12
1602587580.7976,-14
1602587580.7996,-14
1602587580.8016,-7
1602587580.8037,2
1602587580.8057,0
1602587580.8076,2
1602587580.8096,14
1602587580.8116,9
1602587580.8137,0
1602587580.8157,7
1602587580.8177,14
1602587580.8197,12
1602587580.8217,7
1602587580.8237,4
1602587580.8257,4
1602587580.8277,14
1602587580.8297,12
1602587581.2860,-9
1602587581.2868,-14
1602587581.2893,0
1602587581.2919,-4
1602587581.2939,-14
1602587581.2959,-4
1602587581.2979,2
1602587581.2998,-2
1602587581.3018,2
1602587581.3039,4
1602587581.3057,-16
1602587581.3077,-29
1602587581.3098,-14
1602587581.3117,-7
1602587581.3138,-12
1602587581.3158,-7
1602587581.3177,4
1602587581.3198,2
1602587581.3218,-9
1602587581.3238,-19
1602587581.3258,-16
1602587581.3278,-7
1602587581.3297,-2
1602587581.3318,-2
1602587581.3338,2
1602587581.3358,2
1602587581.3378,0
1602587581.3398,7
1602587581.3417,21
1602587581.3438,24
1602587581.3459,14
1602587581.3479,7
1602587581.3497,4
1602587581.3518,7
1602587581.3538,4
1602587581.3558,7
1602587581.3578,19
1602587581.3598,33
1602587581.3618,43
1602587581.3638,46
1602587581.3658,36
1602587581.3678,33
1602587581.3698,41
1602587581.3718,38
1602587581.3738,31
1602587581.3758,21
1602587581.3777,12
1602587581.3798,7
1602587581.3818,12
1602587581.3837,19
1602587581.3858,21
1602587581.3878,19
1602587581.3898,14
1602587581.3918,24
1602587581.3938,133
1602587581.3958,392
1602587581.3979,557
1602587581.3997,213
1602587581.4017,-378
1602587581.4038,-419
1602587581.4057,-75
1602587581.4077,12
1602587581.4097,-26
1602587581.4117,38
1602587581.4138,53
1602587581.4144,19
1602587581.4157,26
1602587581.4177,46
1602587581.4197,46
1602587581.4217,46
1602587581.4238,48
1602587581.4257,53
1602587581.4277,58
1602587581.7957,58
1602587581.7964,60
1602587581.7979,72
1602587581.7998,77
1602587581.8018,82
1602587581.8039,89
1602587581.8058,89
1602587581.8066,77
1602587581.8088,80
1602587581.8110,99
1602587581.8129,109
1602587581.8148,109
1602587581.8168,104
1602587581.8188,106
1602587581.8208,116
1602587581.8228,121
1602587581.8248,106
1602587581.8268,106
1602587581.8288,121
1602587581.8308,116
1602587581.8328,109
1602587581.8349,106
1602587581.8368,99
1602587581.8375,92
1602587581.8388,75
1602587581.8408,55
1602587581.8428,46
1602587581.8448,36
1602587581.8469,16
1602587581.8488,4
1602587581.8508,-2
1602587581.8528,-2
1602587581.8548,-4
1602587581.8568,-14
1602587581.8588,-19
1602587581.8608,-14
1602587581.8628,-9
1602587581.8648,-14
1602587581.8668,-19
1602587581.8675,-9
1602587581.8698,4
1602587581.8718,0
1602587581.8738,0
1602587581.8758,7
1602587581.8778,4
1602587581.8799,7
1602587581.8818,16
1602587581.8838,12
1602587581.8858,2
1602587581.8878,4
1602587581.8898,12
1602587581.8918,16
1602587581.8938,21
1602587581.8958,9
1602587581.8965,-12
1602587581.8978,-16
1602587581.8998,-2
1602587581.9018,-4
1602587581.9038,-9
1602587581.9058,-7
1602587581.9080,-4
1602587581.9098,-12
1602587581.9118,-16
1602587581.9138,-14
1602587581.9158,-12
1602587581.9178,-4
1602587581.9198,-2
1602587581.9218,-12
1602587581.9238,-4
1602587581.9258,7
1602587581.9265,4
1602587581.9278,2
1602587581.9298,9
1602587582.3360,12
1602587582.3368,9
1602587582.3392,12
1602587582.3419,14
1602587582.3439,7
1602587582.3458,-7
1602587582.3478,-12
1602587582.3498,0
1602587582.3518,9
1602587582.3538,2
1602587582.3558,-7
1602587582.3565,2
1602587582.3588,12
1602587582.3608,7
1602587582.3628,2
1602587582.3648,-2
1602587582.3668,-4
1602587582.3687,2
1602587582.3707,16
1602587582.3728,24
1602587582.3748,36
1602587582.3768,50
1602587582.3788,43
1602587582.3807,21
1602587582.3827,19
1602587582.3847,31
1602587582.3868,36
1602587582.3874,21
1602587582.3887,7
1602587582.3908,7
1602587582.3928,2
1602587582.3948,2
1602587582.3968,14
1602587582.3988,21
1602587582.4008,14
1602587582.4027,29
1602587582.4048,145
1602587582.4068,407
1602587582.4089,591
1602587582.4108,242
1602587582.4127,-395
1602587582.4148,-460
1602587582.4168,-94
1602587582.4174,-9
1602587582.4188,-53
1602587582.4207,36
1602587582.4228,65
1602587582.4247,24
1602587582.4268,33
1602587582.4288,50
1602587582.4309,38
1602587582.4327,43
1602587582.4348,55
1602587582.4368,58
1602587582.4388,55
1602587582.4408,50
1602587582.4428,53
1602587582.4448,75
1602587582.4469,84
1602587582.4475,77
1602587582.4488,75
1602587582.4508,77
1602587582.4528,82
1602587582.4547,87
1602587582.4567,94
1602587582.4588,104
1602587582.4608,106
1602587582.4627,106
1602587582.4648,113
1602587582.4668,123
1602587582.4687,123
1602587582.4708,116
1602587582.4728,111
1602587582.8756,123
1602587582.8765,133
1602587582.8789,116
1602587582.8816,101
1602587582.8836,99
1602587582.8855,94
1602587582.8875,75
1602587582.8895,46
1602587582.8915,16
1602587582.8935,9
1602587582.8954,12
1602587582.8975,4
1602587582.8994,-7
1602587582.9015,-14
1602587582.9035,-29
1602587582.9054,-38
1602587582.9063,-36
1602587582.9085,-29
1602587582.9104,-29
1602587582.9125,-36
1602587582.9145,-29
1602587582.9164,-9
1602587582.9184,-4
1602587582.9205,-2
1602587582.9225,4
1602587582.9246,4
1602587582.9266,-2
1602587582.9285,-2
1602587582.9305,4
1602587582.9325,7
1602587582.9346,2
1602587582.9353,-4
1602587582.9369,-4
1602587582.9385,-2
1602587582.9405,0
1602587582.9425,-7
1602587582.9447,-16
1602587582.9465,-24
1602587582.9485,-19
1602587582.9504,-16
1602587582.9525,-21
1602587582.9545,-33
1602587582.9564,-36
1602587582.9584,-26
1602587582.9605,-12
1602587582.9625,-7
1602587582.9644,-9
1602587582.9652,-14
1602587582.9665,-14
1602587582.9685,-14
1602587582.9705,-9
1602587582.9725,-9
1602587582.9745,-16
1602587582.9764,-21
1602587582.9785,-9
1602587582.9805,0
1602587582.9824,-12
1602587582.9845,-12
1602587582.9864,2
1602587582.9885,2
1602587582.9904,-9
1602587582.9927,-4
1602587582.9944,-2
1602587582.9964,-9
1602587582.9985,-4
1602587583.0004,7
1602587583.0024,2
1602587583.0046,2
1602587583.0064,2
1602587583.0085,4
1602587583.0104,9
1602587583.0124,9
1602587583.0144,14
1602587583.4458,33
1602587583.4469,46
1602587583.4494,36
1602587583.4520,12
1602587583.4541,2
1602587583.4560,9
1602587583.4581,14
1602587583.4600,14
1602587583.4620,4
1602587583.4641,-7
1602587583.4660,-12
1602587583.4680,-12
1602587583.4700,-9
1602587583.4720,0
1602587583.4740,2
1602587583.4759,9
1602587583.4779,89
1602587583.4799,310
1602587583.4820,535
1602587583.4840,354
1602587583.4859,-259
1602587583.4879,-506
1602587583.4899,-174
1602587583.4919,4
1602587583.4940,-53
1602587583.4959,4
1602587583.4979,58
1602587583.4999,21
1602587583.5019,12
1602587583.5040,31
1602587583.5059,29
1602587583.5079,33
1602587583.5099,46
1602587583.5119,38
1602587583.5139,29
1602587583.5160,38
1602587583.5179,46
1602587583.5199,46
1602587583.5219,55
1602587583.5240,60
1602587583.5259,60
1602587583.5279,70
1602587583.5299,75
1602587583.5319,72
1602587583.5340,77
1602587583.5363,84
1602587583.5379,92
1602587583.5399,104
1602587583.5419,116
1602587583.5440,116
1602587583.5459,113
1602587583.5479,118
1602587583.5499,123
1602587583.5519,118
1602587583.5539,113
1602587583.5559,111
1602587583.5579,109
1602587583.5599,94
1602587583.5619,89
1602587583.5639,84
1602587583.5659,65
1602587583.5679,43
1602587583.5699,24
1602587583.5719,9
1602587583.5740,2
1602587583.5759,-9
1602587583.5779,-26
1602587583.5799,-31
1602587583.5819,-26
1602587583.5839,-33
1602587583.5859,-48
1602587583.5879,-38
1602587583.5899,-24
1602587584.1058,-26
1602587584.1069,-33
1602587584.1094,-24
1602587584.1120,-16
1602587584.1140,-19
1602587584.1160,-19
1602587584.1180,-16
1602587584.1200,-9
1602587584.1220,-14
1602587584.1240,-24
1602587584.1260,-16
1602587584.1280,-9
1602587584.1300,-21
1602587584.1320,-26
1602587584.1341,-21
1602587584.1360,-24
1602587584.1380,-26
1602587584.1400,-26
1602587584.1420,-16
1602587584.1440,-12
1602587584.1460,-24
1602587584.1479,-33
1602587584.1499,-24
1602587584.1521,-14
1602587584.1540,-19
1602587584.1559,-26
1602587584.1579,-29
1602587584.1599,-21
1602587584.1619,-14
1602587584.1640,-7
1602587584.1659,-7
1602587584.1679,-14
1602587584.1699,-9
1602587584.1719,-2
1602587584.1739,0
1602587584.1759,0
1602587584.1779,-9
1602587584.1799,-16
1602587584.1819,-4
1602587584.1839,7
1602587584.1859,0
1602587584.1880,-2
1602587584.1899,7
1602587584.1919,12
1602587584.1939,7
1602587584.1959,7
1602587584.1979,21
1602587584.1999,29
1602587584.2019,24
1602587584.2039,9
1602587584.2059,2
1602587584.2079,14
1602587584.2099,19
1602587584.2119,16
1602587584.2140,31
1602587584.2159,41
1602587584.2179,19
1602587584.2199,7
1602587584.2219,31
1602587584.2240,46
1602587584.2259,31
1602587584.2279,16
1602587584.2299,7
1602587584.2319,2
1602587584.2340,9
1602587584.2359,16
1602587584.2379,19
1602587584.2399,16
1602587584.2419,4
1602587584.2440,29
1602587584.2459,181
1602587584.2479,451
1602587584.2499,526
1602587584.5858,70
1602587584.5866,-451
1602587584.5878,-344
1602587584.5897,-26
1602587584.5917,-4
1602587584.5938,-14
1602587584.5957,43
1602587584.5977,36
1602587584.5997,19
1602587584.6017,38
1602587584.6037,46
1602587584.6057,36
1602587584.6077,43
1602587584.6097,53
1602587584.6117,50
1602587584.6139,46
1602587584.6157,55
1602587584.6177,63
1602587584.6197,58
1602587584.6218,53
1602587584.6238,53
1602587584.6257,55
1602587584.6277,63
1602587584.6297,75
1602587584.6317,80
1602587584.6337,80
1602587584.6357,84
1602587584.6378,89
1602587584.6397,101
1602587584.6417,106
1602587584.6437,113
1602587584.6457,118
1602587584.6477,116
1602587584.6497,116
1602587584.6517,123
1602587584.6537,118
1602587584.6557,109
1602587584.6577,109
1602587584.6597,104
1602587584.6617,92
1602587584.6637,75
1602587584.6657,53
1602587584.6677,33
1602587584.6697,21
1602587584.6718,4
1602587584.6737,-12
1602587584.6757,-21
1602587584.6777,-29
1602587584.6797,-31
1602587584.6817,-31
1602587584.6837,-33
1602587584.6857,-29
1602587584.6878,-24
1602587584.6897,-26
1602587584.6917,-26
1602587584.6937,-14
1602587584.6957,-14
1602587584.6977,-14
1602587584.6997,-2
1602587584.7017,-2
1602587584.7037,-7
1602587584.7057,-2
1602587584.7077,0
1602587584.7097,-2
1602587584.7117,-4
1602587584.7137,-9
1602587584.7157,-9
1602587584.7177,-7
1602587584.7197,-9
1602587584.7217,-9
1602587584.7237,-7
1602587584.7257,-9
1602587584.7277,-12
1602587585.1560,-14
1602587585.1568,-16
1602587585.1593,-14
1602587585.1619,-14
1602587585.1640,-14
1602587585.1659,-12
1602587585.1679,-9
1602587585.1699,-4
1602587585.1719,-7
1602587585.1739,-14
1602587585.1758,-16
1602587585.1778,-12
1602587585.1798,-14
1602587585.1818,-16
1602587585.1839,-12
1602587585.1858,-9
1602587585.1879,-12
1602587585.1898,0
1602587585.1918,7
1602587585.1938,0
1602587585.1958,-2
1602587585.1978,7
1602587585.1998,21
1602587585.2018,19
1602587585.2038,7
1602587585.2059,4
1602587585.2080,9
1602587585.2099,16
1602587585.2119,24
1602587585.2139,24
1602587585.2161,12
1602587585.2179,7
1602587585.2199,21
1602587585.2219,38
1602587585.2239,48
1602587585.2259,43
1602587585.2279,26
1602587585.2299,21
1602587585.2319,33
1602587585.2339,29
1602587585.2359,16
1602587585.2379,14
1602587585.2398,7
1602587585.2418,4
1602587585.2439,12
1602587585.2458,16
1602587585.2478,16
1602587585.2498,19
1602587585.2518,16
1602587585.2539,46
1602587585.2558,210
1602587585.2578,504
1602587585.2598,552
1602587585.2618,19
1602587585.2639,-516
1602587585.2658,-354
1602587585.2678,-26
1602587585.2698,-26
1602587585.2719,-24
1602587585.2738,53
1602587585.2758,38
1602587585.2778,24
1602587585.2798,50
1602587585.2818,50
1602587585.2838,48
1602587585.2858,63
1602587585.2879,60
1602587585.2898,48
1602587585.2918,48
1602587585.2938,58
1602587585.2958,67
1602587585.2978,72
1602587585.2998,70
1602587585.6954,70
1602587585.6961,77
1602587585.6985,82
1602587585.7011,82
1602587585.7032,84
1602587585.7052,101
1602587585.7072,109
1602587585.7091,99
1602587585.7114,97
1602587585.7132,101
1602587585.7151,116
1602587585.7171,126
1602587585.7191,123
1602587585.7211,118
1602587585.7231,111
1602587585.7251,101
1602587585.7271,97
1602587585.7291,101
1602587585.7311,97
1602587585.7332,92
1602587585.7351,75
1602587585.7371,48
1602587585.7391,36
1602587585.7411,31
1602587585.7431,12
1602587585.7451,-7
1602587585.7471,-16
1602587585.7491,-31
1602587585.7511,-41
1602587585.7532,-46
1602587585.7551,-43
1602587585.7571,-36
1602587585.7591,-33
1602587585.7611,-36
1602587585.7632,-24
1602587585.7651,-9
1602587585.7672,-9
1602587585.7691,-7
1602587585.7711,-4
1602587585.7731,-7
1602587585.7751,-4
1602587585.7771,2
1602587585.7791,4
1602587585.7811,7
1602587585.7832,4
1602587585.7851,-4
1602587585.7871,-9
1602587585.7891,-7
1602587585.7911,-12
1602587585.7931,-14
1602587585.7951,-16
1602587585.7971,-21
1602587585.7991,-16
1602587585.8011,-12
1602587585.8031,-7
1602587585.8051,-16
1602587585.8072,-26
1602587585.8091,-16
1602587585.8111,-9
1602587585.8132,-19
1602587585.8151,-21
1602587585.8171,-16
1602587585.8191,-14
1602587585.8211,-16
1602587585.8231,-14
1602587585.8251,-2
1602587585.8271,2
1602587585.8291,-4
1602587585.8311,-9
1602587585.8332,-2
1602587585.8351,0
1602587585.8371,-4
1602587585.8391,-2
1602587586.3257,0
1602587586.3265,-2
1602587586.3290,0
1602587586.3316,4
1602587586.3336,7
1602587586.3355,2
1602587586.3376,0
1602587586.3395,-2
1602587586.3415,0
1602587586.3436,7
1602587586.3455,21
1602587586.3475,36
1602587586.3495,24
1602587586.3515,0
1602587586.3535,7
1602587586.3555,26
1602587586.3575,16
1602587586.3595,2
1602587586.3615,-2
1602587586.3636,-14
1602587586.3655,-19
1602587586.3675,-9
1602587586.3695,2
1602587586.3715,-2
1602587586.3735,-14
1602587586.3755,-2
1602587586.3775,104
1602587586.3795,361
1602587586.3815,582
1602587586.3890,298
1602587586.3906,-363
1602587586.3925,-518
1602587586.3945,-135
1602587586.3965,7
1602587586.3985,-53
1602587586.4005,7
1602587586.4025,36
1602587586.4046,0
1602587586.4066,19
1602587586.4085,41
1602587586.4105,24
1602587586.4125,29
1602587586.4145,48
1602587586.4165,48
1602587586.4185,43
1602587586.4204,43
1602587586.4225,46
1602587586.4245,50
1602587586.4265,58
1602587586.4286,58
1602587586.4305,50
1602587586.4325,55
1602587586.4345,67
1602587586.4365,67
1602587586.4386,72
1602587586.4405,92
1602587586.4425,99
1602587586.4446,89
1602587586.4465,94
1602587586.4486,106
1602587586.4505,116
1602587586.4525,121
1602587586.4545,121
1602587586.4565,116
1602587586.4585,113
1602587586.4605,111
1602587586.4625,104
1602587586.4646,94
1602587586.4665,89
1602587586.4685,80
1602587586.4705,60
1602587586.4725,46
1602587586.4745,33
1602587586.8057,16
1602587586.8063,7
1602587586.8088,-4
1602587586.8114,-19
1602587586.8134,-31
1602587586.8153,-33
1602587586.8174,-29
1602587586.8194,-31
1602587586.8213,-36
1602587586.8234,-36
1602587586.8253,-33
1602587586.8273,-29
1602587586.8293,-21
1602587586.8314,-12
1602587586.8334,-9
1602587586.8355,-21
1602587586.8373,-41
1602587586.8393,-31
1602587586.8413,-9
1602587586.8434,-16
1602587586.8453,-29
1602587586.8473,-24
1602587586.8493,-16
1602587586.8513,-21
1602587586.8533,-26
1602587586.8553,-21
1602587586.8573,-24
1602587586.8593,-36
1602587586.8613,-41
1602587586.8634,-33
1602587586.8653,-33
1602587586.8673,-38
1602587586.8693,-33
1602587586.8713,-29
1602587586.8734,-33
1602587586.8753,-33
1602587586.8773,-24
1602587586.8793,-12
1602587586.8813,-16
1602587586.8834,-31
1602587586.8853,-33
1602587586.8874,-31
1602587586.8893,-29
1602587586.8913,-24
1602587586.8934,-19
1602587586.8953,-12
1602587586.8973,-9
1602587586.8993,-12
1602587586.9013,-4
1602587586.9034,-7
1602587586.9053,-19
1602587586.9073,-16
1602587586.9093,-9
1602587586.9113,-9
1602587586.9134,-7
1602587586.9153,0
1602587586.9173,4
1602587586.9193,4
1602587586.9213,9
1602587586.9234,12
1602587586.9253,24
1602587586.9273,38
1602587586.9293,31
1602587586.9313,14
1602587586.9334,14
1602587586.9353,19
1602587586.9374,21
1602587586.9393,21
1602587586.9413,9
1602587586.9434,0
1602587586.9453,4
1602587586.9473,7
1602587586.9493,0
1602587587.4053,2
1602587587.4059,7
1602587587.4083,-2
1602587587.4109,14
1602587587.4129,160
1602587587.4149,429
1602587587.4169,477
1602587587.4189,-12
1602587587.4209,-514
1602587587.4229,-361
1602587587.4249,-41
1602587587.4270,-46
1602587587.4289,-60
1602587587.4309,16
1602587587.4329,9
1602587587.4349,-14
1602587587.4369,9
1602587587.4389,16
1602587587.4409,7
1602587587.4429,14
1602587587.4449,26
1602587587.4469,29
1602587587.4489,36
1602587587.4509,43
1602587587.4530,31
1602587587.4549,26
1602587587.4569,38
1602587587.4589,50
1602587587.4609,48
1602587587.4630,53
1602587587.4650,60
1602587587.4669,63
1602587587.4689,67
1602587587.4709,82
1602587587.4730,92
1602587587.4749,97
1602587587.4769,89
1602587587.4789,89
1602587587.4809,106
1602587587.4829,109
1602587587.4849,101
1602587587.4869,106
1602587587.4889,109
1602587587.4909,106
1602587587.4931,101
1602587587.4949,101
1602587587.4969,89
1602587587.4989,67
1602587587.5009,50
1602587587.5030,33
1602587587.5049,21
1602587587.5069,9
1602587587.5089,-4
1602587587.5109,-12
1602587587.5129,-19
1602587587.5149,-26
1602587587.5169,-31
1602587587.5189,-31
1602587587.5209,-24
1602587587.5230,-21
1602587587.5249,-26
1602587587.5269,-31
1602587587.5289,-21
1602587587.5309,-14
1602587587.5330,-14
1602587587.5349,-14
1602587587.5369,-21
1602587587.5389,-21
1602587587.5409,-16
1602587587.5430,-9
1602587587.5449,-12
1602587587.5469,-19
1602587587.5489,-14
1602587587.9755,-12
1602587587.9763,-16
1602587587.9781,-19
1602587587.9801,-16
1602587587.9821,-19
1602587587.9842,-31
1602587587.9861,-33
1602587587.9881,-24
1602587587.9901,-24
1602587587.9921,-31
1602587587.9941,-33
1602587587.9960,-38
1602587587.9980,-38
1602587588.0000,-36
1602587588.0020,-29
1602587588.0040,-21
1602587588.0060,-19
1602587588.0080,-29
1602587588.0100,-33
1602587588.0120,-29
1602587588.0141,-19
1602587588.0160,-16
1602587588.0181,-16
1602587588.0200,-14
1602587588.0220,-7
1602587588.0240,-7
1602587588.0260,-12
1602587588.0280,-7
1602587588.0300,4
1602587588.0320,-2
1602587588.0341,-9
1602587588.0360,-2
1602587588.0380,0
1602587588.0400,-7
1602587588.0420,-7
1602587588.0441,4
1602587588.0461,12
1602587588.0480,16
1602587588.0500,26
1602587588.0520,41
1602587588.0541,33
1602587588.0560,16
1602587588.0580,19
1602587588.0587,31
1602587588.0600,19
1602587588.0620,4
1602587588.0640,2
1602587588.0660,2
1602587588.0680,2
1602587588.0700,7
1602587588.0720,14
1602587588.0740,12
1602587588.0760,7
1602587588.0780,14
1602587588.0800,94
1602587588.0820,322
1602587588.0840,533
1602587588.0860,293
1602587588.0880,-312
1602587588.0887,-477
1602587588.0900,-135
1602587588.0920,9
1602587588.0940,-46
1602587588.0960,2
1602587588.0980,36
1602587588.1000,4
1602587588.1020,12
1602587588.1041,31
1602587588.1060,29
1602587588.1080,33
1602587588.1100,46
1602587588.1120,48
1602587588.1140,46
1602587588.5156,41
1602587588.5161,46
1602587588.5171,55
1602587588.5253,63
1602587588.5271,63
1602587588.5290,70
1602587588.5310,75
1602587588.5331,75
1602587588.5350,75
1602587588.5370,80
1602587588.5377,84
1602587588.5390,84
1602587588.5410,87
1602587588.5431,89
1602587588.5450,92
1602587588.5471,104
1602587588.5491,113
1602587588.5510,106
1602587588.5531,99
1602587588.5550,104
1602587588.5570,106
1602587588.5590,99
1602587588.5610,87
1602587588.5631,80
1602587588.5651,77
1602587588.5670,67
1602587588.5677,48
1602587588.5690,29
1602587588.5710,14
1602587588.5731,4
1602587588.5750,-4
1602587588.5770,-16
1602587588.5790,-21
1602587588.5810,-19
1602587588.5831,-19
1602587588.5850,-24
1602587588.5870,-24
1602587588.5891,-16
1602587588.5910,-12
1602587588.5931,-7
1602587588.5950,-4
1602587588.5971,-2
1602587588.5978,4
1602587588.5990,7
1602587588.6073,-2
1602587588.6091,-2
1602587588.6110,2
1602587588.6193,-4
1602587588.6211,-4
1602587588.6231,7
1602587588.6313,4
1602587588.6333,-9
1602587588.6351,-9
1602587588.6370,-2
1602587588.6390,-4
1602587588.6410,-16
1602587588.6431,-19
1602587588.6450,-12
1602587588.6457,-19
1602587588.6470,-26
1602587588.6490,-16
1602587588.6510,-14
1602587588.6531,-19
1602587588.6551,-14
1602587588.6570,-9
1602587588.6590,-9
1602587588.6610,-7
1602587588.6631,-4
1602587588.6650,-7
1602587588.6671,-12
1602587588.6690,-7
1602587588.6710,-4
1602587588.6731,-9
1602587589.0557,-9
1602587589.0563,-7
1602587589.0587,-2
1602587589.0614,0
1602587589.0634,4
1602587589.0654,4
1602587589.0674,0
1602587589.0693,-9
1602587589.0714,-12
1602587589.0734,-9
1602587589.0753,-7
1602587589.0773,-2
1602587589.0793,14
1602587589.0813,31
1602587589.0833,31
1602587589.0853,19
1602587589.0860,12
1602587589.0883,14
1602587589.0903,14
1602587589.0923,7
1602587589.0943,-2
1602587589.0963,-7
1602587589.0983,-4
1602587589.1003,-7
1602587589.1023,-2
1602587589.1044,12
1602587589.1063,21
1602587589.1083,14
1602587589.1103,7
1602587589.1125,87
1602587589.1143,327
1602587589.1150,569
1602587589.1163,375
1602587589.1183,-257
1602587589.1203,-523
1602587589.1224,-206
1602587589.1243,-19
1602587589.1263,-58
1602587589.1283,7
1602587589.1303,58
1602587589.1323,26
1602587589.1344,29
1602587589.1363,48
1602587589.1383,33
1602587589.1403,33
1602587589.1423,50
1602587589.1443,46
1602587589.1450,36
1602587589.1463,43
1602587589.1483,58
1602587589.1503,60
1602587589.1523,55
1602587589.1543,60
1602587589.1563,70
1602587589.1583,72
1602587589.1603,77
1602587589.1623,84
1602587589.1643,84
1602587589.1663,87
1602587589.1683,92
1602587589.1703,99
1602587589.1723,111
1602587589.1743,121
1602587589.1750,126
1602587589.1763,130
1602587589.1783,133
1602587589.1803,126
1602587589.1823,118
1602587589.1843,113
1602587589.1863,104
1602587589.1883,92
1602587589.1903,77
1602587589.1923,67
1602587589.6257,67
1602587589.6263,58
1602587589.6287,41
1602587589.6313,31
1602587589.6334,14
1602587589.6353,-7
1602587589.6373,-21
1602587589.6395,-29
1602587589.6414,-29
1602587589.6433,-29
1602587589.6453,-36
1602587589.6473,-31
1602587589.6493,-14
1602587589.6513,-2
1602587589.6533,0
1602587589.6554,2
1602587589.6573,0
1602587589.6580,2
1602587589.6603,16
1602587589.6624,24
1602587589.6643,19
1602587589.6663,16
1602587589.6683,21
1602587589.6703,21
1602587589.6723,19
1602587589.6726,26
1602587589.6736,24
1602587589.6753,7
1602587589.6772,-7
1602587589.6793,-7
1602587589.6814,4
1602587589.6833,9
1602587589.6853,2
1602587589.6859,-2
1602587589.6873,2
1602587589.6893,2
1602587589.6912,-2
1602587589.6933,-4
1602587589.6953,-7
1602587589.6973,-9
1602587589.6993,-16
1602587589.7012,-29
1602587589.7033,-21
1602587589.7053,-7
1602587589.7073,-9
1602587589.7093,-14
1602587589.7112,-7
1602587589.7133,-4
1602587589.7153,-12
1602587589.7159,-14
1602587589.7172,-12
1602587589.7192,-9
1602587589.7213,-12
1602587589.7233,-9
1602587589.7253,-2
1602587589.7272,-4
1602587589.7293,-7
1602587589.7312,2
1602587589.7335,2
1602587589.7353,-7
1602587589.7373,7
1602587589.7392,31
1602587589.7413,19
1602587589.7433,-2
1602587589.7453,12
1602587589.7459,31
1602587589.7472,16
1602587589.7493,-7
1602587589.7513,-16
1602587589.7533,-14
1602587589.7553,-4
1602587589.7573,-2
1602587589.7593,-4
1602587590.1659,-4
1602587590.1667,0
1602587590.1691,2
1602587590.1718,58
1602587590.1738,259
1602587590.1757,506
1602587590.1777,373
1602587590.1783,-220
1602587590.1797,-516
1602587590.1817,-208
1602587590.1838,-4
1602587590.1857,-60
1602587590.1877,-16
1602587590.1897,41
1602587590.1917,0
1602587590.1937,-7
1602587590.1957,26
1602587590.1977,29
1602587590.1997,14
1602587590.2017,24
1602587590.2037,36
1602587590.2057,33
1602587590.2077,29
1602587590.2083,33
1602587590.2097,41
1602587590.2117,41
1602587590.2137,41
1602587590.2157,48
1602587590.2176,60
1602587590.2196,67
1602587590.2216,75
1602587590.2238,77
1602587590.2257,70
1602587590.2277,72
1602587590.2296,80
1602587590.2316,84
1602587590.2338,92
1602587590.2357,97
1602587590.2376,101
1602587590.2382,104
1602587590.2397,106
1602587590.2417,111
1602587590.2437,113
1602587590.2457,109
1602587590.2477,97
1602587590.2497,80
1602587590.2516,63
1602587590.2537,55
1602587590.2557,53
1602587590.2577,29
1602587590.2596,-2
1602587590.2616,-16
1602587590.2637,-16
1602587590.2657,-19
1602587590.2677,-29
1602587590.2682,-36
1602587590.2696,-31
1602587590.2716,-31
1602587590.2737,-36
1602587590.2757,-29
1602587590.2776,-19
1602587590.2797,-21
1602587590.2816,-21
1602587590.2837,-19
1602587590.2857,-12
1602587590.2876,0
1602587590.2897,2
1602587590.2917,-2
1602587590.2937,-2
1602587590.2957,-4
1602587590.2977,-2
1602587590.2982,4
1602587590.2997,0
1602587590.7659,-12
1602587590.7667,-14
1602587590.7691,-7
1602587590.7717,-9
1602587590.7738,-19
1602587590.7757,-24
1602587590.7778,-26
1602587590.7797,-29
1602587590.7817,-24
1602587590.7838,-26
1602587590.7857,-38
1602587590.7863,-33
1602587590.7877,-16
1602587590.7897,-16
1602587590.7919,-24
1602587590.7937,-33
1602587590.7956,-41
1602587590.7977,-38
1602587590.7996,-33
1602587590.8017,-33
1602587590.8037,-29
1602587590.8056,-24
1602587590.8076,-21
1602587590.8097,-14
1602587590.8116,-9
1602587590.8137,-24
1602587590.8157,-41
1602587590.8162,-31
1602587590.8177,-14
1602587590.8196,-16
1602587590.8217,-21
1602587590.8237,-21
1602587590.8256,-16
1602587590.8276,-7
1602587590.8296,2
1602587590.8316,9
1602587590.8337,21
1602587590.8356,24
1602587590.8378,4
1602587590.8396,0
1602587590.8416,16
1602587590.8436,12
1602587590.8456,-2
1602587590.8463,-4
1602587590.8477,-9
1602587590.8496,-16
1602587590.8516,-16
1602587590.8537,-9
1602587590.8556,2
1602587590.8577,7
1602587590.8596,-2
1602587590.8617,14
1602587590.8637,140
1602587590.8656,392
1602587590.8676,516
1602587590.8696,143
1602587590.8716,-412
1602587590.8737,-402
1602587590.8757,-65
1602587590.8763,-7
1602587590.8776,-38
1602587590.8796,31
1602587590.8816,43
1602587590.8837,9
1602587590.8856,24
1602587590.8878,43
1602587590.8896,43
1602587590.8916,48
1602587590.8937,50
1602587590.8956,46
1602587590.8976,41
1602587590.8996,41
1602587590.9016,55
1602587591.3357,63
1602587591.3363,53
1602587591.3388,53
1602587591.3413,63
1602587591.3434,65
1602587591.3453,72
1602587591.3474,87
1602587591.3493,97
1602587591.3513,92
1602587591.3534,89
1602587591.3553,92
1602587591.3573,97
1602587591.3593,99
1602587591.3614,106
1602587591.3634,116
1602587591.3639,113
1602587591.3653,111
1602587591.3673,113
1602587591.3693,109
1602587591.3713,94
1602587591.3733,87
1602587591.3753,80
1602587591.3772,70
1602587591.3793,60
1602587591.3813,41
1602587591.3833,14
1602587591.3853,2
1602587591.3873,-4
1602587591.3893,-16
1602587591.3913,-21
1602587591.3933,-21
1602587591.3939,-29
1602587591.3953,-31
1602587591.3973,-24
1602587591.3993,-21
1602587591.4013,-21
1602587591.4033,-16
1602587591.4053,-16
1602587591.4073,-12
1602587591.4092,-2
1602587591.4112,-2
1602587591.4132,-7
1602587591.4153,4
1602587591.4174,9
1602587591.4193,7
1602587591.4213,16
1602587591.4233,24
1602587591.4238,7
1602587591.4253,-4
1602587591.4273,-2
1602587591.4293,0
1602587591.4313,2
1602587591.4333,2
1602587591.4353,-2
1602587591.4372,0
1602587591.4393,4
1602587591.4413,-4
1602587591.4433,-7
1602587591.4453,4
1602587591.4473,9
1602587591.4493,4
1602587591.4513,0
1602587591.4533,0
1602587591.4538,4
1602587591.4553,2
1602587591.4573,0
1602587591.4592,-2
1602587591.4613,-4
1602587591.4633,-7
1602587591.4653,-9
1602587591.4673,-9
1602587591.4693,-9
1602587591.4713,-7
1602587591.8758,-2
1602587591.8764,0
1602587591.8788,-2
1602587591.8814,2
1602587591.8821,7
1602587591.8835,9
1602587591.8855,9
1602587591.8875,9
1602587591.8895,16
1602587591.8915,16
1602587591.8935,0
1602587591.8954,-14
1602587591.8975,0
1602587591.8995,26
1602587591.9014,29
1602587591.9035,9
1602587591.9055,4
1602587591.9074,19
1602587591.9094,16
1602587591.9115,9
1602587591.9120,7
1602587591.9137,-2
1602587591.9155,-9
1602587591.9174,-4
1602587591.9194,4
1602587591.9214,2
1602587591.9235,-7
1602587591.9254,-7
1602587591.9274,14
1602587591.9294,123
1602587591.9314,385
1602587591.9335,569
1602587591.9354,227
1602587591.9374,-397
1602587591.9394,-463
1602587591.9414,-101
1602587591.9420,-2
1602587591.9435,-41
1602587591.9454,26
1602587591.9474,43
1602587591.9494,19
1602587591.9514,41
1602587591.9535,43
1602587591.9554,24
1602587591.9574,41
1602587591.9595,63
1602587591.9614,53
1602587591.9635,46
1602587591.9654,58
1602587591.9674,67
1602587591.9694,72
1602587591.9714,77
1602587591.9720,80
1602587591.9735,80
1602587591.9754,80
1602587591.9774,82
1602587591.9794,84
1602587591.9814,87
1602587591.9835,97
1602587591.9854,109
1602587591.9874,104
1602587591.9894,94
1602587591.9914,97
1602587591.9935,116
1602587591.9954,133
1602587591.9974,128
1602587591.9994,121
1602587592.0014,126
1602587592.0020,123
1602587592.0034,111
1602587592.0055,106
1602587592.0074,101
1602587592.0096,87
1602587592.4455,67
1602587592.4462,48
1602587592.4486,36
1602587592.4513,26
1602587592.4534,0
1602587592.4553,-24
1602587592.4573,-29
1602587592.4593,-33
1602587592.4599,-48
1602587592.4613,-41
1602587592.4633,-24
1602587592.4653,-31
1602587592.4672,-41
1602587592.4693,-19
1602587592.4712,2
1602587592.4733,0
1602587592.4753,-7
1602587592.4772,2
1602587592.4793,2
1602587592.4813,-12
1602587592.4833,-2
1602587592.4848,21
1602587592.4863,21
1602587592.4883,9
1602587592.4901,-2
1602587592.4913,-2
1602587592.4933,2
1602587592.4952,4
1602587592.4972,0
1602587592.4992,-2
1602587592.5012,-7
1602587592.5032,-2
1602587592.5052,4
1602587592.5072,0
1602587592.5092,-12
1602587592.5098,-14
1602587592.5112,-9
1602587592.5132,-7
1602587592.5152,-7
1602587592.5172,-2
1602587592.5192,2
1602587592.5212,2
1602587592.5233,-2
1602587592.5252,-2
1602587592.5272,0
1602587592.5292,-4
1602587592.5312,-4
1602587592.5332,-7
1602587592.5353,-9
1602587592.5372,-4
1602587592.5394,-2
1602587592.5399,-4
1602587592.5412,-2
1602587592.5433,0
1602587592.5453,-2
1602587592.5472,-2
1602587592.5492,7
1602587592.5512,7
1602587592.5533,-2
1602587592.5552,4
1602587592.5572,26
1602587592.5592,41
1602587592.5612,29
1602587592.5633,7
1602587592.5652,16
1602587592.5672,31
1602587592.5692,21
1602587592.5698,7
1602587592.5712,9
1602587592.5732,7
1602587592.5752,-2
1602587592.5772,-4
1602587592.5792,7
1602587592.9859,14
1602587592.9866,7
1602587592.9891,9
1602587592.9917,126
1602587592.9937,417
1602587592.9957,606
1602587592.9977,215
1602587592.9997,-455
1602587593.0017,-497
1602587593.0024,-113
1602587593.0037,-36
1602587593.0057,-75
1602587593.0077,9
1602587593.0097,29
1602587593.0117,-4
1602587593.0137,19
1602587593.0156,36
1602587593.0176,19
1602587593.0196,19
1602587593.0217,33
1602587593.0237,38
1602587593.0257,38
1602587593.0277,36
1602587593.0296,33
1602587593.0317,31
1602587593.0322,43
1602587593.0337,63
1602587593.0356,67
1602587593.0378,65
1602587593.0397,77
1602587593.0416,80
1602587593.0437,72
1602587593.0457,80
1602587593.0477,99
1602587593.0496,101
1602587593.0516,89
1602587593.0537,89
1602587593.0556,101
1602587593.0576,116
1602587593.0596,121
1602587593.0616,113
1602587593.0622,106
1602587593.0637,101
1602587593.0656,97
1602587593.0676,94
1602587593.0696,87
1602587593.0716,67
1602587593.0737,43
1602587593.0756,26
1602587593.0776,14
1602587593.0796,0
1602587593.0816,-7
1602587593.0837,-14
1602587593.0856,-21
1602587593.0876,-26
1602587593.0896,-24
1602587593.0916,-29
1602587593.0922,-36
1602587593.0937,-36
1602587593.0956,-31
1602587593.0976,-31
1602587593.0996,-24
1602587593.1016,-7
1602587593.1037,4
1602587593.1056,-2
1602587593.1076,-14
1602587593.1096,-14
1602587593.1116,-2
1602587593.1137,7
1602587593.1156,9
1602587593.1176,4
1602587593.1196,0
1602587593.1216,2
1602587593.5560,2
1602587593.5570,-9
1602587593.5594,-9
1602587593.5620,-7
1602587593.5640,-12
1602587593.5660,-26
1602587593.5683,-31
1602587593.5701,-19
1602587593.5720,-16
1602587593.5740,-29
1602587593.5760,-29
1602587593.5781,-14
1602587593.5800,-16
1602587593.5806,-24
1602587593.5820,-12
1602587593.5840,-12
1602587593.5860,-26
1602587593.5880,-26
1602587593.5901,-21
1602587593.5921,-16
1602587593.5940,-7
1602587593.5960,-12
1602587593.5980,-21
1602587593.6000,-16
1602587593.6019,-9
1602587593.6040,-12
1602587593.6060,-12
1602587593.6081,-14
1602587593.6100,-16
1602587593.6106,-12
1602587593.6120,-7
1602587593.6140,-9
1602587593.6160,-7
1602587593.6180,-2
1602587593.6200,-2
1602587593.6220,7
1602587593.6240,26
1602587593.6260,26
1602587593.6280,4
1602587593.6300,0
1602587593.6320,9
1602587593.6340,4
1602587593.6360,-7
1602587593.6379,-2
1602587593.6400,4
1602587593.6405,-7
1602587593.6420,-9
1602587593.6440,0
1602587593.6459,2
1602587593.6479,2
1602587593.6499,-4
1602587593.6520,19
1602587593.6540,164
1602587593.6559,434
1602587593.6579,538
1602587593.6599,92
1602587593.6619,-480
1602587593.6641,-397
1602587593.6660,-46
1602587593.6679,-19
1602587593.6699,-48
1602587593.6705,19
1602587593.6719,19
1602587593.6740,-4
1602587593.6759,12
1602587593.6779,19
1602587593.6799,16
1602587593.6819,24
1602587593.6840,31
1602587593.6859,36
1602587593.6879,46
1602587593.6899,50
1602587593.6919,46
1602587594.1558,33
1602587594.1566,36
1602587594.1590,50
1602587594.1601,53
1602587594.1616,55
1602587594.1637,67
1602587594.1657,65
1602587594.1678,55
1602587594.1696,72
1602587594.1716,87
1602587594.1737,84
1602587594.1756,87
1602587594.1776,99
1602587594.1796,99
1602587594.1816,99
1602587594.1836,104
1602587594.1856,101
1602587594.1876,101
1602587594.1896,101
1602587594.1902,94
1602587594.1917,84
1602587594.1936,72
1602587594.1956,58
1602587594.1976,41
1602587594.1996,29
1602587594.2016,16
1602587594.2036,-4
1602587594.2056,-24
1602587594.2076,-31
1602587594.2096,-33
1602587594.2116,-31
1602587594.2137,-36
1602587594.2156,-41
1602587594.2176,-38
1602587594.2196,-29
1602587594.2203,-31
1602587594.2216,-38
1602587594.2235,-24
1602587594.2256,-12
1602587594.2275,-14
1602587594.2296,-12
1602587594.2315,-7
1602587594.2336,-7
1602587594.2356,-4
1602587594.2376,0
1602587594.2396,0
1602587594.2415,-2
1602587594.2436,-7
1602587594.2456,-9
1602587594.2476,-12
1602587594.2496,-14
1602587594.2502,-16
1602587594.2516,-24
1602587594.2536,-33
1602587594.2556,-31
1602587594.2576,-21
1602587594.2596,-26
1602587594.2616,-31
1602587594.2637,-24
1602587594.2656,-14
1602587594.2675,-14
1602587594.2696,-14
1602587594.2716,-9
1602587594.2736,-16
1602587594.2756,-26
1602587594.2776,-29
1602587594.2795,-24
1602587594.2802,-16
1602587594.2816,-14
1602587594.2836,-21
1602587594.2855,-21
1602587594.2876,-12
1602587594.2895,-9
1602587594.7260,-9
1602587594.7268,-2
1602587594.7292,-7
1602587594.7319,-16
1602587594.7340,-12
1602587594.7359,-7
1602587594.7380,-4
1602587594.7399,0
1602587594.7405,-7
1602587594.7419,-9
1602587594.7439,4
1602587594.7458,4
1602587594.7478,-14
1602587594.7501,-14
1602587594.7519,0
1602587594.7538,4
1602587594.7558,16
1602587594.7578,24
1602587594.7598,12
1602587594.7618,4
1602587594.7639,4
1602587594.7658,7
1602587594.7678,9
1602587594.7698,4
1602587594.7705,-7
1602587594.7718,-4
1602587594.7739,-2
1602587594.7758,-7
1602587594.7778,-4
1602587594.7798,0
1602587594.7818,-7
1602587594.7839,16
1602587594.7858,162
1602587594.7878,426
1602587594.7898,523
1602587594.7918,92
1602587594.7938,-438
1602587594.7958,-356
1602587594.7978,-41
1602587594.7998,-19
1602587594.8005,-31
1602587594.8018,26
1602587594.8038,14
1602587594.8058,-7
1602587594.8078,21
1602587594.8098,33
1602587594.8118,21
1602587594.8138,19
1602587594.8158,24
1602587594.8178,33
1602587594.8198,41
1602587594.8218,38
1602587594.8238,43
1602587594.8258,46
1602587594.8278,50
1602587594.8284,58
1602587594.8298,60
1602587594.8318,65
1602587594.8338,72
1602587594.8358,70
1602587594.8378,72
1602587594.8398,84
1602587594.8418,94
1602587594.8438,94
1602587594.8460,97
1602587594.8478,109
1602587594.8498,118
1602587594.8518,118
1602587594.8538,111
1602587594.8558,113
1602587594.8578,123
1602587594.8584,118
1602587594.8598,104
1602587595.2362,104
1602587595.2367,94
1602587595.2383,65
1602587595.2403,50
1602587595.2423,53
1602587595.2444,38
1602587595.2463,9
1602587595.2483,-7
1602587595.2503,-14
1602587595.2523,-31
1602587595.2543,-38
1602587595.2549,-31
1602587595.2563,-31
1602587595.2582,-48
1602587595.2602,-50
1602587595.2623,-33
1602587595.2643,-33
1602587595.2662,-36
1602587595.2683,-21
1602587595.2703,-14
1602587595.2723,-16
1602587595.2743,-12
1602587595.2762,-7
1602587595.2783,-9
1602587595.2802,-9
1602587595.2822,-7
1602587595.2843,-7
1602587595.2849,2
1602587595.2862,12
1602587595.2884,-4
1602587595.2903,-16
1602587595.2923,-12
1602587595.2943,-4
1602587595.2962,-12
1602587595.2982,-16
1602587595.3002,-14
1602587595.3022,-24
1602587595.3043,-31
1602587595.3062,-24
1602587595.3083,-16
1602587595.3103,-14
1602587595.3122,-12
1602587595.3144,-12
1602587595.3149,-19
1602587595.3163,-26
1602587595.3182,-24
1602587595.3202,-16
1602587595.3222,-16
1602587595.3243,-16
1602587595.3262,-14
1602587595.3282,-14
1602587595.3302,-12
1602587595.3322,-9
1602587595.3343,-9
1602587595.3362,-9
1602587595.3382,-9
1602587595.3403,-4
1602587595.3422,4
1602587595.3443,12
1602587595.3449,14
1602587595.3463,9
1602587595.3482,-2
1602587595.3502,0
1602587595.3523,12
1602587595.3543,12
1602587595.3562,9
1602587595.3582,9
1602587595.3602,9
1602587595.3622,9
1602587595.3643,19
1602587595.3662,21
1602587595.3682,21
1602587595.3702,33
1602587595.8058,50
1602587595.8066,41
1602587595.8090,29
1602587595.8118,41
1602587595.8138,50
1602587595.8157,31
1602587595.8178,2
1602587595.8197,-4
1602587595.8216,0
1602587595.8237,2
1602587595.8257,-4
1602587595.8276,0
1602587595.8297,12
1602587595.8318,12
1602587595.8337,4
1602587595.8356,58
1602587595.8363,271
1602587595.8376,531
1602587595.8397,417
1602587595.8417,-167
1602587595.8439,-482
1602587595.8457,-201
1602587595.8476,12
1602587595.8496,-26
1602587595.8516,2
1602587595.8537,46
1602587595.8557,14
1602587595.8576,12
1602587595.8596,38
1602587595.8616,46
1602587595.8637,41
1602587595.8656,46
1602587595.8662,53
1602587595.8676,50
1602587595.8696,46
1602587595.8716,55
1602587595.8736,70
1602587595.8756,70
1602587595.8776,67
1602587595.8796,75
1602587595.8816,80
1602587595.8837,77
1602587595.8856,82
1602587595.8876,92
1602587595.8896,101
1602587595.8916,111
1602587595.8937,116
1602587595.8956,123
1602587595.8962,121
1602587595.8976,121
1602587595.8996,128
1602587595.9016,138
1602587595.9037,140
1602587595.9056,138
1602587595.9076,130
1602587595.9096,121
1602587595.9116,111
1602587595.9137,101
1602587595.9156,99
1602587595.9176,89
1602587595.9196,72
1602587595.9216,53
1602587595.9236,36
1602587595.9256,26
1602587595.9263,29
1602587595.9276,24
1602587595.9296,7
1602587595.9316,-7
1602587595.9336,-4
1602587595.9356,0
1602587595.9376,4
1602587595.9398,12
1602587595.9416,12
1602587596.3452,12
1602587596.3458,21
1602587596.3479,26
1602587596.3487,24
1602587596.3509,19
1602587596.3529,19
1602587596.3549,19
1602587596.3569,16
1602587596.3589,16
1602587596.3609,21
1602587596.3629,19
1602587596.3649,14
1602587596.3669,9
1602587596.3689,7
1602587596.3709,12
1602587596.3729,19
1602587596.3748,12
1602587596.3768,2
1602587596.3788,-2
1602587596.3795,-7
1602587596.3808,-4
1602587596.3829,-7
1602587596.3848,-16
1602587596.3868,-9
1602587596.3888,4
1602587596.3908,-2
1602587596.3929,-16
1602587596.3949,-7
1602587596.3968,9
1602587596.3988,9
1602587596.4008,2
1602587596.4029,2
1602587596.4048,7
1602587596.4068,9
1602587596.4088,7
1602587596.4094,9
1602587596.4108,14
1602587596.4129,9
1602587596.4148,9
1602587596.4169,21
1602587596.4188,29
1602587596.4208,24
1602587596.4229,16
1602587596.4248,21
1602587596.4268,26
1602587596.4289,26
1602587596.4308,29
1602587596.4329,29
1602587596.4348,29
1602587596.4370,16
1602587596.4388,9
1602587596.4395,24
1602587596.4408,33
1602587596.4429,31
1602587596.4448,48
1602587596.4468,70
1602587596.4488,60
1602587596.4508,38
1602587596.4528,41
1602587596.4548,53
1602587596.4568,41
1602587596.4588,26
1602587596.4608,24
1602587596.4629,26
1602587596.4648,24
1602587596.4668,29
1602587596.4688,31
1602587596.4694,33
1602587596.4708,33
1602587596.4728,24
1602587596.4748,80
1602587596.4768,327
1602587596.4788,620
1602587596.9155,470
1602587596.9163,-201
1602587596.9186,-550
1602587596.9203,-223
1602587596.9224,12
1602587596.9244,-48
1602587596.9264,-7
1602587596.9284,53
1602587596.9303,21
1602587596.9309,19
1602587596.9323,50
1602587596.9343,41
1602587596.9363,21
1602587596.9383,24
1602587596.9403,29
1602587596.9423,36
1602587596.9443,50
1602587596.9463,58
1602587596.9483,53
1602587596.9503,53
1602587596.9523,60
1602587596.9543,70
1602587596.9562,72
1602587596.9583,82
1602587596.9603,89
1602587596.9608,80
1602587596.9623,77
1602587596.9645,94
1602587596.9663,106
1602587596.9683,111
1602587596.9703,116
1602587596.9723,118
1602587596.9743,121
1602587596.9763,121
1602587596.9782,118
1602587596.9802,123
1602587596.9823,135
1602587596.9843,121
1602587596.9863,92
1602587596.9883,82
1602587596.9903,84
1602587596.9909,77
1602587596.9922,58
1602587596.9943,38
1602587596.9963,24
1602587596.9983,16
1602587597.0003,12
1602587597.0022,-2
1602587597.0043,-19
1602587597.0063,-16
1602587597.0082,-16
1602587597.0102,-29
1602587597.0122,-33
1602587597.0143,-16
1602587597.0162,-2
1602587597.0183,-2
1602587597.0202,-2
1602587597.0209,4
1602587597.0223,7
1602587597.0243,4
1602587597.0263,9
1602587597.0282,21
1602587597.0302,19
1602587597.0323,4
1602587597.0343,-2
1602587597.0363,4
1602587597.0383,9
1602587597.0402,-2
1602587597.0422,-12
1602587597.0443,-12
1602587597.0463,-7
1602587597.0483,-7
1602587597.0503,-14
1602587597.5153,-19
1602587597.5161,-19
1602587597.5180,-19
1602587597.5201,-19
1602587597.5220,-26
1602587597.5243,-33
1602587597.5260,-33
1602587597.5281,-33
1602587597.5300,-33
1602587597.5321,-29
1602587597.5341,-26
1602587597.5360,-29
1602587597.5380,-31
1602587597.5386,-26
1602587597.5400,-24
1602587597.5420,-19
1602587597.5440,-9
1602587597.5460,-9
1602587597.5481,-19
1602587597.5500,-14
1602587597.5520,0
1602587597.5539,2
1602587597.5559,-9
1602587597.5580,-14
1602587597.5599,-7
1602587597.5619,0
1602587597.5640,2
1602587597.5660,-2
1602587597.5680,-2
1602587597.5685,4
1602587597.5700,7
1602587597.5720,9
1602587597.5740,31
1602587597.5760,46
1602587597.5780,26
1602587597.5800,4
1602587597.5819,14
1602587597.5840,26
1602587597.5859,21
1602587597.5879,12
1602587597.5900,4
1602587597.5919,-2
1602587597.5940,2
1602587597.5960,19
1602587597.5980,19
1602587597.5985,4
1602587597.6000,0
1602587597.6020,0
1602587597.6040,48
1602587597.6059,244
1602587597.6080,526
1602587597.6099,499
1602587597.6119,-67
1602587597.6140,-511
1602587597.6159,-281
1602587597.6180,0
1602587597.6201,-43
1602587597.6220,-41
1602587597.6240,41
1602587597.6260,33
1602587597.6280,16
1602587597.6286,41
1602587597.6299,43
1602587597.6320,31
1602587597.6340,41
1602587597.6360,53
1602587597.6379,48
1602587597.6400,33
1602587597.6419,33
1602587597.6440,48
1602587597.6459,53
1602587597.6480,53
1602587597.6500,58
1602587598.0559,65
1602587598.0567,70
1602587598.0591,67
1602587598.0617,70
1602587598.0623,80
1602587598.0637,89
1602587598.0658,89
1602587598.0678,89
1602587598.0698,99
1602587598.0717,109
1602587598.0739,106
1602587598.0757,104
1602587598.0777,113
1602587598.0797,113
1602587598.0817,99
1602587598.0838,92
1602587598.0857,92
1602587598.0877,84
1602587598.0897,72
1602587598.0917,60
1602587598.0923,46
1602587598.0937,26
1602587598.0957,12
1602587598.0977,2
1602587598.0998,-12
1602587598.1017,-26
1602587598.1037,-36
1602587598.1057,-41
1602587598.1077,-43
1602587598.1097,-41
1602587598.1117,-36
1602587598.1137,-36
1602587598.1157,-29
1602587598.1177,-26
1602587598.1198,-24
1602587598.1217,-14
1602587598.1223,-12
1602587598.1237,-12
1602587598.1257,-2
1602587598.1277,-7
1602587598.1296,-12
1602587598.1316,-4
1602587598.1337,-2
1602587598.1357,-12
1602587598.1377,-12
1602587598.1397,-2
1602587598.1417,-4
1602587598.1437,-12
1602587598.1457,-14
1602587598.1477,-16
1602587598.1497,-24
1602587598.1517,-29
1602587598.1523,-21
1602587598.1537,-16
1602587598.1557,-24
1602587598.1577,-24
1602587598.1596,-14
1602587598.1617,-9
1602587598.1637,-19
1602587598.1657,-26
1602587598.1677,-21
1602587598.1697,-12
1602587598.1717,-16
1602587598.1737,-19
1602587598.1757,-16
1602587598.1777,-24
1602587598.1797,-19
1602587598.1816,-7
1602587598.1822,-12
1602587598.1837,-14
1602587598.1857,-4
1602587598.1877,-4
1602587598.1896,-9
1602587598.6258,-7
1602587598.6266,-2
1602587598.6290,-7
1602587598.6316,-14
1602587598.6336,-4
1602587598.6356,12
1602587598.6377,9
1602587598.6397,-4
1602587598.6404,-9
1602587598.6426,-7
1602587598.6446,2
1602587598.6466,7
1602587598.6489,4
1602587598.6508,9
1602587598.6526,29
1602587598.6546,24
1602587598.6565,2
1602587598.6586,7
1602587598.6606,14
1602587598.6625,2
1602587598.6645,2
1602587598.6665,7
1602587598.6686,0
1602587598.6691,-7
1602587598.6706,-4
1602587598.6725,-2
1602587598.6745,2
1602587598.6765,0
1602587598.6785,14
1602587598.6805,147
1602587598.6826,419
1602587598.6845,535
1602587598.6866,116
1602587598.6886,-431
1602587598.6905,-373
1602587598.6925,-48
1602587598.6946,-19
1602587598.6966,-48
1602587598.6985,24
1602587598.6991,31
1602587598.7006,4
1602587598.7025,24
1602587598.7046,31
1602587598.7065,19
1602587598.7085,26
1602587598.7106,29
1602587598.7126,26
1602587598.7145,29
1602587598.7166,38
1602587598.7186,46
1602587598.7206,53
1602587598.7225,53
1602587598.7246,50
1602587598.7265,55
1602587598.7286,58
1602587598.7291,55
1602587598.7306,58
1602587598.7325,67
1602587598.7346,75
1602587598.7366,82
1602587598.7386,94
1602587598.7406,101
1602587598.7425,94
1602587598.7447,92
1602587598.7466,101
1602587598.7486,109
1602587598.7506,109
1602587598.7526,111
1602587598.7546,109
1602587598.7565,101
1602587598.7586,94
1602587598.7591,87
1602587598.7606,72
1602587599.1659,50
1602587599.1667,29
1602587599.1692,14
1602587599.1718,9
1602587599.1739,-2
1602587599.1758,-19
1602587599.1779,-29
1602587599.1799,-33
1602587599.1818,-38
1602587599.1838,-43
1602587599.1857,-48
1602587599.1877,-46
1602587599.1898,-43
1602587599.1904,-46
1602587599.1918,-46
1602587599.1938,-29
1602587599.1958,-19
1602587599.1978,-24
1602587599.1998,-24
1602587599.2018,-16
1602587599.2038,-12
1602587599.2059,-14
1602587599.2079,-16
1602587599.2098,-16
1602587599.2118,-16
1602587599.2138,-19
1602587599.2158,-21
1602587599.2178,-16
1602587599.2199,-24
1602587599.2203,-29
1602587599.2218,-21
1602587599.2238,-14
1602587599.2258,-19
1602587599.2278,-26
1602587599.2297,-26
1602587599.2317,-24
1602587599.2338,-21
1602587599.2357,-19
1602587599.2379,-14
1602587599.2398,-16
1602587599.2417,-24
1602587599.2439,-26
1602587599.2458,-14
1602587599.2477,-7
1602587599.2497,-16
1602587599.2503,-19
1602587599.2518,-7
1602587599.2538,-2
1602587599.2558,-14
1602587599.2577,-19
1602587599.2597,-7
1602587599.2617,2
1602587599.2637,0
1602587599.2657,0
1602587599.2677,-4
1602587599.2697,-9
1602587599.2717,-9
1602587599.2738,-4
1602587599.2757,2
1602587599.2777,2
1602587599.2797,0
1602587599.2803,2
1602587599.2817,7
1602587599.2837,14
1602587599.2857,12
1602587599.2877,12
1602587599.2897,31
1602587599.2917,53
1602587599.2937,48
1602587599.2957,33
1602587599.2977,31
1602587599.2997,21
1602587599.3017,14
1602587599.7358,16
1602587599.7366,7
1602587599.7389,0
1602587599.7406,9
1602587599.7426,12
1602587599.7447,2
1602587599.7466,2
1602587599.7487,0
1602587599.7507,0
1602587599.7527,58
1602587599.7546,264
1602587599.7566,518
1602587599.7586,412
1602587599.7606,-164
1602587599.7628,-492
1602587599.7646,-225
1602587599.7666,-19
1602587599.7672,-55
1602587599.7686,-4
1602587599.7708,48
1602587599.7726,12
1602587599.7745,9
1602587599.7766,38
1602587599.7786,36
1602587599.7806,33
1602587599.7826,50
1602587599.7846,53
1602587599.7866,41
1602587599.7886,38
1602587599.7906,46
1602587599.7925,50
1602587599.7946,55
1602587599.7966,65
1602587599.7972,70
1602587599.7985,70
1602587599.8006,70
1602587599.8026,77
1602587599.8045,82
1602587599.8066,84
1602587599.8086,94
1602587599.8105,99
1602587599.8125,92
1602587599.8146,94
1602587599.8166,109
1602587599.8185,121
1602587599.8206,121
1602587599.8226,113
1602587599.8245,104
1602587599.8266,104
1602587599.8271,101
1602587599.8286,92
1602587599.8305,82
1602587599.8326,80
1602587599.8346,70
1602587599.8366,46
1602587599.8386,33
1602587599.8406,31
1602587599.8425,16
1602587599.8446,2
1602587599.8465,-9
1602587599.8486,-21
1602587599.8506,-33
1602587599.8525,-33
1602587599.8546,-24
1602587599.8566,-14
1602587599.8571,-16
1602587599.8586,-14
1602587599.8606,-9
1602587599.8626,-4
1602587599.8646,2
1602587599.8667,2
1602587599.8686,-9
1602587599.8705,-4
1602587600.2754,9
1602587600.2761,9
1602587600.2778,14
1602587600.2798,16
1602587600.2818,9
1602587600.2825,-2
1602587600.2837,-7
1602587600.2858,-12
1602587600.2878,-14
1602587600.2898,-19
1602587600.2918,-29
1602587600.2938,-33
1602587600.2958,-19
1602587600.2977,-14
1602587600.2997,-29
1602587600.3018,-26
1602587600.3038,-14
1602587600.3058,-19
1602587600.3077,-19
1602587600.3097,-12
1602587600.3117,-12
1602587600.3124,-14
1602587600.3137,-14
1602587600.3157,-16
1602587600.3177,-16
1602587600.3197,-9
1602587600.3217,-4
1602587600.3238,-4
1602587600.3257,-7
1602587600.3277,-2
1602587600.3297,4
1602587600.3317,2
1602587600.3337,-2
1602587600.3357,-4
1602587600.3377,-2
1602587600.3397,-7
1602587600.3417,-2
1602587600.3423,7
1602587600.3437,2
1602587600.3457,-2
1602587600.3478,0
1602587600.3497,12
1602587600.3517,26
1602587600.3538,33
1602587600.3557,33
1602587600.3577,29
1602587600.3597,21
1602587600.3618,19
1602587600.3639,24
1602587600.3658,21
1602587600.3677,7
1602587600.3697,0
1602587600.3717,2
1602587600.3724,2
1602587600.3737,0
1602587600.3757,2
1602587600.3777,9
1602587600.3797,9
1602587600.3817,31
1602587600.3837,196
1602587600.3857,494
1602587600.3877,572
1602587600.3897,65
1602587600.3917,-509
1602587600.3937,-397
1602587600.3957,-46
1602587600.3977,-19
1602587600.3997,-31
1602587600.4017,48
1602587600.4023,36
1602587600.4037,0
1602587600.4058,33
1602587600.4078,53
1602587600.8761,38
1602587600.8773,41
1602587600.8797,48
1602587600.8823,46
1602587600.8843,46
1602587600.8863,46
1602587600.8884,43
1602587600.8903,48
1602587600.8923,55
1602587600.8943,60
1602587600.8963,58
1602587600.8984,55
1602587600.9067,67
1602587600.9083,77
1602587600.9103,75
1602587600.9123,80
1602587600.9143,89
1602587600.9163,99
1602587600.9183,106
1602587600.9203,106
1602587600.9223,104
1602587600.9243,113
1602587600.9263,123
1602587600.9283,126
1602587600.9303,116
1602587600.9323,99
1602587600.9345,87
1602587600.9349,80
1602587600.9362,72
1602587600.9382,65
1602587600.9403,50
1602587600.9423,24
1602587600.9443,7
1602587600.9462,9
1602587600.9484,4
1602587600.9502,-9
1602587600.9522,-24
1602587600.9543,-26
1602587600.9563,-21
1602587600.9582,-29
1602587600.9602,-33
1602587600.9622,-26
1602587600.9643,-19
1602587600.9647,-14
1602587600.9662,-9
1602587600.9682,-12
1602587600.9702,-7
1602587600.9722,2
1602587600.9742,-4
1602587600.9762,-7
1602587600.9782,7
1602587600.9802,7
1602587600.9823,4
1602587600.9842,14
1602587600.9862,9
1602587600.9882,-2
1602587600.9902,7
1602587600.9922,9
1602587600.9943,-4
1602587600.9948,-14
1602587600.9962,-16
1602587600.9983,-19
1602587601.0002,-16
1602587601.0022,-14
1602587601.0043,-16
1602587601.0062,-14
1602587601.0082,-4
1602587601.0102,-7
1602587601.0122,-19
1602587601.0143,-24
1602587601.0162,-14
1602587601.0182,-7
1602587601.0202,-12
1602587601.4152,-24
1602587601.4160,-24
1602587601.4178,-16
1602587601.4226,-14
1602587601.4304,-9
1602587601.4703,0
1602587601.4737,4
1602587601.4822,0
1602587601.4842,-7
1602587601.4878,-12
1602587601.5235,-16
1602587601.5273,-19
1602587601.5361,-14
1602587601.5388,-12
1602587601.5406,-16
1602587601.5691,-12
1602587601.5730,0
1602587601.5805,9
1602587601.5831,21
1602587601.5851,24
1602587601.6102,14
1602587601.6145,2
1602587601.6223,-2
1602587601.6248,0
1602587601.6268,2
1602587601.6551,2
1602587601.6588,-9
1602587601.6677,-16
1602587601.6701,-7
1602587601.6735,-2
1602587601.6938,-9
1602587601.6957,-2
1602587601.7008,2
1602587601.7052,-9
1602587601.7077,38
1602587601.7111,266
1602587601.7158,535
1602587601.7218,392
1602587601.7315,-220
1602587601.7350,-514
1602587601.7445,-203
1602587601.7481,2
1602587601.7559,-48
1602587601.7605,-9
1602587601.7666,31
1602587601.7720,0
1602587601.7771,9
1602587601.7828,36
1602587601.7879,26
1602587601.7930,24
1602587601.7969,36
1602587601.8003,41
1602587601.8073,38
1602587601.8117,38
1602587601.8174,46
1602587601.8289,50
1602587601.8325,48
1602587601.8421,46
1602587601.8455,50
1602587601.8543,60
1602587601.8574,65
1602587601.8609,65
1602587601.8691,75
1602587601.8717,82
1602587601.8937,82
1602587601.8972,97
1602587601.9042,116
1602587601.9084,109
1602587601.9130,99
1602587601.9161,111
1602587601.9195,121
1602587601.9271,113
1602587601.9314,109
1602587601.9851,109
1602587601.9855,101
1602587601.9909,92
1602587601.9946,94
1602587601.9981,87
1602587602.0293,63
1602587602.0327,48
1602587602.0398,31
1602587602.0450,-4
1602587602.0501,-24
1602587602.0529,-24
1602587602.0563,-29
1602587602.0638,-38
1602587602.0680,-46
1602587602.0743,-50
1602587602.0871,-41
1602587602.0906,-33
1602587602.0983,-33
1602587602.1030,-36
1602587602.1094,-29
1602587602.1224,-24
1602587602.1242,-24
1602587602.1294,-16
1602587602.1355,-12
1602587602.1440,-14
1602587602.1560,-14
1602587602.1594,-7
1602587602.1691,-14
1602587602.1725,-16
1602587602.1803,2
1602587602.1930,9
1602587602.1966,0
1602587602.2049,-2
1602587602.2079,-9
1602587602.2112,-16
1602587602.2302,-7
1602587602.2336,-4
1602587602.2375,-26
1602587602.2448,-38
1602587602.2543,-16
1602587602.2578,-4
1602587602.2647,-19
1602587602.2690,-21
1602587602.2742,-14
1602587602.2776,-9
1602587602.2810,-14
1602587602.2887,-24
1602587602.2933,-21
1602587602.2984,-12
1602587602.3019,-12
1602587602.3132,-7
1602587602.3166,2
1602587602.3248,0
1602587602.3274,-9
1602587602.3390,-4
1602587602.3435,-4
1602587602.3496,-19
1602587602.3589,-19
1602587602.3623,-9
1602587602.3721,-7
1602587602.3756,-9
1602587602.3832,-9
1602587602.3877,-4
1602587602.3943,0
1602587602.4249,0
1602587602.4282,0
1602587602.4382,-2
1602587602.4416,0
1602587602.4498,12
1602587602.4615,31
1602587602.4649,41
1602587602.4677,29
1602587602.4739,9
1602587602.5556,16
1602587602.5560,33
1602587602.5578,26
1602587602.5799,9
1602587602.5834,7
1602587602.5911,-4
1602587602.5960,-19
1602587602.6030,-12
1602587602.6245,-4
1602587602.6263,-4
1602587602.6315,-4
1602587602.6378,-9
1602587602.6458,36
1602587602.6594,230
1602587602.6628,477
1602587602.6702,380
1602587602.6746,-172
1602587602.6804,-494
1602587602.6940,-232
1602587602.6973,-14
1602587602.7052,-46
1602587602.7100,-14
1602587602.7162,31
1602587602.7399,2
1602587602.7433,0
1602587602.7473,21
1602587602.7545,16
1602587602.7639,12
1602587602.7761,31
1602587602.7794,41
1602587602.7868,43
1602587602.7911,46
1602587602.7978,43
1602587602.8012,41
1602587602.8088,41
1602587602.8135,46
1602587602.8196,55
1602587602.8230,63
1602587602.8697,65
1602587602.8718,65
1602587602.8758,72
1602587602.8781,80
1602587602.9308,82
1602587602.9327,82
1602587602.9358,84
1602587602.9393,94
1602587602.9427,101
1602587602.9502,101
1602587602.9538,104
1602587602.9611,111
1602587602.9613,111
1602587602.9632,99
1602587602.9711,94
1602587602.9959,99
1602587602.9992,84
1602587603.0072,60
1602587603.0123,50
1602587603.0178,46
1602587603.0425,29
1602587603.0458,9
1602587603.0530,-4
1602587603.0573,-14
1602587603.0619,-24
1602587603.0748,-29
1602587603.0782,-31
1602587603.0858,-29
1602587603.0901,-26
1602587603.0967,-26
1602587603.1082,-26
1602587603.1115,-26
1602587603.1193,-29
1602587603.1244,-26
1602587603.1312,-26
1602587603.1439,-26
1602587603.1464,-21
1602587603.1533,-14
1602587603.1577,-19
1602587603.1856,-26
1602587603.1890,-26
1602587603.1964,-19
1602587603.2008,-14
1602587603.2078,-16
1602587603.2113,-29
1602587603.2191,-33
1602587603.2238,-36
1602587603.2308,-36
1602587603.2407,-33
1602587603.2544,-33
1602587603.2562,-36
1602587603.2613,-38
1602587603.2673,-38
1602587603.2742,-38
1602587603.2869,-33
1602587603.2902,-33
1602587603.2975,-33
1602587603.3019,-33
1602587603.3083,-41
1602587603.3199,-46
1602587603.3233,-43
1602587603.3311,-33
1602587603.3359,-24
1602587603.3428,-29
1602587603.3546,-38
1602587603.3580,-29
1602587603.3621,-14
1602587603.3691,-16
1602587603.3878,-19
1602587603.3912,-16
1602587603.3982,-21
1602587603.4028,-21
1602587603.4091,-16
1602587603.4320,-19
1602587603.4354,-21
1602587603.4432,-19
1602587603.4481,-19
1602587603.4542,-14
1602587603.4646,-2
1602587603.4680,-2
1602587603.4761,-7
1602587603.4814,-9
1602587603.4889,-12
1602587603.4922,-9
1602587603.4993,7
1602587603.5038,19
1602587603.5105,24
1602587603.5139,19
1602587603.5322,12
1602587603.5357,19
1602587603.5433,21
1602587603.5478,4
1602587603.5544,-4
1602587603.5579,0
1602587603.5657,-4
1602587603.5702,-16
1602587603.5762,-16
1602587603.5797,-7
1602587603.5903,2
1602587603.5937,7
1602587603.6008,-2
1602587603.6053,31
1602587603.6117,220
1602587603.6151,494
1602587603.6226,429
1602587603.6270,-147
1602587603.6334,-531
1602587603.6369,-271
1602587603.6589,-29
1602587603.6592,-58
1602587603.6665,-12
1602587603.6893,43
1602587603.6911,4
1602587603.6962,0
1602587603.7008,31
1602587603.7052,24
1602587603.7126,12
1602587603.7160,19
1602587603.7233,21
1602587603.7277,19
1602587603.7345,24
1602587603.7378,29
1602587603.7457,36
1602587603.7504,46
1602587603.7570,55
1602587603.7605,63
1602587603.7796,58
1602587603.7830,53
1602587603.7867,65
1602587603.7938,75
1602587603.8032,82
1602587603.8067,84
1602587603.8136,82
1602587603.8179,87
1602587603.8246,99
1602587603.8281,109
1602587603.8357,116
1602587603.8401,116
1602587603.8468,106
1602587603.8502,104
1602587603.8688,106
1602587603.8720,94
1602587603.8803,82
1602587603.8854,84
1602587603.8924,82
1602587603.8957,63
1602587603.8985,58
1602587603.9048,58
1602587603.9141,41
1602587603.9175,14
1602587603.9357,-4
1602587603.9391,-7
1602587603.9466,-7
1602587603.9511,-12
1602587603.9577,-16
1602587603.9612,-16
1602587603.9690,-21
1602587603.9737,-19
1602587603.9807,-4
1602587603.9841,0
1602587604.0030,-4
1602587604.0063,7
1602587604.0134,19
1602587604.0178,9
1602587604.0244,-2
1602587604.0277,0
1602587604.0352,12
1602587604.0395,7
1602587604.0462,-14
1602587604.0495,-19
1602587604.0681,0
1602587604.0715,14
1602587604.0793,2
1602587604.0841,-19
1602587604.0908,-29
1602587604.1117,-14
1602587604.1135,-4
1602587604.1188,-14
1602587604.1247,-29
1602587604.1341,-9
1602587604.1375,9
1602587604.2371,-9
1602587604.2375,-26
1602587604.2480,-2
1602587604.2515,9
1602587604.2594,-29
1602587604.2642,-50
1602587604.2710,-31
1602587604.2745,-21
1602587604.2784,-29
1602587604.2856,-16
1602587604.2950,7
1602587604.2985,4
1602587604.3058,-14
1602587604.3102,-21
1602587604.3168,-12
1602587604.3203,-9
1602587604.3280,-24
1602587604.3323,-29
1602587604.3369,0
1602587604.3404,12
1602587604.3754,-12
1602587604.3776,-12
1602587604.3799,14
1602587604.3838,7
1602587604.3861,-16
1602587604.4015,-16
1602587604.4032,0
1602587604.4051,24
1602587604.4071,50
1602587604.4091,38
1602587604.4111,12
1602587604.4132,-2
1602587604.4151,0
1602587604.4171,24
1602587604.4191,31
1602587604.4211,14
1602587604.4231,9
1602587604.4251,9
1602587604.4272,-9
1602587604.4291,-26
1602587604.4298,-2
1602587604.4311,29
1602587604.4332,21
1602587604.4351,9
1602587604.4372,87
1602587604.4391,334
1602587604.4411,599
1602587604.4432,375
1602587604.4452,-312
1602587604.4471,-543
1602587604.4492,-172
1602587604.4511,-7
1602587604.4532,-70
1602587604.4551,-4
1602587604.4571,33
1602587604.4591,-9
1602587604.4598,-2
1602587604.4611,21
1602587604.4631,14
1602587604.4652,19
1602587604.4671,31
1602587604.4691,31
1602587604.4711,36
1602587604.4732,46
1602587604.4752,55
1602587604.4771,50
1602587604.4791,43
1602587604.4811,63
1602587604.4832,75
1602587604.4851,60
1602587604.4871,72
1602587604.4877,104
1602587604.4891,109
1602587604.8057,80
1602587604.8065,70
1602587604.8089,101
1602587604.8116,126
1602587604.8136,121
1602587604.8156,116
1602587604.8176,126
1602587604.8196,135
1602587604.8216,126
1602587604.8236,94
1602587604.8256,75
1602587604.8276,87
1602587604.8296,94
1602587604.8301,77
1602587604.8316,58
1602587604.8336,46
1602587604.8356,31
1602587604.8376,19
1602587604.8395,2
1602587604.8416,-14
1602587604.8435,-21
1602587604.8455,-26
1602587604.8475,-29
1602587604.8495,-29
1602587604.8515,-38
1602587604.8537,-46
1602587604.8556,-33
1602587604.8575,-26
1602587604.8595,-31
1602587604.8601,-24
1602587604.8615,-2
1602587604.8636,2
1602587604.8655,-12
1602587604.8675,-19
1602587604.8695,2
1602587604.8715,14
1602587604.8735,-4
1602587604.8755,-9
1602587604.8775,12
1602587604.8795,9
1602587604.8815,-2
1602587604.8835,-2
1602587604.8855,-9
1602587604.8875,-16
1602587604.8895,-14
1602587604.8901,-14
1602587604.8915,-9
1602587604.8935,0
1602587604.8955,-19
1602587604.8975,-41
1602587604.8995,-43
1602587604.9015,-38
1602587604.9035,-29
1602587604.9055,-14
1602587604.9075,-12
1602587604.9095,-24
1602587604.9115,-26
1602587604.9136,-12
1602587604.9155,-9
1602587604.9175,-16
1602587604.9195,-12
1602587604.9201,-7
1602587604.9215,-7
1602587604.9235,-14
1602587604.9255,-26
1602587604.9275,-21
1602587604.9295,-4
1602587604.9315,-2
1602587604.9335,-9
1602587604.9355,-9
1602587604.9375,2
1602587604.9395,4
1602587604.9415,-4
1602587605.3453,4
1602587605.3461,16
1602587605.3485,12
1602587605.3514,14
1602587605.3533,31
1602587605.3552,36
1602587605.3572,24
1602587605.3592,9
1602587605.3612,4
1602587605.3633,14
1602587605.3652,12
1602587605.3671,-9
1602587605.3692,-12
1602587605.3711,-2
1602587605.3731,-7
1602587605.3751,-7
1602587605.3771,-4
1602587605.3777,-4
1602587605.3791,-9
1602587605.3811,26
1602587605.3831,196
1602587605.3851,460
1602587605.3871,472
1602587605.3891,-29
1602587605.3911,-480
1602587605.3931,-303
1602587605.3951,-19
1602587605.3970,-26
1602587605.3991,-14
1602587605.4011,46
1602587605.4031,21
1602587605.4051,0
1602587605.4071,29
1602587605.4076,36
1602587605.4091,16
1602587605.4110,14
1602587605.4131,19
1602587605.4151,19
1602587605.4171,31
1602587605.4191,46
1602587605.4211,48
1602587605.4231,43
1602587605.4250,48
1602587605.4270,55
1602587605.4290,55
1602587605.4311,58
1602587605.4331,63
1602587605.4351,72
1602587605.4371,80
1602587605.4377,80
1602587605.4391,87
1602587605.4410,97
1602587605.4431,97
1602587605.4450,104
1602587605.4472,118
1602587605.4491,123
1602587605.4511,121
1602587605.4531,113
1602587605.4551,109
1602587605.4570,104
1602587605.4591,106
1602587605.4610,99
1602587605.4631,72
1602587605.4651,55
1602587605.4671,55
1602587605.4676,43
1602587605.4691,16
1602587605.4710,2
1602587605.4731,-2
1602587605.4751,-9
1602587605.4771,-26
1602587605.4791,-31
1602587605.4811,-24
1602587605.8854,-31
1602587605.8862,-36
1602587605.8886,-24
1602587605.8912,-9
1602587605.8933,-4
1602587605.8953,-14
1602587605.8973,-16
1602587605.8980,-16
1602587605.8992,-21
1602587605.9014,-24
1602587605.9033,-16
1602587605.9052,-7
1602587605.9072,-4
1602587605.9092,-7
1602587605.9112,-12
1602587605.9132,-16
1602587605.9152,-16
1602587605.9172,-12
1602587605.9192,-12
1602587605.9212,-12
1602587605.9232,-7
1602587605.9252,-9
1602587605.9272,-19
1602587605.9278,-26
1602587605.9292,-29
1602587605.9312,-26
1602587605.9332,-26
1602587605.9352,-29
1602587605.9372,-31
1602587605.9392,-29
1602587605.9411,-29
1602587605.9432,-29
1602587605.9453,-24
1602587605.9472,-21
1602587605.9492,-21
1602587605.9512,-21
1602587605.9532,-19
1602587605.9552,-21
1602587605.9572,-26
1602587605.9577,-21
1602587605.9592,-9
1602587605.9612,-7
1602587605.9631,-14
1602587605.9651,-7
1602587605.9672,2
1602587605.9692,0
1602587605.9712,0
1602587605.9732,-2
1602587605.9752,-9
1602587605.9772,-9
1602587605.9792,2
1602587605.9812,9
1602587605.9832,7
1602587605.9852,19
1602587605.9871,33
1602587605.9877,36
1602587605.9892,31
1602587605.9911,21
1602587605.9931,12
1602587605.9951,19
1602587605.9972,21
1602587605.9992,14
1602587606.0012,2
1602587606.0032,-2
1602587606.0052,7
1602587606.0072,9
1602587606.0092,2
1602587606.0112,2
1602587606.0132,4
1602587606.0152,7
1602587606.0171,33
1602587606.0177,172
1602587606.0192,429
1602587606.4853,494
1602587606.4861,31
1602587606.4885,-465
1602587606.4912,-322
1602587606.4933,-12
1602587606.4952,-21
1602587606.4972,-33
1602587606.4992,36
1602587606.5012,19
1602587606.5032,-2
1602587606.5053,31
1602587606.5058,41
1602587606.5072,26
1602587606.5092,31
1602587606.5111,38
1602587606.5132,26
1602587606.5151,24
1602587606.5171,38
1602587606.5192,50
1602587606.5211,46
1602587606.5231,43
1602587606.5251,53
1602587606.5271,63
1602587606.5291,65
1602587606.5311,67
1602587606.5332,67
1602587606.5351,72
1602587606.5357,84
1602587606.5371,89
1602587606.5391,87
1602587606.5412,99
1602587606.5432,113
1602587606.5451,109
1602587606.5471,104
1602587606.5491,109
1602587606.5511,111
1602587606.5531,109
1602587606.5551,111
1602587606.5571,106
1602587606.5591,94
1602587606.5611,80
1602587606.5631,67
1602587606.5651,60
1602587606.5657,53
1602587606.5671,33
1602587606.5691,16
1602587606.5712,9
1602587606.5731,-4
1602587606.5751,-16
1602587606.5771,-16
1602587606.5791,-16
1602587606.5811,-26
1602587606.5831,-24
1602587606.5851,-12
1602587606.5871,-9
1602587606.5891,-7
1602587606.5911,-4
1602587606.5932,-4
1602587606.5951,-2
1602587606.5957,-4
1602587606.5971,0
1602587606.5992,4
1602587606.6011,2
1602587606.6031,0
1602587606.6051,2
1602587606.6071,4
1602587606.6091,2
1602587606.6111,0
1602587606.6131,2
1602587606.6151,-2
1602587606.6171,-12
1602587606.6191,-7
1602587606.6211,-2
1602587607.0257,-2
1602587607.0265,-7
1602587607.0282,-9
1602587607.0306,-16
1602587607.0327,-16
1602587607.0345,-14
1602587607.0366,-16
1602587607.0386,-19
1602587607.0405,-12
1602587607.0427,-9
1602587607.0446,-16
1602587607.0466,-21
1602587607.0486,-24
1602587607.0505,-26
1602587607.0527,-31
1602587607.0547,-31
1602587607.0565,-21
1602587607.0586,-16
1602587607.0591,-19
1602587607.0606,-21
1602587607.0626,-9
1602587607.0645,-4
1602587607.0665,-12
1602587607.0685,-12
1602587607.0705,-7
1602587607.0726,-4
1602587607.0745,-2
1602587607.0765,2
1602587607.0785,2
1602587607.0805,2
1602587607.0826,4
1602587607.0845,4
1602587607.0865,9
1602587607.0885,21
1602587607.0891,33
1602587607.0905,38
1602587607.0926,26
1602587607.0945,14
1602587607.0965,21
1602587607.0987,26
1602587607.1006,19
1602587607.1026,7
1602587607.1045,-4
1602587607.1065,-4
1602587607.1085,2
1602587607.1105,7
1602587607.1125,4
1602587607.1145,7
1602587607.1165,9
1602587607.1185,19
1602587607.1191,128
1602587607.1205,397
1602587607.1226,582
1602587607.1245,225
1602587607.1265,-414
1602587607.1285,-475
1602587607.1305,-106
1602587607.1325,-19
1602587607.1345,-60
1602587607.1365,26
1602587607.1385,50
1602587607.1405,12
1602587607.1425,31
1602587607.1445,48
1602587607.1465,29
1602587607.1485,36
1602587607.1491,50
1602587607.1505,46
1602587607.1526,50
1602587607.1545,58
1602587607.1565,55
1602587607.1585,55
1602587607.1605,55
1602587607.5957,55
1602587607.5965,67
1602587607.5990,75
1602587607.6016,63
1602587607.6037,58
1602587607.6055,63
1602587607.6062,67
1602587607.6076,67
1602587607.6096,65
1602587607.6116,70
1602587607.6136,82
1602587607.6155,92
1602587607.6175,94
1602587607.6196,89
1602587607.6216,84
1602587607.6236,84
1602587607.6255,87
1602587607.6277,80
1602587607.6295,67
1602587607.6315,63
1602587607.6335,58
1602587607.6355,41
1602587607.6361,24
1602587607.6375,14
1602587607.6395,4
1602587607.6415,-2
1602587607.6435,-12
1602587607.6455,-21
1602587607.6475,-29
1602587607.6495,-33
1602587607.6515,-33
1602587607.6536,-29
1602587607.6555,-24
1602587607.6575,-26
1602587607.6595,-21
1602587607.6615,-14
1602587607.6635,-7
1602587607.6655,-4
1602587607.6661,-4
1602587607.6675,-4
1602587607.6695,-7
1602587607.6715,-2
1602587607.6735,4
1602587607.6755,4
1602587607.6775,-2
1602587607.6796,-4
1602587607.6815,-2
1602587607.6835,-4
1602587607.6855,-7
1602587607.6875,-4
1602587607.6895,-2
1602587607.6915,-14
1602587607.6935,-19
1602587607.6955,-12
1602587607.6961,-16
1602587607.6975,-19
1602587607.6995,-14
1602587607.7015,-14
1602587607.7035,-12
1602587607.7055,-12
1602587607.7075,-14
1602587607.7095,-9
1602587607.7115,-16
1602587607.7135,-29
1602587607.7155,-21
1602587607.7175,-12
1602587607.7195,-12
1602587607.7215,-7
1602587607.7236,0
1602587607.7256,-4
1602587607.7261,-14
1602587607.7275,-16
1602587607.7295,-14
1602587608.1655,-12
1602587608.1661,-7
1602587608.1683,-7
1602587608.1702,-9
1602587608.1721,-7
1602587608.1741,0
1602587608.1762,9
1602587608.1781,19
1602587608.1802,19
1602587608.1822,7
1602587608.1828,-2
1602587608.1841,2
1602587608.1861,7
1602587608.1881,4
1602587608.1901,0
1602587608.1922,-2
1602587608.1941,-9
1602587608.1963,-14
1602587608.1981,-7
1602587608.2001,-4
1602587608.2021,-7
1602587608.2041,-4
1602587608.2062,-4
1602587608.2081,41
1602587608.2101,247
1602587608.2108,531
1602587608.2121,470
1602587608.2142,-133
1602587608.2161,-560
1602587608.2181,-293
1602587608.2201,-14
1602587608.2221,-50
1602587608.2241,-29
1602587608.2262,38
1602587608.2281,16
1602587608.2301,12
1602587608.2321,38
1602587608.2341,36
1602587608.2361,31
1602587608.2381,41
1602587608.2401,41
1602587608.2407,38
1602587608.2421,50
1602587608.2441,55
1602587608.2461,53
1602587608.2481,55
1602587608.2503,55
1602587608.2522,58
1602587608.2541,65
1602587608.2562,72
1602587608.2581,80
1602587608.2601,82
1602587608.2622,84
1602587608.2641,87
1602587608.2661,94
1602587608.2681,101
1602587608.2701,101
1602587608.2708,104
1602587608.2721,113
1602587608.2742,121
1602587608.2761,118
1602587608.2781,111
1602587608.2801,106
1602587608.2821,101
1602587608.2841,87
1602587608.2862,75
1602587608.2881,70
1602587608.2901,53
1602587608.2921,36
1602587608.2941,26
1602587608.2961,9
1602587608.2981,-7
1602587608.3001,-9
1602587608.7057,-19
1602587608.7066,-33
1602587608.7089,-38
1602587608.7116,-26
1602587608.7137,-24
1602587608.7156,-33
1602587608.7177,-33
1602587608.7196,-24
1602587608.7216,-16
1602587608.7236,-19
1602587608.7256,-24
1602587608.7276,-19
1602587608.7296,-16
1602587608.7303,-16
1602587608.7316,-12
1602587608.7336,-9
1602587608.7356,-16
1602587608.7376,-24
1602587608.7396,-19
1602587608.7416,-16
1602587608.7436,-19
1602587608.7456,-21
1602587608.7475,-21
1602587608.7495,-19
1602587608.7517,-19
1602587608.7536,-21
1602587608.7555,-21
1602587608.7575,-24
1602587608.7597,-26
1602587608.7603,-21
1602587608.7626,-21
1602587608.7646,-24
1602587608.7665,-21
1602587608.7685,-26
1602587608.7705,-33
1602587608.7725,-29
1602587608.7745,-24
1602587608.7765,-26
1602587608.7785,-24
1602587608.7805,-19
1602587608.7826,-24
1602587608.7845,-24
1602587608.7865,-16
1602587608.7885,-16
1602587608.7905,-24
1602587608.7912,-21
1602587608.7926,-16
1602587608.7945,-19
1602587608.7965,-19
1602587608.7985,-14
1602587608.8005,-12
1602587608.8026,-12
1602587608.8045,-12
1602587608.8065,-12
1602587608.8085,-12
1602587608.8105,-7
1602587608.8126,7
1602587608.8146,19
1602587608.8165,24
1602587608.8185,12
1602587608.8205,0
1602587608.8212,-2
1602587608.8226,7
1602587608.8245,4
1602587608.8265,-2
1602587608.8285,-12
1602587608.8305,-14
1602587608.8326,-12
1602587608.8345,-9
1602587608.8365,-9
1602587608.8386,-7
1602587608.8405,0
1602587608.8425,-4
1602587609.2755,41
1602587609.2761,244
1602587609.2787,506
1602587609.2811,407
1602587609.2832,-179
1602587609.2851,-518
1602587609.2871,-242
1602587609.2891,-24
1602587609.2912,-72
1602587609.2932,-29
1602587609.2952,21
1602587609.2971,-21
1602587609.2991,-26
1602587609.3011,7
1602587609.3032,0
1602587609.3051,-2
1602587609.3071,9
1602587609.3078,7
1602587609.3091,2
1602587609.3111,16
1602587609.3131,24
1602587609.3143,21
1602587609.3161,26
1602587609.3181,31
1602587609.3201,33
1602587609.3221,38
1602587609.3241,43
1602587609.3261,46
1602587609.3281,55
1602587609.3301,65
1602587609.3321,65
1602587609.3341,65
1602587609.3347,82
1602587609.3361,92
1602587609.3382,87
1602587609.3401,84
1602587609.3421,89
1602587609.3441,94
1602587609.3461,94
1602587609.3481,87
1602587609.3501,82
1602587609.3521,77
1602587609.3541,70
1602587609.3561,58
1602587609.3581,48
1602587609.3601,31
1602587609.3621,14
1602587609.3641,2
1602587609.3647,-4
1602587609.3661,-14
1602587609.3681,-31
1602587609.3701,-46
1602587609.3721,-46
1602587609.3742,-43
1602587609.3762,-50
1602587609.3781,-48
1602587609.3801,-36
1602587609.3821,-31
1602587609.3841,-31
1602587609.3861,-24
1602587609.3881,-19
1602587609.3901,-21
1602587609.3921,-19
1602587609.3941,-14
1602587609.3947,-14
1602587609.3961,-21
1602587609.3981,-21
1602587609.4001,-16
1602587609.4021,-19
1602587609.4041,-19
1602587609.4061,-19
1602587609.4081,-24
1602587609.4101,-31
1602587609.8152,-31
1602587609.8159,-26
1602587609.8176,-26
1602587609.8196,-31
1602587609.8216,-29
1602587609.8235,-26
1602587609.8241,-26
1602587609.8255,-31
1602587609.8275,-43
1602587609.8295,-46
1602587609.8315,-43
1602587609.8336,-50
1602587609.8355,-48
1602587609.8375,-36
1602587609.8396,-36
1602587609.8415,-43
1602587609.8435,-41
1602587609.8455,-33
1602587609.8475,-33
1602587609.8495,-33
1602587609.8515,-29
1602587609.8535,-31
1602587609.8541,-31
1602587609.8555,-24
1602587609.8575,-21
1602587609.8595,-24
1602587609.8615,-19
1602587609.8635,-21
1602587609.8655,-24
1602587609.8675,-21
1602587609.8695,-24
1602587609.8717,-24
1602587609.8735,-19
1602587609.8755,-16
1602587609.8775,-9
1602587609.8795,0
1602587609.8815,0
1602587609.8835,12
1602587609.8841,33
1602587609.8855,24
1602587609.8875,2
1602587609.8895,4
1602587609.8915,12
1602587609.8934,-2
1602587609.8954,-9
1602587609.8974,-12
1602587609.8995,-21
1602587609.9015,-19
1602587609.9035,-9
1602587609.9055,-7
1602587609.9075,-9
1602587609.9094,-9
1602587609.9115,-9
1602587609.9135,41
1602587609.9141,227
1602587609.9155,480
1602587609.9175,414
1602587609.9194,-140
1602587609.9214,-511
1602587609.9235,-261
1602587609.9255,-12
1602587609.9275,-46
1602587609.9295,-26
1602587609.9314,31
1602587609.9335,12
1602587609.9355,7
1602587609.9375,29
1602587609.9395,26
1602587609.9415,24
1602587609.9434,36
1602587609.9441,31
1602587609.9455,24
1602587609.9475,33
1602587610.3852,46
1602587610.3860,48
1602587610.3884,48
1602587610.3911,50
1602587610.3932,53
1602587610.3951,50
1602587610.3972,53
1602587610.3991,60
1602587610.4011,63
1602587610.4033,60
1602587610.4051,70
1602587610.4056,80
1602587610.4071,77
1602587610.4090,87
1602587610.4111,97
1602587610.4130,97
1602587610.4151,99
1602587610.4170,106
1602587610.4190,104
1602587610.4211,92
1602587610.4230,82
1602587610.4250,84
1602587610.4271,84
1602587610.4290,72
1602587610.4310,53
1602587610.4331,38
1602587610.4350,26
1602587610.4356,16
1602587610.4370,7
1602587610.4390,-7
1602587610.4410,-19
1602587610.4431,-26
1602587610.4450,-33
1602587610.4470,-33
1602587610.4490,-31
1602587610.4510,-36
1602587610.4531,-33
1602587610.4550,-29
1602587610.4570,-21
1602587610.4590,-16
1602587610.4610,-19
1602587610.4630,-21
1602587610.4650,-14
1602587610.4656,-12
1602587610.4670,-19
1602587610.4690,-12
1602587610.4710,-4
1602587610.4730,-14
1602587610.4750,-16
1602587610.4770,-9
1602587610.4790,-16
1602587610.4810,-26
1602587610.4830,-21
1602587610.4850,-19
1602587610.4870,-21
1602587610.4890,-19
1602587610.4910,-21
1602587610.4931,-21
1602587610.4950,-24
1602587610.4956,-24
1602587610.4971,-26
1602587610.4990,-31
1602587610.5010,-24
1602587610.5031,-24
1602587610.5050,-29
1602587610.5070,-26
1602587610.5090,-19
1602587610.5110,-21
1602587610.5130,-21
1602587610.5150,-19
1602587610.5170,-19
1602587610.5190,-19
1602587610.5210,-19
1602587610.9852,-16
1602587610.9861,-14
1602587610.9885,-14
1602587610.9911,-14
1602587610.9933,-9
1602587610.9952,-7
1602587610.9973,-12
1602587610.9992,-24
1602587611.0012,-26
1602587611.0032,-21
1602587611.0051,-16
1602587611.0071,-14
1602587611.0092,-14
1602587611.0111,-14
1602587611.0131,-14
1602587611.0151,-12
1602587611.0171,-2
1602587611.0177,2
1602587611.0191,4
1602587611.0211,21
1602587611.0231,33
1602587611.0251,16
1602587611.0270,7
1602587611.0291,24
1602587611.0311,19
1602587611.0331,2
1602587611.0351,-2
1602587611.0370,-4
1602587611.0391,-9
1602587611.0411,-9
1602587611.0431,-14
1602587611.0451,-9
1602587611.0471,2
1602587611.0477,-2
1602587611.0491,2
1602587611.0511,106
1602587611.0531,351
1602587611.0550,514
1602587611.0573,196
1602587611.0591,-383
1602587611.0611,-441
1602587611.0631,-106
1602587611.0651,-19
1602587611.0670,-50
1602587611.0691,19
1602587611.0710,31
1602587611.0731,2
1602587611.0750,21
1602587611.0770,36
1602587611.0776,24
1602587611.0791,26
1602587611.0810,36
1602587611.0831,38
1602587611.0850,38
1602587611.0870,43
1602587611.0890,50
1602587611.0911,50
1602587611.0931,50
1602587611.0951,55
1602587611.0971,65
1602587611.0990,70
1602587611.1011,65
1602587611.1031,67
1602587611.1051,72
1602587611.1071,77
1602587611.1076,87
1602587611.1090,97
1602587611.1110,104
1602587611.1131,104
1602587611.1150,104
1602587611.1171,106
1602587611.1190,104
1602587611.1211,104
