Time,ECG
1602674605.9660,1277
1602674605.9678,4455
1602674605.9692,7107
1602674605.9706,8477
1602674605.9715,9723
1602674605.9724,10971
1602674605.9734,11762
1602674605.9743,12399
1602674605.9753,13069
1602674605.9764,13597
1602674605.9775,13969
1602674605.9787,14300
1602674605.9798,14594
1602674605.9805,14825
1602674605.9812,15032
1602674605.9819,15215
1602674605.9825,15341
1602674605.9832,15424
1602674605.9839,15512
1602674605.9846,15609
1602674605.9853,15675
1602674605.9860,15692
1602674605.9866,15699
1602674605.9872,15735
1602674605.9879,15765
1602674605.9884,15748
1602674605.9889,15726
1602674605.9894,15723
1602674605.9899,15692
1602674605.9904,15609
1602674605.9910,15531
1602674605.9915,15460
1602674605.9920,15361
1602674605.9925,15249
1602674605.9930,15144
1602674605.9935,15049
1602674605.9940,14969
1602674605.9945,14923
1602674605.9950,14862
1602674605.9955,14743
1602674605.9960,14631
1602674605.9965,14577
1602674605.9969,14514
1602674605.9973,14414
1602674605.9977,14324
1602674605.9981,14251
1602674605.9986,14173
1602674605.9990,14086
1602674605.9994,14005
1602674605.9998,13923
1602674606.0011,13813
1602674606.0016,13706
1602674606.0022,13628
1602674606.0026,13553
1602674606.0030,13460
1602674606.0034,13356
1602674606.0038,13256
1602674606.0042,13171
1602674606.0048,13081
1602674606.0052,12974
1602674606.0056,12879
1602674606.0059,12796
1602674606.0063,12708
1602674606.0066,12604
1602674606.0069,12494
1602674606.0073,12407
1602674606.0076,12329
1602674606.0079,12234
1602674606.0083,12127
1602674606.0086,12025
1602674606.0089,11959
1602674606.0091,11884
1602674606.0093,11762
1602674606.5340,11677
1602674606.5359,11604
1602674606.5374,11492
1602674606.5388,11392
1602674606.5402,11319
1602674606.5412,11231
1602674606.5421,11122
1602674606.5430,11034
1602674606.5440,10978
1602674606.5449,10896
1602674606.5458,10767
1602674606.5467,10667
1602674606.5477,10599
1602674606.5486,10526
1602674606.5494,10443
1602674606.5501,10341
1602674606.5508,10253
1602674606.5514,10183
1602674606.5521,10098
1602674606.5528,10000
1602674606.5534,9918
1602674606.5541,9845
1602674606.5547,9769
1602674606.5554,9679
1602674606.5560,9596
1602674606.5566,9548
1602674606.5573,9482
1602674606.5579,9370
1602674606.5587,9268
1602674606.5594,9205
1602674606.5600,9122
1602674606.5606,9017
1602674606.5612,8939
1602674606.5617,8876
1602674606.5622,8788
1602674606.5627,8708
1602674606.5632,8647
1602674606.5637,8567
1602674606.5643,8509
1602674606.5648,8599
1602674606.5653,8793
1602674606.5658,8898
1602674606.5663,8737
1602674606.5668,8241
1602674606.5672,7793
1602674606.5676,7813
1602674606.5681,7927
1602674606.5685,7808
1602674606.5689,7706
1602674606.5694,7689
1602674606.5698,7625
1602674606.5702,7543
1602674606.5707,7492
1602674606.5713,7438
1602674606.5716,7370
1602674606.5719,7316
1602674606.5723,7253
1602674606.5726,7180
1602674606.5729,7124
1602674606.5733,7071
1602674606.5736,7024
1602674606.5739,6978
1602674606.5743,6903
1602674606.5746,6827
1602674606.5749,6788
1602674606.5752,6745
1602674606.5755,6681
1602674606.5757,6630
1602674606.5759,6591
1602674606.5761,6550
1602674606.5763,6511
1602674606.5765,6465
1602674606.5767,6414
1602674607.0751,6367
1602674607.0770,6311
1602674607.0784,6236
1602674607.0798,6148
1602674607.0811,6051
1602674607.0825,5942
1602674607.0838,5842
1602674607.0850,5774
1602674607.0860,5720
1602674607.0869,5664
1602674607.0878,5596
1602674607.0888,5523
1602674607.0897,5499
1602674607.0906,5484
1602674607.0915,5409
1602674607.0921,5341
1602674607.0928,5319
1602674607.0934,5275
1602674607.0941,5216
1602674607.0947,5175
1602674607.0954,5124
1602674607.0960,5063
1602674607.0967,5029
1602674607.0973,5005
1602674607.0979,4946
1602674607.0986,4883
1602674607.0992,4844
1602674607.0999,4810
1602674607.1005,4781
1602674607.1011,4742
1602674607.1018,4679
1602674607.1023,4630
1602674607.1029,4603
1602674607.1034,4564
1602674607.1039,4516
1602674607.1044,4474
1602674607.1049,4440
1602674607.1054,4406
1602674607.1060,4362
1602674607.1065,4326
1602674607.1070,4292
1602674607.1075,4248
1602674607.1080,4209
1602674607.1085,4170
1602674607.1089,4131
1602674607.1095,4097
1602674607.1100,4063
1602674607.1104,4024
1602674607.1108,3988
1602674607.1113,3956
1602674607.1118,3917
1602674607.1123,3881
1602674607.1128,3846
1602674607.1132,3815
1602674607.1135,3778
1602674607.1138,3732
1602674607.1142,3701
1602674607.1146,3688
1602674607.1150,3654
1602674607.1153,3606
1602674607.1157,3584
1602674607.1160,3559
1602674607.1163,3506
1602674607.1166,3472
1602674607.1169,3467
1602674607.1171,3433
1602674607.1173,3377
1602674607.1175,3355
1602674607.1177,3340
1602674607.1180,3301
1602674607.1182,3265
1602674607.1184,3248
1602674607.1186,3221
1602674607.6444,3185
1602674607.6461,3155
1602674607.6475,3141
1602674607.6489,3129
1602674607.6503,3107
1602674607.6516,3070
1602674607.6526,3019
1602674607.6536,2978
1602674607.6546,2956
1602674607.6555,2922
1602674607.6565,2885
1602674607.6575,2876
1602674607.6584,2849
1602674607.6593,2803
1602674607.6602,2781
1602674607.6609,2771
1602674607.6616,2756
1602674607.6623,2783
1602674607.6630,2944
1602674607.6636,3177
1602674607.6643,3272
1602674607.6650,3022
1602674607.6656,2515
1602674607.6663,2299
1602674607.6670,2472
1602674607.6676,2530
1602674607.6683,2440
1602674607.6691,2430
1602674607.6697,2430
1602674607.6702,2413
1602674607.6707,2425
1602674607.6712,2406
1602674607.6718,2355
1602674607.6723,2352
1602674607.6728,2365
1602674607.6734,2328
1602674607.6739,2297
1602674607.6745,2306
1602674607.6749,2294
1602674607.6754,2255
1602674607.6758,2245
1602674607.6763,2248
1602674607.6767,2228
1602674607.6771,2209
1602674607.6777,2209
1602674607.6780,2192
1602674607.6783,2170
1602674607.6787,2175
1602674607.6790,2182
1602674607.6794,2172
1602674607.6797,2163
1602674607.6800,2165
1602674607.6804,2153
1602674607.6807,2126
1602674607.6811,2087
1602674607.6814,2036
1602674607.6817,1978
1602674607.6819,1924
1602674607.6821,1878
1602674607.6824,1837
1602674607.6826,1805
1602674607.6828,1788
1602674607.6830,1761
1602674607.6832,1734
1602674607.6835,1730
1602674607.6837,1732
1602674607.6839,1715
1602674607.6841,1691
1602674607.6843,1676
1602674607.6846,1671
1602674607.6848,1671
1602674607.6850,1657
1602674607.6852,1644
1602674608.1847,1640
1602674608.1865,1615
1602674608.1880,1593
1602674608.1894,1601
1602674608.1908,1593
1602674608.1921,1564
1602674608.1931,1559
1602674608.1940,1552
1602674608.1950,1518
1602674608.1959,1501
1602674608.1970,1496
1602674608.1981,1481
1602674608.1992,1467
1602674608.2005,1450
1602674608.2015,1445
1602674608.2023,1455
1602674608.2031,1445
1602674608.2038,1411
1602674608.2044,1396
1602674608.2051,1418
1602674608.2058,1421
1602674608.2066,1389
1602674608.2075,1377
1602674608.2082,1384
1602674608.2089,1374
1602674608.2097,1352
1602674608.2102,1343
1602674608.2108,1333
1602674608.2113,1323
1602674608.2118,1313
1602674608.2123,1306
1602674608.2128,1296
1602674608.2134,1284
1602674608.2140,1270
1602674608.2145,1260
1602674608.2149,1250
1602674608.2154,1240
1602674608.2158,1231
1602674608.2163,1236
1602674608.2167,1231
1602674608.2171,1197
1602674608.2176,1185
1602674608.2182,1206
1602674608.2185,1206
1602674608.2189,1180
1602674608.2193,1163
1602674608.2196,1153
1602674608.2199,1133
1602674608.2203,1138
1602674608.2206,1155
1602674608.2210,1133
1602674608.2213,1114
1602674608.2217,1121
1602674608.2220,1107
1602674608.2223,1075
1602674608.2225,1085
1602674608.2227,1102
1602674608.2230,1090
1602674608.2232,1068
1602674608.2234,1053
1602674608.2236,1053
1602674608.2238,1068
1602674608.2241,1065
1602674608.2243,1048
1602674608.2246,1039
1602674608.2248,1034
1602674608.2250,1009
1602674608.2252,975
1602674608.2254,970
1602674608.2257,985
1602674608.2259,975
1602674608.2261,963
1602674608.2263,963
1602674608.7544,941
1602674608.7561,905
1602674608.7576,917
1602674608.7585,987
1602674608.7595,1129
1602674608.7605,1365
1602674608.7614,1542
1602674608.7624,1369
1602674608.7633,854
1602674608.7643,583
1602674608.7653,759
1602674608.7663,861
1602674608.7673,790
1602674608.7681,810
1602674608.7688,832
1602674608.7697,807
1602674608.7707,824
1602674608.7719,827
1602674608.7729,802
1602674608.7737,807
1602674608.7744,824
1602674608.7751,812
1602674608.7760,802
1602674608.7766,810
1602674608.7771,810
1602674608.7777,805
1602674608.7783,807
1602674608.7789,812
1602674608.7794,820
1602674608.7799,820
1602674608.7804,812
1602674608.7808,817
1602674608.7812,846
1602674608.7817,861
1602674608.7821,851
1602674608.7825,868
1602674608.7829,890
1602674608.7834,868
1602674608.7838,863
1602674608.7842,868
1602674608.7847,837
1602674608.7849,795
1602674608.7853,759
1602674608.7856,708
1602674608.7858,661
1602674608.7861,639
1602674608.7863,625
1602674608.7865,601
1602674608.7867,583
1602674608.7870,598
1602674608.7872,613
1602674608.7874,603
1602674608.7876,598
1602674608.7879,605
1602674608.7881,613
1602674608.7883,608
1602674608.7885,601
1602674608.7887,596
1602674608.7889,588
1602674608.7890,591
1602674608.7892,593
1602674608.7894,601
1602674608.7895,615
1602674608.7897,613
1602674608.7899,596
1602674608.7900,576
1602674608.7902,564
1602674608.7904,566
1602674608.7905,583
1602674608.7907,596
1602674608.7909,583
1602674608.7910,564
1602674608.7912,557
1602674609.3545,562
1602674609.3562,562
1602674609.3577,557
1602674609.3592,562
1602674609.3607,571
1602674609.3617,559
1602674609.3627,540
1602674609.3636,545
1602674609.3646,569
1602674609.3655,562
1602674609.3665,528
1602674609.3675,525
1602674609.3686,537
1602674609.3697,540
1602674609.3705,542
1602674609.3712,532
1602674609.3719,515
1602674609.3726,515
1602674609.3733,513
1602674609.3740,523
1602674609.3747,547
1602674609.3754,542
1602674609.3760,523
1602674609.3766,520
1602674609.3771,520
1602674609.3777,506
1602674609.3782,496
1602674609.3787,508
1602674609.3791,510
1602674609.3795,498
1602674609.3799,493
1602674609.3804,503
1602674609.3808,513
1602674609.3812,513
1602674609.3816,510
1602674609.3820,498
1602674609.3825,489
1602674609.3829,496
1602674609.3831,489
1602674609.3834,484
1602674609.3836,503
1602674609.3838,498
1602674609.3840,476
1602674609.3842,481
1602674609.3845,501
1602674609.3847,501
1602674609.3849,503
1602674609.3851,515
1602674609.3854,498
1602674609.3856,459
1602674609.3858,455
1602674609.3861,462
1602674609.3863,450
1602674609.3865,440
1602674609.3867,437
1602674609.3869,437
1602674609.3871,450
1602674609.3872,452
1602674609.3874,442
1602674609.3876,476
1602674609.3877,610
1602674609.3879,839
1602674609.3881,1043
1602674609.3882,992
1602674609.3884,540
1602674609.3886,121
1602674609.3887,218
1602674609.3889,430
1602674609.3891,374
1602674609.3892,326
1602674609.3894,396
1602674609.3896,413
1602674609.3898,374
1602674609.8945,394
1602674609.8965,423
1602674609.8980,408
1602674609.8995,401
1602674609.9009,411
1602674609.9020,416
1602674609.9034,418
1602674609.9046,416
1602674609.9059,411
1602674609.9069,430
1602674609.9080,445
1602674609.9090,437
1602674609.9101,442
1602674609.9108,452
1602674609.9115,447
1602674609.9122,457
1602674609.9128,474
1602674609.9135,479
1602674609.9142,486
1602674609.9147,508
1602674609.9153,532
1602674609.9158,540
1602674609.9164,535
1602674609.9169,535
1602674609.9174,510
1602674609.9179,445
1602674609.9185,394
1602674609.9190,372
1602674609.9194,335
1602674609.9198,299
1602674609.9201,289
1602674609.9205,287
1602674609.9208,294
1602674609.9212,306
1602674609.9215,306
1602674609.9219,304
1602674609.9222,313
1602674609.9226,321
1602674609.9229,309
1602674609.9231,306
1602674609.9233,321
1602674609.9235,328
1602674609.9238,330
1602674609.9240,328
1602674609.9242,323
1602674609.9244,333
1602674609.9247,338
1602674609.9249,318
1602674609.9251,316
1602674609.9255,343
1602674609.9257,338
1602674609.9259,304
1602674609.9262,316
1602674609.9264,343
1602674609.9266,323
1602674609.9268,304
1602674609.9270,330
1602674609.9272,340
1602674609.9274,311
1602674609.9275,313
1602674609.9277,343
1602674609.9279,335
1602674609.9280,311
1602674609.9282,311
1602674609.9284,318
1602674609.9285,313
1602674609.9287,309
1602674609.9289,316
1602674609.9290,321
1602674609.9292,333
1602674609.9294,333
1602674609.9295,316
1602674609.9297,313
1602674610.4943,318
1602674610.4955,316
1602674610.4965,316
1602674610.4975,316
1602674610.4985,316
1602674610.4995,313
1602674610.5004,304
1602674610.5014,304
1602674610.5025,309
1602674610.5032,306
1602674610.5040,301
1602674610.5049,309
1602674610.5056,316
1602674610.5063,309
1602674610.5070,301
1602674610.5076,309
1602674610.5082,301
1602674610.5088,284
1602674610.5093,318
1602674610.5099,362
1602674610.5104,345
1602674610.5110,318
1602674610.5113,309
1602674610.5117,294
1602674610.5121,304
1602674610.5124,306
1602674610.5128,282
1602674610.5132,272
1602674610.5136,291
1602674610.5140,301
1602674610.5143,294
1602674610.5147,282
1602674610.5150,289
1602674610.5152,374
1602674610.5155,586
1602674610.5157,849
1602674610.5159,919
1602674610.5161,571
1602674610.5164,72
1602674610.5166,21
1602674610.5168,248
1602674610.5170,243
1602674610.5173,180
1602674610.5175,240
1602674610.5177,257
1602674610.5180,226
1602674610.5182,236
1602674610.5184,250
1602674610.5186,231
1602674610.5189,226
1602674610.5191,270
1602674610.5193,291
1602674610.5194,257
1602674610.5196,238
1602674610.5198,265
1602674610.5200,287
1602674610.5201,287
1602674610.5203,289
1602674610.5205,296
1602674610.5206,296
1602674610.5208,309
1602674610.5210,321
1602674610.5212,318
1602674610.5213,330
1602674610.5215,360
1602674610.5217,367
1602674610.5219,364
1602674610.5220,374
1602674610.5222,386
1602674610.5224,401
1602674610.5225,386
1602674610.5227,333
1602674610.5229,277
1602674611.0042,238
1602674611.0062,206
1602674611.0078,184
1602674611.0092,172
1602674611.0107,170
1602674611.0121,165
1602674611.0131,165
1602674611.0142,177
1602674611.0154,187
1602674611.0164,187
1602674611.0175,182
1602674611.0186,187
1602674611.0196,189
1602674611.0204,175
1602674611.0211,163
1602674611.0218,199
1602674611.0225,221
1602674611.0232,201
1602674611.0239,201
1602674611.0244,221
1602674611.0248,236
1602674611.0253,238
1602674611.0257,223
1602674611.0262,209
1602674611.0266,214
1602674611.0271,216
1602674611.0275,211
1602674611.0280,221
1602674611.0284,231
1602674611.0287,218
1602674611.0289,209
1602674611.0291,228
1602674611.0294,236
1602674611.0296,211
1602674611.0298,216
1602674611.0301,240
1602674611.0303,226
1602674611.0305,209
1602674611.0307,216
1602674611.0310,223
1602674611.0312,231
1602674611.0314,236
1602674611.0316,226
1602674611.0319,226
1602674611.0321,238
1602674611.0323,231
1602674611.0325,223
1602674611.0327,228
1602674611.0328,236
1602674611.0330,231
1602674611.0332,218
1602674611.0334,218
1602674611.0335,231
1602674611.0337,221
1602674611.0339,221
1602674611.0341,257
1602674611.0343,257
1602674611.0344,216
1602674611.0346,218
1602674611.0348,240
1602674611.0349,233
1602674611.0351,218
1602674611.0353,221
1602674611.0355,221
1602674611.0356,214
1602674611.0358,236
1602674611.0360,274
1602674611.0362,277
1602674611.0363,257
1602674611.0365,243
1602674611.0367,238
1602674611.0368,231
1602674611.0370,214
1602674611.5443,211
1602674611.5461,221
1602674611.5476,216
1602674611.5490,216
1602674611.5504,236
1602674611.5514,233
1602674611.5524,211
1602674611.5534,238
1602674611.5545,389
1602674611.5554,639
1602674611.5564,832
1602674611.5574,732
1602674611.5584,248
1602674611.5594,-111
1602674611.5601,65
1602674611.5608,243
1602674611.5615,141
1602674611.5622,107
1602674611.5629,160
1602674611.5637,167
1602674611.5642,182
1602674611.5646,206
1602674611.5651,199
1602674611.5655,184
1602674611.5660,184
1602674611.5664,189
1602674611.5669,197
1602674611.5673,218
1602674611.5678,218
1602674611.5682,194
1602674611.5684,192
1602674611.5687,218
1602674611.5689,245
1602674611.5691,245
1602674611.5694,240
1602674611.5696,248
1602674611.5699,253
1602674611.5701,265
1602674611.5704,282
1602674611.5706,296
1602674611.5708,301
1602674611.5710,306
1602674611.5713,323
1602674611.5715,335
1602674611.5717,318
1602674611.5720,287
1602674611.5722,250
1602674611.5724,209
1602674611.5725,172
1602674611.5727,143
1602674611.5729,124
1602674611.5731,116
1602674611.5732,119
1602674611.5734,119
1602674611.5736,114
1602674611.5737,111
1602674611.5739,133
1602674611.5741,158
1602674611.5742,155
1602674611.5744,148
1602674611.5746,160
1602674611.5748,165
1602674611.5749,158
1602674611.5751,165
1602674611.5753,177
1602674611.5754,172
1602674611.5756,158
1602674611.5759,158
1602674611.5760,182
1602674611.5762,199
1602674611.5763,189
1602674611.5765,177
1602674611.5766,180
1602674612.1135,187
1602674612.1151,187
1602674612.1165,175
1602674612.1179,170
1602674612.1192,180
1602674612.1204,182
1602674612.1214,175
1602674612.1223,175
1602674612.1233,182
1602674612.1244,177
1602674612.1253,175
1602674612.1264,175
1602674612.1277,182
1602674612.1287,201
1602674612.1295,204
1602674612.1301,184
1602674612.1309,180
1602674612.1315,189
1602674612.1322,197
1602674612.1328,209
1602674612.1335,206
1602674612.1341,192
1602674612.1348,192
1602674612.1354,197
1602674612.1361,187
1602674612.1368,187
1602674612.1374,201
1602674612.1380,194
1602674612.1385,187
1602674612.1390,192
1602674612.1395,211
1602674612.1400,223
1602674612.1405,211
1602674612.1410,197
1602674612.1416,206
1602674612.1421,211
1602674612.1426,206
1602674612.1431,209
1602674612.1436,221
1602674612.1441,226
1602674612.1446,209
1602674612.1451,194
1602674612.1456,226
1602674612.1460,253
1602674612.1464,218
1602674612.1468,172
1602674612.1473,184
1602674612.1477,206
1602674612.1481,204
1602674612.1486,197
1602674612.1490,192
1602674612.1494,180
1602674612.1498,172
1602674612.1502,240
1602674612.1506,416
1602674612.1510,644
1602674612.1514,793
1602674612.1518,649
1602674612.1522,184
1602674612.1526,-85
1602674612.1530,97
1602674612.1534,214
1602674612.1539,104
1602674612.1544,94
1602674612.1547,160
1602674612.1550,145
1602674612.1554,126
1602674612.1557,172
1602674612.1560,206
1602674612.1564,172
1602674612.1567,136
1602674612.1570,158
1602674612.1574,184
1602674612.7144,177
1602674612.7160,177
1602674612.7175,199
1602674612.7192,206
1602674612.7208,199
1602674612.7219,194
1602674612.7229,204
1602674612.7238,221
1602674612.7247,228
1602674612.7256,233
1602674612.7266,240
1602674612.7275,248
1602674612.7284,265
1602674612.7294,284
1602674612.7302,291
1602674612.7308,299
1602674612.7315,294
1602674612.7322,257
1602674612.7328,221
1602674612.7335,199
1602674612.7341,158
1602674612.7348,109
1602674612.7355,87
1602674612.7361,85
1602674612.7368,85
1602674612.7376,77
1602674612.7382,58
1602674612.7388,53
1602674612.7393,85
1602674612.7398,94
1602674612.7403,82
1602674612.7409,99
1602674612.7415,116
1602674612.7420,107
1602674612.7425,107
1602674612.7431,104
1602674612.7436,104
1602674612.7441,128
1602674612.7446,143
1602674612.7451,128
1602674612.7456,119
1602674612.7463,128
1602674612.7469,133
1602674612.7474,133
1602674612.7478,128
1602674612.7483,136
1602674612.7487,141
1602674612.7491,128
1602674612.7495,121
1602674612.7499,124
1602674612.7503,126
1602674612.7508,141
1602674612.7512,155
1602674612.7516,148
1602674612.7520,138
1602674612.7524,155
1602674612.7528,155
1602674612.7533,133
1602674612.7537,136
1602674612.7542,153
1602674612.7546,150
1602674612.7550,133
1602674612.7555,128
1602674612.7558,145
1602674612.7562,163
1602674612.7565,155
1602674612.7568,155
1602674612.7572,158
1602674612.7575,141
1602674612.7578,138
1602674612.7582,150
1602674612.7585,153
1602674612.7588,167
1602674613.2541,180
1602674613.2560,163
1602674613.2575,145
1602674613.2588,145
1602674613.2598,143
1602674613.2607,153
1602674613.2616,170
1602674613.2625,189
1602674613.2634,189
1602674613.2644,163
1602674613.2654,126
1602674613.2663,124
1602674613.2672,148
1602674613.2681,143
1602674613.2688,124
1602674613.2695,133
1602674613.2701,153
1602674613.2708,158
1602674613.2715,148
1602674613.2724,131
1602674613.2732,143
1602674613.2740,270
1602674613.2748,530
1602674613.2755,751
1602674613.2761,729
1602674613.2768,328
1602674613.2773,-124
1602674613.2779,-97
1602674613.2784,131
1602674613.2789,121
1602674613.2794,75
1602674613.2799,116
1602674613.2804,114
1602674613.2809,107
1602674613.2814,141
1602674613.2820,153
1602674613.2825,141
1602674613.2830,145
1602674613.2835,158
1602674613.2840,165
1602674613.2845,167
1602674613.2850,167
1602674613.2854,172
1602674613.2858,177
1602674613.2863,184
1602674613.2867,192
1602674613.2871,184
1602674613.2876,192
1602674613.2880,218
1602674613.2884,228
1602674613.2888,221
1602674613.2893,231
1602674613.2897,248
1602674613.2902,262
1602674613.2905,272
1602674613.2909,274
1602674613.2912,284
1602674613.2916,294
1602674613.2919,265
1602674613.2923,204
1602674613.2926,155
1602674613.2929,128
1602674613.2933,97
1602674613.2936,68
1602674613.2939,63
1602674613.2941,75
1602674613.2944,80
1602674613.2946,75
1602674613.2948,85
1602674613.2950,82
1602674613.2953,65
1602674613.2955,72
1602674613.2957,82
1602674613.8243,75
1602674613.8260,77
1602674613.8274,82
1602674613.8288,85
1602674613.8302,90
1602674613.8311,97
1602674613.8321,104
1602674613.8331,104
1602674613.8340,94
1602674613.8349,92
1602674613.8359,92
1602674613.8368,87
1602674613.8380,90
1602674613.8391,92
1602674613.8398,92
1602674613.8405,99
1602674613.8412,109
1602674613.8418,109
1602674613.8425,107
1602674613.8432,104
1602674613.8438,104
1602674613.8445,111
1602674613.8452,116
1602674613.8458,114
1602674613.8465,121
1602674613.8472,131
1602674613.8478,121
1602674613.8484,121
1602674613.8489,138
1602674613.8494,136
1602674613.8500,124
1602674613.8505,126
1602674613.8510,136
1602674613.8515,150
1602674613.8520,148
1602674613.8525,133
1602674613.8529,133
1602674613.8533,138
1602674613.8538,145
1602674613.8543,153
1602674613.8548,150
1602674613.8555,138
1602674613.8562,133
1602674613.8568,141
1602674613.8572,158
1602674613.8575,175
1602674613.8579,170
1602674613.8582,160
1602674613.8587,165
1602674613.8591,163
1602674613.8594,141
1602674613.8598,128
1602674613.8601,138
1602674613.8605,145
1602674613.8607,143
1602674613.8609,145
1602674613.8612,148
1602674613.8614,150
1602674613.8616,150
1602674613.8618,187
1602674613.8620,360
1602674613.8623,635
1602674613.8625,793
1602674613.8627,601
1602674613.8629,92
1602674613.8631,-187
1602674613.8633,7
1602674613.8636,158
1602674613.8638,82
1602674613.8640,80
1602674613.8642,121
1602674613.8644,111
1602674613.8647,111
1602674614.3634,119
1602674614.3651,116
1602674614.3666,131
1602674614.3680,143
1602674614.3694,148
1602674614.3708,158
1602674614.3718,158
1602674614.3728,150
1602674614.3738,153
1602674614.3747,165
1602674614.3756,172
1602674614.3766,175
1602674614.3776,194
1602674614.3785,211
1602674614.3794,204
1602674614.3803,204
1602674614.3810,233
1602674614.3817,260
1602674614.3825,253
1602674614.3833,262
1602674614.3840,296
1602674614.3847,296
1602674614.3854,279
1602674614.3861,262
1602674614.3868,226
1602674614.3875,184
1602674614.3886,145
1602674614.3893,107
1602674614.3899,77
1602674614.3905,65
1602674614.3910,63
1602674614.3915,63
1602674614.3920,58
1602674614.3925,60
1602674614.3930,68
1602674614.3935,77
1602674614.3939,92
1602674614.3944,87
1602674614.3948,77
1602674614.3952,97
1602674614.3956,124
1602674614.3961,111
1602674614.3965,94
1602674614.3969,109
1602674614.3974,119
1602674614.3978,111
1602674614.3980,104
1602674614.3983,94
1602674614.3985,87
1602674614.3987,99
1602674614.3989,114
1602674614.3992,107
1602674614.3994,104
1602674614.3996,99
1602674614.3998,102
1602674614.4000,104
1602674614.4003,87
1602674614.4005,85
1602674614.4007,119
1602674614.4009,124
1602674614.4011,92
1602674614.4014,90
1602674614.4016,116
1602674614.4018,126
1602674614.4020,111
1602674614.4022,102
1602674614.4025,104
1602674614.4027,104
1602674614.4029,111
1602674614.4031,119
1602674614.4033,111
1602674614.4036,116
1602674614.4038,133
1602674614.9347,124
1602674614.9365,121
1602674614.9380,133
1602674614.9395,131
1602674614.9415,119
1602674614.9428,104
1602674614.9439,99
1602674614.9449,116
1602674614.9459,133
1602674614.9468,136
1602674614.9478,138
1602674614.9488,136
1602674614.9498,121
1602674614.9507,121
1602674614.9517,128
1602674614.9526,133
1602674614.9533,138
1602674614.9541,145
1602674614.9548,153
1602674614.9555,158
1602674614.9562,165
1602674614.9569,153
1602674614.9576,128
1602674614.9583,119
1602674614.9591,121
1602674614.9598,119
1602674614.9604,116
1602674614.9610,124
1602674614.9616,131
1602674614.9621,128
1602674614.9626,126
1602674614.9631,141
1602674614.9637,209
1602674614.9642,389
1602674614.9647,639
1602674614.9652,761
1602674614.9656,515
1602674614.9660,14
1602674614.9665,-155
1602674614.9670,70
1602674614.9674,148
1602674614.9679,58
1602674614.9685,70
1602674614.9689,107
1602674614.9693,99
1602674614.9696,114
1602674614.9698,126
1602674614.9700,111
1602674614.9702,109
1602674614.9704,126
1602674614.9707,153
1602674614.9709,155
1602674614.9711,128
1602674614.9713,121
1602674614.9716,143
1602674614.9719,155
1602674614.9721,150
1602674614.9723,145
1602674614.9725,163
1602674614.9728,194
1602674614.9730,192
1602674614.9732,172
1602674614.9734,199
1602674614.9736,245
1602674614.9738,248
1602674614.9741,231
1602674614.9743,248
1602674614.9745,289
1602674614.9747,294
1602674614.9749,240
1602674614.9752,175
1602674614.9754,121
1602674614.9756,87
1602674615.5031,104
1602674615.5042,99
1602674615.5054,34
1602674615.5065,12
1602674615.5075,63
1602674615.5084,68
1602674615.5094,36
1602674615.5103,58
1602674615.5113,75
1602674615.5122,53
1602674615.5131,43
1602674615.5141,58
1602674615.5149,72
1602674615.5156,87
1602674615.5163,102
1602674615.5170,99
1602674615.5177,77
1602674615.5183,63
1602674615.5190,72
1602674615.5195,92
1602674615.5201,99
1602674615.5206,92
1602674615.5211,63
1602674615.5217,60
1602674615.5222,121
1602674615.5227,138
1602674615.5233,53
1602674615.5237,19
1602674615.5241,82
1602674615.5246,119
1602674615.5250,136
1602674615.5254,148
1602674615.5259,114
1602674615.5265,87
1602674615.5270,107
1602674615.5275,104
1602674615.5280,65
1602674615.5284,63
1602674615.5287,111
1602674615.5291,126
1602674615.5294,109
1602674615.5297,116
1602674615.5301,119
1602674615.5304,102
1602674615.5308,104
1602674615.5311,104
1602674615.5314,80
1602674615.5318,85
1602674615.5321,126
1602674615.5323,136
1602674615.5325,109
1602674615.5327,107
1602674615.5329,114
1602674615.5332,107
1602674615.5334,102
1602674615.5336,104
1602674615.5338,99
1602674615.5340,107
1602674615.5343,138
1602674615.5345,133
1602674615.5347,92
1602674615.5349,94
1602674615.5351,138
1602674615.5354,148
1602674615.5356,133
1602674615.5358,126
1602674615.5360,141
1602674615.5362,165
1602674615.5364,153
1602674615.5366,109
1602674615.5367,94
1602674615.5369,121
1602674615.5370,131
1602674616.0742,109
1602674616.0762,116
1602674616.0776,138
1602674616.0791,126
1602674616.0805,107
1602674616.0818,131
1602674616.0827,274
1602674616.0836,518
1602674616.0846,715
1602674616.0855,681
1602674616.0864,274
1602674616.0878,-138
1602674616.0890,-75
1602674616.0901,97
1602674616.0909,43
1602674616.0915,51
1602674616.0922,126
1602674616.0929,90
1602674616.0936,55
1602674616.0943,92
1602674616.0950,111
1602674616.0957,107
1602674616.0964,102
1602674616.0970,114
1602674616.0977,143
1602674616.0984,155
1602674616.0991,136
1602674616.0997,126
1602674616.1002,136
1602674616.1008,158
1602674616.1014,177
1602674616.1019,172
1602674616.1025,165
1602674616.1029,170
1602674616.1034,187
1602674616.1038,211
1602674616.1042,228
1602674616.1047,231
1602674616.1051,236
1602674616.1056,236
1602674616.1060,240
1602674616.1064,260
1602674616.1069,248
1602674616.1074,204
1602674616.1077,170
1602674616.1081,136
1602674616.1084,87
1602674616.1088,48
1602674616.1091,34
1602674616.1094,29
1602674616.1098,29
1602674616.1101,38
1602674616.1105,43
1602674616.1108,38
1602674616.1112,36
1602674616.1114,41
1602674616.1116,60
1602674616.1119,75
1602674616.1121,72
1602674616.1123,72
1602674616.1125,75
1602674616.1127,80
1602674616.1130,82
1602674616.1132,77
1602674616.1135,65
1602674616.1137,70
1602674616.1139,85
1602674616.1141,75
1602674616.1143,55
1602674616.1146,63
1602674616.1148,70
1602674616.1150,70
1602674616.1152,70
1602674616.6436,68
1602674616.6453,68
1602674616.6467,63
1602674616.6481,60
1602674616.6495,58
1602674616.6509,65
1602674616.6518,90
1602674616.6528,104
1602674616.6537,70
1602674616.6546,43
1602674616.6557,55
1602674616.6568,72
1602674616.6578,92
1602674616.6588,104
1602674616.6597,90
1602674616.6604,92
1602674616.6611,109
1602674616.6618,97
1602674616.6625,63
1602674616.6631,63
1602674616.6638,102
1602674616.6645,119
1602674616.6651,92
1602674616.6658,70
1602674616.6665,90
1602674616.6671,104
1602674616.6679,92
1602674616.6685,107
1602674616.6691,116
1602674616.6696,99
1602674616.6701,109
1602674616.6706,121
1602674616.6713,97
1602674616.6719,80
1602674616.6724,102
1602674616.6728,111
1602674616.6733,87
1602674616.6737,70
1602674616.6742,94
1602674616.6746,116
1602674616.6752,97
1602674616.6758,97
1602674616.6763,124
1602674616.6767,124
1602674616.6770,194
1602674616.6772,430
1602674616.6774,691
1602674616.6777,759
1602674616.6779,437
1602674616.6781,-85
1602674616.6783,-184
1602674616.6786,63
1602674616.6788,99
1602674616.6790,29
1602674616.6792,68
1602674616.6795,77
1602674616.6797,55
1602674616.6799,85
1602674616.6801,121
1602674616.6804,114
1602674616.6806,85
1602674616.6808,85
1602674616.6809,141
1602674616.6811,163
1602674616.6813,136
1602674616.6814,141
1602674616.6816,158
1602674616.6818,143
1602674616.6819,136
1602674616.6821,143
1602674616.6823,177
1602674616.6824,197
1602674616.6826,187
1602674617.1844,209
1602674617.1863,250
1602674617.1878,245
1602674617.1894,236
1602674617.1908,257
1602674617.1918,272
1602674617.1928,257
1602674617.1938,245
1602674617.1948,260
1602674617.1957,223
1602674617.1967,131
1602674617.1978,80
1602674617.1988,72
1602674617.1998,43
1602674617.2007,24
1602674617.2015,46
1602674617.2021,68
1602674617.2028,46
1602674617.2038,21
1602674617.2046,31
1602674617.2054,48
1602674617.2060,63
1602674617.2066,77
1602674617.2072,82
1602674617.2077,75
1602674617.2082,75
1602674617.2089,92
1602674617.2094,94
1602674617.2098,85
1602674617.2102,85
1602674617.2107,94
1602674617.2111,121
1602674617.2115,131
1602674617.2119,109
1602674617.2124,87
1602674617.2128,97
1602674617.2132,102
1602674617.2135,60
1602674617.2137,26
1602674617.2139,68
1602674617.2141,116
1602674617.2144,92
1602674617.2146,65
1602674617.2148,80
1602674617.2150,77
1602674617.2153,63
1602674617.2155,77
1602674617.2157,85
1602674617.2159,75
1602674617.2162,70
1602674617.2164,80
1602674617.2166,99
1602674617.2168,102
1602674617.2170,85
1602674617.2173,85
1602674617.2174,116
1602674617.2176,121
1602674617.2178,92
1602674617.2179,82
1602674617.2181,97
1602674617.2183,99
1602674617.2184,92
1602674617.2186,94
1602674617.2188,109
1602674617.2189,109
1602674617.2191,90
1602674617.2193,82
1602674617.2194,102
1602674617.2196,119
1602674617.2198,116
1602674617.2200,111
1602674617.2201,114
1602674617.2203,141
1602674617.7538,172
1602674617.7559,141
1602674617.7575,92
1602674617.7589,97
1602674617.7603,109
1602674617.7613,99
1602674617.7623,90
1602674617.7632,87
1602674617.7642,77
1602674617.7651,77
1602674617.7661,75
1602674617.7671,68
1602674617.7680,119
1602674617.7690,289
1602674617.7699,545
1602674617.7705,715
1602674617.7712,574
1602674617.7718,111
1602674617.7725,-170
1602674617.7732,-26
1602674617.7738,75
1602674617.7745,2
1602674617.7750,29
1602674617.7756,85
1602674617.7761,43
1602674617.7766,38
1602674617.7771,87
1602674617.7777,87
1602674617.7783,75
1602674617.7789,97
1602674617.7794,111
1602674617.7798,104
1602674617.7801,114
1602674617.7805,128
1602674617.7808,126
1602674617.7812,133
1602674617.7815,143
1602674617.7819,136
1602674617.7822,143
1602674617.7826,180
1602674617.7829,197
1602674617.7832,175
1602674617.7834,184
1602674617.7837,228
1602674617.7839,233
1602674617.7841,226
1602674617.7843,260
1602674617.7847,284
1602674617.7849,257
1602674617.7852,228
1602674617.7854,194
1602674617.7856,145
1602674617.7858,102
1602674617.7861,80
1602674617.7863,70
1602674617.7865,77
1602674617.7867,75
1602674617.7870,38
1602674617.7872,-2
1602674617.7874,-19
1602674617.7876,7
1602674617.7877,31
1602674617.7879,34
1602674617.7881,58
1602674617.7882,97
1602674617.7884,107
1602674617.7886,90
1602674617.7887,68
1602674617.7889,48
1602674617.7891,55
1602674617.7892,77
1602674617.7894,68
1602674617.7896,55
1602674618.2936,55
1602674618.2953,41
1602674618.2968,31
1602674618.2980,34
1602674618.2990,24
1602674618.3000,21
1602674618.3010,34
1602674618.3019,34
1602674618.3029,31
1602674618.3039,48
1602674618.3048,48
1602674618.3058,14
1602674618.3069,14
1602674618.3077,38
1602674618.3084,38
1602674618.3091,38
1602674618.3098,53
1602674618.3105,58
1602674618.3110,63
1602674618.3116,72
1602674618.3121,70
1602674618.3126,75
1602674618.3131,92
1602674618.3137,92
1602674618.3144,80
1602674618.3152,75
1602674618.3155,72
1602674618.3159,72
1602674618.3162,70
1602674618.3165,70
1602674618.3169,72
1602674618.3172,82
1602674618.3175,99
1602674618.3178,119
1602674618.3182,131
1602674618.3185,121
1602674618.3189,116
1602674618.3192,119
1602674618.3195,114
1602674618.3197,97
1602674618.3199,99
1602674618.3201,131
1602674618.3203,148
1602674618.3206,133
1602674618.3208,116
1602674618.3210,111
1602674618.3212,107
1602674618.3214,111
1602674618.3216,165
1602674618.3218,328
1602674618.3221,569
1602674618.3223,710
1602674618.3225,501
1602674618.3227,12
1602674618.3229,-194
1602674618.3232,-7
1602674618.3234,63
1602674618.3236,-14
1602674618.3238,17
1602674618.3240,70
1602674618.3242,58
1602674618.3245,58
1602674618.3247,77
1602674618.3249,82
1602674618.3251,80
1602674618.3253,75
1602674618.3255,72
1602674618.3257,94
1602674618.3259,128
1602674618.3262,116
1602674618.3264,90
1602674618.3266,111
1602674618.3268,143
1602674618.8633,133
1602674618.8649,124
1602674618.8663,143
1602674618.8681,153
1602674618.8695,141
1602674618.8706,145
1602674618.8715,180
1602674618.8724,197
1602674618.8735,192
1602674618.8746,209
1602674618.8756,238
1602674618.8765,226
1602674618.8774,189
1602674618.8784,158
1602674618.8790,109
1602674618.8797,65
1602674618.8804,55
1602674618.8811,46
1602674618.8818,24
1602674618.8824,21
1602674618.8831,24
1602674618.8837,17
1602674618.8844,21
1602674618.8850,29
1602674618.8857,26
1602674618.8863,41
1602674618.8870,46
1602674618.8875,36
1602674618.8881,48
1602674618.8886,60
1602674618.8891,55
1602674618.8896,51
1602674618.8902,63
1602674618.8907,68
1602674618.8912,60
1602674618.8917,63
1602674618.8922,75
1602674618.8927,87
1602674618.8932,92
1602674618.8937,80
1602674618.8942,68
1602674618.8947,70
1602674618.8952,72
1602674618.8956,53
1602674618.8961,55
1602674618.8966,92
1602674618.8970,85
1602674618.8974,51
1602674618.8978,51
1602674618.8983,65
1602674618.8988,60
1602674618.8992,63
1602674618.8997,72
1602674618.9001,75
1602674618.9005,70
1602674618.9008,58
1602674618.9012,65
1602674618.9015,82
1602674618.9018,77
1602674618.9022,65
1602674618.9025,55
1602674618.9028,43
1602674618.9032,46
1602674618.9035,60
1602674618.9038,58
1602674618.9042,63
1602674618.9045,77
1602674618.9048,70
1602674618.9051,65
1602674618.9055,75
1602674618.9058,75
1602674618.9062,77
1602674618.9065,102
1602674619.4638,107
1602674619.4649,72
1602674619.4659,48
1602674619.4670,68
1602674619.4679,90
1602674619.4689,75
1602674619.4698,55
1602674619.4708,60
1602674619.4717,65
1602674619.4726,65
1602674619.4736,75
1602674619.4745,153
1602674619.4752,352
1602674619.4759,601
1602674619.4766,703
1602674619.4773,445
1602674619.4779,-29
1602674619.4786,-180
1602674619.4792,12
1602674619.4799,72
1602674619.4805,0
1602674619.4812,9
1602674619.4819,41
1602674619.4825,53
1602674619.4832,70
1602674619.4837,75
1602674619.4842,63
1602674619.4847,70
1602674619.4852,94
1602674619.4857,97
1602674619.4863,90
1602674619.4868,111
1602674619.4875,124
1602674619.4881,109
1602674619.4888,109
1602674619.4893,116
1602674619.4898,104
1602674619.4904,109
1602674619.4909,153
1602674619.4914,182
1602674619.4918,180
1602674619.4922,180
1602674619.4927,187
1602674619.4931,199
1602674619.4935,214
1602674619.4939,221
1602674619.4943,199
1602674619.4947,180
1602674619.4952,194
1602674619.4957,177
1602674619.4960,121
1602674619.4963,75
1602674619.4966,38
1602674619.4970,7
1602674619.4973,4
1602674619.4976,17
1602674619.4980,17
1602674619.4983,19
1602674619.4986,31
1602674619.4990,34
1602674619.4993,34
1602674619.4996,46
1602674619.4998,48
1602674619.5000,36
1602674619.5003,41
1602674619.5005,70
1602674619.5007,85
1602674619.5009,65
1602674619.5011,60
1602674619.5013,68
1602674619.5015,53
1602674619.5018,53
1602674619.5020,80
1602674620.0033,92
1602674620.0053,75
1602674620.0068,63
1602674620.0083,72
1602674620.0097,68
1602674620.0106,46
1602674620.0116,58
1602674620.0125,77
1602674620.0134,68
1602674620.0143,55
1602674620.0157,60
1602674620.0167,60
1602674620.0177,55
1602674620.0186,53
1602674620.0192,51
1602674620.0198,53
1602674620.0205,60
1602674620.0214,55
1602674620.0221,41
1602674620.0228,46
1602674620.0235,48
1602674620.0243,38
1602674620.0249,41
1602674620.0256,51
1602674620.0263,65
1602674620.0269,70
1602674620.0275,58
1602674620.0280,60
1602674620.0285,70
1602674620.0291,77
1602674620.0296,82
1602674620.0301,77
1602674620.0306,70
1602674620.0311,90
1602674620.0316,102
1602674620.0320,85
1602674620.0324,63
1602674620.0328,55
1602674620.0333,55
1602674620.0338,58
1602674620.0342,55
1602674620.0346,55
1602674620.0351,68
1602674620.0355,68
1602674620.0360,65
1602674620.0363,160
1602674620.0367,396
1602674620.0370,642
1602674620.0374,674
1602674620.0377,311
1602674620.0380,-150
1602674620.0384,-163
1602674620.0387,46
1602674620.0391,12
1602674620.0394,-46
1602674620.0398,43
1602674620.0400,75
1602674620.0402,36
1602674620.0405,48
1602674620.0407,70
1602674620.0409,63
1602674620.0412,75
1602674620.0414,87
1602674620.0417,82
1602674620.0419,80
1602674620.0421,92
1602674620.0423,107
1602674620.0425,114
1602674620.0427,111
1602674620.0430,109
1602674620.0432,119
1602674620.0434,141
1602674620.0437,158
1602674620.5735,153
1602674620.5753,158
1602674620.5768,184
1602674620.5782,206
1602674620.5795,216
1602674620.5809,223
1602674620.5819,233
1602674620.5830,226
1602674620.5840,201
1602674620.5849,170
1602674620.5859,133
1602674620.5869,90
1602674620.5879,48
1602674620.5888,29
1602674620.5897,34
1602674620.5905,26
1602674620.5913,7
1602674620.5922,17
1602674620.5931,36
1602674620.5939,34
1602674620.5946,31
1602674620.5953,36
1602674620.5960,41
1602674620.5967,48
1602674620.5974,51
1602674620.5981,51
1602674620.5987,58
1602674620.5992,70
1602674620.5997,70
1602674620.6002,75
1602674620.6008,72
1602674620.6014,58
1602674620.6019,65
1602674620.6024,82
1602674620.6028,72
1602674620.6033,72
1602674620.6037,102
1602674620.6041,124
1602674620.6046,107
1602674620.6052,80
1602674620.6057,85
1602674620.6062,107
1602674620.6066,119
1602674620.6071,114
1602674620.6075,104
1602674620.6078,104
1602674620.6082,104
1602674620.6085,97
1602674620.6089,99
1602674620.6092,109
1602674620.6096,104
1602674620.6099,90
1602674620.6102,87
1602674620.6106,102
1602674620.6109,92
1602674620.6112,72
1602674620.6114,85
1602674620.6116,90
1602674620.6119,75
1602674620.6121,72
1602674620.6123,68
1602674620.6125,65
1602674620.6127,70
1602674620.6130,70
1602674620.6132,85
1602674620.6134,97
1602674620.6136,72
1602674620.6138,55
1602674620.6141,60
1602674620.6143,58
1602674620.6145,51
1602674620.6147,53
1602674620.6149,58
1602674621.1134,70
1602674621.1154,68
1602674621.1169,58
1602674621.1183,60
1602674621.1196,107
1602674621.1210,274
1602674621.1220,530
1602674621.1229,683
1602674621.1239,523
1602674621.1249,53
1602674621.1258,-214
1602674621.1268,-41
1602674621.1278,72
1602674621.1287,-14
1602674621.1296,-2
1602674621.1304,58
1602674621.1311,41
1602674621.1320,29
1602674621.1328,46
1602674621.1336,48
1602674621.1343,55
1602674621.1349,70
1602674621.1356,72
1602674621.1363,72
1602674621.1369,87
1602674621.1376,94
1602674621.1383,90
1602674621.1388,99
1602674621.1394,111
1602674621.1399,114
1602674621.1404,121
1602674621.1410,128
1602674621.1415,131
1602674621.1421,141
1602674621.1426,160
1602674621.1430,175
1602674621.1435,184
1602674621.1439,194
1602674621.1443,211
1602674621.1447,218
1602674621.1452,211
1602674621.1457,194
1602674621.1461,165
1602674621.1465,121
1602674621.1469,82
1602674621.1474,51
1602674621.1476,36
1602674621.1478,29
1602674621.1480,21
1602674621.1483,19
1602674621.1485,21
1602674621.1487,26
1602674621.1489,31
1602674621.1491,36
1602674621.1494,46
1602674621.1496,51
1602674621.1498,58
1602674621.1500,63
1602674621.1502,53
1602674621.1505,46
1602674621.1507,58
1602674621.1509,80
1602674621.1511,85
1602674621.1513,77
1602674621.1516,72
1602674621.1518,75
1602674621.1520,80
1602674621.1522,70
1602674621.1525,60
1602674621.1527,75
1602674621.1529,97
1602674621.1531,97
1602674621.1534,90
1602674621.6838,94
1602674621.6855,87
1602674621.6869,70
1602674621.6883,75
1602674621.6897,85
1602674621.6910,72
1602674621.6920,63
1602674621.6930,65
1602674621.6941,70
1602674621.6950,70
1602674621.6963,60
1602674621.6974,58
1602674621.6985,70
1602674621.6995,75
1602674621.7003,65
1602674621.7010,65
1602674621.7017,80
1602674621.7024,77
1602674621.7030,68
1602674621.7037,70
1602674621.7043,77
1602674621.7048,87
1602674621.7054,99
1602674621.7059,97
1602674621.7064,85
1602674621.7070,58
1602674621.7076,36
1602674621.7081,36
1602674621.7086,38
1602674621.7091,36
1602674621.7095,41
1602674621.7099,51
1602674621.7104,48
1602674621.7108,48
1602674621.7112,53
1602674621.7117,60
1602674621.7121,126
1602674621.7125,316
1602674621.7128,554
1602674621.7130,656
1602674621.7132,391
1602674621.7134,-97
1602674621.7137,-228
1602674621.7139,4
1602674621.7141,55
1602674621.7143,-36
1602674621.7146,2
1602674621.7149,41
1602674621.7151,14
1602674621.7153,19
1602674621.7155,46
1602674621.7158,46
1602674621.7160,38
1602674621.7162,41
1602674621.7164,63
1602674621.7166,82
1602674621.7168,75
1602674621.7169,77
1602674621.7171,90
1602674621.7172,94
1602674621.7174,102
1602674621.7176,111
1602674621.7177,119
1602674621.7179,131
1602674621.7181,141
1602674621.7182,150
1602674621.7184,163
1602674621.7186,175
1602674621.7187,189
1602674621.7189,209
1602674621.7191,211
1602674621.7192,206
1602674621.7194,209
1602674622.2238,189
1602674622.2256,136
1602674622.2271,94
1602674622.2286,63
1602674622.2300,24
1602674622.2310,0
1602674622.2320,4
1602674622.2329,2
1602674622.2339,-4
1602674622.2349,9
1602674622.2359,21
1602674622.2369,19
1602674622.2378,24
1602674622.2388,29
1602674622.2395,34
1602674622.2401,34
1602674622.2409,29
1602674622.2417,24
1602674622.2425,31
1602674622.2432,48
1602674622.2438,58
1602674622.2443,58
1602674622.2448,48
1602674622.2454,43
1602674622.2461,48
1602674622.2468,53
1602674622.2474,51
1602674622.2480,46
1602674622.2484,51
1602674622.2488,58
1602674622.2492,53
1602674622.2497,51
1602674622.2501,55
1602674622.2505,51
1602674622.2509,43
1602674622.2513,55
1602674622.2518,51
1602674622.2522,41
1602674622.2524,51
1602674622.2527,53
1602674622.2529,43
1602674622.2531,51
1602674622.2533,58
1602674622.2535,51
1602674622.2538,53
1602674622.2540,55
1602674622.2542,58
1602674622.2544,75
1602674622.2547,92
1602674622.2549,94
1602674622.2551,82
1602674622.2553,63
1602674622.2556,53
1602674622.2558,53
1602674622.2560,51
1602674622.2562,51
1602674622.2564,53
1602674622.2566,55
1602674622.2567,55
1602674622.2569,48
1602674622.2571,43
1602674622.2572,85
1602674622.2574,238
1602674622.2576,496
1602674622.2577,664
1602674622.2579,510
1602674622.2581,29
1602674622.2582,-270
1602674622.2584,-104
1602674622.2586,34
1602674622.2587,-38
1602674622.2589,-24
1602674622.2591,34
1602674622.8239,12
1602674622.8259,7
1602674622.8278,31
1602674622.8290,31
1602674622.8300,24
1602674622.8310,31
1602674622.8321,43
1602674622.8332,51
1602674622.8342,51
1602674622.8352,48
1602674622.8361,46
1602674622.8368,58
1602674622.8376,77
1602674622.8383,87
1602674622.8390,90
1602674622.8397,97
1602674622.8404,109
1602674622.8410,124
1602674622.8417,141
1602674622.8423,153
1602674622.8429,160
1602674622.8434,172
1602674622.8440,184
1602674622.8445,194
1602674622.8450,187
1602674622.8455,163
1602674622.8460,131
1602674622.8464,85
1602674622.8469,36
1602674622.8473,12
1602674622.8478,7
1602674622.8482,0
1602674622.8487,-4
1602674622.8490,-2
1602674622.8492,2
1602674622.8494,4
1602674622.8497,9
1602674622.8499,14
1602674622.8501,17
1602674622.8503,19
1602674622.8506,29
1602674622.8508,36
1602674622.8510,36
1602674622.8512,36
1602674622.8515,48
1602674622.8517,51
1602674622.8519,51
1602674622.8521,53
1602674622.8523,55
1602674622.8526,53
1602674622.8528,48
1602674622.8530,46
1602674622.8532,58
1602674622.8534,68
1602674622.8536,63
1602674622.8537,58
1602674622.8539,48
1602674622.8541,41
1602674622.8542,51
1602674622.8544,63
1602674622.8545,53
1602674622.8547,46
1602674622.8549,60
1602674622.8550,68
1602674622.8552,58
1602674622.8554,58
1602674622.8555,55
1602674622.8557,58
1602674622.8559,68
1602674622.8560,65
1602674622.8562,55
1602674622.8564,53
1602674622.8565,63
1602674623.3939,80
1602674623.3960,87
1602674623.3975,77
1602674623.3990,65
1602674623.4005,55
1602674623.4024,46
1602674623.4034,38
1602674623.4044,36
1602674623.4054,34
1602674623.4064,24
1602674623.4076,17
1602674623.4087,38
1602674623.4098,55
1602674623.4105,41
1602674623.4112,29
1602674623.4119,87
1602674623.4126,270
1602674623.4133,515
1602674623.4140,652
1602674623.4145,462
1602674623.4149,-26
1602674623.4154,-262
1602674623.4158,-65
1602674623.4163,41
1602674623.4167,-43
1602674623.4172,-34
1602674623.4176,14
1602674623.4181,0
1602674623.4185,-2
1602674623.4187,19
1602674623.4190,24
1602674623.4193,24
1602674623.4196,34
1602674623.4198,38
1602674623.4201,43
1602674623.4203,51
1602674623.4205,60
1602674623.4208,60
1602674623.4210,65
1602674623.4212,77
1602674623.4215,77
1602674623.4217,72
1602674623.4219,92
1602674623.4222,124
1602674623.4224,141
1602674623.4226,148
1602674623.4227,160
1602674623.4229,165
1602674623.4231,160
1602674623.4232,163
1602674623.4234,170
1602674623.4236,177
1602674623.4238,167
1602674623.4239,131
1602674623.4241,85
1602674623.4243,46
1602674623.4244,19
1602674623.4246,7
1602674623.4248,4
1602674623.4250,2
1602674623.4252,2
1602674623.4253,9
1602674623.4255,12
1602674623.4257,12
1602674623.4259,19
1602674623.4260,29
1602674623.4262,34
1602674623.4264,34
1602674623.4265,34
1602674623.4267,26
1602674623.4269,19
1602674623.4271,36
1602674623.4272,48
1602674623.9333,48
1602674623.9351,51
1602674623.9367,53
1602674623.9381,53
1602674623.9391,58
1602674623.9401,51
1602674623.9411,38
1602674623.9422,46
1602674623.9434,51
1602674623.9447,41
1602674623.9459,41
1602674623.9469,51
1602674623.9477,48
1602674623.9484,41
1602674623.9491,41
1602674623.9498,46
1602674623.9505,55
1602674623.9512,60
1602674623.9517,51
1602674623.9521,43
1602674623.9525,51
1602674623.9530,60
1602674623.9534,65
1602674623.9539,65
1602674623.9543,68
1602674623.9548,68
1602674623.9552,58
1602674623.9557,60
1602674623.9559,75
1602674623.9561,77
1602674623.9564,72
1602674623.9566,80
1602674623.9568,90
1602674623.9571,87
1602674623.9573,82
1602674623.9575,80
1602674623.9577,72
1602674623.9580,68
1602674623.9582,60
1602674623.9584,51
1602674623.9587,51
1602674623.9589,55
1602674623.9592,53
1602674623.9594,51
1602674623.9596,55
1602674623.9598,58
1602674623.9600,58
1602674623.9601,116
1602674623.9603,311
1602674623.9605,557
1602674623.9607,659
1602674623.9608,418
1602674623.9610,-46
1602674623.9612,-211
1602674623.9613,-9
1602674623.9615,63
1602674623.9617,-19
1602674623.9619,-12
1602674623.9620,19
1602674623.9622,17
1602674623.9624,24
1602674623.9626,21
1602674623.9628,14
1602674623.9630,31
1602674623.9631,43
1602674623.9633,36
1602674623.9635,41
1602674623.9636,51
1602674623.9638,51
1602674623.9640,55
1602674623.9641,60
1602674623.9643,65
1602674623.9645,72
1602674624.5027,87
1602674624.5043,99
1602674624.5058,109
1602674624.5073,119
1602674624.5088,133
1602674624.5098,148
1602674624.5108,158
1602674624.5118,163
1602674624.5128,167
1602674624.5138,172
1602674624.5147,167
1602674624.5157,148
1602674624.5168,111
1602674624.5177,68
1602674624.5185,36
1602674624.5193,21
1602674624.5201,4
1602674624.5209,-7
1602674624.5215,-7
1602674624.5220,2
1602674624.5226,7
1602674624.5231,7
1602674624.5236,14
1602674624.5242,24
1602674624.5247,26
1602674624.5254,36
1602674624.5256,43
1602674624.5258,41
1602674624.5261,38
1602674624.5263,38
1602674624.5265,38
1602674624.5268,46
1602674624.5270,48
1602674624.5272,46
1602674624.5275,46
1602674624.5277,51
1602674624.5279,53
1602674624.5281,51
1602674624.5284,51
1602674624.5287,53
1602674624.5289,55
1602674624.5291,51
1602674624.5294,48
1602674624.5295,53
1602674624.5297,53
1602674624.5299,53
1602674624.5300,60
1602674624.5302,60
1602674624.5304,60
1602674624.5306,68
1602674624.5307,60
1602674624.5309,48
1602674624.5311,58
1602674624.5312,72
1602674624.5314,58
1602674624.5316,46
1602674624.5318,55
1602674624.5319,60
1602674624.5321,55
1602674624.5323,55
1602674624.5324,58
1602674624.5326,51
1602674624.5328,48
1602674624.5330,51
1602674624.5331,60
1602674624.5333,70
1602674624.5335,70
1602674624.5337,70
1602674624.5338,80
1602674624.5340,85
1602674624.5342,70
1602674624.5343,51
1602674624.5345,46
1602674625.0439,41
1602674625.0458,36
1602674625.0475,48
1602674625.0492,53
1602674625.0507,48
1602674625.0519,48
1602674625.0530,53
1602674625.0540,58
1602674625.0549,114
1602674625.0558,296
1602674625.0567,549
1602674625.0577,652
1602674625.0586,394
1602674625.0596,-82
1602674625.0603,-231
1602674625.0610,-21
1602674625.0621,34
1602674625.0628,-48
1602674625.0636,-21
1602674625.0643,12
1602674625.0650,-21
1602674625.0656,-14
1602674625.0663,31
1602674625.0669,29
1602674625.0676,14
1602674625.0681,24
1602674625.0686,36
1602674625.0692,38
1602674625.0697,43
1602674625.0702,51
1602674625.0707,58
1602674625.0712,63
1602674625.0717,63
1602674625.0723,68
1602674625.0728,80
1602674625.0733,97
1602674625.0738,114
1602674625.0743,133
1602674625.0748,143
1602674625.0753,145
1602674625.0758,160
1602674625.0763,175
1602674625.0768,184
1602674625.0772,180
1602674625.0776,170
1602674625.0780,153
1602674625.0785,114
1602674625.0789,58
1602674625.0793,17
1602674625.0797,2
1602674625.0802,4
1602674625.0807,-9
1602674625.0811,-19
1602674625.0815,-12
1602674625.0819,-7
1602674625.0823,-7
1602674625.0827,0
1602674625.0830,7
1602674625.0834,14
1602674625.0838,17
1602674625.0842,24
1602674625.0847,31
1602674625.0851,31
1602674625.0854,31
1602674625.0857,31
1602674625.0861,34
1602674625.0864,41
1602674625.0868,43
1602674625.0872,43
1602674625.0876,48
1602674625.0879,53
1602674625.0882,55
1602674625.0886,51
1602674625.6135,48
1602674625.6151,46
1602674625.6165,46
1602674625.6177,46
1602674625.6186,46
1602674625.6195,41
1602674625.6204,36
1602674625.6214,38
1602674625.6223,46
1602674625.6232,48
1602674625.6241,43
1602674625.6250,38
1602674625.6259,48
1602674625.6268,48
1602674625.6274,41
1602674625.6281,48
1602674625.6287,53
1602674625.6294,48
1602674625.6300,48
1602674625.6307,55
1602674625.6314,55
1602674625.6321,53
1602674625.6327,60
1602674625.6334,70
1602674625.6341,77
1602674625.6346,90
1602674625.6351,80
1602674625.6356,51
1602674625.6361,38
1602674625.6366,36
1602674625.6371,38
1602674625.6376,48
1602674625.6382,55
1602674625.6387,53
1602674625.6392,48
1602674625.6397,48
1602674625.6402,41
1602674625.6407,124
1602674625.6412,372
1602674625.6417,625
1602674625.6422,652
1602674625.6427,316
1602674625.6432,-158
1602674625.6436,-236
1602674625.6441,-7
1602674625.6447,17
1602674625.6452,-53
1602674625.6457,-9
1602674625.6461,12
1602674625.6466,-14
1602674625.6470,0
1602674625.6474,21
1602674625.6478,14
1602674625.6482,19
1602674625.6487,31
1602674625.6492,34
1602674625.6496,38
1602674625.6500,48
1602674625.6504,53
1602674625.6508,55
1602674625.6513,60
1602674625.6516,70
1602674625.6520,82
1602674625.6523,92
1602674625.6526,97
1602674625.6529,109
1602674625.6533,126
1602674625.6536,141
1602674625.6539,155
1602674625.6543,167
1602674625.6546,175
1602674625.6549,177
1602674625.6552,170
1602674626.2140,163
1602674626.2159,148
1602674626.2174,99
1602674626.2183,51
1602674626.2192,24
1602674626.2202,0
1602674626.2211,-24
1602674626.2220,-26
1602674626.2229,-17
1602674626.2239,-17
1602674626.2248,-14
1602674626.2257,-7
1602674626.2266,-2
1602674626.2274,2
1602674626.2280,9
1602674626.2287,14
1602674626.2293,24
1602674626.2300,26
1602674626.2307,21
1602674626.2313,26
1602674626.2320,41
1602674626.2326,48
1602674626.2333,46
1602674626.2343,43
1602674626.2350,46
1602674626.2357,51
1602674626.2362,51
1602674626.2367,51
1602674626.2373,51
1602674626.2378,53
1602674626.2383,51
1602674626.2390,51
1602674626.2395,53
1602674626.2400,41
1602674626.2406,29
1602674626.2411,31
1602674626.2416,43
1602674626.2421,48
1602674626.2426,46
1602674626.2432,46
1602674626.2437,41
1602674626.2442,43
1602674626.2446,58
1602674626.2450,68
1602674626.2454,63
1602674626.2458,53
1602674626.2463,53
1602674626.2467,65
1602674626.2471,70
1602674626.2475,63
1602674626.2480,53
1602674626.2485,53
1602674626.2488,65
1602674626.2491,75
1602674626.2495,82
1602674626.2498,87
1602674626.2501,72
1602674626.2505,53
1602674626.2508,53
1602674626.2511,60
1602674626.2515,51
1602674626.2518,43
1602674626.2521,48
1602674626.2524,58
1602674626.2526,58
1602674626.2528,53
1602674626.2531,48
1602674626.2534,68
1602674626.2536,192
1602674626.2538,433
1602674626.2540,637
1602674626.2542,586
1602674626.2544,175
1602674626.7535,-214
1602674626.7557,-143
1602674626.7572,38
1602674626.7586,-7
1602674626.7600,-38
1602674626.7615,17
1602674626.7624,17
1602674626.7633,-2
1602674626.7644,14
1602674626.7654,29
1602674626.7665,29
1602674626.7674,29
1602674626.7683,31
1602674626.7693,34
1602674626.7702,38
1602674626.7708,48
1602674626.7715,60
1602674626.7721,63
1602674626.7728,63
1602674626.7735,65
1602674626.7743,75
1602674626.7749,107
1602674626.7756,126
1602674626.7763,124
1602674626.7770,128
1602674626.7778,138
1602674626.7785,143
1602674626.7790,153
1602674626.7795,167
1602674626.7800,175
1602674626.7805,170
1602674626.7810,150
1602674626.7815,121
1602674626.7820,85
1602674626.7826,48
1602674626.7832,19
1602674626.7838,4
1602674626.7844,-12
1602674626.7849,-17
1602674626.7854,-7
1602674626.7859,2
1602674626.7864,2
1602674626.7869,7
1602674626.7873,7
1602674626.7878,9
1602674626.7882,17
1602674626.7887,24
1602674626.7892,31
1602674626.7896,31
1602674626.7900,29
1602674626.7905,29
1602674626.7909,38
1602674626.7914,46
1602674626.7920,41
1602674626.7925,43
1602674626.7929,48
1602674626.7934,36
1602674626.7938,34
1602674626.7942,43
1602674626.7946,46
1602674626.7950,41
1602674626.7954,43
1602674626.7959,43
1602674626.7962,46
1602674626.7965,48
1602674626.7969,43
1602674626.7972,41
1602674626.7975,48
1602674626.7979,55
1602674626.7982,60
1602674626.7985,58
1602674626.7989,48
1602674626.7992,48
1602674627.3538,55
1602674627.3558,58
1602674627.3572,60
1602674627.3582,60
1602674627.3591,53
1602674627.3601,51
1602674627.3611,55
1602674627.3620,55
1602674627.3629,51
1602674627.3639,43
1602674627.3648,46
1602674627.3657,53
1602674627.3666,51
1602674627.3673,51
1602674627.3680,63
1602674627.3687,72
1602674627.3693,68
1602674627.3700,60
1602674627.3707,43
1602674627.3714,26
1602674627.3720,19
1602674627.3727,26
1602674627.3733,36
1602674627.3740,36
1602674627.3746,29
1602674627.3752,29
1602674627.3758,29
1602674627.3763,31
1602674627.3768,36
1602674627.3774,114
1602674627.3782,323
1602674627.3789,557
1602674627.3796,603
1602674627.3801,294
1602674627.3806,-153
1602674627.3812,-214
1602674627.3817,4
1602674627.3822,19
1602674627.3827,-53
1602674627.3832,-2
1602674627.3837,24
1602674627.3842,-2
1602674627.3846,9
1602674627.3850,26
1602674627.3854,24
1602674627.3859,29
1602674627.3863,41
1602674627.3867,46
1602674627.3871,48
1602674627.3875,53
1602674627.3879,63
1602674627.3884,68
1602674627.3888,70
1602674627.3891,80
1602674627.3894,92
1602674627.3898,102
1602674627.3901,111
1602674627.3904,124
1602674627.3908,133
1602674627.3911,145
1602674627.3914,155
1602674627.3918,167
1602674627.3921,182
1602674627.3924,187
1602674627.3926,184
1602674627.3928,180
1602674627.3930,148
1602674627.3932,102
1602674627.3935,68
1602674627.3937,38
1602674627.3939,9
1602674627.3941,2
1602674627.3943,17
1602674627.8638,14
1602674627.8658,2
1602674627.8672,9
1602674627.8685,21
1602674627.8699,24
1602674627.8712,26
1602674627.8722,26
1602674627.8731,29
1602674627.8744,31
1602674627.8755,34
1602674627.8766,29
1602674627.8777,31
1602674627.8786,38
1602674627.8795,34
1602674627.8802,29
1602674627.8809,31
1602674627.8815,36
1602674627.8822,41
1602674627.8829,43
1602674627.8835,43
1602674627.8841,46
1602674627.8848,46
1602674627.8854,41
1602674627.8861,46
1602674627.8868,51
1602674627.8874,48
1602674627.8881,48
1602674627.8888,55
1602674627.8894,55
1602674627.8900,51
1602674627.8905,51
1602674627.8910,53
1602674627.8915,53
1602674627.8921,53
1602674627.8926,60
1602674627.8931,70
1602674627.8936,63
1602674627.8942,43
1602674627.8947,41
1602674627.8952,38
1602674627.8957,38
1602674627.8962,48
1602674627.8967,55
1602674627.8972,55
1602674627.8977,53
1602674627.8981,60
1602674627.8985,65
1602674627.8989,58
1602674627.8993,53
1602674627.8997,58
1602674627.9003,65
1602674627.9007,75
1602674627.9011,80
1602674627.9016,82
1602674627.9021,85
1602674627.9024,72
1602674627.9027,53
1602674627.9031,48
1602674627.9034,48
1602674627.9038,41
1602674627.9042,36
1602674627.9045,36
1602674627.9049,41
1602674627.9053,43
1602674627.9056,46
1602674627.9060,55
1602674627.9063,133
1602674627.9065,335
1602674627.9067,571
1602674627.9069,635
1602674627.9071,321
1602674627.9073,-158
1602674627.9076,-223
1602674628.4325,4
1602674628.4342,19
1602674628.4357,-53
1602674628.4371,-9
1602674628.4385,14
1602674628.4399,-7
1602674628.4409,0
1602674628.4418,17
1602674628.4428,21
1602674628.4438,29
1602674628.4448,31
1602674628.4458,34
1602674628.4468,43
1602674628.4477,55
1602674628.4486,63
1602674628.4493,65
1602674628.4500,75
1602674628.4506,87
1602674628.4514,92
1602674628.4521,97
1602674628.4529,111
1602674628.4535,124
1602674628.4542,138
1602674628.4549,150
1602674628.4555,160
1602674628.4562,175
1602674628.4568,180
1602674628.4575,187
1602674628.4581,194
1602674628.4587,182
1602674628.4592,145
1602674628.4597,109
1602674628.4602,72
1602674628.4608,38
1602674628.4613,12
1602674628.4617,2
1602674628.4622,0
1602674628.4628,-2
1602674628.4633,-2
1602674628.4639,7
1602674628.4643,14
1602674628.4648,14
1602674628.4652,17
1602674628.4657,19
1602674628.4660,19
1602674628.4664,36
1602674628.4667,43
1602674628.4671,36
1602674628.4674,38
1602674628.4678,43
1602674628.4681,46
1602674628.4685,58
1602674628.4688,58
1602674628.4691,51
1602674628.4695,53
1602674628.4698,53
1602674628.4700,53
1602674628.4702,58
1602674628.4704,53
1602674628.4707,53
1602674628.4709,58
1602674628.4711,53
1602674628.4713,48
1602674628.4715,55
1602674628.4717,60
1602674628.4720,53
1602674628.4722,48
1602674628.4724,46
1602674628.4726,46
1602674628.4728,43
1602674628.4731,43
1602674628.4733,46
1602674628.4735,41
1602674628.9730,36
1602674628.9746,41
1602674628.9763,51
1602674628.9780,51
1602674628.9795,43
1602674628.9808,43
1602674628.9817,48
1602674628.9827,48
1602674628.9836,38
1602674628.9845,38
1602674628.9855,41
1602674628.9864,46
1602674628.9874,63
1602674628.9883,75
1602674628.9893,72
1602674628.9902,58
1602674628.9910,43
1602674628.9918,41
1602674628.9925,34
1602674628.9932,24
1602674628.9939,21
1602674628.9947,21
1602674628.9954,24
1602674628.9961,31
1602674628.9968,26
1602674628.9976,21
1602674628.9983,94
1602674628.9988,301
1602674628.9994,547
1602674629.0000,639
1602674629.0005,372
1602674629.0010,-121
1602674629.0016,-260
1602674629.0021,-29
1602674629.0026,26
1602674629.0030,-55
1602674629.0035,-12
1602674629.0039,29
1602674629.0043,-4
1602674629.0047,4
1602674629.0052,36
1602674629.0056,34
1602674629.0060,31
1602674629.0065,43
1602674629.0069,41
1602674629.0073,41
1602674629.0075,58
1602674629.0078,70
1602674629.0080,70
1602674629.0082,80
1602674629.0084,87
1602674629.0086,87
1602674629.0089,85
1602674629.0091,99
1602674629.0093,121
1602674629.0095,136
1602674629.0097,145
1602674629.0100,155
1602674629.0102,167
1602674629.0104,180
1602674629.0106,187
1602674629.0109,177
1602674629.0111,158
1602674629.0113,131
1602674629.0115,90
1602674629.0118,48
1602674629.0120,24
1602674629.0123,7
1602674629.0125,-12
1602674629.0127,-19
1602674629.0129,-17
1602674629.0131,-9
1602674629.0133,-2
1602674629.5725,-2
1602674629.5737,0
1602674629.5747,9
1602674629.5757,19
1602674629.5767,14
1602674629.5778,7
1602674629.5790,12
1602674629.5799,29
1602674629.5809,29
1602674629.5819,26
1602674629.5828,31
1602674629.5837,36
1602674629.5845,31
1602674629.5852,29
1602674629.5860,36
1602674629.5868,41
1602674629.5875,38
1602674629.5882,34
1602674629.5889,38
1602674629.5896,43
1602674629.5903,43
1602674629.5910,41
1602674629.5916,48
1602674629.5923,48
1602674629.5928,46
1602674629.5934,46
1602674629.5939,41
1602674629.5944,41
1602674629.5950,48
1602674629.5955,48
1602674629.5960,46
1602674629.5966,43
1602674629.5971,41
1602674629.5975,46
1602674629.5979,53
1602674629.5983,51
1602674629.5987,48
1602674629.5991,51
1602674629.5995,55
1602674629.5999,55
1602674629.6003,53
1602674629.6009,53
1602674629.6012,55
1602674629.6014,55
1602674629.6017,51
1602674629.6019,43
1602674629.6021,48
1602674629.6024,60
1602674629.6026,51
1602674629.6028,43
1602674629.6030,48
1602674629.6033,41
1602674629.6035,36
1602674629.6037,46
1602674629.6039,43
1602674629.6041,36
1602674629.6044,43
1602674629.6047,53
1602674629.6049,53
1602674629.6051,55
1602674629.6053,51
1602674629.6055,41
1602674629.6058,34
1602674629.6060,24
1602674629.6062,26
1602674629.6064,36
1602674629.6067,41
1602674629.6069,38
1602674629.6071,41
1602674629.6073,36
1602674629.6076,46
1602674629.6078,124
1602674629.6080,306
1602674630.1135,537
1602674630.1153,642
1602674630.1170,396
1602674630.1185,-75
1602674630.1200,-211
1602674630.1210,2
1602674630.1220,48
1602674630.1230,-34
1602674630.1240,2
1602674630.1249,34
1602674630.1259,4
1602674630.1270,14
1602674630.1281,36
1602674630.1293,29
1602674630.1303,43
1602674630.1313,60
1602674630.1324,58
1602674630.1333,58
1602674630.1340,68
1602674630.1345,70
1602674630.1350,77
1602674630.1356,85
1602674630.1365,90
1602674630.1371,97
1602674630.1377,111
1602674630.1383,124
1602674630.1388,128
1602674630.1392,141
1602674630.1397,160
1602674630.1401,170
1602674630.1405,175
1602674630.1410,192
1602674630.1414,211
1602674630.1418,206
1602674630.1423,187
1602674630.1427,165
1602674630.1432,128
1602674630.1434,82
1602674630.1436,48
1602674630.1438,26
1602674630.1441,4
1602674630.1443,-4
1602674630.1445,0
1602674630.1448,4
1602674630.1450,4
1602674630.1453,9
1602674630.1455,9
1602674630.1457,7
1602674630.1459,9
1602674630.1461,17
1602674630.1464,17
1602674630.1466,19
1602674630.1468,29
1602674630.1470,36
1602674630.1472,34
1602674630.1474,31
1602674630.1475,38
1602674630.1477,41
1602674630.1479,36
1602674630.1480,38
1602674630.1482,46
1602674630.1484,46
1602674630.1485,43
1602674630.1487,43
1602674630.1489,41
1602674630.1490,38
1602674630.1492,41
1602674630.1494,38
1602674630.1495,34
1602674630.1497,36
1602674630.1498,43
1602674630.1500,43
1602674630.1502,41
1602674630.6837,41
1602674630.6856,46
1602674630.6871,51
1602674630.6885,46
1602674630.6899,48
1602674630.6911,51
1602674630.6921,46
1602674630.6930,31
1602674630.6940,26
1602674630.6950,29
1602674630.6962,31
1602674630.6972,29
1602674630.6982,29
1602674630.6994,34
1602674630.7002,41
1602674630.7010,36
1602674630.7017,38
1602674630.7024,46
1602674630.7031,41
1602674630.7038,34
1602674630.7044,36
1602674630.7049,46
1602674630.7055,48
1602674630.7060,46
1602674630.7065,46
1602674630.7071,46
1602674630.7076,41
1602674630.7082,43
1602674630.7087,46
1602674630.7090,46
1602674630.7094,48
1602674630.7097,55
1602674630.7101,55
1602674630.7104,55
1602674630.7108,63
1602674630.7111,70
1602674630.7115,75
1602674630.7118,85
1602674630.7122,87
1602674630.7126,68
1602674630.7128,51
1602674630.7131,46
1602674630.7133,43
1602674630.7135,46
1602674630.7137,51
1602674630.7140,51
1602674630.7142,51
1602674630.7144,53
1602674630.7146,55
1602674630.7148,53
1602674630.7151,70
1602674630.7153,189
1602674630.7156,420
1602674630.7158,620
1602674630.7160,596
1602674630.7162,214
1602674630.7165,-192
1602674630.7167,-136
1602674630.7169,70
1602674630.7171,26
1602674630.7172,-24
1602674630.7174,31
1602674630.7176,36
1602674630.7177,21
1602674630.7179,46
1602674630.7180,55
1602674630.7182,38
1602674630.7184,51
1602674630.7186,72
1602674630.7187,70
1602674630.7189,65
1602674630.7191,77
1602674630.7192,82
1602674631.2236,90
1602674631.2256,94
1602674631.2271,99
1602674631.2284,107
1602674631.2295,119
1602674631.2305,126
1602674631.2315,133
1602674631.2325,145
1602674631.2334,158
1602674631.2344,167
1602674631.2354,172
1602674631.2363,184
1602674631.2372,199
1602674631.2379,201
1602674631.2385,189
1602674631.2392,167
1602674631.2399,121
1602674631.2406,68
1602674631.2413,26
1602674631.2419,2
1602674631.2425,-9
1602674631.2432,-12
1602674631.2437,-14
1602674631.2443,-12
1602674631.2448,-7
1602674631.2454,-4
1602674631.2458,0
1602674631.2463,7
1602674631.2467,9
1602674631.2474,14
1602674631.2479,14
1602674631.2484,14
1602674631.2489,21
1602674631.2493,21
1602674631.2497,21
1602674631.2499,26
1602674631.2502,29
1602674631.2504,29
1602674631.2506,31
1602674631.2508,31
1602674631.2511,29
1602674631.2513,24
1602674631.2515,21
1602674631.2517,24
1602674631.2520,26
1602674631.2522,26
1602674631.2524,26
1602674631.2526,29
1602674631.2528,24
1602674631.2531,21
1602674631.2533,21
1602674631.2536,17
1602674631.2538,24
1602674631.2540,34
1602674631.2541,29
1602674631.2543,26
1602674631.2545,34
1602674631.2546,38
1602674631.2548,34
1602674631.2549,31
1602674631.2551,36
1602674631.2553,43
1602674631.2554,48
1602674631.2556,48
1602674631.2557,46
1602674631.2559,46
1602674631.2560,41
1602674631.2562,38
1602674631.2564,53
1602674631.2565,63
1602674631.2567,55
1602674631.2568,55
1602674631.2570,58
1602674631.7932,51
1602674631.7948,51
1602674631.7965,63
1602674631.7980,65
1602674631.7994,58
1602674631.8004,48
1602674631.8013,48
1602674631.8025,48
1602674631.8035,43
1602674631.8045,53
1602674631.8054,70
1602674631.8063,75
1602674631.8073,75
1602674631.8082,75
1602674631.8089,63
1602674631.8095,51
1602674631.8101,46
1602674631.8108,43
1602674631.8114,48
1602674631.8121,55
1602674631.8128,55
1602674631.8135,53
1602674631.8141,51
1602674631.8148,46
1602674631.8154,72
1602674631.8160,216
1602674631.8167,464
1602674631.8172,656
1602674631.8179,569
1602674631.8185,116
1602674631.8190,-245
1602674631.8195,-119
1602674631.8201,55
1602674631.8206,-12
1602674631.8211,-24
1602674631.8216,41
1602674631.8221,29
1602674631.8226,14
1602674631.8231,41
1602674631.8236,46
1602674631.8241,36
1602674631.8246,43
1602674631.8251,53
1602674631.8256,58
1602674631.8260,68
1602674631.8264,77
1602674631.8268,80
1602674631.8272,80
1602674631.8277,85
1602674631.8281,102
1602674631.8285,111
1602674631.8291,116
1602674631.8296,124
1602674631.8301,136
1602674631.8304,148
1602674631.8307,158
1602674631.8311,175
1602674631.8314,189
1602674631.8318,197
1602674631.8321,201
1602674631.8325,201
1602674631.8328,187
1602674631.8331,153
1602674631.8335,104
1602674631.8338,58
1602674631.8341,29
1602674631.8343,14
1602674631.8345,-2
1602674631.8347,-12
1602674631.8349,-9
1602674631.8352,-7
1602674631.8354,-7
1602674631.8356,-2
1602674632.3329,4
1602674632.3348,4
1602674632.3362,7
1602674632.3377,7
1602674632.3390,7
1602674632.3404,12
1602674632.3414,12
1602674632.3423,7
1602674632.3432,9
1602674632.3441,17
1602674632.3450,19
1602674632.3461,17
1602674632.3471,19
1602674632.3480,24
1602674632.3489,26
1602674632.3498,21
1602674632.3504,12
1602674632.3511,7
1602674632.3517,14
1602674632.3524,24
1602674632.3531,26
1602674632.3538,21
1602674632.3544,19
1602674632.3551,21
1602674632.3557,29
1602674632.3564,36
1602674632.3570,34
1602674632.3578,29
1602674632.3584,34
1602674632.3589,38
1602674632.3594,41
1602674632.3599,36
1602674632.3605,41
1602674632.3610,43
1602674632.3615,38
1602674632.3621,43
1602674632.3630,51
1602674632.3636,51
1602674632.3642,48
1602674632.3647,48
1602674632.3653,55
1602674632.3658,53
1602674632.3663,53
1602674632.3668,55
1602674632.3672,60
1602674632.3676,58
1602674632.3680,55
1602674632.3684,65
1602674632.3689,70
1602674632.3694,63
1602674632.3698,65
1602674632.3702,68
1602674632.3707,65
1602674632.3712,63
1602674632.3715,70
1602674632.3718,75
1602674632.3722,75
1602674632.3725,82
1602674632.3728,92
1602674632.3732,94
1602674632.3735,99
1602674632.3738,92
1602674632.3742,68
1602674632.3745,53
1602674632.3748,53
1602674632.3751,55
1602674632.3754,60
1602674632.3756,68
1602674632.3758,68
1602674632.3760,68
1602674632.3762,63
1602674632.3764,70
1602674632.3766,158
1602674632.9331,372
1602674632.9349,603
1602674632.9363,656
1602674632.9377,352
1602674632.9386,-116
1602674632.9396,-194
1602674632.9405,29
1602674632.9414,46
1602674632.9423,-38
1602674632.9432,4
1602674632.9442,36
1602674632.9451,14
1602674632.9462,26
1602674632.9472,48
1602674632.9481,41
1602674632.9489,36
1602674632.9496,46
1602674632.9504,51
1602674632.9511,53
1602674632.9518,60
1602674632.9525,70
1602674632.9531,72
1602674632.9538,70
1602674632.9544,72
1602674632.9551,82
1602674632.9557,97
1602674632.9564,104
1602674632.9570,109
1602674632.9576,124
1602674632.9581,138
1602674632.9587,153
1602674632.9592,172
1602674632.9597,189
1602674632.9603,194
1602674632.9608,187
1602674632.9613,177
1602674632.9618,160
1602674632.9623,121
1602674632.9629,72
1602674632.9634,29
1602674632.9639,0
1602674632.9644,-12
1602674632.9649,-24
1602674632.9654,-34
1602674632.9658,-31
1602674632.9662,-21
1602674632.9668,-14
1602674632.9673,-9
1602674632.9677,-4
1602674632.9683,-2
1602674632.9687,9
1602674632.9693,21
1602674632.9697,19
1602674632.9700,9
1602674632.9703,9
1602674632.9707,17
1602674632.9710,12
1602674632.9714,2
1602674632.9717,12
1602674632.9720,26
1602674632.9724,26
1602674632.9727,26
1602674632.9731,34
1602674632.9734,38
1602674632.9737,34
1602674632.9740,31
1602674632.9742,38
1602674632.9744,46
1602674632.9746,46
1602674632.9748,43
1602674632.9751,51
1602674632.9753,55
1602674632.9755,55
1602674633.5023,46
1602674633.5039,29
1602674633.5054,29
1602674633.5068,41
1602674633.5082,46
1602674633.5095,53
1602674633.5105,60
1602674633.5114,53
1602674633.5124,41
1602674633.5134,43
1602674633.5145,55
1602674633.5155,60
1602674633.5164,51
1602674633.5174,48
1602674633.5183,48
1602674633.5190,48
1602674633.5196,53
1602674633.5203,63
1602674633.5210,75
1602674633.5217,72
1602674633.5223,55
1602674633.5230,51
1602674633.5237,60
1602674633.5243,68
1602674633.5250,63
1602674633.5257,70
1602674633.5263,82
1602674633.5270,87
1602674633.5276,75
1602674633.5282,68
1602674633.5287,75
1602674633.5293,77
1602674633.5298,77
1602674633.5304,92
1602674633.5309,111
1602674633.5313,107
1602674633.5318,90
1602674633.5322,85
1602674633.5326,90
1602674633.5331,80
1602674633.5335,60
1602674633.5339,68
1602674633.5343,87
1602674633.5350,94
1602674633.5354,92
1602674633.5356,85
1602674633.5359,85
1602674633.5361,167
1602674633.5363,384
1602674633.5365,615
1602674633.5368,649
1602674633.5370,326
1602674633.5372,-119
1602674633.5374,-155
1602674633.5376,55
1602674633.5378,53
1602674633.5381,2
1602674633.5383,63
1602674633.5385,70
1602674633.5387,31
1602674633.5389,51
1602674633.5392,68
1602674633.5394,58
1602674633.5396,60
1602674633.5398,70
1602674633.5401,75
1602674633.5403,77
1602674633.5405,77
1602674633.5407,75
1602674633.5409,80
1602674633.5411,92
1602674633.5414,99
1602674633.5416,109
1602674634.0426,126
1602674634.0442,126
1602674634.0457,109
1602674634.0472,114
1602674634.0486,136
1602674634.0496,150
1602674634.0505,167
1602674634.0515,184
1602674634.0525,184
1602674634.0534,170
1602674634.0544,160
1602674634.0554,145
1602674634.0563,99
1602674634.0573,46
1602674634.0582,17
1602674634.0589,-2
1602674634.0595,-31
1602674634.0602,-46
1602674634.0609,-43
1602674634.0616,-38
1602674634.0622,-31
1602674634.0632,-21
1602674634.0641,-21
1602674634.0649,-17
1602674634.0656,-12
1602674634.0664,-12
1602674634.0670,-9
1602674634.0675,0
1602674634.0681,14
1602674634.0687,19
1602674634.0692,24
1602674634.0697,31
1602674634.0702,21
1602674634.0707,12
1602674634.0712,21
1602674634.0716,29
1602674634.0720,21
1602674634.0725,29
1602674634.0729,38
1602674634.0733,24
1602674634.0737,19
1602674634.0742,34
1602674634.0746,43
1602674634.0750,46
1602674634.0755,36
1602674634.0757,19
1602674634.0759,34
1602674634.0761,55
1602674634.0764,46
1602674634.0766,36
1602674634.0768,55
1602674634.0770,60
1602674634.0772,38
1602674634.0775,38
1602674634.0777,51
1602674634.0779,38
1602674634.0781,36
1602674634.0783,55
1602674634.0785,60
1602674634.0788,41
1602674634.0790,36
1602674634.0792,41
1602674634.0794,38
1602674634.0797,43
1602674634.0799,46
1602674634.0801,51
1602674634.0804,51
1602674634.0806,41
1602674634.0808,38
1602674634.0810,41
1602674634.0812,43
1602674634.0814,63
1602674634.0817,77
1602674634.6126,72
1602674634.6144,65
1602674634.6159,51
1602674634.6174,43
1602674634.6188,46
1602674634.6202,41
1602674634.6211,26
1602674634.6220,19
1602674634.6230,24
1602674634.6239,26
1602674634.6248,31
1602674634.6258,43
1602674634.6268,97
1602674634.6277,262
1602674634.6287,508
1602674634.6297,664
1602674634.6305,484
1602674634.6312,-21
1602674634.6319,-279
1602674634.6325,-68
1602674634.6332,46
1602674634.6339,-51
1602674634.6346,-29
1602674634.6353,29
1602674634.6360,7
1602674634.6366,4
1602674634.6374,29
1602674634.6381,34
1602674634.6387,34
1602674634.6392,43
1602674634.6397,55
1602674634.6402,55
1602674634.6408,48
1602674634.6413,53
1602674634.6418,70
1602674634.6423,77
1602674634.6428,82
1602674634.6432,92
1602674634.6436,99
1602674634.6441,99
1602674634.6445,102
1602674634.6449,121
1602674634.6453,143
1602674634.6458,153
1602674634.6462,158
1602674634.6466,172
1602674634.6471,187
1602674634.6473,192
1602674634.6476,177
1602674634.6478,155
1602674634.6481,131
1602674634.6483,82
1602674634.6485,34
1602674634.6488,2
1602674634.6490,-19
1602674634.6492,-31
1602674634.6494,-31
1602674634.6496,-34
1602674634.6499,-46
1602674634.6501,-41
1602674634.6503,-19
1602674634.6505,-21
1602674634.6507,-24
1602674634.6509,-14
1602674634.6512,-21
1602674634.6514,-26
1602674634.6516,-14
1602674634.6518,-7
1602674634.6520,-9
1602674634.6523,0
1602674634.6525,14
1602674634.6527,14
1602674634.6529,7
1602674635.1531,12
1602674635.1548,12
1602674635.1562,0
1602674635.1576,2
1602674635.1590,14
1602674635.1604,9
1602674635.1615,9
1602674635.1625,19
1602674635.1636,24
1602674635.1648,17
1602674635.1659,9
1602674635.1669,12
1602674635.1679,21
1602674635.1688,19
1602674635.1697,19
1602674635.1704,26
1602674635.1711,24
1602674635.1718,24
1602674635.1724,31
1602674635.1731,26
1602674635.1737,17
1602674635.1744,26
1602674635.1751,38
1602674635.1757,31
1602674635.1764,31
1602674635.1771,48
1602674635.1778,46
1602674635.1785,29
1602674635.1793,34
1602674635.1799,48
1602674635.1806,55
1602674635.1812,70
1602674635.1818,77
1602674635.1823,80
1602674635.1829,65
1602674635.1833,43
1602674635.1838,38
1602674635.1842,43
1602674635.1846,43
1602674635.1850,43
1602674635.1855,48
1602674635.1859,53
1602674635.1863,51
1602674635.1867,36
1602674635.1872,48
1602674635.1876,172
1602674635.1878,423
1602674635.1880,639
1602674635.1883,605
1602674635.1885,192
1602674635.1887,-248
1602674635.1889,-194
1602674635.1892,31
1602674635.1894,4
1602674635.1896,-38
1602674635.1898,21
1602674635.1900,38
1602674635.1903,21
1602674635.1905,31
1602674635.1907,36
1602674635.1909,36
1602674635.1911,48
1602674635.1913,58
1602674635.1916,63
1602674635.1918,68
1602674635.1920,72
1602674635.1922,80
1602674635.1924,87
1602674635.1927,87
1602674635.1929,92
1602674635.1931,104
1602674635.1933,114
1602674635.1935,121
1602674635.7231,138
1602674635.7249,158
1602674635.7263,165
1602674635.7277,167
1602674635.7291,172
1602674635.7305,184
1602674635.7320,197
1602674635.7331,194
1602674635.7341,175
1602674635.7351,143
1602674635.7361,109
1602674635.7370,70
1602674635.7380,24
1602674635.7389,-9
1602674635.7396,-17
1602674635.7403,-12
1602674635.7410,-19
1602674635.7416,-29
1602674635.7424,-14
1602674635.7431,2
1602674635.7438,0
1602674635.7444,-2
1602674635.7451,7
1602674635.7457,12
1602674635.7464,14
1602674635.7471,24
1602674635.7478,29
1602674635.7483,21
1602674635.7488,17
1602674635.7493,29
1602674635.7498,43
1602674635.7503,41
1602674635.7508,34
1602674635.7514,43
1602674635.7518,51
1602674635.7522,48
1602674635.7527,36
1602674635.7531,24
1602674635.7535,12
1602674635.7539,7
1602674635.7544,4
1602674635.7548,4
1602674635.7552,17
1602674635.7556,24
1602674635.7561,19
1602674635.7563,9
1602674635.7565,9
1602674635.7567,19
1602674635.7570,24
1602674635.7572,19
1602674635.7574,26
1602674635.7576,31
1602674635.7578,31
1602674635.7581,34
1602674635.7583,41
1602674635.7585,36
1602674635.7587,29
1602674635.7590,34
1602674635.7592,41
1602674635.7594,41
1602674635.7597,46
1602674635.7599,48
1602674635.7601,43
1602674635.7603,43
1602674635.7605,53
1602674635.7608,51
1602674635.7610,41
1602674635.7612,51
1602674635.7614,60
1602674635.7616,55
1602674635.7618,55
1602674635.7621,68
1602674635.7623,68
1602674636.3234,55
1602674636.3255,60
1602674636.3269,75
1602674636.3283,80
1602674636.3297,70
1602674636.3309,48
1602674636.3320,38
1602674636.3329,36
1602674636.3339,34
1602674636.3348,31
1602674636.3358,34
1602674636.3369,43
1602674636.3378,48
1602674636.3388,46
1602674636.3397,55
1602674636.3404,141
1602674636.3411,352
1602674636.3417,593
1602674636.3424,644
1602674636.3431,321
1602674636.3437,-155
1602674636.3444,-218
1602674636.3451,21
1602674636.3458,48
1602674636.3464,-31
1602674636.3471,7
1602674636.3479,46
1602674636.3485,21
1602674636.3490,21
1602674636.3496,31
1602674636.3501,26
1602674636.3506,34
1602674636.3511,36
1602674636.3516,31
1602674636.3521,36
1602674636.3529,53
1602674636.3534,60
1602674636.3539,70
1602674636.3544,85
1602674636.3548,80
1602674636.3552,75
1602674636.3557,102
1602674636.3561,121
1602674636.3566,111
1602674636.3570,116
1602674636.3572,148
1602674636.3574,182
1602674636.3577,201
1602674636.3579,182
1602674636.3581,158
1602674636.3583,184
1602674636.3585,197
1602674636.3588,150
1602674636.3590,114
1602674636.3592,97
1602674636.3594,55
1602674636.3597,14
1602674636.3599,0
1602674636.3601,-7
1602674636.3603,-17
1602674636.3605,-17
1602674636.3608,-7
1602674636.3610,-2
1602674636.3612,-9
1602674636.3614,-14
1602674636.3616,-4
1602674636.3619,9
1602674636.3621,12
1602674636.3623,-2
1602674636.3625,-12
1602674636.3627,4
1602674636.3630,19
1602674636.3632,17
1602674636.8629,17
1602674636.8649,19
1602674636.8664,24
1602674636.8678,29
1602674636.8688,21
1602674636.8698,17
1602674636.8708,26
1602674636.8717,26
1602674636.8727,7
1602674636.8736,4
1602674636.8745,14
1602674636.8755,9
1602674636.8765,2
1602674636.8777,-2
1602674636.8785,-9
1602674636.8792,-7
1602674636.8799,7
1602674636.8806,9
1602674636.8814,7
1602674636.8821,7
1602674636.8828,7
1602674636.8835,0
1602674636.8842,-7
1602674636.8849,-7
1602674636.8855,0
1602674636.8862,2
1602674636.8868,0
1602674636.8873,2
1602674636.8879,9
1602674636.8884,12
1602674636.8890,9
1602674636.8895,14
1602674636.8900,17
1602674636.8905,19
1602674636.8910,19
1602674636.8915,21
1602674636.8919,24
1602674636.8924,26
1602674636.8928,26
1602674636.8932,24
1602674636.8936,31
1602674636.8941,38
1602674636.8945,34
1602674636.8949,29
1602674636.8954,36
1602674636.8956,34
1602674636.8958,34
1602674636.8960,53
1602674636.8962,68
1602674636.8964,60
1602674636.8967,48
1602674636.8969,31
1602674636.8971,19
1602674636.8973,24
1602674636.8976,29
1602674636.8978,29
1602674636.8980,43
1602674636.8983,43
1602674636.8985,34
1602674636.8987,38
1602674636.8989,41
1602674636.8991,87
1602674636.8994,260
1602674636.8996,506
1602674636.8999,642
1602674636.9001,442
1602674636.9003,-34
1602674636.9005,-253
1602674636.9007,-55
1602674636.9010,41
1602674636.9012,-38
1602674636.9014,-17
1602674636.9016,29
1602674637.4325,4
1602674637.4346,4
1602674637.4363,31
1602674637.4378,34
1602674637.4392,34
1602674637.4402,48
1602674637.4411,53
1602674637.4421,46
1602674637.4430,43
1602674637.4440,53
1602674637.4449,63
1602674637.4459,68
1602674637.4469,68
1602674637.4478,68
1602674637.4486,72
1602674637.4493,82
1602674637.4500,99
1602674637.4507,114
1602674637.4513,126
1602674637.4520,138
1602674637.4527,145
1602674637.4533,158
1602674637.4540,170
1602674637.4547,170
1602674637.4553,160
1602674637.4561,148
1602674637.4566,109
1602674637.4572,48
1602674637.4577,14
1602674637.4582,19
1602674637.4587,14
1602674637.4592,-19
1602674637.4598,-36
1602674637.4603,-31
1602674637.4607,-36
1602674637.4612,-38
1602674637.4616,-29
1602674637.4620,-21
1602674637.4624,-19
1602674637.4629,-21
1602674637.4633,-14
1602674637.4637,-2
1602674637.4644,-2
1602674637.4650,-9
1602674637.4654,-7
1602674637.4657,-2
1602674637.4660,-9
1602674637.4664,-7
1602674637.4667,2
1602674637.4671,12
1602674637.4674,9
1602674637.4677,7
1602674637.4681,12
1602674637.4684,12
1602674637.4688,9
1602674637.4691,9
1602674637.4693,14
1602674637.4695,14
1602674637.4697,4
1602674637.4699,2
1602674637.4702,2
1602674637.4704,-9
1602674637.4706,-14
1602674637.4708,-4
1602674637.4710,0
1602674637.4713,0
1602674637.4715,-2
1602674637.4717,0
1602674637.4719,0
1602674637.4721,-4
1602674637.4724,-2
1602674637.4726,7
1602674637.4728,9
1602674637.9719,7
1602674637.9730,9
1602674637.9750,12
1602674637.9758,12
1602674637.9766,17
1602674637.9774,24
1602674637.9784,21
1602674637.9792,14
1602674637.9798,0
1602674637.9804,-17
1602674637.9810,-17
1602674637.9815,-9
1602674637.9821,-14
1602674637.9826,-17
1602674637.9831,-2
1602674637.9836,9
1602674637.9843,2
1602674637.9850,0
1602674637.9856,60
1602674637.9863,262
1602674637.9873,547
1602674637.9880,705
1602674637.9888,457
1602674637.9895,-104
1602674637.9901,-323
1602674637.9908,-82
1602674637.9914,7
1602674637.9921,-68
1602674637.9926,-21
1602674637.9931,12
1602674637.9937,-21
1602674637.9942,-2
1602674637.9947,29
1602674637.9952,26
1602674637.9958,26
1602674637.9964,38
1602674637.9969,38
1602674637.9975,38
1602674637.9980,46
1602674637.9986,55
1602674637.9992,65
1602674637.9997,72
1602674638.0003,82
1602674638.0008,90
1602674638.0013,94
1602674638.0017,107
1602674638.0021,121
1602674638.0025,131
1602674638.0030,143
1602674638.0034,160
1602674638.0038,175
1602674638.0042,182
1602674638.0046,192
1602674638.0051,199
1602674638.0056,189
1602674638.0059,163
1602674638.0063,119
1602674638.0066,72
1602674638.0069,31
1602674638.0073,-4
1602674638.0076,-26
1602674638.0079,-34
1602674638.0083,-34
1602674638.0086,-34
1602674638.0090,-29
1602674638.0093,-24
1602674638.0096,-17
1602674638.0098,-7
1602674638.0101,-4
1602674638.0103,-4
1602674638.0155,2
1602674638.0185,4
1602674638.0187,-4
1602674638.5423,-2
1602674638.5439,2
1602674638.5453,0
1602674638.5467,4
1602674638.5481,9
1602674638.5492,0
1602674638.5503,0
1602674638.5512,12
1602674638.5522,12
1602674638.5531,9
1602674638.5540,14
1602674638.5549,14
1602674638.5560,14
1602674638.5570,14
1602674638.5580,17
1602674638.5587,21
1602674638.5594,21
1602674638.5600,17
1602674638.5608,19
1602674638.5614,29
1602674638.5621,31
1602674638.5628,24
1602674638.5634,26
1602674638.5641,29
1602674638.5648,19
1602674638.5655,21
1602674638.5662,41
1602674638.5668,51
1602674638.5674,38
1602674638.5680,26
1602674638.5685,19
1602674638.5690,14
1602674638.5695,12
1602674638.5700,12
1602674638.5705,12
1602674638.5711,12
1602674638.5716,17
1602674638.5721,21
1602674638.5726,24
1602674638.5731,26
1602674638.5736,92
1602674638.5741,301
1602674638.5748,593
1602674638.5754,732
1602674638.5759,447
1602674638.5763,-128
1602674638.5768,-316
1602674638.5772,-60
1602674638.5776,21
1602674638.5782,-58
1602674638.5788,-14
1602674638.5792,26
1602674638.5796,0
1602674638.5799,4
1602674638.5803,26
1602674638.5806,29
1602674638.5810,38
1602674638.5813,55
1602674638.5817,51
1602674638.5820,46
1602674638.5824,58
1602674638.5827,65
1602674638.5831,68
1602674638.5834,65
1602674638.5837,65
1602674638.5841,77
1602674638.5844,92
1602674638.5848,102
1602674638.5851,114
1602674638.5854,131
1602674638.5858,150
1602674638.5861,160
1602674638.5864,170
1602674639.0830,189
1602674639.0848,199
1602674639.0862,189
1602674639.0876,172
1602674639.0890,148
1602674639.0903,109
1602674639.0913,55
1602674639.0922,2
1602674639.0932,-21
1602674639.0941,-26
1602674639.0951,-36
1602674639.0960,-41
1602674639.0970,-34
1602674639.0980,-29
1602674639.0991,-24
1602674639.1001,-17
1602674639.1008,-12
1602674639.1015,-12
1602674639.1021,-14
1602674639.1028,-4
1602674639.1035,7
1602674639.1041,7
1602674639.1048,4
1602674639.1054,7
1602674639.1061,9
1602674639.1068,17
1602674639.1075,24
1602674639.1085,21
1602674639.1091,19
1602674639.1097,21
1602674639.1103,21
1602674639.1108,21
1602674639.1113,29
1602674639.1118,24
1602674639.1123,14
1602674639.1128,14
1602674639.1134,17
1602674639.1139,17
1602674639.1144,24
1602674639.1149,26
1602674639.1155,19
1602674639.1160,19
1602674639.1165,26
1602674639.1170,26
1602674639.1174,31
1602674639.1178,48
1602674639.1182,58
1602674639.1187,55
1602674639.1191,48
1602674639.1196,34
1602674639.1200,21
1602674639.1204,17
1602674639.1209,17
1602674639.1214,24
1602674639.1217,21
1602674639.1221,14
1602674639.1224,9
1602674639.1227,4
1602674639.1231,0
1602674639.1234,46
1602674639.1237,238
1602674639.1241,530
1602674639.1244,712
1602674639.1248,513
1602674639.1251,-46
1602674639.1254,-340
1602674639.1256,-121
1602674639.1258,17
1602674639.1261,-65
1602674639.1263,-48
1602674639.1265,2
1602674639.1267,-19
1602674639.1269,-14
1602674639.6824,9
1602674639.6843,12
1602674639.6858,17
1602674639.6872,24
1602674639.6886,17
1602674639.6904,21
1602674639.6915,36
1602674639.6926,46
1602674639.6936,48
1602674639.6945,51
1602674639.6955,55
1602674639.6964,68
1602674639.6975,80
1602674639.6985,90
1602674639.6992,102
1602674639.6999,111
1602674639.7006,133
1602674639.7012,155
1602674639.7019,167
1602674639.7026,175
1602674639.7033,177
1602674639.7040,180
1602674639.7046,177
1602674639.7053,153
1602674639.7059,102
1602674639.7066,51
1602674639.7073,21
1602674639.7080,0
1602674639.7086,-21
1602674639.7093,-24
1602674639.7100,-19
1602674639.7107,-19
1602674639.7112,-21
1602674639.7117,-9
1602674639.7122,-2
1602674639.7127,-4
1602674639.7133,-2
1602674639.7138,14
1602674639.7143,26
1602674639.7148,14
1602674639.7153,9
1602674639.7158,17
1602674639.7162,19
1602674639.7166,19
1602674639.7171,26
1602674639.7175,31
1602674639.7180,26
1602674639.7184,24
1602674639.7188,21
1602674639.7192,19
1602674639.7197,14
1602674639.7201,14
1602674639.7205,21
1602674639.7209,26
1602674639.7213,24
1602674639.7217,26
1602674639.7222,31
1602674639.7227,29
1602674639.7233,29
1602674639.7238,34
1602674639.7241,38
1602674639.7244,53
1602674639.7248,65
1602674639.7251,63
1602674639.7255,60
1602674639.7258,53
1602674639.7261,34
1602674639.7265,29
1602674639.7268,38
1602674639.7271,34
1602674639.7275,26
1602674639.7278,34
1602674639.7280,41
1602674640.2529,36
1602674640.2548,31
1602674640.2563,29
1602674640.2578,65
1602674640.2588,226
1602674640.2597,510
1602674640.2607,712
1602674640.2616,528
1602674640.2625,-26
1602674640.2635,-323
1602674640.2644,-114
1602674640.2653,21
1602674640.2664,-60
1602674640.2675,-46
1602674640.2682,7
1602674640.2689,-14
1602674640.2695,-14
1602674640.2703,14
1602674640.2712,14
1602674640.2719,9
1602674640.2726,26
1602674640.2732,34
1602674640.2739,34
1602674640.2746,43
1602674640.2754,53
1602674640.2761,51
1602674640.2766,46
1602674640.2771,51
1602674640.2777,60
1602674640.2782,65
1602674640.2788,77
1602674640.2793,92
1602674640.2798,97
1602674640.2803,104
1602674640.2812,133
1602674640.2818,158
1602674640.2824,150
1602674640.2829,143
1602674640.2835,150
1602674640.2840,145
1602674640.2845,109
1602674640.2850,58
1602674640.2854,19
1602674640.2859,-9
1602674640.2863,-38
1602674640.2868,-53
1602674640.2872,-51
1602674640.2877,-46
1602674640.2881,-36
1602674640.2885,-31
1602674640.2890,-34
1602674640.2894,-26
1602674640.2897,-14
1602674640.2901,-7
1602674640.2904,-7
1602674640.2907,-7
1602674640.2911,-2
1602674640.2914,2
1602674640.2917,7
1602674640.2921,14
1602674640.2924,12
1602674640.2928,14
1602674640.2931,21
1602674640.2933,21
1602674640.2935,14
1602674640.2937,19
1602674640.2939,21
1602674640.2941,17
1602674640.2944,17
1602674640.2946,21
1602674640.2948,26
1602674640.2950,24
1602674640.2952,19
1602674640.7927,24
1602674640.7945,29
1602674640.7959,29
1602674640.7974,29
1602674640.7988,31
1602674640.8004,31
1602674640.8015,29
1602674640.8024,34
1602674640.8034,38
1602674640.8044,34
1602674640.8053,31
1602674640.8064,38
1602674640.8076,34
1602674640.8087,29
1602674640.8097,36
1602674640.8105,38
1602674640.8112,36
1602674640.8118,41
1602674640.8125,48
1602674640.8132,58
1602674640.8138,75
1602674640.8145,80
1602674640.8151,65
1602674640.8159,51
1602674640.8166,38
1602674640.8172,31
1602674640.8180,29
1602674640.8185,36
1602674640.8190,43
1602674640.8195,38
1602674640.8201,31
1602674640.8206,31
1602674640.8211,34
1602674640.8216,41
1602674640.8221,131
1602674640.8226,369
1602674640.8231,632
1602674640.8236,674
1602674640.8241,299
1602674640.8247,-204
1602674640.8252,-231
1602674640.8257,7
1602674640.8263,2
1602674640.8268,-58
1602674640.8272,0
1602674640.8276,17
1602674640.8281,-7
1602674640.8285,12
1602674640.8289,29
1602674640.8294,21
1602674640.8298,26
1602674640.8303,41
1602674640.8307,38
1602674640.8311,38
1602674640.8315,46
1602674640.8319,43
1602674640.8323,41
1602674640.8327,53
1602674640.8331,68
1602674640.8336,75
1602674640.8340,82
1602674640.8344,90
1602674640.8349,102
1602674640.8353,111
1602674640.8356,124
1602674640.8360,143
1602674640.8363,155
1602674640.8367,165
1602674640.8370,175
1602674640.8373,172
1602674640.8377,155
1602674640.8380,121
1602674640.8384,72
1602674641.3630,26
1602674641.3650,-7
1602674641.3666,-34
1602674641.3682,-48
1602674641.3697,-48
1602674641.3707,-48
1602674641.3716,-48
1602674641.3725,-48
1602674641.3735,-43
1602674641.3744,-34
1602674641.3753,-34
1602674641.3763,-36
1602674641.3773,-24
1602674641.3783,-17
1602674641.3792,-21
1602674641.3800,-19
1602674641.3807,-12
1602674641.3814,-9
1602674641.3820,-7
1602674641.3827,-4
1602674641.3835,-2
1602674641.3842,-4
1602674641.3849,-4
1602674641.3856,2
1602674641.3863,4
1602674641.3870,0
1602674641.3877,-9
1602674641.3882,-7
1602674641.3887,4
1602674641.3893,7
1602674641.3898,2
1602674641.3903,4
1602674641.3908,7
1602674641.3913,4
1602674641.3918,7
1602674641.3924,9
1602674641.3929,9
1602674641.3934,14
1602674641.3939,14
1602674641.3944,14
1602674641.3949,17
1602674641.3957,21
1602674641.3963,21
1602674641.3968,24
1602674641.3973,29
1602674641.3978,26
1602674641.3984,26
1602674641.3990,29
1602674641.3995,29
1602674641.3999,26
1602674641.4004,26
1602674641.4009,31
1602674641.4012,36
1602674641.4015,31
1602674641.4019,29
1602674641.4022,34
1602674641.4026,38
1602674641.4029,36
1602674641.4032,36
1602674641.4036,41
1602674641.4039,55
1602674641.4042,68
1602674641.4046,68
1602674641.4049,63
1602674641.4051,60
1602674641.4053,48
1602674641.4055,34
1602674641.4057,31
1602674641.4060,36
1602674641.4062,34
1602674641.4064,34
1602674641.4066,38
1602674641.4068,43
1602674641.9025,38
1602674641.9042,38
1602674641.9056,111
1602674641.9070,326
1602674641.9083,603
1602674641.9097,712
1602674641.9107,401
1602674641.9116,-153
1602674641.9126,-299
1602674641.9135,-48
1602674641.9144,7
1602674641.9154,-72
1602674641.9164,-29
1602674641.9174,4
1602674641.9183,-19
1602674641.9192,-9
1602674641.9199,9
1602674641.9206,4
1602674641.9212,9
1602674641.9221,12
1602674641.9229,7
1602674641.9236,19
1602674641.9243,34
1602674641.9250,31
1602674641.9256,38
1602674641.9263,53
1602674641.9270,55
1602674641.9276,63
1602674641.9283,77
1602674641.9288,82
1602674641.9293,92
1602674641.9298,102
1602674641.9304,109
1602674641.9309,128
1602674641.9314,145
1602674641.9319,148
1602674641.9324,153
1602674641.9330,153
1602674641.9335,138
1602674641.9341,114
1602674641.9347,75
1602674641.9353,26
1602674641.9358,-9
1602674641.9364,-29
1602674641.9368,-41
1602674641.9373,-55
1602674641.9377,-55
1602674641.9382,-53
1602674641.9386,-53
1602674641.9390,-46
1602674641.9394,-36
1602674641.9399,-34
1602674641.9403,-29
1602674641.9407,-24
1602674641.9412,-19
1602674641.9416,-12
1602674641.9419,-9
1602674641.9423,-7
1602674641.9426,4
1602674641.9429,12
1602674641.9433,9
1602674641.9436,9
1602674641.9440,12
1602674641.9443,9
1602674641.9446,12
1602674641.9450,14
1602674641.9453,12
1602674641.9455,9
1602674641.9457,9
1602674641.9459,12
1602674641.9462,9
1602674641.9464,4
1602674641.9466,7
1602674642.4717,9
1602674642.4733,12
1602674642.4749,17
1602674642.4763,21
1602674642.4776,19
1602674642.4790,14
1602674642.4800,14
1602674642.4809,21
1602674642.4819,21
1602674642.4828,17
1602674642.4839,14
1602674642.4849,14
1602674642.4859,12
1602674642.4868,12
1602674642.4878,17
1602674642.4885,21
1602674642.4892,24
1602674642.4899,21
1602674642.4905,21
1602674642.4912,29
1602674642.4919,36
1602674642.4925,31
1602674642.4932,31
1602674642.4939,36
1602674642.4946,36
1602674642.4952,41
1602674642.4960,55
1602674642.4967,65
1602674642.4973,58
1602674642.4978,43
1602674642.4984,29
1602674642.4989,17
1602674642.4994,19
1602674642.5000,19
1602674642.5005,19
1602674642.5011,21
1602674642.5016,26
1602674642.5021,31
1602674642.5027,34
1602674642.5032,36
1602674642.5037,102
1602674642.5042,316
1602674642.5047,605
1602674642.5053,725
1602674642.5057,408
1602674642.5061,-155
1602674642.5066,-299
1602674642.5070,-46
1602674642.5077,12
1602674642.5082,-55
1602674642.5087,-4
1602674642.5092,17
1602674642.5096,-12
1602674642.5101,-2
1602674642.5105,14
1602674642.5108,12
1602674642.5111,17
1602674642.5115,29
1602674642.5118,31
1602674642.5121,29
1602674642.5125,31
1602674642.5128,43
1602674642.5131,51
1602674642.5135,53
1602674642.5138,58
1602674642.5141,70
1602674642.5143,87
1602674642.5146,97
1602674642.5148,104
1602674642.5150,121
1602674642.5152,141
1602674642.5154,150
1602674642.5156,158
1602674643.0722,172
1602674643.0739,184
1602674643.0753,182
1602674643.0767,163
1602674643.0781,126
1602674643.0795,82
1602674643.0804,36
1602674643.0814,-9
1602674643.0824,-34
1602674643.0833,-46
1602674643.0844,-58
1602674643.0854,-58
1602674643.0863,-46
1602674643.0873,-43
1602674643.0883,-41
1602674643.0890,-31
1602674643.0897,-24
1602674643.0904,-19
1602674643.0910,-14
1602674643.0917,-9
1602674643.0923,-9
1602674643.0930,-7
1602674643.0937,0
1602674643.0943,12
1602674643.0950,17
1602674643.0957,14
1602674643.0966,14
1602674643.0973,19
1602674643.0980,21
1602674643.0985,26
1602674643.0990,29
1602674643.0996,29
1602674643.1001,24
1602674643.1007,21
1602674643.1013,21
1602674643.1018,24
1602674643.1023,26
1602674643.1028,29
1602674643.1033,34
1602674643.1038,34
1602674643.1044,31
1602674643.1049,34
1602674643.1054,34
1602674643.1058,36
1602674643.1062,38
1602674643.1066,38
1602674643.1070,38
1602674643.1075,41
1602674643.1080,38
1602674643.1084,34
1602674643.1089,26
1602674643.1093,21
1602674643.1097,19
1602674643.1101,26
1602674643.1105,31
1602674643.1109,31
1602674643.1113,34
1602674643.1117,36
1602674643.1121,34
1602674643.1125,36
1602674643.1129,36
1602674643.1133,36
1602674643.1137,36
1602674643.1142,36
1602674643.1145,36
1602674643.1149,38
1602674643.1152,41
1602674643.1156,48
1602674643.1159,60
1602674643.1162,63
1602674643.1166,48
1602674643.1169,38
1602674643.1173,31
1602674643.6126,14
1602674643.6144,7
1602674643.6159,9
1602674643.6175,9
1602674643.6193,12
1602674643.6206,17
1602674643.6216,21
1602674643.6226,17
1602674643.6235,9
1602674643.6244,38
1602674643.6254,192
1602674643.6264,459
1602674643.6274,669
1602674643.6284,564
1602674643.6293,68
1602674643.6300,-306
1602674643.6307,-160
1602674643.6314,17
1602674643.6320,-46
1602674643.6327,-63
1602674643.6333,-9
1602674643.6341,-14
1602674643.6348,-14
1602674643.6354,9
1602674643.6361,12
1602674643.6367,9
1602674643.6374,21
1602674643.6380,29
1602674643.6385,36
1602674643.6390,43
1602674643.6395,51
1602674643.6400,55
1602674643.6406,63
1602674643.6411,68
1602674643.6416,77
1602674643.6421,90
1602674643.6426,99
1602674643.6431,109
1602674643.6436,121
1602674643.6441,133
1602674643.6446,150
1602674643.6451,167
1602674643.6456,175
1602674643.6460,180
1602674643.6464,182
1602674643.6469,182
1602674643.6473,167
1602674643.6477,133
1602674643.6481,87
1602674643.6485,41
1602674643.6490,4
1602674643.6495,-14
1602674643.6500,-21
1602674643.6504,-26
1602674643.6508,-26
1602674643.6514,-24
1602674643.6519,-14
1602674643.6524,-7
1602674643.6528,-9
1602674643.6532,-7
1602674643.6536,2
1602674643.6541,7
1602674643.6545,2
1602674643.6548,-2
1602674643.6551,4
1602674643.6555,9
1602674643.6558,2
1602674643.6562,4
1602674643.6565,9
1602674643.6568,12
1602674643.6572,17
1602674643.6575,19
1602674643.6579,17
1602674644.1825,17
1602674644.1842,14
1602674644.1857,12
1602674644.1871,17
1602674644.1885,17
1602674644.1899,17
1602674644.1909,19
1602674644.1918,19
1602674644.1927,12
1602674644.1937,7
1602674644.1946,14
1602674644.1956,24
1602674644.1965,19
1602674644.1974,17
1602674644.1984,19
1602674644.1991,17
1602674644.1998,12
1602674644.2005,12
1602674644.2014,9
1602674644.2021,9
1602674644.2028,17
1602674644.2035,19
1602674644.2041,17
1602674644.2049,14
1602674644.2056,9
1602674644.2062,12
1602674644.2069,21
1602674644.2075,26
1602674644.2080,24
1602674644.2085,24
1602674644.2091,26
1602674644.2096,29
1602674644.2101,26
1602674644.2108,21
1602674644.2114,21
1602674644.2121,24
1602674644.2126,24
1602674644.2131,26
1602674644.2137,38
1602674644.2142,53
1602674644.2147,65
1602674644.2152,65
1602674644.2157,48
1602674644.2161,34
1602674644.2166,29
1602674644.2170,31
1602674644.2175,36
1602674644.2180,36
1602674644.2184,31
1602674644.2189,31
1602674644.2193,36
1602674644.2197,36
1602674644.2201,38
1602674644.2205,97
1602674644.2210,291
1602674644.2214,559
1602674644.2218,688
1602674644.2222,440
1602674644.2226,-75
1602674644.2230,-262
1602674644.2234,-46
1602674644.2239,29
1602674644.2243,-51
1602674644.2246,-17
1602674644.2249,21
1602674644.2253,-2
1602674644.2256,-2
1602674644.2259,17
1602674644.2263,21
1602674644.2266,29
1602674644.2270,41
1602674644.2273,43
1602674644.2276,46
1602674644.7225,51
1602674644.7242,60
1602674644.7256,68
1602674644.7267,72
1602674644.7276,80
1602674644.7286,87
1602674644.7296,94
1602674644.7306,104
1602674644.7315,116
1602674644.7324,121
1602674644.7334,131
1602674644.7348,148
1602674644.7357,158
1602674644.7364,170
1602674644.7371,189
1602674644.7378,194
1602674644.7384,182
1602674644.7391,160
1602674644.7398,121
1602674644.7405,72
1602674644.7411,29
1602674644.7418,2
1602674644.7424,-14
1602674644.7431,-31
1602674644.7438,-48
1602674644.7443,-46
1602674644.7448,-34
1602674644.7453,-29
1602674644.7458,-26
1602674644.7464,-19
1602674644.7470,-17
1602674644.7475,-14
1602674644.7480,-7
1602674644.7485,-4
1602674644.7490,-2
1602674644.7495,4
1602674644.7501,9
1602674644.7506,9
1602674644.7511,14
1602674644.7518,21
1602674644.7523,17
1602674644.7528,14
1602674644.7532,19
1602674644.7537,19
1602674644.7541,12
1602674644.7545,7
1602674644.7551,2
1602674644.7555,-7
1602674644.7559,-17
1602674644.7564,-12
1602674644.7568,-7
1602674644.7574,-2
1602674644.7577,0
1602674644.7581,-7
1602674644.7584,-4
1602674644.7587,2
1602674644.7591,-4
1602674644.7595,-4
1602674644.7598,4
1602674644.7602,4
1602674644.7605,0
1602674644.7609,7
1602674644.7613,14
1602674644.7616,14
1602674644.7618,9
1602674644.7620,9
1602674644.7622,17
1602674644.7624,21
1602674644.7627,17
1602674644.7629,17
1602674644.7631,24
1602674644.7633,24
1602674644.7635,19
1602674645.2925,21
1602674645.2940,34
1602674645.2955,34
1602674645.2970,31
1602674645.2983,29
1602674645.2997,31
1602674645.3007,36
1602674645.3018,43
1602674645.3029,48
1602674645.3038,51
1602674645.3048,34
1602674645.3058,17
1602674645.3068,17
1602674645.3077,19
1602674645.3086,21
1602674645.3093,19
1602674645.3100,19
1602674645.3106,26
1602674645.3113,26
1602674645.3119,24
1602674645.3126,72
1602674645.3133,243
1602674645.3139,506
1602674645.3146,688
1602674645.3153,523
1602674645.3159,0
1602674645.3166,-291
1602674645.3173,-97
1602674645.3178,31
1602674645.3184,-55
1602674645.3189,-36
1602674645.3194,21
1602674645.3200,2
1602674645.3205,-2
1602674645.3210,21
1602674645.3215,24
1602674645.3220,21
1602674645.3225,34
1602674645.3230,38
1602674645.3236,38
1602674645.3243,36
1602674645.3249,36
1602674645.3255,43
1602674645.3261,63
1602674645.3266,77
1602674645.3270,75
1602674645.3274,72
1602674645.3278,80
1602674645.3283,94
1602674645.3288,114
1602674645.3292,131
1602674645.3296,141
1602674645.3300,148
1602674645.3305,160
1602674645.3310,175
1602674645.3313,184
1602674645.3316,180
1602674645.3320,155
1602674645.3323,109
1602674645.3327,63
1602674645.3330,31
1602674645.3333,2
1602674645.3337,-21
1602674645.3340,-36
1602674645.3344,-43
1602674645.3347,-48
1602674645.3350,-43
1602674645.3352,-36
1602674645.3354,-31
1602674645.3356,-21
1602674645.3359,-17
1602674645.3361,-21
1602674645.3363,-19
1602674645.8325,-7
1602674645.8342,2
1602674645.8358,4
1602674645.8372,4
1602674645.8388,2
1602674645.8401,2
1602674645.8411,0
1602674645.8420,-4
1602674645.8430,-9
1602674645.8439,-4
1602674645.8449,4
1602674645.8460,2
1602674645.8469,-2
1602674645.8478,-2
1602674645.8487,-7
1602674645.8494,-9
1602674645.8501,-4
1602674645.8508,-2
1602674645.8518,-4
1602674645.8526,-2
1602674645.8533,2
1602674645.8540,0
1602674645.8547,-4
1602674645.8554,-4
1602674645.8561,-2
1602674645.8568,4
1602674645.8578,12
1602674645.8585,7
1602674645.8590,4
1602674645.8596,12
1602674645.8602,17
1602674645.8607,14
1602674645.8613,12
1602674645.8618,4
1602674645.8623,0
1602674645.8629,4
1602674645.8634,9
1602674645.8639,9
1602674645.8644,9
1602674645.8649,7
1602674645.8654,7
1602674645.8659,19
1602674645.8664,43
1602674645.8668,48
1602674645.8672,43
1602674645.8677,38
1602674645.8681,24
1602674645.8686,12
1602674645.8691,17
1602674645.8696,24
1602674645.8700,24
1602674645.8705,21
1602674645.8708,26
1602674645.8712,31
1602674645.8715,29
1602674645.8719,51
1602674645.8722,189
1602674645.8725,455
1602674645.8729,691
1602674645.8732,625
1602674645.8735,138
1602674645.8739,-282
1602674645.8742,-165
1602674645.8745,31
1602674645.8747,-29
1602674645.8750,-41
1602674645.8752,21
1602674645.8754,9
1602674645.8756,0
1602674645.8759,21
1602674645.8761,21
1602674645.8763,21
1602674645.8765,43
1602674646.4349,53
1602674646.4365,46
1602674646.4380,53
1602674646.4390,65
1602674646.4400,63
1602674646.4409,60
1602674646.4418,72
1602674646.4428,85
1602674646.4438,87
1602674646.4448,94
1602674646.4458,111
1602674646.4468,124
1602674646.4477,133
1602674646.4485,145
1602674646.4492,170
1602674646.4499,189
1602674646.4506,194
1602674646.4514,192
1602674646.4521,189
1602674646.4528,177
1602674646.4535,138
1602674646.4541,85
1602674646.4548,36
1602674646.4555,7
1602674646.4562,-12
1602674646.4567,-34
1602674646.4572,-43
1602674646.4577,-36
1602674646.4582,-34
1602674646.4587,-41
1602674646.4593,-34
1602674646.4598,-21
1602674646.4603,-24
1602674646.4608,-21
1602674646.4613,-9
1602674646.4618,-4
1602674646.4624,-4
1602674646.4629,0
1602674646.4634,2
1602674646.4639,4
1602674646.4644,9
1602674646.4649,12
1602674646.4653,19
1602674646.4657,26
1602674646.4661,24
1602674646.4666,19
1602674646.4670,19
1602674646.4676,21
1602674646.4682,24
1602674646.4688,24
1602674646.4691,21
1602674646.4695,19
1602674646.4698,19
1602674646.4702,14
1602674646.4705,12
1602674646.4708,14
1602674646.4712,12
1602674646.4715,9
1602674646.4718,17
1602674646.4722,19
1602674646.4725,14
1602674646.4728,7
1602674646.4730,7
1602674646.4733,14
1602674646.4735,19
1602674646.4737,21
1602674646.4739,21
1602674646.4741,21
1602674646.4744,21
1602674646.4746,21
1602674646.4748,26
1602674646.4750,29
1602674646.4752,29
1602674647.0323,29
1602674647.0340,31
1602674647.0355,34
1602674647.0370,36
1602674647.0384,38
1602674647.0397,36
1602674647.0406,38
1602674647.0415,48
1602674647.0425,60
1602674647.0435,63
1602674647.0444,53
1602674647.0454,43
1602674647.0463,38
1602674647.0472,26
1602674647.0482,19
1602674647.0489,26
1602674647.0496,34
1602674647.0503,34
1602674647.0509,26
1602674647.0516,17
1602674647.0523,7
1602674647.0532,14
1602674647.0538,102
1602674647.0545,323
1602674647.0552,588
1602674647.0561,698
1602674647.0569,406
1602674647.0575,-126
1602674647.0581,-267
1602674647.0586,-24
1602674647.0591,29
1602674647.0597,-51
1602674647.0602,-14
1602674647.0607,17
1602674647.0612,-2
1602674647.0618,9
1602674647.0623,26
1602674647.0628,21
1602674647.0633,34
1602674647.0638,53
1602674647.0643,51
1602674647.0648,51
1602674647.0653,65
1602674647.0657,70
1602674647.0661,72
1602674647.0666,80
1602674647.0670,87
1602674647.0674,97
1602674647.0679,107
1602674647.0683,109
1602674647.0688,124
1602674647.0692,141
1602674647.0696,148
1602674647.0700,158
1602674647.0705,172
1602674647.0709,184
1602674647.0713,194
1602674647.0717,194
1602674647.0721,182
1602674647.0725,160
1602674647.0729,119
1602674647.0733,68
1602674647.0737,26
1602674647.0742,7
1602674647.0745,-9
1602674647.0748,-21
1602674647.0752,-24
1602674647.0755,-19
1602674647.0758,-14
1602674647.0762,-12
1602674647.0765,-7
1602674647.0769,-4
1602674647.0772,0
1602674647.5421,0
1602674647.5442,2
1602674647.5456,9
1602674647.5475,14
1602674647.5490,19
1602674647.5501,21
1602674647.5511,19
1602674647.5521,21
1602674647.5532,24
1602674647.5541,26
1602674647.5550,26
1602674647.5560,19
1602674647.5569,9
1602674647.5576,9
1602674647.5583,12
1602674647.5590,14
1602674647.5597,14
1602674647.5603,12
1602674647.5610,9
1602674647.5617,14
1602674647.5623,17
1602674647.5630,9
1602674647.5636,9
1602674647.5643,12
1602674647.5649,14
1602674647.5656,12
1602674647.5661,9
1602674647.5667,9
1602674647.5673,14
1602674647.5679,12
1602674647.5686,12
1602674647.5692,17
1602674647.5698,19
1602674647.5703,19
1602674647.5709,21
1602674647.5714,26
1602674647.5720,29
1602674647.5725,26
1602674647.5730,24
1602674647.5735,29
1602674647.5740,31
1602674647.5745,36
1602674647.5749,36
1602674647.5753,26
1602674647.5758,21
1602674647.5762,26
1602674647.5766,31
1602674647.5771,38
1602674647.5775,41
1602674647.5779,31
1602674647.5784,38
1602674647.5788,58
1602674647.5793,68
1602674647.5797,68
1602674647.5802,65
1602674647.5807,53
1602674647.5812,43
1602674647.5816,34
1602674647.5820,29
1602674647.5824,36
1602674647.5829,43
1602674647.5832,43
1602674647.5836,38
1602674647.5839,43
1602674647.5842,46
1602674647.5846,58
1602674647.5849,175
1602674647.5853,428
1602674647.5856,666
1602674647.5860,642
1602674647.5863,214
1602674647.5867,-226
1602674647.5870,-170
1602674648.0822,38
1602674648.0838,0
1602674648.0855,-46
1602674648.0868,2
1602674648.0880,2
1602674648.0890,-14
1602674648.0900,2
1602674648.0909,12
1602674648.0918,7
1602674648.0928,21
1602674648.0937,38
1602674648.0946,34
1602674648.0954,34
1602674648.0961,43
1602674648.0968,53
1602674648.0975,60
1602674648.0981,72
1602674648.0988,80
1602674648.0995,85
1602674648.1002,92
1602674648.1008,107
1602674648.1016,124
1602674648.1023,136
1602674648.1030,143
1602674648.1035,155
1602674648.1040,175
1602674648.1046,187
1602674648.1051,189
1602674648.1056,192
1602674648.1061,180
1602674648.1067,143
1602674648.1072,94
1602674648.1079,48
1602674648.1086,7
1602674648.1092,-17
1602674648.1098,-29
1602674648.1103,-34
1602674648.1110,-36
1602674648.1116,-29
1602674648.1121,-24
1602674648.1125,-21
1602674648.1129,-14
1602674648.1134,-14
1602674648.1138,-17
1602674648.1142,-9
1602674648.1146,2
1602674648.1151,2
1602674648.1155,-4
1602674648.1159,0
1602674648.1164,7
1602674648.1168,7
1602674648.1171,7
1602674648.1174,17
1602674648.1178,19
1602674648.1181,14
1602674648.1185,17
1602674648.1188,21
1602674648.1192,19
1602674648.1196,17
1602674648.1199,19
1602674648.1202,21
1602674648.1205,21
1602674648.1207,21
1602674648.1210,19
1602674648.1212,17
1602674648.1214,7
1602674648.1216,-4
1602674648.1218,-4
1602674648.1221,0
1602674648.1223,-9
1602674648.1225,-14
1602674648.1227,-4
1602674648.1229,0
1602674648.6522,-2
1602674648.6540,-4
1602674648.6554,2
1602674648.6568,4
1602674648.6581,2
1602674648.6595,-7
1602674648.6605,-7
1602674648.6614,2
1602674648.6623,2
1602674648.6633,-2
1602674648.6645,-2
1602674648.6656,7
1602674648.6666,17
1602674648.6675,21
1602674648.6685,19
1602674648.6693,21
1602674648.6700,19
1602674648.6706,12
1602674648.6713,19
1602674648.6720,36
1602674648.6727,51
1602674648.6734,51
1602674648.6741,51
1602674648.6748,41
1602674648.6755,19
1602674648.6762,7
1602674648.6769,12
1602674648.6774,21
1602674648.6780,26
1602674648.6785,26
1602674648.6790,29
1602674648.6795,31
1602674648.6800,29
1602674648.6805,63
1602674648.6810,211
1602674648.6815,474
1602674648.6821,688
1602674648.6826,586
1602674648.6831,85
1602674648.6837,-289
1602674648.6842,-138
1602674648.6847,26
1602674648.6852,-43
1602674648.6856,-31
1602674648.6861,34
1602674648.6865,12
1602674648.6870,2
1602674648.6874,21
1602674648.6878,21
1602674648.6883,24
1602674648.6887,38
1602674648.6891,43
1602674648.6896,46
1602674648.6901,51
1602674648.6904,58
1602674648.6907,68
1602674648.6911,72
1602674648.6914,72
1602674648.6918,80
1602674648.6921,94
1602674648.6924,99
1602674648.6929,94
1602674648.6932,102
1602674648.6936,126
1602674648.6939,148
1602674648.6942,158
1602674648.6946,170
1602674648.6949,180
1602674648.6952,187
1602674648.6956,184
1602674648.6959,163
1602674648.6962,121
1602674648.6966,80
1602674649.1922,41
1602674649.1940,-2
1602674649.1955,-26
1602674649.1969,-29
1602674649.1982,-29
1602674649.1997,-36
1602674649.2007,-41
1602674649.2016,-34
1602674649.2025,-29
1602674649.2036,-29
1602674649.2045,-29
1602674649.2055,-19
1602674649.2064,-9
1602674649.2074,-12
1602674649.2083,-9
1602674649.2092,0
1602674649.2099,-2
1602674649.2106,-7
1602674649.2112,0
1602674649.2119,9
1602674649.2126,14
1602674649.2132,14
1602674649.2139,14
1602674649.2145,17
1602674649.2152,19
1602674649.2159,19
1602674649.2165,17
1602674649.2174,17
1602674649.2181,19
1602674649.2186,17
1602674649.2192,17
1602674649.2198,19
1602674649.2203,19
1602674649.2208,17
1602674649.2213,12
1602674649.2219,12
1602674649.2224,17
1602674649.2229,14
1602674649.2234,9
1602674649.2242,14
1602674649.2248,14
1602674649.2254,9
1602674649.2260,14
1602674649.2265,21
1602674649.2270,21
1602674649.2274,17
1602674649.2279,19
1602674649.2283,19
1602674649.2287,14
1602674649.2292,14
1602674649.2296,26
1602674649.2300,31
1602674649.2304,24
1602674649.2309,21
1602674649.2314,17
1602674649.2317,17
1602674649.2320,24
1602674649.2324,24
1602674649.2327,21
1602674649.2330,31
1602674649.2334,48
1602674649.2337,55
1602674649.2341,58
1602674649.2344,53
1602674649.2347,36
1602674649.2351,19
1602674649.2354,19
1602674649.2356,31
1602674649.2358,41
1602674649.2360,38
1602674649.2362,34
1602674649.2365,36
1602674649.2367,38
1602674649.7919,41
1602674649.7938,109
1602674649.7953,321
1602674649.7967,591
1602674649.7981,705
1602674649.7995,425
1602674649.8005,-114
1602674649.8014,-277
1602674649.8023,-34
1602674649.8033,29
1602674649.8045,-53
1602674649.8056,-14
1602674649.8065,24
1602674649.8075,2
1602674649.8084,12
1602674649.8091,34
1602674649.8097,34
1602674649.8107,36
1602674649.8115,46
1602674649.8123,51
1602674649.8130,51
1602674649.8136,53
1602674649.8143,63
1602674649.8150,77
1602674649.8156,90
1602674649.8163,90
1602674649.8170,92
1602674649.8176,104
1602674649.8181,119
1602674649.8186,128
1602674649.8191,138
1602674649.8197,158
1602674649.8203,175
1602674649.8210,182
1602674649.8217,192
1602674649.8222,204
1602674649.8228,206
1602674649.8233,192
1602674649.8238,160
1602674649.8243,119
1602674649.8249,72
1602674649.8253,29
1602674649.8258,2
1602674649.8262,-14
1602674649.8266,-31
1602674649.8270,-43
1602674649.8275,-48
1602674649.8279,-43
1602674649.8283,-31
1602674649.8288,-21
1602674649.8292,-21
1602674649.8296,-24
1602674649.8300,-12
1602674649.8304,-7
1602674649.8308,-7
1602674649.8312,2
1602674649.8316,9
1602674649.8320,7
1602674649.8324,7
1602674649.8328,17
1602674649.8332,24
1602674649.8337,19
1602674649.8341,17
1602674649.8344,24
1602674649.8347,31
1602674649.8351,31
1602674649.8354,21
1602674649.8358,17
1602674649.8362,17
1602674649.8365,12
1602674649.8369,4
1602674649.8373,7
1602674649.8376,17
1602674650.3621,12
1602674650.3638,7
1602674650.3653,14
1602674650.3667,14
1602674650.3681,12
1602674650.3695,12
1602674650.3705,14
1602674650.3715,14
1602674650.3725,12
1602674650.3734,9
1602674650.3743,14
1602674650.3753,19
1602674650.3762,17
1602674650.3771,14
1602674650.3781,21
1602674650.3790,26
1602674650.3797,29
1602674650.3804,31
1602674650.3810,31
1602674650.3817,26
1602674650.3823,26
1602674650.3830,38
1602674650.3837,38
1602674650.3843,29
1602674650.3850,29
1602674650.3856,41
1602674650.3864,43
1602674650.3873,38
1602674650.3880,36
1602674650.3886,38
1602674650.3891,36
1602674650.3897,31
1602674650.3902,31
1602674650.3907,41
1602674650.3912,48
1602674650.3917,55
1602674650.3922,70
1602674650.3928,70
1602674650.3933,51
1602674650.3938,36
1602674650.3943,34
1602674650.3948,31
1602674650.3953,26
1602674650.3958,26
1602674650.3963,31
1602674650.3968,36
1602674650.3975,36
1602674650.3980,38
1602674650.3986,36
1602674650.3990,55
1602674650.3995,180
1602674650.4000,435
1602674650.4004,666
1602674650.4009,637
1602674650.4012,206
1602674650.4016,-226
1602674650.4019,-155
1602674650.4023,51
1602674650.4026,0
1602674650.4029,-36
1602674650.4033,24
1602674650.4036,17
1602674650.4040,-7
1602674650.4043,19
1602674650.4047,34
1602674650.4050,34
1602674650.4052,43
1602674650.4054,51
1602674650.4056,51
1602674650.4058,55
1602674650.4061,60
1602674650.4063,68
1602674650.4065,80
1602674650.9022,85
1602674650.9039,87
1602674650.9054,97
1602674650.9069,114
1602674650.9083,119
1602674650.9096,126
1602674650.9106,145
1602674650.9115,160
1602674650.9125,172
1602674650.9134,180
1602674650.9143,184
1602674650.9153,189
1602674650.9162,184
1602674650.9171,163
1602674650.9181,138
1602674650.9190,104
1602674650.9197,55
1602674650.9204,9
1602674650.9211,-14
1602674650.9218,-26
1602674650.9225,-38
1602674650.9231,-41
1602674650.9238,-34
1602674650.9245,-29
1602674650.9254,-29
1602674650.9261,-24
1602674650.9269,-12
1602674650.9276,-7
1602674650.9281,-4
1602674650.9286,-7
1602674650.9292,-12
1602674650.9297,-9
1602674650.9302,0
1602674650.9307,0
1602674650.9312,-4
1602674650.9317,-4
1602674650.9322,0
1602674650.9327,2
1602674650.9332,2
1602674650.9338,4
1602674650.9343,7
1602674650.9348,4
1602674650.9353,4
1602674650.9358,7
1602674650.9363,7
1602674650.9367,7
1602674650.9372,12
1602674650.9378,14
1602674650.9382,9
1602674650.9387,9
1602674650.9392,12
1602674650.9396,14
1602674650.9401,19
1602674650.9406,24
1602674650.9409,21
1602674650.9413,19
1602674650.9416,21
1602674650.9419,26
1602674650.9423,29
1602674650.9426,29
1602674650.9430,26
1602674650.9433,31
1602674650.9437,36
1602674650.9440,36
1602674650.9443,34
1602674650.9446,36
1602674650.9449,31
1602674650.9451,34
1602674650.9453,43
1602674650.9455,46
1602674650.9457,43
1602674650.9459,43
1602674650.9462,43
1602674651.4710,43
1602674651.4726,43
1602674651.4744,43
1602674651.4759,46
1602674651.4773,48
1602674651.4784,43
1602674651.4793,36
1602674651.4802,34
1602674651.4812,38
1602674651.4821,41
1602674651.4830,38
1602674651.4840,36
1602674651.4850,31
1602674651.4859,36
1602674651.4866,58
1602674651.4873,75
1602674651.4881,72
1602674651.4892,60
1602674651.4902,43
1602674651.4912,34
1602674651.4921,36
1602674651.4928,34
1602674651.4935,26
1602674651.4941,21
1602674651.4948,21
1602674651.4954,31
1602674651.4960,34
1602674651.4965,34
1602674651.4971,92
1602674651.4976,277
1602674651.4981,540
1602674651.4986,691
1602674651.4992,467
1602674651.4997,-55
1602674651.5002,-270
1602674651.5008,-51
1602674651.5014,34
1602674651.5019,-51
1602674651.5024,-19
1602674651.5029,29
1602674651.5035,4
1602674651.5040,7
1602674651.5045,29
1602674651.5049,21
1602674651.5053,17
1602674651.5057,31
1602674651.5062,46
1602674651.5067,46
1602674651.5072,48
1602674651.5077,55
1602674651.5082,60
1602674651.5086,68
1602674651.5089,80
1602674651.5094,85
1602674651.5098,90
1602674651.5101,97
1602674651.5105,104
1602674651.5108,116
1602674651.5112,131
1602674651.5115,145
1602674651.5118,155
1602674651.5122,170
1602674651.5125,184
1602674651.5128,192
1602674651.5132,184
1602674651.5135,160
1602674651.5138,121
1602674651.5142,75
1602674651.5145,31
1602674651.5149,-4
1602674651.5152,-24
1602674651.5155,-31
1602674651.5159,-41
1602674652.0115,-43
1602674652.0132,-38
1602674652.0146,-38
1602674652.0163,-43
1602674652.0177,-41
1602674652.0191,-36
1602674652.0201,-38
1602674652.0210,-43
1602674652.0220,-41
1602674652.0230,-31
1602674652.0239,-34
1602674652.0248,-29
1602674652.0258,-19
1602674652.0267,-17
1602674652.0277,-19
1602674652.0286,-21
1602674652.0293,-26
1602674652.0300,-19
1602674652.0307,-12
1602674652.0313,-12
1602674652.0320,-9
1602674652.0326,-4
1602674652.0333,-2
1602674652.0340,0
1602674652.0346,0
1602674652.0353,2
1602674652.0359,4
1602674652.0367,4
1602674652.0373,4
1602674652.0378,4
1602674652.0384,9
1602674652.0392,12
1602674652.0398,14
1602674652.0404,14
1602674652.0409,14
1602674652.0414,14
1602674652.0420,19
1602674652.0426,21
1602674652.0431,19
1602674652.0436,19
1602674652.0441,21
1602674652.0446,26
1602674652.0452,26
1602674652.0456,29
1602674652.0460,29
1602674652.0465,29
1602674652.0469,36
1602674652.0473,38
1602674652.0477,34
1602674652.0482,36
1602674652.0486,41
1602674652.0490,38
1602674652.0495,36
1602674652.0500,38
1602674652.0504,43
1602674652.0507,43
1602674652.0510,43
1602674652.0514,53
1602674652.0517,68
1602674652.0521,70
1602674652.0524,65
1602674652.0527,58
1602674652.0531,48
1602674652.0534,46
1602674652.0538,41
1602674652.0540,36
1602674652.0542,36
1602674652.0545,38
1602674652.0547,46
1602674652.0549,46
1602674652.0551,38
1602674652.0553,58
1602674652.0556,177
1602674652.5821,420
1602674652.5836,664
1602674652.5846,669
1602674652.5855,245
1602674652.5864,-245
1602674652.5874,-216
1602674652.5884,14
1602674652.5894,-19
1602674652.5903,-65
1602674652.5916,2
1602674652.5926,4
1602674652.5934,-17
1602674652.5940,7
1602674652.5947,21
1602674652.5954,19
1602674652.5961,34
1602674652.5968,43
1602674652.5974,43
1602674652.5981,51
1602674652.5987,55
1602674652.5994,58
1602674652.6001,65
1602674652.6008,72
1602674652.6015,75
1602674652.6020,87
1602674652.6025,92
1602674652.6030,94
1602674652.6035,104
1602674652.6042,119
1602674652.6047,138
1602674652.6053,155
1602674652.6058,170
1602674652.6064,180
1602674652.6069,187
1602674652.6074,184
1602674652.6079,172
1602674652.6084,145
1602674652.6089,99
1602674652.6094,51
1602674652.6100,12
1602674652.6104,-14
1602674652.6108,-34
1602674652.6112,-36
1602674652.6117,-36
1602674652.6121,-38
1602674652.6125,-36
1602674652.6129,-36
1602674652.6133,-38
1602674652.6138,-38
1602674652.6142,-31
1602674652.6147,-26
1602674652.6150,-29
1602674652.6154,-19
1602674652.6157,-4
1602674652.6161,0
1602674652.6164,-4
1602674652.6167,-2
1602674652.6171,0
1602674652.6174,-4
1602674652.6177,-4
1602674652.6182,0
1602674652.6185,7
1602674652.6187,7
1602674652.6190,2
1602674652.6192,4
1602674652.6194,12
1602674652.6196,9
1602674652.6198,4
1602674652.6200,17
1602674652.6203,26
1602674652.6205,21
1602674652.6207,17
1602674652.6209,14
1602674653.1819,2
1602674653.1836,0
1602674653.1850,9
1602674653.1864,12
1602674653.1879,14
1602674653.1895,14
1602674653.1905,9
1602674653.1915,14
1602674653.1924,19
1602674653.1933,19
1602674653.1943,19
1602674653.1953,29
1602674653.1962,29
1602674653.1972,24
1602674653.1981,26
1602674653.1990,31
1602674653.1996,31
1602674653.2003,26
1602674653.2009,26
1602674653.2016,31
1602674653.2023,29
1602674653.2029,29
1602674653.2036,36
1602674653.2043,41
1602674653.2050,38
1602674653.2057,38
1602674653.2064,38
1602674653.2071,38
1602674653.2077,41
1602674653.2082,43
1602674653.2087,51
1602674653.2092,65
1602674653.2098,75
1602674653.2103,68
1602674653.2108,63
1602674653.2113,60
1602674653.2118,48
1602674653.2123,36
1602674653.2130,38
1602674653.2137,43
1602674653.2143,38
1602674653.2148,38
1602674653.2154,48
