,hr,rr,ecg,gsr,temperature
1602931529.8262,77.0,764.0,7.0,443.9999999999999,36.44
1602931529.8287,77.0,764.0,99.0,443.9999999999999,36.44
1602931529.8313,77.0,764.0,1013.0,443.9999999999999,36.44
1602931529.8339,77.0,764.0,3225.0,443.9999999999999,36.44
1602931529.836,77.0,764.0,5323.0,443.9999999999999,36.44
1602931529.8381,77.0,764.0,6305.0,443.9999999999999,36.44
1602931529.8402,77.0,764.0,7112.0,443.9999999999999,36.44
1602931529.8418,77.0,764.0,8053.0,443.99999999999994,36.44
1602931529.8438,77.0,764.0,8664.0,443.99999999999994,36.44
1602931529.8457,77.0,764.0,9147.0,443.99999999999994,36.44
1602931529.8477,77.0,764.0,9695.0,443.99999999999994,36.44
1602931529.8499,77.0,764.0,10134.0,443.99999999999994,36.44
1602931529.8521,77.0,764.0,10471.0,443.99999999999994,36.44
1602931529.8542,77.0,764.0,10784.0,443.99999999999994,36.44
1602931529.8563,77.0,764.0,11053.0,443.99999999999994,36.44
1602931529.8583,77.0,764.0,11286.0,443.99999999999994,36.44
1602931529.8603,77.0,764.0,11516.0,443.99999999999994,36.44
1602931529.8617,77.0,764.0,11723.0,443.99999999999994,36.44
1602931529.8638,77.0,764.0,11907.0,443.99999999999994,36.44
1602931529.8657,77.0,764.0,12067.0,443.99999999999994,36.44
1602931529.8677,77.0,764.0,12217.0,443.99999999999994,36.44
1602931529.8698,77.0,764.0,12375.0,444.0,36.44
1602931529.8718,77.0,764.0,12496.0,444.0,36.44
1602931529.8737,77.0,764.0,12586.0,444.0,36.44
1602931529.8757,77.0,764.0,12710.0,444.0,36.44
1602931529.8777,77.0,764.0,12814.0,444.0,36.44
1602931529.8796,77.0,764.0,12867.0,444.0,36.44
1602931529.8816,77.0,764.0,12928.0,444.0,36.44
1602931529.8836,77.0,764.0,12991.0,444.0,36.44
1602931529.8856,77.0,764.0,13035.0,444.0,36.44
1602931529.8877,77.0,764.0,13083.0,444.0,36.44
1602931529.8897,77.0,764.0,13134.0,444.0,36.44
1602931529.8917,77.0,764.0,13163.0,444.0,36.44
1602931529.8936,77.0,764.0,13192.0,444.0,36.44
1602931529.8956,77.0,764.0,13241.0,444.0,36.44
1602931529.8976,77.0,764.0,13258.0,444.0,36.44
1602931529.8997,77.0,764.0,13255.0,444.0,36.44
1602931529.9017,77.0,764.0,13272.0,444.0,36.44
1602931529.9037,77.0,764.0,13277.0,444.00000000000006,36.44
1602931529.9056,77.0,764.0,13270.0,444.00000000000006,36.44
1602931529.9076,77.0,764.0,13272.0,444.00000000000006,36.44
1602931529.9097,77.0,764.0,13255.0,444.00000000000006,36.44
1602931529.9117,77.0,764.0,13221.0,444.00000000000006,36.44
1602931529.9137,77.0,764.0,13204.0,444.00000000000006,36.44
1602931529.9157,77.0,764.0,13197.0,444.00000000000006,36.44
1602931529.9177,77.0,764.0,13161.0,444.00000000000006,36.44
1602931529.9197,77.0,764.0,13110.0,444.00000000000006,36.44
1602931529.9217,77.0,764.0,13107.0,444.00000000000006,36.44
1602931529.9237,77.0,764.0,13110.0,444.00000000000006,36.44
1602931529.9257,77.0,764.0,13054.0,444.00000000000006,36.44
1602931529.9286,77.0,764.0,13003.0,443.99999999993634,36.44
1602931529.9297,77.0,764.0,12972.0,443.99999999993634,36.44
1602931529.9316,77.0,764.0,12906.0,443.99999999993634,36.44
1602931529.9336,77.0,764.0,12819.0,443.99999999993634,36.44
1602931529.9356,77.0,764.0,12761.0,443.99999999993634,36.44
1602931529.9376,77.0,764.0,12724.0,443.99999999993634,36.44
1602931529.9397,77.0,764.0,12673.0,443.99999999993634,36.44
1602931529.9417,77.0,764.0,12608.0,443.99999999993634,36.44
1602931529.9437,77.0,764.0,12542.0,443.99999999993634,36.44
1602931529.9456,77.0,764.0,12460.0,443.99999999993634,36.44
1602931529.9476,77.0,764.0,12375.0,443.99999999993634,36.44
1602931529.9497,77.0,764.0,12307.0,443.99999999993634,36.44
1602931529.9516,77.0,764.0,12319.0,443.99999999993634,36.44
1602931529.9536,77.0,764.0,12460.0,443.99999999993634,36.44
1602931529.9556,77.0,764.0,12535.0,443.99999999993634,36.44
1602931529.9576,77.0,764.0,12166.0,443.99999999993634,36.44
1602931529.9597,77.0,764.0,11572.0,443.99999999993634,36.44
1602931529.9616,77.0,764.0,11485.0,443.99999999993634,36.44
1602931529.9636,77.0,764.0,11769.0,443.99999999993634,36.44
1602931529.9656,77.0,764.0,11764.0,443.99999999993634,36.44
1602931529.9676,77.0,764.0,11609.0,443.99999999993634,36.44
1602931529.9697,77.0,764.0,11587.0,443.99999999993634,36.44
1602931529.9716,77.0,764.0,11531.0,443.99999999993634,36.44
1602931530.3933,78.0,783.0,11405.0,443.99999999993634,36.44
1602931530.3941,78.0,783.0,11313.0,443.99999999993634,36.44
1602931530.3966,78.0,783.0,11233.0,443.99999999993634,36.44
1602931530.3993,78.0,783.0,11141.0,443.99999999993634,36.44
1602931530.4012,78.0,783.0,11058.0,443.99999999993634,36.44
1602931530.4032,78.0,783.0,10978.0,443.99999999993634,36.44
1602931530.4052,78.0,783.0,10883.0,443.99999999993634,36.44
1602931530.4072,78.0,783.0,10794.0,443.99999999993634,36.44
1602931530.4093,78.0,783.0,10704.0,443.99999999993634,36.44
1602931530.4113,78.0,783.0,10609.0,443.99999999993634,36.44
1602931530.4132,78.0,783.0,10551.0,443.99999999993634,36.44
1602931530.4152,78.0,783.0,10495.0,443.99999999993634,36.44
1602931530.4172,78.0,783.0,10372.0,443.99999999993634,36.44
1602931530.4192,78.0,783.0,10263.0,443.99999999993634,36.44
1602931530.4211,78.0,783.0,10202.0,443.99999999993634,36.44
1602931530.4231,78.0,783.0,10112.0,443.99999999993634,36.44
1602931530.4251,78.0,783.0,10013.0,443.99999999993634,36.44
1602931530.4271,78.0,783.0,9930.0,443.99999999993634,36.44
1602931530.4292,78.0,783.0,9829.0,443.99999999993634,36.44
1602931530.4312,78.0,783.0,9736.0,443.99999999993634,36.44
1602931530.4331,78.0,783.0,9671.0,443.99999999993634,36.44
1602931530.4351,78.0,783.0,9579.0,443.99999999993634,36.44
1602931530.4371,78.0,783.0,9462.0,443.99999999993634,36.44
1602931530.4392,78.0,783.0,9361.0,443.99999999993634,36.44
1602931530.4411,78.0,783.0,9268.0,443.99999999993634,36.44
1602931530.4431,78.0,783.0,9196.0,443.99999999993634,36.44
1602931530.4451,78.0,783.0,9113.0,443.99999999993634,36.44
1602931530.4471,78.0,783.0,9002.0,443.99999999993634,36.44
1602931530.4494,78.0,783.0,8890.0,443.99999999993634,36.44
1602931530.4512,78.0,783.0,8788.0,443.99999999993634,36.44
1602931530.4532,78.0,783.0,8684.0,443.99999999993634,36.44
1602931530.4551,78.0,783.0,8604.0,443.99999999993634,36.44
1602931530.4571,78.0,783.0,8536.0,443.99999999993634,36.44
1602931530.4592,78.0,783.0,8415.0,443.99999999993634,36.44
1602931530.4611,78.0,783.0,8291.0,443.99999999993634,36.44
1602931530.4631,78.0,783.0,8204.0,443.99999999993634,36.44
1602931530.4651,78.0,783.0,8124.0,443.99999999993634,36.44
1602931530.4671,78.0,783.0,8036.0,443.99999999993634,36.44
1602931530.4692,78.0,783.0,7937.0,443.99999999993634,36.44
1602931530.4711,78.0,783.0,7840.0,443.99999999993634,36.44
1602931530.4731,78.0,783.0,7777.0,443.99999999993634,36.44
1602931530.4751,78.0,783.0,7714.0,443.99999999993634,36.44
1602931530.4771,78.0,783.0,7636.0,443.99999999993634,36.44
1602931530.4792,78.0,783.0,7554.0,443.99999999993634,36.44
1602931530.4811,78.0,783.0,7452.0,443.99999999993634,36.44
1602931530.4831,78.0,783.0,7331.0,443.99999999993634,36.44
1602931530.4851,78.0,783.0,7236.0,443.99999999993634,36.44
1602931530.4871,78.0,783.0,7207.0,443.99999999993634,36.44
1602931530.4891,78.0,783.0,7171.0,443.99999999993634,36.44
1602931530.4911,78.0,783.0,7066.0,443.99999999993634,36.44
1602931530.4931,78.0,783.0,6957.0,443.99999999993634,36.44
1602931530.4951,78.0,783.0,6877.0,443.99999999993634,36.44
1602931530.4971,78.0,783.0,6800.0,443.99999999993634,36.44
1602931530.4992,78.0,783.0,6724.0,443.99999999993634,36.44
1602931530.5011,78.0,783.0,6652.0,443.99999999993634,36.44
1602931530.5031,78.0,783.0,6581.0,443.99999999993634,36.44
1602931530.5051,78.0,783.0,6499.0,443.99999999993634,36.44
1602931530.5071,78.0,783.0,6409.0,443.99999999993634,36.44
1602931530.5092,78.0,783.0,6329.0,443.99999999993634,36.44
1602931530.5111,78.0,783.0,6251.0,443.99999999993634,36.44
1602931530.5131,78.0,783.0,6184.0,443.99999999993634,36.44
1602931530.5151,78.0,783.0,6111.0,443.99999999993634,36.44
1602931530.5171,78.0,783.0,6026.0,443.99999999993634,36.44
1602931530.5192,78.0,783.0,5953.0,443.99999999993634,36.44
1602931530.5211,78.0,783.0,5883.0,443.99999999993634,36.44
1602931530.5231,78.0,783.0,5808.0,443.99999999993634,36.44
1602931530.5251,78.0,783.0,5740.0,443.99999999993634,36.44
1602931530.5271,78.0,783.0,5684.0,443.99999999993634,36.44
1602931530.5292,78.0,783.0,5621.0,443.99999999993634,36.44
1602931530.5311,78.0,783.0,5536.0,443.99999999993634,36.44
1602931530.5331,78.0,783.0,5456.0,443.99999999993634,36.44
1602931530.5351,78.0,783.0,5393.0,443.99999999993634,36.44
1602931530.5371,78.0,783.0,5344.0,443.99999999993634,36.44
1602931530.9031,78.0,783.0,5284.0,443.99999999993634,36.44
1602931530.9037,78.0,783.0,5211.0,443.99999999993634,36.44
1602931530.9052,78.0,783.0,5153.0,443.99999999993634,36.44
1602931530.9071,78.0,783.0,5090.0,443.99999999993634,36.44
1602931530.9092,78.0,783.0,5012.0,443.99999999993634,36.44
1602931530.911,78.0,783.0,4939.0,443.99999999993634,36.44
1602931530.9132,78.0,783.0,4886.0,443.99999999993634,36.44
1602931530.9151,78.0,783.0,4842.0,443.99999999993634,36.44
1602931530.917,78.0,783.0,4782.0,443.99999999993634,36.44
1602931530.9191,78.0,783.0,4721.0,443.99999999993634,36.44
1602931530.921,78.0,783.0,4663.0,443.99999999993634,36.44
1602931530.923,78.0,783.0,4602.0,443.99999999993634,36.44
1602931530.925,78.0,783.0,4537.0,443.99999999993634,36.44
1602931530.9271,78.0,783.0,4437.0,443.99999999993634,36.44
1602931530.9291,78.0,783.0,4360.0,443.99999999993634,36.44
1602931530.931,78.0,783.0,4355.0,443.99999999993634,36.44
1602931530.933,78.0,783.0,4321.0,443.99999999993634,36.44
1602931530.935,78.0,783.0,4229.0,443.99999999993634,36.44
1602931530.937,78.0,783.0,4166.0,443.99999999993634,36.44
1602931530.9391,78.0,783.0,4129.0,443.99999999993634,36.44
1602931530.941,78.0,783.0,4069.0,443.99999999993634,36.44
1602931530.943,78.0,783.0,4008.0,443.99999999993634,36.44
1602931530.945,78.0,783.0,4032.0,443.99999999993634,36.44
1602931530.947,78.0,783.0,4212.0,443.99999999993634,36.44
1602931530.9491,78.0,783.0,4302.0,443.99999999993634,36.44
1602931530.951,78.0,783.0,3880.0,443.99999999993634,36.44
1602931530.953,78.0,783.0,3281.0,443.99999999993634,36.44
1602931530.955,78.0,783.0,3298.0,443.99999999993634,36.44
1602931530.957,78.0,783.0,3659.0,443.99999999993634,36.44
1602931530.9591,78.0,783.0,3678.0,443.99999999993634,36.44
1602931530.961,78.0,783.0,3564.0,443.99999999993634,36.44
1602931530.963,78.0,783.0,3574.0,443.99999999993634,36.44
1602931530.965,78.0,783.0,3535.0,443.99999999993634,36.44
1602931530.967,78.0,783.0,3458.0,443.99999999993634,36.44
1602931530.969,78.0,783.0,3433.0,443.99999999993634,36.44
1602931530.971,78.0,783.0,3392.0,443.99999999993634,36.44
1602931530.973,78.0,783.0,3334.0,443.99999999993634,36.44
1602931530.975,78.0,783.0,3329.0,443.99999999993634,36.44
1602931530.977,78.0,783.0,3300.0,443.99999999993634,36.44
1602931530.979,78.0,783.0,3218.0,443.99999999993634,36.44
1602931530.981,78.0,783.0,3174.0,443.99999999993634,36.44
1602931530.983,78.0,783.0,3172.0,443.99999999993634,36.44
1602931530.9852,78.0,783.0,3138.0,443.99999999993634,36.44
1602931530.9871,78.0,783.0,3082.0,443.99999999993634,36.44
1602931530.9891,78.0,783.0,3043.0,443.99999999993634,36.44
1602931530.991,78.0,783.0,3026.0,443.99999999993634,36.44
1602931530.9931,78.0,783.0,2995.0,443.99999999993634,36.44
1602931530.995,78.0,783.0,2944.0,443.99999999993634,36.44
1602931530.997,78.0,783.0,2917.0,443.99999999993634,36.44
1602931530.999,78.0,783.0,2912.0,443.99999999993634,36.44
1602931531.001,78.0,783.0,2883.0,443.99999999993634,36.44
1602931531.003,78.0,783.0,2839.0,443.99999999993634,36.44
1602931531.005,78.0,783.0,2808.0,443.99999999993634,36.44
1602931531.007,78.0,783.0,2786.0,443.99999999993634,36.44
1602931531.0092,78.0,783.0,2759.0,443.99999999993634,36.44
1602931531.011,78.0,783.0,2720.0,443.99999999993634,36.44
1602931531.013,78.0,783.0,2670.0,443.99999999993634,36.44
1602931531.0152,78.0,783.0,2626.0,443.99999999993634,36.44
1602931531.017,78.0,783.0,2585.0,443.99999999993634,36.44
1602931531.019,78.0,783.0,2546.0,443.99999999993634,36.44
1602931531.021,78.0,783.0,2512.0,443.99999999993634,36.44
1602931531.023,78.0,783.0,2483.0,443.99999999993634,36.44
1602931531.025,78.0,783.0,2459.0,443.99999999993634,36.44
1602931531.027,78.0,783.0,2415.0,443.99999999993634,36.44
1602931531.0292,78.0,783.0,2357.0,443.99999999993634,36.44
1602931531.0311,78.0,783.0,2306.0,443.99999999993634,36.44
1602931531.033,78.0,783.0,2257.0,443.99999999993634,36.44
1602931531.035,78.0,783.0,2221.0,443.99999999993634,36.44
1602931531.037,78.0,783.0,2204.0,443.99999999993634,36.44
1602931531.0391,78.0,783.0,2175.0,443.99999999993634,36.44
1602931531.041,78.0,783.0,2146.0,443.99999999993634,36.44
1602931531.043,78.0,783.0,2136.0,443.99999999993634,36.44
1602931531.045,78.0,783.0,2107.0,443.99999999993634,36.44
1602931531.4738,78.0,815.0,2068.0,443.99999999993634,36.44
1602931531.4747,78.0,815.0,2058.0,443.99999999993634,36.44
1602931531.4771,78.0,815.0,2054.0,443.99999999993634,36.44
1602931531.4798,78.0,815.0,2020.0,443.99999999993634,36.44
1602931531.4817,78.0,815.0,1981.0,443.99999999993634,36.44
1602931531.4837,78.0,815.0,1964.0,443.99999999993634,36.44
1602931531.4858,78.0,815.0,1932.0,443.99999999993634,36.44
1602931531.4877,78.0,815.0,1872.0,443.99999999993634,36.44
1602931531.4897,78.0,815.0,1852.0,443.99999999993634,36.44
1602931531.4917,78.0,815.0,1867.0,443.99999999993634,36.44
1602931531.4937,78.0,815.0,1872.0,443.99999999993634,36.44
1602931531.4957,78.0,815.0,1860.0,443.99999999993634,36.44
1602931531.4977,78.0,815.0,1818.0,443.99999999993634,36.44
1602931531.4997,78.0,815.0,1767.0,443.99999999993634,36.44
1602931531.5017,78.0,815.0,1736.0,443.99999999993634,36.44
1602931531.5037,78.0,815.0,1733.0,443.99999999993634,36.44
1602931531.5057,78.0,815.0,1736.0,443.99999999993634,36.44
1602931531.5077,78.0,815.0,1709.0,443.99999999993634,36.44
1602931531.5097,78.0,815.0,1666.0,443.99999999993634,36.44
1602931531.5116,78.0,815.0,1641.0,443.99999999993634,36.44
1602931531.5136,78.0,815.0,1629.0,443.99999999993634,36.44
1602931531.5156,78.0,815.0,1610.0,443.99999999993634,36.44
1602931531.5176,78.0,815.0,1593.0,443.99999999993634,36.44
1602931531.5197,78.0,815.0,1581.0,443.99999999993634,36.44
1602931531.5216,78.0,815.0,1576.0,443.99999999993634,36.44
1602931531.5236,78.0,815.0,1556.0,443.99999999993634,36.44
1602931531.5256,78.0,815.0,1510.0,443.99999999993634,36.44
1602931531.5276,78.0,815.0,1484.0,443.99999999993634,36.44
1602931531.5297,78.0,815.0,1491.0,443.99999999993634,36.44
1602931531.5316,78.0,815.0,1479.0,443.99999999993634,36.44
1602931531.5336,78.0,815.0,1435.0,443.99999999993634,36.44
1602931531.5356,78.0,815.0,1416.0,443.99999999993634,36.44
1602931531.5376,78.0,815.0,1418.0,443.99999999993634,36.44
1602931531.5396,78.0,815.0,1413.0,443.99999999993634,36.44
1602931531.5416,78.0,815.0,1387.0,443.99999999993634,36.44
1602931531.5438,78.0,815.0,1353.0,443.99999999993634,36.44
1602931531.5457,78.0,815.0,1345.0,443.99999999993634,36.44
1602931531.5477,78.0,815.0,1355.0,443.99999999993634,36.44
1602931531.5497,78.0,815.0,1333.0,443.99999999993634,36.44
1602931531.5517,78.0,815.0,1311.0,443.99999999993634,36.44
1602931531.5536,78.0,815.0,1324.0,443.99999999993634,36.44
1602931531.5556,78.0,815.0,1307.0,443.99999999993634,36.44
1602931531.5576,78.0,815.0,1273.0,443.99999999993634,36.44
1602931531.5597,78.0,815.0,1280.0,443.99999999993634,36.44
1602931531.5616,78.0,815.0,1278.0,443.99999999993634,36.44
1602931531.5636,78.0,815.0,1236.0,443.99999999993634,36.44
1602931531.5656,78.0,815.0,1202.0,443.99999999993634,36.44
1602931531.5676,78.0,815.0,1193.0,443.99999999993634,36.44
1602931531.5697,78.0,815.0,1183.0,443.99999999993634,36.44
1602931531.5716,78.0,815.0,1171.0,443.99999999993634,36.44
1602931531.5737,78.0,815.0,1154.0,443.99999999993634,36.44
1602931531.5756,78.0,815.0,1127.0,443.99999999993634,36.44
1602931531.5776,78.0,815.0,1103.0,443.99999999993634,36.44
1602931531.5796,78.0,815.0,1103.0,443.99999999993634,36.44
1602931531.5817,78.0,815.0,1110.0,443.99999999993634,36.44
1602931531.5837,78.0,815.0,1159.0,443.99999999993634,36.44
1602931531.5856,78.0,815.0,1338.0,443.99999999993634,36.44
1602931531.5876,78.0,815.0,1496.0,443.99999999993634,36.44
1602931531.5896,78.0,815.0,1248.0,443.99999999993634,36.44
1602931531.5916,78.0,815.0,705.0,443.99999999993634,36.44
1602931531.5936,78.0,815.0,586.0,443.99999999993634,36.44
1602931531.5956,78.0,815.0,940.0,443.99999999993634,36.44
1602931531.5976,78.0,815.0,1074.0,443.99999999993634,36.44
1602931531.5997,78.0,815.0,962.0,443.99999999993634,36.44
1602931531.6016,78.0,815.0,982.0,443.99999999993634,36.44
1602931531.6036,78.0,815.0,1042.0,443.99999999993634,36.44
1602931531.6056,78.0,815.0,1016.0,443.99999999993634,36.44
1602931531.6076,78.0,815.0,994.0,443.99999999993634,36.44
1602931531.6097,78.0,815.0,987.0,443.99999999993634,36.44
1602931531.6116,78.0,815.0,970.0,443.99999999993634,36.44
1602931531.6136,78.0,815.0,967.0,443.99999999993634,36.44
1602931531.6157,78.0,815.0,962.0,443.99999999993634,36.44
1602931531.6176,78.0,815.0,943.0,443.99999999993634,36.44
1602931532.0134,78.0,815.0,931.0,443.99999999993634,36.44
1602931532.0141,78.0,815.0,931.0,443.99999999993634,36.44
1602931532.0166,78.0,815.0,923.0,443.99999999993634,36.44
1602931532.0192,78.0,815.0,919.0,443.99999999993634,36.44
1602931532.0211,78.0,815.0,926.0,443.99999999993634,36.44
1602931532.0231,78.0,815.0,938.0,443.99999999993634,36.44
1602931532.0252,78.0,815.0,928.0,443.99999999993634,36.44
1602931532.0271,78.0,815.0,904.0,443.99999999993634,36.44
1602931532.0292,78.0,815.0,885.0,443.99999999993634,36.44
1602931532.0311,78.0,815.0,873.0,443.99999999993634,36.44
1602931532.0331,78.0,815.0,870.0,443.99999999993634,36.44
1602931532.0351,78.0,815.0,880.0,443.99999999993634,36.44
1602931532.0371,78.0,815.0,885.0,443.99999999993634,36.44
1602931532.0393,78.0,815.0,880.0,443.99999999993634,36.44
1602931532.0411,78.0,815.0,868.0,443.99999999993634,36.44
1602931532.0431,78.0,815.0,851.0,443.99999999993634,36.44
1602931532.0451,78.0,815.0,846.0,443.99999999993634,36.44
1602931532.0471,78.0,815.0,846.0,443.99999999993634,36.44
1602931532.0492,78.0,815.0,836.0,443.99999999993634,36.44
1602931532.0511,78.0,815.0,809.0,443.99999999993634,36.44
1602931532.0531,78.0,815.0,768.0,443.99999999993634,36.44
1602931532.0551,78.0,815.0,751.0,443.99999999993634,36.44
1602931532.0571,78.0,815.0,751.0,443.99999999993634,36.44
1602931532.0592,78.0,815.0,749.0,443.99999999993634,36.44
1602931532.0611,78.0,815.0,749.0,443.99999999993634,36.44
1602931532.0631,78.0,815.0,727.0,443.99999999993634,36.44
1602931532.0651,78.0,815.0,688.0,443.99999999993634,36.44
1602931532.0671,78.0,815.0,671.0,443.99999999993634,36.44
1602931532.0692,78.0,815.0,671.0,443.99999999993634,36.44
1602931532.0711,78.0,815.0,671.0,443.99999999993634,36.44
1602931532.0731,78.0,815.0,664.0,443.99999999993634,36.44
1602931532.0751,78.0,815.0,642.0,443.99999999993634,36.44
1602931532.0771,78.0,815.0,618.0,443.99999999993634,36.44
1602931532.0792,78.0,815.0,620.0,443.99999999993634,36.44
1602931532.0811,78.0,815.0,640.0,443.99999999993634,36.44
1602931532.0831,78.0,815.0,635.0,443.99999999993634,36.44
1602931532.0851,78.0,815.0,623.0,443.99999999993634,36.44
1602931532.0871,78.0,815.0,645.0,443.99999999993634,36.44
1602931532.0891,78.0,815.0,649.0,443.99999999993634,36.44
1602931532.0911,78.0,815.0,618.0,443.99999999993634,36.44
1602931532.0931,78.0,815.0,608.0,443.99999999993634,36.44
1602931532.0951,78.0,815.0,613.0,443.99999999993634,36.44
1602931532.0971,78.0,815.0,601.0,443.99999999993634,36.44
1602931532.0992,78.0,815.0,584.0,443.99999999993634,36.44
1602931532.1011,78.0,815.0,594.0,443.99999999993634,36.44
1602931532.1031,78.0,815.0,611.0,443.99999999993634,36.44
1602931532.1051,78.0,815.0,596.0,443.99999999993634,36.44
1602931532.1071,78.0,815.0,567.0,443.99999999993634,36.44
1602931532.1091,78.0,815.0,560.0,443.99999999993634,36.44
1602931532.1111,78.0,815.0,560.0,443.99999999993634,36.44
1602931532.1131,78.0,815.0,562.0,443.99999999993634,36.44
1602931532.1151,78.0,815.0,565.0,443.99999999993634,36.44
1602931532.1171,78.0,815.0,548.0,443.99999999993634,36.44
1602931532.1192,78.0,815.0,531.0,443.99999999993634,36.44
1602931532.1211,78.0,815.0,538.0,443.99999999993634,36.44
1602931532.1231,78.0,815.0,526.0,443.99999999993634,36.44
1602931532.1251,78.0,815.0,509.0,443.99999999993634,36.44
1602931532.1271,78.0,815.0,531.0,443.99999999993634,36.44
1602931532.1292,78.0,815.0,543.0,443.99999999993634,36.44
1602931532.1311,78.0,815.0,518.0,443.99999999993634,36.44
1602931532.1331,78.0,815.0,485.0,443.99999999993634,36.44
1602931532.1351,78.0,815.0,460.0,443.99999999993634,36.44
1602931532.1371,78.0,815.0,465.0,443.99999999993634,36.44
1602931532.1391,78.0,815.0,504.0,443.99999999993634,36.44
1602931532.1412,78.0,815.0,518.0,443.99999999993634,36.44
1602931532.1432,78.0,815.0,475.0,443.99999999993634,36.44
1602931532.1451,78.0,815.0,448.0,443.99999999993634,36.44
1602931532.1471,78.0,815.0,460.0,443.99999999993634,36.44
1602931532.1492,78.0,815.0,472.0,443.99999999993634,36.44
1602931532.1511,78.0,815.0,487.0,443.99999999993634,36.44
1602931532.1531,78.0,815.0,489.0,443.99999999993634,36.44
1602931532.1551,78.0,815.0,453.0,443.99999999993634,36.44
1602931532.1571,78.0,815.0,417.0,443.99999999993634,36.44
1602931532.5837,77.0,828.0,429.0,443.99999999993634,36.44
1602931532.5845,77.0,828.0,472.0,443.99999999993634,36.44
1602931532.5872,77.0,828.0,489.0,443.99999999993634,36.44
1602931532.5895,77.0,828.0,470.0,443.99999999993634,36.44
1602931532.5915,77.0,828.0,436.0,443.99999999993634,36.44
1602931532.5935,77.0,828.0,414.0,443.99999999993634,36.44
1602931532.5956,77.0,828.0,414.0,443.99999999993634,36.44
1602931532.5975,77.0,828.0,402.0,443.99999999993634,36.44
1602931532.5996,77.0,828.0,390.0,443.99999999993634,36.44
1602931532.6015,77.0,828.0,404.0,443.99999999993634,36.44
1602931532.6035,77.0,828.0,409.0,443.99999999993634,36.44
1602931532.6055,77.0,828.0,395.0,443.99999999993634,36.44
1602931532.6075,77.0,828.0,388.0,443.99999999993634,36.44
1602931532.6096,77.0,828.0,385.0,443.99999999993634,36.44
1602931532.6115,77.0,828.0,383.0,443.99999999993634,36.44
1602931532.6135,77.0,828.0,371.0,443.99999999993634,36.44
1602931532.6155,77.0,828.0,363.0,443.99999999993634,36.44
1602931532.6175,77.0,828.0,468.0,443.99999999993634,36.44
1602931532.6196,77.0,828.0,712.0,443.99999999993634,36.44
1602931532.6215,77.0,828.0,807.0,443.99999999993634,36.44
1602931532.6235,77.0,828.0,421.0,443.99999999993634,36.44
1602931532.6255,77.0,828.0,-50.0,443.99999999993634,36.44
1602931532.6275,77.0,828.0,33.0,443.99999999993634,36.44
1602931532.6295,77.0,828.0,344.0,443.99999999993634,36.44
1602931532.6315,77.0,828.0,363.0,443.99999999993634,36.44
1602931532.6335,77.0,828.0,332.0,443.99999999993634,36.44
1602931532.6355,77.0,828.0,404.0,443.99999999993634,36.44
1602931532.6376,77.0,828.0,407.0,443.99999999993634,36.44
1602931532.6395,77.0,828.0,371.0,443.99999999993634,36.44
1602931532.6415,77.0,828.0,380.0,443.99999999993634,36.44
1602931532.6435,77.0,828.0,390.0,443.99999999993634,36.44
1602931532.6455,77.0,828.0,368.0,443.99999999993634,36.44
1602931532.6475,77.0,828.0,366.0,443.99999999993634,36.44
1602931532.6496,77.0,828.0,402.0,443.99999999993634,36.44
1602931532.6515,77.0,828.0,412.0,443.99999999993634,36.44
1602931532.6535,77.0,828.0,385.0,443.99999999993634,36.44
1602931532.6555,77.0,828.0,388.0,443.99999999993634,36.44
1602931532.6575,77.0,828.0,397.0,443.99999999993634,36.44
1602931532.6596,77.0,828.0,371.0,443.99999999993634,36.44
1602931532.6615,77.0,828.0,361.0,443.99999999993634,36.44
1602931532.6635,77.0,828.0,388.0,443.99999999993634,36.44
1602931532.6655,77.0,828.0,404.0,443.99999999993634,36.44
1602931532.6677,77.0,828.0,402.0,443.99999999993634,36.44
1602931532.6696,77.0,828.0,400.0,443.99999999993634,36.44
1602931532.6715,77.0,828.0,421.0,443.99999999993634,36.44
1602931532.6735,77.0,828.0,434.0,443.99999999993634,36.44
1602931532.6755,77.0,828.0,412.0,443.99999999993634,36.44
1602931532.6775,77.0,828.0,397.0,443.99999999993634,36.44
1602931532.6795,77.0,828.0,407.0,443.99999999993634,36.44
1602931532.6815,77.0,828.0,407.0,443.99999999993634,36.44
1602931532.6835,77.0,828.0,392.0,443.99999999993634,36.44
1602931532.6854,77.0,828.0,409.0,443.99999999993634,36.44
1602931532.6875,77.0,828.0,419.0,443.99999999993634,36.44
1602931532.6895,77.0,828.0,375.0,443.99999999993634,36.44
1602931532.6915,77.0,828.0,349.0,443.99999999993634,36.44
1602931532.6935,77.0,828.0,378.0,443.99999999993634,36.44
1602931532.6955,77.0,828.0,380.0,443.99999999993634,36.44
1602931532.6975,77.0,828.0,344.0,443.99999999993634,36.44
1602931532.6996,77.0,828.0,322.0,443.99999999993634,36.44
1602931532.7015,77.0,828.0,293.0,443.99999999993634,36.44
1602931532.7035,77.0,828.0,274.0,443.99999999993634,36.44
1602931532.7055,77.0,828.0,303.0,443.99999999993634,36.44
1602931532.7075,77.0,828.0,315.0,443.99999999993634,36.44
1602931532.7095,77.0,828.0,271.0,443.99999999993634,36.44
1602931532.7115,77.0,828.0,249.0,443.99999999993634,36.44
1602931532.7135,77.0,828.0,274.0,443.99999999993634,36.44
1602931532.7155,77.0,828.0,293.0,443.99999999993634,36.44
1602931532.7175,77.0,828.0,281.0,443.99999999993634,36.44
1602931532.7196,77.0,828.0,259.0,443.99999999993634,36.44
1602931532.7215,77.0,828.0,247.0,443.99999999993634,36.44
1602931532.7235,77.0,828.0,257.0,443.99999999993634,36.44
1602931532.7255,77.0,828.0,286.0,443.99999999993634,36.44
1602931532.7275,77.0,828.0,305.0,443.99999999993634,36.44
1602931533.1835,77.0,834.0,295.0,443.99999999993634,36.44
1602931533.1843,77.0,834.0,264.0,443.99999999993634,36.44
1602931533.1858,77.0,834.0,264.0,443.99999999993634,36.44
1602931533.1878,77.0,834.0,291.0,443.99999999993634,36.44
1602931533.1897,77.0,834.0,291.0,443.99999999993634,36.44
1602931533.1917,77.0,834.0,261.0,443.99999999993634,36.44
1602931533.1937,77.0,834.0,244.0,443.99999999993634,36.44
1602931533.1957,77.0,834.0,261.0,443.99999999993634,36.44
1602931533.1977,77.0,834.0,266.0,443.99999999993634,36.44
1602931533.1998,77.0,834.0,249.0,443.99999999993634,36.44
1602931533.2017,77.0,834.0,240.0,443.99999999993634,36.44
1602931533.2037,77.0,834.0,259.0,443.99999999993634,36.44
1602931533.2057,77.0,834.0,271.0,443.99999999993634,36.44
1602931533.2077,77.0,834.0,252.0,443.99999999993634,36.44
1602931533.2097,77.0,834.0,244.0,443.99999999993634,36.44
1602931533.2117,77.0,834.0,254.0,443.99999999993634,36.44
1602931533.2137,77.0,834.0,254.0,443.99999999993634,36.44
1602931533.2157,77.0,834.0,244.0,443.99999999993634,36.44
1602931533.2176,77.0,834.0,227.0,443.99999999993634,36.44
1602931533.2197,77.0,834.0,215.0,443.99999999993634,36.44
1602931533.2218,77.0,834.0,227.0,443.99999999993634,36.44
1602931533.2237,77.0,834.0,252.0,443.99999999993634,36.44
1602931533.2256,77.0,834.0,249.0,443.99999999993634,36.44
1602931533.2277,77.0,834.0,235.0,443.99999999993634,36.44
1602931533.2296,77.0,834.0,242.0,443.99999999993634,36.44
1602931533.2317,77.0,834.0,244.0,443.99999999993634,36.44
1602931533.2336,77.0,834.0,225.0,443.99999999993634,36.44
1602931533.2357,77.0,834.0,220.0,443.99999999993634,36.44
1602931533.2377,77.0,834.0,232.0,443.99999999993634,36.44
1602931533.2397,77.0,834.0,230.0,443.99999999993634,36.44
1602931533.2417,77.0,834.0,223.0,443.99999999993634,36.44
1602931533.2437,77.0,834.0,215.0,443.99999999993634,36.44
1602931533.2456,77.0,834.0,210.0,443.99999999993634,36.44
1602931533.2477,77.0,834.0,218.0,443.99999999993634,36.44
1602931533.2497,77.0,834.0,230.0,443.99999999993634,36.44
1602931533.2517,77.0,834.0,232.0,443.99999999993634,36.44
1602931533.2537,77.0,834.0,230.0,443.99999999993634,36.44
1602931533.2557,77.0,834.0,230.0,443.99999999993634,36.44
1602931533.2576,77.0,834.0,240.0,443.99999999993634,36.44
1602931533.2597,77.0,834.0,240.0,443.99999999993634,36.44
1602931533.2617,77.0,834.0,230.0,443.99999999993634,36.44
1602931533.2637,77.0,834.0,230.0,443.99999999993634,36.44
1602931533.2656,77.0,834.0,225.0,443.99999999993634,36.44
1602931533.2678,77.0,834.0,208.0,443.99999999993634,36.44
1602931533.2697,77.0,834.0,189.0,443.99999999993634,36.44
1602931533.2717,77.0,834.0,186.0,443.99999999993634,36.44
1602931533.2737,77.0,834.0,203.0,443.99999999993634,36.44
1602931533.2756,77.0,834.0,218.0,443.99999999993634,36.44
1602931533.2777,77.0,834.0,210.0,443.99999999993634,36.44
1602931533.2798,77.0,834.0,196.0,443.99999999993634,36.44
1602931533.2817,77.0,834.0,191.0,443.99999999993634,36.44
1602931533.2837,77.0,834.0,186.0,443.99999999993634,36.44
1602931533.2856,77.0,834.0,194.0,443.99999999993634,36.44
1602931533.2877,77.0,834.0,291.0,443.99999999993634,36.44
1602931533.2896,77.0,834.0,511.0,443.99999999993634,36.44
1602931533.2917,77.0,834.0,596.0,443.99999999993634,36.44
1602931533.2936,77.0,834.0,218.0,443.99999999993634,36.44
1602931533.2956,77.0,834.0,-235.0,443.99999999993634,36.44
1602931533.2977,77.0,834.0,-116.0,443.99999999993634,36.44
1602931533.2997,77.0,834.0,208.0,443.99999999993634,36.44
1602931533.3017,77.0,834.0,213.0,443.99999999993634,36.44
1602931533.3037,77.0,834.0,164.0,443.99999999993634,36.44
1602931533.3057,77.0,834.0,220.0,443.99999999993634,36.44
1602931533.3076,77.0,834.0,208.0,443.99999999993634,36.44
1602931533.3097,77.0,834.0,179.0,443.99999999993634,36.44
1602931533.3117,77.0,834.0,218.0,443.99999999993634,36.44
1602931533.3137,77.0,834.0,244.0,443.99999999993634,36.44
1602931533.3156,77.0,834.0,227.0,443.99999999993634,36.44
1602931533.3176,77.0,834.0,215.0,443.99999999993634,36.44
1602931533.3197,77.0,834.0,227.0,443.99999999993634,36.44
1602931533.3217,77.0,834.0,230.0,443.99999999993634,36.44
1602931533.3238,77.0,834.0,220.0,443.99999999993634,36.44
1602931533.3257,77.0,834.0,227.0,443.99999999993634,36.44
1602931533.7235,77.0,834.0,249.0,443.99999999993634,36.44
1602931533.7241,77.0,834.0,261.0,443.99999999993634,36.44
1602931533.7257,77.0,834.0,252.0,443.99999999993634,36.44
1602931533.7277,77.0,834.0,242.0,443.99999999993634,36.44
1602931533.7297,77.0,834.0,244.0,443.99999999993634,36.44
1602931533.7317,77.0,834.0,261.0,443.99999999993634,36.44
1602931533.7337,77.0,834.0,266.0,443.99999999993634,36.44
1602931533.7357,77.0,834.0,261.0,443.99999999993634,36.44
1602931533.7377,77.0,834.0,266.0,443.99999999993634,36.44
1602931533.7397,77.0,834.0,281.0,443.99999999993634,36.44
1602931533.7416,77.0,834.0,286.0,443.99999999993634,36.44
1602931533.7436,77.0,834.0,278.0,443.99999999993634,36.44
1602931533.7456,77.0,834.0,274.0,443.99999999993634,36.44
1602931533.7477,77.0,834.0,264.0,443.99999999993634,36.44
1602931533.7496,77.0,834.0,257.0,443.99999999993634,36.44
1602931533.7516,77.0,834.0,252.0,443.99999999993634,36.44
1602931533.7536,77.0,834.0,249.0,443.99999999993634,36.44
1602931533.7556,77.0,834.0,244.0,443.99999999993634,36.44
1602931533.7576,77.0,834.0,230.0,443.99999999993634,36.44
1602931533.7597,77.0,834.0,215.0,443.99999999993634,36.44
1602931533.7616,77.0,834.0,215.0,443.99999999993634,36.44
1602931533.7636,77.0,834.0,201.0,443.99999999993634,36.44
1602931533.7656,77.0,834.0,174.0,443.99999999993634,36.44
1602931533.7676,77.0,834.0,169.0,443.99999999993634,36.44
1602931533.7697,77.0,834.0,177.0,443.99999999993634,36.44
1602931533.7717,77.0,834.0,177.0,443.99999999993634,36.44
1602931533.7736,77.0,834.0,172.0,443.99999999993634,36.44
1602931533.7756,77.0,834.0,174.0,443.99999999993634,36.44
1602931533.7776,77.0,834.0,169.0,443.99999999993634,36.44
1602931533.7797,77.0,834.0,157.0,443.99999999993634,36.44
1602931533.7816,77.0,834.0,164.0,443.99999999993634,36.44
1602931533.7836,77.0,834.0,181.0,443.99999999993634,36.44
1602931533.7856,77.0,834.0,172.0,443.99999999993634,36.44
1602931533.7876,77.0,834.0,152.0,443.99999999993634,36.44
1602931533.7896,77.0,834.0,155.0,443.99999999993634,36.44
1602931533.7916,77.0,834.0,164.0,443.99999999993634,36.44
1602931533.7936,77.0,834.0,169.0,443.99999999993634,36.44
1602931533.7957,77.0,834.0,174.0,443.99999999993634,36.44
1602931533.7976,77.0,834.0,177.0,443.99999999993634,36.44
1602931533.7996,77.0,834.0,167.0,443.99999999993634,36.44
1602931533.8016,77.0,834.0,164.0,443.99999999993634,36.44
1602931533.8036,77.0,834.0,167.0,443.99999999993634,36.44
1602931533.8056,77.0,834.0,164.0,443.99999999993634,36.44
1602931533.8077,77.0,834.0,157.0,443.99999999993634,36.44
1602931533.8097,77.0,834.0,160.0,443.99999999993634,36.44
1602931533.8116,77.0,834.0,162.0,443.99999999993634,36.44
1602931533.8136,77.0,834.0,157.0,443.99999999993634,36.44
1602931533.8156,77.0,834.0,140.0,443.99999999993634,36.44
1602931533.8176,77.0,834.0,140.0,443.99999999993634,36.44
1602931533.8198,77.0,834.0,157.0,443.99999999993634,36.44
1602931533.8217,77.0,834.0,169.0,443.99999999993634,36.44
1602931533.8236,77.0,834.0,184.0,443.99999999993634,36.44
1602931533.8256,77.0,834.0,194.0,443.99999999993634,36.44
1602931533.8276,77.0,834.0,179.0,443.99999999993634,36.44
1602931533.8297,77.0,834.0,160.0,443.99999999993634,36.44
1602931533.8316,77.0,834.0,150.0,443.99999999993634,36.44
1602931533.8336,77.0,834.0,147.0,443.99999999993634,36.44
1602931533.8356,77.0,834.0,145.0,443.99999999993634,36.44
1602931533.8376,77.0,834.0,140.0,443.99999999993634,36.44
1602931533.8396,77.0,834.0,157.0,443.99999999993634,36.44
1602931533.8416,77.0,834.0,179.0,443.99999999993634,36.44
1602931533.8436,77.0,834.0,150.0,443.99999999993634,36.44
1602931533.8456,77.0,834.0,118.0,443.99999999993634,36.44
1602931533.8476,77.0,834.0,143.0,443.99999999993634,36.44
1602931533.8497,77.0,834.0,150.0,443.99999999993634,36.44
1602931533.8516,77.0,834.0,111.0,443.99999999993634,36.44
1602931533.8536,77.0,834.0,101.0,443.99999999993634,36.44
1602931533.8556,77.0,834.0,128.0,443.99999999993634,36.44
1602931533.8576,77.0,834.0,143.0,443.99999999993634,36.44
1602931533.8596,77.0,834.0,135.0,443.99999999993634,36.44
1602931533.8616,77.0,834.0,123.0,443.99999999993634,36.44
1602931533.8636,77.0,834.0,121.0,443.99999999993634,36.44
1602931533.8656,77.0,834.0,126.0,443.99999999993634,36.44
1602931534.2935,77.0,836.0,138.0,443.99999999993634,36.44
1602931534.2943,77.0,836.0,150.0,443.99999999993634,36.44
1602931534.2968,77.0,836.0,150.0,443.99999999993634,36.44
1602931534.2995,77.0,836.0,143.0,443.99999999993634,36.44
1602931534.3014,77.0,836.0,123.0,443.99999999993634,36.44
1602931534.3033,77.0,836.0,116.0,443.99999999993634,36.44
1602931534.3054,77.0,836.0,130.0,443.99999999993634,36.44
1602931534.3073,77.0,836.0,116.0,443.99999999993634,36.44
1602931534.3093,77.0,836.0,97.0,443.99999999993634,36.44
1602931534.3113,77.0,836.0,111.0,443.99999999993634,36.44
1602931534.3133,77.0,836.0,126.0,443.99999999993634,36.44
1602931534.3153,77.0,836.0,116.0,443.99999999993634,36.44
1602931534.3173,77.0,836.0,113.0,443.99999999993634,36.44
1602931534.3194,77.0,836.0,111.0,443.99999999993634,36.44
1602931534.3213,77.0,836.0,106.0,443.99999999993634,36.44
1602931534.3232,77.0,836.0,92.0,443.99999999993634,36.44
1602931534.3252,77.0,836.0,123.0,443.99999999993634,36.44
1602931534.3273,77.0,836.0,310.0,443.99999999993634,36.44
1602931534.3293,77.0,836.0,548.0,443.99999999993634,36.44
1602931534.3312,77.0,836.0,429.0,443.99999999993634,36.44
1602931534.3332,77.0,836.0,-121.0,443.99999999993634,36.44
1602931534.3353,77.0,836.0,-400.0,443.99999999993634,36.44
1602931534.3372,77.0,836.0,-94.0,443.99999999993634,36.44
1602931534.3393,77.0,836.0,143.0,443.99999999993634,36.44
1602931534.3413,77.0,836.0,84.0,443.99999999993634,36.44
1602931534.3432,77.0,836.0,101.0,443.99999999993634,36.44
1602931534.3452,77.0,836.0,162.0,443.99999999993634,36.44
1602931534.3461,77.0,836.0,135.0,443.99999999993634,36.44
1602931534.3483,77.0,836.0,130.0,443.99999999993634,36.44
1602931534.3503,77.0,836.0,162.0,443.99999999993634,36.44
1602931534.3523,77.0,836.0,152.0,443.99999999993634,36.44
1602931534.3542,77.0,836.0,130.0,443.99999999993634,36.44
1602931534.3562,77.0,836.0,143.0,443.99999999993634,36.44
1602931534.3582,77.0,836.0,157.0,443.99999999993634,36.44
1602931534.3603,77.0,836.0,157.0,443.99999999993634,36.44
1602931534.3622,77.0,836.0,147.0,443.99999999993634,36.44
1602931534.3643,77.0,836.0,135.0,443.99999999993634,36.44
1602931534.3662,77.0,836.0,140.0,443.99999999993634,36.44
1602931534.3683,77.0,836.0,162.0,443.99999999993634,36.44
1602931534.3703,77.0,836.0,172.0,443.99999999993634,36.44
1602931534.3722,77.0,836.0,191.0,443.99999999993634,36.44
1602931534.3742,77.0,836.0,218.0,443.99999999993634,36.44
1602931534.3764,77.0,836.0,206.0,443.99999999993634,36.44
1602931534.3783,77.0,836.0,181.0,443.99999999993634,36.44
1602931534.3803,77.0,836.0,181.0,443.99999999993634,36.44
1602931534.3822,77.0,836.0,194.0,443.99999999993634,36.44
1602931534.3842,77.0,836.0,206.0,443.99999999993634,36.44
1602931534.3862,77.0,836.0,213.0,443.99999999993634,36.44
1602931534.3883,77.0,836.0,220.0,443.99999999993634,36.44
1602931534.3903,77.0,836.0,215.0,443.99999999993634,36.44
1602931534.3922,77.0,836.0,215.0,443.99999999993634,36.44
1602931534.3943,77.0,836.0,220.0,443.99999999993634,36.44
1602931534.3963,77.0,836.0,210.0,443.99999999993634,36.44
1602931534.3982,77.0,836.0,196.0,443.99999999993634,36.44
1602931534.4003,77.0,836.0,194.0,443.99999999993634,36.44
1602931534.4022,77.0,836.0,194.0,443.99999999993634,36.44
1602931534.4042,77.0,836.0,186.0,443.99999999993634,36.44
1602931534.4062,77.0,836.0,164.0,443.99999999993634,36.44
1602931534.407,77.0,836.0,128.0,443.99999999993634,36.44
1602931534.4093,77.0,836.0,104.0,443.99999999993634,36.44
1602931534.4113,77.0,836.0,109.0,443.99999999993634,36.44
1602931534.4132,77.0,836.0,113.0,443.99999999993634,36.44
1602931534.4152,77.0,836.0,109.0,443.99999999993634,36.44
1602931534.4173,77.0,836.0,118.0,443.99999999993634,36.44
1602931534.4193,77.0,836.0,116.0,443.99999999993634,36.44
1602931534.4212,77.0,836.0,92.0,443.99999999993634,36.44
1602931534.4232,77.0,836.0,82.0,443.99999999993634,36.44
1602931534.4253,77.0,836.0,87.0,443.99999999993634,36.44
1602931534.4273,77.0,836.0,77.0,443.99999999993634,36.44
1602931534.4293,77.0,836.0,77.0,443.99999999993634,36.44
1602931534.4313,77.0,836.0,106.0,443.99999999993634,36.44
1602931534.4332,77.0,836.0,121.0,443.99999999993634,36.44
1602931534.4352,77.0,836.0,126.0,443.99999999993634,36.44
1602931534.8331,77.0,836.0,138.0,443.99999999993634,36.44
1602931534.834,77.0,836.0,143.0,443.99999999993634,36.44
1602931534.8364,77.0,836.0,135.0,443.99999999993634,36.44
1602931534.8391,77.0,836.0,106.0,443.99999999993634,36.44
1602931534.841,77.0,836.0,82.0,443.99999999993634,36.44
1602931534.8431,77.0,836.0,106.0,443.99999999993634,36.44
1602931534.845,77.0,836.0,143.0,443.99999999993634,36.44
1602931534.847,77.0,836.0,133.0,443.99999999993634,36.44
1602931534.849,77.0,836.0,101.0,443.99999999993634,36.44
1602931534.8509,77.0,836.0,94.0,443.99999999993634,36.44
1602931534.8529,77.0,836.0,111.0,443.99999999993634,36.44
1602931534.8549,77.0,836.0,118.0,443.99999999993634,36.44
1602931534.8569,77.0,836.0,106.0,443.99999999993634,36.44
1602931534.8589,77.0,836.0,104.0,443.99999999993634,36.44
1602931534.8609,77.0,836.0,121.0,443.99999999993634,36.44
1602931534.8629,77.0,836.0,133.0,443.99999999993634,36.44
1602931534.8636,77.0,836.0,123.0,443.99999999993634,36.44
1602931534.8659,77.0,836.0,89.0,443.99999999993634,36.44
1602931534.8679,77.0,836.0,70.0,443.99999999993634,36.44
1602931534.8699,77.0,836.0,89.0,443.99999999993634,36.44
1602931534.8719,77.0,836.0,118.0,443.99999999993634,36.44
1602931534.8739,77.0,836.0,130.0,443.99999999993634,36.44
1602931534.8759,77.0,836.0,113.0,443.99999999993634,36.44
1602931534.8779,77.0,836.0,94.0,443.99999999993634,36.44
1602931534.88,77.0,836.0,101.0,443.99999999993634,36.44
1602931534.8819,77.0,836.0,101.0,443.99999999993634,36.44
1602931534.8839,77.0,836.0,92.0,443.99999999993634,36.44
1602931534.8859,77.0,836.0,104.0,443.99999999993634,36.44
1602931534.8879,77.0,836.0,109.0,443.99999999993634,36.44
1602931534.8899,77.0,836.0,99.0,443.99999999993634,36.44
1602931534.8919,77.0,836.0,94.0,443.99999999993634,36.44
1602931534.8939,77.0,836.0,99.0,443.99999999993634,36.44
1602931534.8946,77.0,836.0,113.0,443.99999999993634,36.44
1602931534.8969,77.0,836.0,123.0,443.99999999993634,36.44
1602931534.8989,77.0,836.0,116.0,443.99999999993634,36.44
1602931534.9009,77.0,836.0,111.0,443.99999999993634,36.44
1602931534.903,77.0,836.0,123.0,443.99999999993634,36.44
1602931534.9049,77.0,836.0,116.0,443.99999999993634,36.44
1602931534.9069,77.0,836.0,106.0,443.99999999993634,36.44
1602931534.9089,77.0,836.0,135.0,443.99999999993634,36.44
1602931534.9109,77.0,836.0,145.0,443.99999999993634,36.44
1602931534.9129,77.0,836.0,123.0,443.99999999993634,36.44
1602931534.9149,77.0,836.0,121.0,443.99999999993634,36.44
1602931534.9169,77.0,836.0,118.0,443.99999999993634,36.44
1602931534.9189,77.0,836.0,101.0,443.99999999993634,36.44
1602931534.9209,77.0,836.0,113.0,443.99999999993634,36.44
1602931534.9229,77.0,836.0,140.0,443.99999999993634,36.44
1602931534.9249,77.0,836.0,135.0,443.99999999993634,36.44
1602931534.9256,77.0,836.0,116.0,443.99999999993634,36.44
1602931534.9279,77.0,836.0,111.0,443.99999999993634,36.44
1602931534.9299,77.0,836.0,123.0,443.99999999993634,36.44
1602931534.9319,77.0,836.0,184.0,443.99999999993634,36.44
1602931534.9339,77.0,836.0,368.0,443.99999999993634,36.44
1602931534.9359,77.0,836.0,557.0,443.99999999993634,36.44
1602931534.9379,77.0,836.0,344.0,443.99999999993634,36.44
1602931534.9399,77.0,836.0,-220.0,443.99999999993634,36.44
1602931534.9421,77.0,836.0,-358.0,443.99999999993634,36.44
1602931534.9439,77.0,836.0,21.0,443.99999999993634,36.44
1602931534.946,77.0,836.0,191.0,443.99999999993634,36.44
1602931534.948,77.0,836.0,113.0,443.99999999993634,36.44
1602931534.9499,77.0,836.0,147.0,443.99999999993634,36.44
1602931534.9513,77.0,836.0,191.0,443.99999999993634,36.44
1602931534.954,77.0,836.0,164.0,443.99999999993634,36.44
1602931534.956,77.0,836.0,174.0,443.99999999993634,36.44
1602931534.9579,77.0,836.0,189.0,443.99999999993634,36.44
1602931534.96,77.0,836.0,174.0,443.99999999993634,36.44
1602931534.9619,77.0,836.0,174.0,443.99999999993634,36.44
1602931534.9639,77.0,836.0,184.0,443.99999999993634,36.44
1602931534.9659,77.0,836.0,186.0,443.99999999993634,36.44
1602931534.9679,77.0,836.0,177.0,443.99999999993634,36.44
1602931534.9699,77.0,836.0,162.0,443.99999999993634,36.44
1602931534.9719,77.0,836.0,186.0,443.99999999993634,36.44
1602931534.9739,77.0,836.0,223.0,443.99999999993634,36.44
1602931535.4031,76.0,857.0,218.0,443.99999999993634,36.5
1602931535.4039,76.0,857.0,189.0,443.99999999993634,36.5
1602931535.4045,76.0,857.0,181.0,443.99999999993634,36.5
1602931535.4059,76.0,857.0,189.0,443.99999999993634,36.5
1602931535.4079,76.0,857.0,198.0,443.99999999993634,36.5
1602931535.4099,76.0,857.0,210.0,443.99999999993634,36.5
1602931535.4119,76.0,857.0,201.0,443.99999999993634,36.5
1602931535.4138,76.0,857.0,223.0,443.99999999993634,36.5
1602931535.4159,76.0,857.0,281.0,443.99999999993634,36.5
1602931535.4179,76.0,857.0,274.0,443.99999999993634,36.5
1602931535.4198,76.0,857.0,230.0,443.99999999993634,36.5
1602931535.4218,76.0,857.0,252.0,443.99999999993634,36.5
1602931535.4238,76.0,857.0,269.0,443.99999999993634,36.5
1602931535.4258,76.0,857.0,215.0,443.99999999993634,36.5
1602931535.4278,76.0,857.0,206.0,443.99999999993634,36.5
1602931535.4298,76.0,857.0,237.0,443.99999999993634,36.5
1602931535.4318,76.0,857.0,218.0,443.99999999993634,36.5
1602931535.4338,76.0,857.0,164.0,443.99999999993634,36.5
1602931535.4345,76.0,857.0,145.0,443.99999999993634,36.5
1602931535.4368,76.0,857.0,164.0,443.99999999993634,36.5
1602931535.4389,76.0,857.0,181.0,443.99999999993634,36.5
1602931535.4408,76.0,857.0,169.0,443.99999999993634,36.5
1602931535.4428,76.0,857.0,155.0,443.99999999993634,36.5
1602931535.4448,76.0,857.0,147.0,443.99999999993634,36.5
1602931535.4468,76.0,857.0,143.0,443.99999999993634,36.5
1602931535.4488,76.0,857.0,130.0,443.99999999993634,36.5
1602931535.4508,76.0,857.0,116.0,443.99999999993634,36.5
1602931535.4528,76.0,857.0,118.0,443.99999999993634,36.5
1602931535.4548,76.0,857.0,130.0,443.99999999993634,36.5
1602931535.4568,76.0,857.0,128.0,443.99999999993634,36.5
1602931535.4588,76.0,857.0,116.0,443.99999999993634,36.5
1602931535.4608,76.0,857.0,118.0,443.99999999993634,36.5
1602931535.4628,76.0,857.0,123.0,443.99999999993634,36.5
1602931535.4635,76.0,857.0,126.0,443.99999999993634,36.5
1602931535.4659,76.0,857.0,152.0,443.99999999993634,36.5
1602931535.4679,76.0,857.0,179.0,443.99999999993634,36.5
1602931535.4698,76.0,857.0,172.0,443.99999999993634,36.5
1602931535.4718,76.0,857.0,169.0,443.99999999993634,36.5
1602931535.4738,76.0,857.0,164.0,443.99999999993634,36.5
1602931535.4758,76.0,857.0,145.0,443.99999999993634,36.5
1602931535.4778,76.0,857.0,143.0,443.99999999993634,36.5
1602931535.4798,76.0,857.0,150.0,443.99999999993634,36.5
1602931535.4818,76.0,857.0,143.0,443.99999999993634,36.5
1602931535.4838,76.0,857.0,155.0,443.99999999993634,36.5
1602931535.4858,76.0,857.0,177.0,443.99999999993634,36.5
1602931535.4878,76.0,857.0,160.0,443.99999999993634,36.5
1602931535.4898,76.0,857.0,138.0,443.99999999993634,36.5
1602931535.4918,76.0,857.0,143.0,443.99999999993634,36.5
1602931535.4938,76.0,857.0,162.0,443.99999999993634,36.5
1602931535.4945,76.0,857.0,177.0,443.99999999993634,36.5
1602931535.4968,76.0,857.0,160.0,443.99999999993634,36.5
1602931535.4988,76.0,857.0,135.0,443.99999999993634,36.5
1602931535.5008,76.0,857.0,147.0,443.99999999993634,36.5
1602931535.5027,76.0,857.0,160.0,443.99999999993634,36.5
1602931535.5048,76.0,857.0,143.0,443.99999999993634,36.5
1602931535.5068,76.0,857.0,128.0,443.99999999993634,36.5
1602931535.5088,76.0,857.0,145.0,443.99999999993634,36.5
1602931535.5108,76.0,857.0,150.0,443.99999999993634,36.5
1602931535.5128,76.0,857.0,111.0,443.99999999993634,36.5
1602931535.5148,76.0,857.0,99.0,443.99999999993634,36.5
1602931535.5168,76.0,857.0,118.0,443.99999999993634,36.5
1602931535.5188,76.0,857.0,143.0,443.99999999993634,36.5
1602931535.5208,76.0,857.0,160.0,443.99999999993634,36.5
1602931535.5228,76.0,857.0,118.0,443.99999999993634,36.5
1602931535.5248,76.0,857.0,104.0,443.99999999993634,36.5
1602931535.5255,76.0,857.0,169.0,443.99999999993634,36.5
1602931535.5268,76.0,857.0,172.0,443.99999999993634,36.5
1602931535.5288,76.0,857.0,118.0,443.99999999993634,36.5
1602931535.5308,76.0,857.0,126.0,443.99999999993634,36.5
1602931535.5328,76.0,857.0,145.0,443.99999999993634,36.5
1602931535.5348,76.0,857.0,113.0,443.99999999993634,36.5
1602931535.5368,76.0,857.0,113.0,443.99999999993634,36.5
1602931535.5388,76.0,857.0,172.0,443.99999999993634,36.5
1602931535.9436,76.0,857.0,186.0,443.99999999993634,36.5
1602931535.9444,76.0,857.0,150.0,443.99999999993634,36.5
1602931535.9469,76.0,857.0,140.0,443.99999999993634,36.5
1602931535.9496,76.0,857.0,150.0,443.99999999993634,36.5
1602931535.9515,76.0,857.0,145.0,443.99999999993634,36.5
1602931535.9535,76.0,857.0,133.0,443.99999999993634,36.5
1602931535.9556,76.0,857.0,123.0,443.99999999993634,36.5
1602931535.9575,76.0,857.0,121.0,443.99999999993634,36.5
1602931535.9595,76.0,857.0,121.0,443.99999999993634,36.5
1602931535.9615,76.0,857.0,116.0,443.99999999993634,36.5
1602931535.9634,76.0,857.0,121.0,443.99999999993634,36.5
1602931535.9655,76.0,857.0,130.0,443.99999999993634,36.5
1602931535.9677,76.0,857.0,121.0,443.99999999993634,36.5
1602931535.9696,76.0,857.0,104.0,443.99999999993634,36.5
1602931535.9715,76.0,857.0,128.0,443.99999999993634,36.5
1602931535.9735,76.0,857.0,274.0,443.99999999993634,36.5
1602931535.9755,76.0,857.0,509.0,443.99999999993634,36.5
1602931535.9775,76.0,857.0,502.0,443.99999999993634,36.5
1602931535.9795,76.0,857.0,9.0,443.99999999993634,36.5
1602931535.9814,76.0,857.0,-392.0,443.99999999993634,36.5
1602931535.9834,76.0,857.0,-150.0,443.99999999993634,36.5
1602931535.9854,76.0,857.0,169.0,443.99999999993634,36.5
1602931535.9874,76.0,857.0,126.0,443.99999999993634,36.5
1602931535.9894,76.0,857.0,92.0,443.99999999993634,36.5
1602931535.9914,76.0,857.0,169.0,443.99999999993634,36.5
1602931535.9934,76.0,857.0,177.0,443.99999999993634,36.5
1602931535.9954,76.0,857.0,157.0,443.99999999993634,36.5
1602931535.9974,76.0,857.0,169.0,443.99999999993634,36.5
1602931535.9995,76.0,857.0,160.0,443.99999999993634,36.5
1602931536.0015,76.0,857.0,138.0,443.99999999993634,36.5
1602931536.0034,76.0,857.0,152.0,443.99999999993634,36.5
1602931536.0054,76.0,857.0,186.0,443.99999999993634,36.5
1602931536.0074,76.0,857.0,196.0,443.99999999993634,36.5
1602931536.0094,76.0,857.0,184.0,443.99999999993634,36.5
1602931536.0114,76.0,857.0,172.0,443.99999999993634,36.5
1602931536.0134,76.0,857.0,169.0,443.99999999993634,36.5
1602931536.0154,76.0,857.0,186.0,443.99999999993634,36.5
1602931536.0174,76.0,857.0,210.0,443.99999999993634,36.5
1602931536.0195,76.0,857.0,206.0,443.99999999993634,36.5
1602931536.0214,76.0,857.0,194.0,443.99999999993634,36.5
1602931536.0234,76.0,857.0,194.0,443.99999999993634,36.5
1602931536.0254,76.0,857.0,208.0,443.99999999993634,36.5
1602931536.0274,76.0,857.0,237.0,443.99999999993634,36.5
1602931536.0295,76.0,857.0,242.0,443.99999999993634,36.5
1602931536.0314,76.0,857.0,225.0,443.99999999993634,36.5
1602931536.0334,76.0,857.0,232.0,443.99999999993634,36.5
1602931536.0354,76.0,857.0,254.0,443.99999999993634,36.5
1602931536.0374,76.0,857.0,247.0,443.99999999993634,36.5
1602931536.0394,76.0,857.0,230.0,443.99999999993634,36.5
1602931536.0414,76.0,857.0,237.0,443.99999999993634,36.5
1602931536.0434,76.0,857.0,235.0,443.99999999993634,36.5
1602931536.0454,76.0,857.0,215.0,443.99999999993634,36.5
1602931536.0474,76.0,857.0,206.0,443.99999999993634,36.5
1602931536.0494,76.0,857.0,194.0,443.99999999993634,36.5
1602931536.0514,76.0,857.0,162.0,443.99999999993634,36.5
1602931536.0534,76.0,857.0,152.0,443.99999999993634,36.5
1602931536.0554,76.0,857.0,179.0,443.99999999993634,36.5
1602931536.0574,76.0,857.0,174.0,443.99999999993634,36.5
1602931536.0595,76.0,857.0,150.0,443.99999999993634,36.5
1602931536.0614,76.0,857.0,145.0,443.99999999993634,36.5
1602931536.0634,76.0,857.0,130.0,443.99999999993634,36.5
1602931536.0654,76.0,857.0,118.0,443.99999999993634,36.5
1602931536.0674,76.0,857.0,126.0,443.99999999993634,36.5
1602931536.0696,76.0,857.0,111.0,443.99999999993634,36.5
1602931536.0715,76.0,857.0,99.0,443.99999999993634,36.5
1602931536.0735,76.0,857.0,106.0,443.99999999993634,36.5
1602931536.0756,76.0,857.0,118.0,443.99999999993634,36.5
1602931536.0775,76.0,857.0,135.0,443.99999999993634,36.5
1602931536.0795,76.0,857.0,133.0,443.99999999993634,36.5
1602931536.0815,76.0,857.0,118.0,443.99999999993634,36.5
1602931536.0835,76.0,857.0,116.0,443.99999999993634,36.5
1602931536.0855,76.0,857.0,130.0,443.99999999993634,36.5
1602931536.0874,76.0,857.0,157.0,443.99999999993634,36.5
1602931536.5435,76.0,862.0,167.0,443.99999999993634,36.44
1602931536.5443,76.0,862.0,145.0,443.99999999993634,36.44
1602931536.5468,76.0,862.0,133.0,443.99999999993634,36.44
1602931536.5495,76.0,862.0,121.0,443.99999999993634,36.44
1602931536.5514,76.0,862.0,109.0,443.99999999993634,36.44
1602931536.5534,76.0,862.0,109.0,443.99999999993634,36.44
1602931536.5555,76.0,862.0,113.0,443.99999999993634,36.44
1602931536.5574,76.0,862.0,116.0,443.99999999993634,36.44
1602931536.5594,76.0,862.0,106.0,443.99999999993634,36.44
1602931536.5614,76.0,862.0,99.0,443.99999999993634,36.44
1602931536.5634,76.0,862.0,106.0,443.99999999993634,36.44
1602931536.5654,76.0,862.0,121.0,443.99999999993634,36.44
1602931536.5674,76.0,862.0,143.0,443.99999999993634,36.44
1602931536.5694,76.0,862.0,135.0,443.99999999993634,36.44
1602931536.5714,76.0,862.0,89.0,443.99999999993634,36.44
1602931536.5734,76.0,862.0,80.0,443.99999999993634,36.44
1602931536.5754,76.0,862.0,104.0,443.99999999993634,36.44
1602931536.5774,76.0,862.0,113.0,443.99999999993634,36.44
1602931536.5794,76.0,862.0,104.0,443.99999999993634,36.44
1602931536.5813,76.0,862.0,113.0,443.99999999993634,36.44
1602931536.5833,76.0,862.0,140.0,443.99999999993634,36.44
1602931536.5853,76.0,862.0,133.0,443.99999999993634,36.44
1602931536.5873,76.0,862.0,94.0,443.99999999993634,36.44
1602931536.5893,76.0,862.0,87.0,443.99999999993634,36.44
1602931536.5913,76.0,862.0,111.0,443.99999999993634,36.44
1602931536.5933,76.0,862.0,116.0,443.99999999993634,36.44
1602931536.5953,76.0,862.0,99.0,443.99999999993634,36.44
1602931536.5973,76.0,862.0,104.0,443.99999999993634,36.44
1602931536.5994,76.0,862.0,109.0,443.99999999993634,36.44
1602931536.6013,76.0,862.0,106.0,443.99999999993634,36.44
1602931536.6033,76.0,862.0,111.0,443.99999999993634,36.44
1602931536.6053,76.0,862.0,123.0,443.99999999993634,36.44
1602931536.6073,76.0,862.0,140.0,443.99999999993634,36.44
1602931536.6094,76.0,862.0,130.0,443.99999999993634,36.44
1602931536.6113,76.0,862.0,97.0,443.99999999993634,36.44
1602931536.6133,76.0,862.0,101.0,443.99999999993634,36.44
1602931536.6153,76.0,862.0,147.0,443.99999999993634,36.44
1602931536.6173,76.0,862.0,147.0,443.99999999993634,36.44
1602931536.6193,76.0,862.0,135.0,443.99999999993634,36.44
1602931536.6213,76.0,862.0,147.0,443.99999999993634,36.44
1602931536.6233,76.0,862.0,138.0,443.99999999993634,36.44
1602931536.6255,76.0,862.0,121.0,443.99999999993634,36.44
1602931536.6274,76.0,862.0,128.0,443.99999999993634,36.44
1602931536.6293,76.0,862.0,113.0,443.99999999993634,36.44
1602931536.6313,76.0,862.0,89.0,443.99999999993634,36.44
1602931536.6333,76.0,862.0,121.0,443.99999999993634,36.44
1602931536.6353,76.0,862.0,145.0,443.99999999993634,36.44
1602931536.6373,76.0,862.0,106.0,443.99999999993634,36.44
1602931536.6394,76.0,862.0,89.0,443.99999999993634,36.44
1602931536.6413,76.0,862.0,121.0,443.99999999993634,36.44
1602931536.6433,76.0,862.0,152.0,443.99999999993634,36.44
1602931536.6453,76.0,862.0,264.0,443.99999999993634,36.44
1602931536.6473,76.0,862.0,494.0,443.99999999993634,36.44
1602931536.6494,76.0,862.0,506.0,443.99999999993634,36.44
1602931536.6513,76.0,862.0,36.0,443.99999999993634,36.44
1602931536.6533,76.0,862.0,-351.0,443.99999999993634,36.44
1602931536.6553,76.0,862.0,-126.0,443.99999999993634,36.44
1602931536.6573,76.0,862.0,177.0,443.99999999993634,36.44
1602931536.6593,76.0,862.0,145.0,443.99999999993634,36.44
1602931536.6613,76.0,862.0,106.0,443.99999999993634,36.44
1602931536.6633,76.0,862.0,162.0,443.99999999993634,36.44
1602931536.6653,76.0,862.0,150.0,443.99999999993634,36.44
1602931536.6673,76.0,862.0,113.0,443.99999999993634,36.44
1602931536.6694,76.0,862.0,128.0,443.99999999993634,36.44
1602931536.6713,76.0,862.0,147.0,443.99999999993634,36.44
1602931536.6733,76.0,862.0,157.0,443.99999999993634,36.44
1602931536.6753,76.0,862.0,174.0,443.99999999993634,36.44
1602931536.6773,76.0,862.0,160.0,443.99999999993634,36.44
1602931536.6794,76.0,862.0,138.0,443.99999999993634,36.44
1602931536.6813,76.0,862.0,145.0,443.99999999993634,36.44
1602931536.6833,76.0,862.0,145.0,443.99999999993634,36.44
1602931536.6854,76.0,862.0,157.0,443.99999999993634,36.44
1602931536.6873,76.0,862.0,194.0,443.99999999993634,36.44
1602931537.0833,76.0,862.0,189.0,443.99999999993634,36.44
1602931537.0839,76.0,862.0,155.0,443.99999999993634,36.44
1602931537.0864,76.0,862.0,160.0,443.99999999993634,36.44
1602931537.0891,76.0,862.0,179.0,443.99999999993634,36.44
1602931537.091,76.0,862.0,186.0,443.99999999993634,36.44
1602931537.093,76.0,862.0,189.0,443.99999999993634,36.44
1602931537.095,76.0,862.0,189.0,443.99999999993634,36.44
1602931537.097,76.0,862.0,196.0,443.99999999993634,36.44
1602931537.0991,76.0,862.0,220.0,443.99999999993634,36.44
1602931537.101,76.0,862.0,227.0,443.99999999993634,36.44
1602931537.103,76.0,862.0,198.0,443.99999999993634,36.44
1602931537.105,76.0,862.0,194.0,443.99999999993634,36.44
1602931537.107,76.0,862.0,215.0,443.99999999993634,36.44
1602931537.1091,76.0,862.0,198.0,443.99999999993634,36.44
1602931537.111,76.0,862.0,167.0,443.99999999993634,36.44
1602931537.113,76.0,862.0,172.0,443.99999999993634,36.44
1602931537.115,76.0,862.0,167.0,443.99999999993634,36.44
1602931537.117,76.0,862.0,147.0,443.99999999993634,36.44
1602931537.119,76.0,862.0,147.0,443.99999999993634,36.44
1602931537.1211,76.0,862.0,147.0,443.99999999993634,36.44
1602931537.123,76.0,862.0,123.0,443.99999999993634,36.44
1602931537.125,76.0,862.0,111.0,443.99999999993634,36.44
1602931537.127,76.0,862.0,109.0,443.99999999993634,36.44
1602931537.1291,76.0,862.0,82.0,443.99999999993634,36.44
1602931537.131,76.0,862.0,50.0,443.99999999993634,36.44
1602931537.133,76.0,862.0,65.0,443.99999999993634,36.44
1602931537.135,76.0,862.0,111.0,443.99999999993634,36.44
1602931537.137,76.0,862.0,118.0,443.99999999993634,36.44
1602931537.139,76.0,862.0,92.0,443.99999999993634,36.44
1602931537.1409,76.0,862.0,89.0,443.99999999993634,36.44
1602931537.1429,76.0,862.0,104.0,443.99999999993634,36.44
1602931537.1449,76.0,862.0,113.0,443.99999999993634,36.44
1602931537.1469,76.0,862.0,118.0,443.99999999993634,36.44
1602931537.149,76.0,862.0,106.0,443.99999999993634,36.44
1602931537.1509,76.0,862.0,89.0,443.99999999993634,36.44
1602931537.153,76.0,862.0,101.0,443.99999999993634,36.44
1602931537.155,76.0,862.0,113.0,443.99999999993634,36.44
1602931537.1569,76.0,862.0,104.0,443.99999999993634,36.44
1602931537.159,76.0,862.0,104.0,443.99999999993634,36.44
1602931537.1609,76.0,862.0,101.0,443.99999999993634,36.44
1602931537.1629,76.0,862.0,97.0,443.99999999993634,36.44
1602931537.1649,76.0,862.0,121.0,443.99999999993634,36.44
1602931537.167,76.0,862.0,118.0,443.99999999993634,36.44
1602931537.169,76.0,862.0,101.0,443.99999999993634,36.44
1602931537.171,76.0,862.0,116.0,443.99999999993634,36.44
1602931537.1729,76.0,862.0,113.0,443.99999999993634,36.44
1602931537.1749,76.0,862.0,84.0,443.99999999993634,36.44
1602931537.177,76.0,862.0,94.0,443.99999999993634,36.44
1602931537.179,76.0,862.0,111.0,443.99999999993634,36.44
1602931537.1809,76.0,862.0,97.0,443.99999999993634,36.44
1602931537.1829,76.0,862.0,97.0,443.99999999993634,36.44
1602931537.185,76.0,862.0,106.0,443.99999999993634,36.44
1602931537.1869,76.0,862.0,89.0,443.99999999993634,36.44
1602931537.189,76.0,862.0,82.0,443.99999999993634,36.44
1602931537.1909,76.0,862.0,106.0,443.99999999993634,36.44
1602931537.1929,76.0,862.0,104.0,443.99999999993634,36.44
1602931537.1949,76.0,862.0,84.0,443.99999999993634,36.44
1602931537.197,76.0,862.0,87.0,443.99999999993634,36.44
1602931537.1991,76.0,862.0,92.0,443.99999999993634,36.44
1602931537.201,76.0,862.0,84.0,443.99999999993634,36.44
1602931537.2029,76.0,862.0,80.0,443.99999999993634,36.44
1602931537.2049,76.0,862.0,80.0,443.99999999993634,36.44
1602931537.2069,76.0,862.0,82.0,443.99999999993634,36.44
1602931537.209,76.0,862.0,87.0,443.99999999993634,36.44
1602931537.2109,76.0,862.0,82.0,443.99999999993634,36.44
1602931537.2129,76.0,862.0,82.0,443.99999999993634,36.44
1602931537.215,76.0,862.0,89.0,443.99999999993634,36.44
1602931537.2169,76.0,862.0,89.0,443.99999999993634,36.44
1602931537.219,76.0,862.0,77.0,443.99999999993634,36.44
1602931537.2209,76.0,862.0,65.0,443.99999999993634,36.44
1602931537.2231,76.0,862.0,80.0,443.99999999993634,36.44
1602931537.225,76.0,862.0,109.0,443.99999999993634,36.44
1602931537.227,76.0,862.0,113.0,443.99999999993634,36.44
1602931537.6535,75.0,848.0,101.0,443.99999999993634,36.44
1602931537.6544,75.0,848.0,101.0,443.99999999993634,36.44
1602931537.6568,75.0,848.0,106.0,443.99999999993634,36.44
1602931537.6595,75.0,848.0,94.0,443.99999999993634,36.44
1602931537.6615,75.0,848.0,84.0,443.99999999993634,36.44
1602931537.6635,75.0,848.0,89.0,443.99999999993634,36.44
1602931537.6656,75.0,848.0,82.0,443.99999999993634,36.44
1602931537.6675,75.0,848.0,55.0,443.99999999993634,36.44
1602931537.6694,75.0,848.0,48.0,443.99999999993634,36.44
1602931537.6714,75.0,848.0,65.0,443.99999999993634,36.44
1602931537.6734,75.0,848.0,82.0,443.99999999993634,36.44
1602931537.6754,75.0,848.0,84.0,443.99999999993634,36.44
1602931537.6774,75.0,848.0,55.0,443.99999999993634,36.44
1602931537.6794,75.0,848.0,75.0,443.99999999993634,36.44
1602931537.6814,75.0,848.0,244.0,443.99999999993634,36.44
1602931537.6834,75.0,848.0,480.0,443.99999999993634,36.44
1602931537.6854,75.0,848.0,417.0,443.99999999993634,36.44
1602931537.6874,75.0,848.0,-87.0,443.99999999993634,36.44
1602931537.6894,75.0,848.0,-395.0,443.99999999993634,36.44
1602931537.6914,75.0,848.0,-123.0,443.99999999993634,36.44
1602931537.6934,75.0,848.0,123.0,443.99999999993634,36.44
1602931537.6954,75.0,848.0,77.0,443.99999999993634,36.44
1602931537.6974,75.0,848.0,72.0,443.99999999993634,36.44
1602931537.6995,75.0,848.0,116.0,443.99999999993634,36.44
1602931537.7014,75.0,848.0,89.0,443.99999999993634,36.44
1602931537.7034,75.0,848.0,75.0,443.99999999993634,36.44
1602931537.7054,75.0,848.0,99.0,443.99999999993634,36.44
1602931537.7074,75.0,848.0,116.0,443.99999999993634,36.44
1602931537.7094,75.0,848.0,109.0,443.99999999993634,36.44
1602931537.7114,75.0,848.0,101.0,443.99999999993634,36.44
1602931537.7134,75.0,848.0,109.0,443.99999999993634,36.44
1602931537.7154,75.0,848.0,118.0,443.99999999993634,36.44
1602931537.7174,75.0,848.0,123.0,443.99999999993634,36.44
1602931537.7194,75.0,848.0,126.0,443.99999999993634,36.44
1602931537.7214,75.0,848.0,126.0,443.99999999993634,36.44
1602931537.7234,75.0,848.0,128.0,443.99999999993634,36.44
1602931537.7255,75.0,848.0,135.0,443.99999999993634,36.44
1602931537.7274,75.0,848.0,143.0,443.99999999993634,36.44
1602931537.7294,75.0,848.0,143.0,443.99999999993634,36.44
1602931537.7313,75.0,848.0,138.0,443.99999999993634,36.44
1602931537.7334,75.0,848.0,145.0,443.99999999993634,36.44
1602931537.7354,75.0,848.0,164.0,443.99999999993634,36.44
1602931537.7374,75.0,848.0,177.0,443.99999999993634,36.44
1602931537.7394,75.0,848.0,181.0,443.99999999993634,36.44
1602931537.7413,75.0,848.0,189.0,443.99999999993634,36.44
1602931537.7433,75.0,848.0,191.0,443.99999999993634,36.44
1602931537.7454,75.0,848.0,179.0,443.99999999993634,36.44
1602931537.7474,75.0,848.0,172.0,443.99999999993634,36.44
1602931537.7496,75.0,848.0,177.0,443.99999999993634,36.44
1602931537.7514,75.0,848.0,177.0,443.99999999993634,36.44
1602931537.7533,75.0,848.0,164.0,443.99999999993634,36.44
1602931537.7554,75.0,848.0,155.0,443.99999999993634,36.44
1602931537.7574,75.0,848.0,145.0,443.99999999993634,36.44
1602931537.7594,75.0,848.0,133.0,443.99999999993634,36.44
1602931537.7614,75.0,848.0,118.0,443.99999999993634,36.44
1602931537.7633,75.0,848.0,99.0,443.99999999993634,36.44
1602931537.7653,75.0,848.0,82.0,443.99999999993634,36.44
1602931537.7674,75.0,848.0,72.0,443.99999999993634,36.44
1602931537.7694,75.0,848.0,60.0,443.99999999993634,36.44
1602931537.7714,75.0,848.0,50.0,443.99999999993634,36.44
1602931537.7734,75.0,848.0,48.0,443.99999999993634,36.44
1602931537.7754,75.0,848.0,41.0,443.99999999993634,36.44
1602931537.7774,75.0,848.0,29.0,443.99999999993634,36.44
1602931537.7795,75.0,848.0,21.0,443.99999999993634,36.44
1602931537.7815,75.0,848.0,24.0,443.99999999993634,36.44
1602931537.7834,75.0,848.0,31.0,443.99999999993634,36.44
1602931537.7854,75.0,848.0,38.0,443.99999999993634,36.44
1602931537.7874,75.0,848.0,41.0,443.99999999993634,36.44
1602931537.7894,75.0,848.0,33.0,443.99999999993634,36.44
1602931537.7913,75.0,848.0,31.0,443.99999999993634,36.44
1602931537.7933,75.0,848.0,41.0,443.99999999993634,36.44
1602931537.7954,75.0,848.0,48.0,443.99999999993634,36.44
1602931537.7974,75.0,848.0,43.0,443.99999999993634,36.44
1602931538.2236,75.0,861.0,36.0,443.99999999993634,36.44
1602931538.2245,75.0,861.0,41.0,443.99999999993634,36.44
1602931538.2269,75.0,861.0,43.0,443.99999999993634,36.44
1602931538.2295,75.0,861.0,33.0,443.99999999993634,36.44
1602931538.2315,75.0,861.0,24.0,443.99999999993634,36.44
1602931538.2335,75.0,861.0,21.0,443.99999999993634,36.44
1602931538.2357,75.0,861.0,19.0,443.99999999993634,36.44
1602931538.2376,75.0,861.0,16.0,443.99999999993634,36.44
1602931538.2395,75.0,861.0,7.0,443.99999999993634,36.44
1602931538.2415,75.0,861.0,-9.0,443.99999999993634,36.44
1602931538.2435,75.0,861.0,-14.0,443.99999999993634,36.44
1602931538.2455,75.0,861.0,-9.0,443.99999999993634,36.44
1602931538.2475,75.0,861.0,-16.0,443.99999999993634,36.44
1602931538.2495,75.0,861.0,-19.0,443.99999999993634,36.44
1602931538.2515,75.0,861.0,-12.0,443.99999999993634,36.44
1602931538.2534,75.0,861.0,-4.0,443.99999999993634,36.44
1602931538.2555,75.0,861.0,-4.0,443.99999999993634,36.44
1602931538.2575,75.0,861.0,-4.0,443.99999999993634,36.44
1602931538.2595,75.0,861.0,-9.0,443.99999999993634,36.44
1602931538.2614,75.0,861.0,-21.0,443.99999999993634,36.44
1602931538.2634,75.0,861.0,-26.0,443.99999999993634,36.44
1602931538.2654,75.0,861.0,-21.0,443.99999999993634,36.44
1602931538.2675,75.0,861.0,-9.0,443.99999999993634,36.44
1602931538.2695,75.0,861.0,-12.0,443.99999999993634,36.44
1602931538.2715,75.0,861.0,-26.0,443.99999999993634,36.44
1602931538.2734,75.0,861.0,-29.0,443.99999999993634,36.44
1602931538.2756,75.0,861.0,-16.0,443.99999999993634,36.44
1602931538.2775,75.0,861.0,-16.0,443.99999999993634,36.44
1602931538.2795,75.0,861.0,-31.0,443.99999999993634,36.44
1602931538.2814,75.0,861.0,-29.0,443.99999999993634,36.44
1602931538.2834,75.0,861.0,-4.0,443.99999999993634,36.44
1602931538.2854,75.0,861.0,14.0,443.99999999993634,36.44
1602931538.2874,75.0,861.0,19.0,443.99999999993634,36.44
1602931538.2895,75.0,861.0,14.0,443.99999999993634,36.44
1602931538.2915,75.0,861.0,9.0,443.99999999993634,36.44
1602931538.2934,75.0,861.0,7.0,443.99999999993634,36.44
1602931538.2954,75.0,861.0,-2.0,443.99999999993634,36.44
1602931538.2974,75.0,861.0,-7.0,443.99999999993634,36.44
1602931538.2995,75.0,861.0,-7.0,443.99999999993634,36.44
1602931538.3015,75.0,861.0,-2.0,443.99999999993634,36.44
1602931538.3034,75.0,861.0,-2.0,443.99999999993634,36.44
1602931538.3054,75.0,861.0,-2.0,443.99999999993634,36.44
1602931538.3074,75.0,861.0,2.0,443.99999999993634,36.44
1602931538.3095,75.0,861.0,4.0,443.99999999993634,36.44
1602931538.3114,75.0,861.0,-4.0,443.99999999993634,36.44
1602931538.3134,75.0,861.0,-16.0,443.99999999993634,36.44
1602931538.3154,75.0,861.0,72.0,443.99999999993634,36.44
1602931538.3174,75.0,861.0,320.0,443.99999999993634,36.44
1602931538.3195,75.0,861.0,446.0,443.99999999993634,36.44
1602931538.3214,75.0,861.0,46.0,443.99999999993634,36.44
1602931538.3234,75.0,861.0,-518.0,443.99999999993634,36.44
1602931538.3254,75.0,861.0,-441.0,443.99999999993634,36.44
1602931538.3274,75.0,861.0,-24.0,443.99999999993634,36.44
1602931538.3295,75.0,861.0,21.0,443.99999999993634,36.44
1602931538.3315,75.0,861.0,-46.0,443.99999999993634,36.44
1602931538.3334,75.0,861.0,46.0,443.99999999993634,36.44
1602931538.3354,75.0,861.0,72.0,443.99999999993634,36.44
1602931538.3374,75.0,861.0,26.0,443.99999999993634,36.44
1602931538.3395,75.0,861.0,43.0,443.99999999993634,36.44
1602931538.3414,75.0,861.0,65.0,443.99999999993634,36.44
1602931538.3434,75.0,861.0,50.0,443.99999999993634,36.44
1602931538.3454,75.0,861.0,58.0,443.99999999993634,36.44
1602931538.3474,75.0,861.0,77.0,443.99999999993634,36.44
1602931538.3495,75.0,861.0,77.0,443.99999999993634,36.44
1602931538.3514,75.0,861.0,72.0,443.99999999993634,36.44
1602931538.3534,75.0,861.0,80.0,443.99999999993634,36.44
1602931538.3554,75.0,861.0,92.0,443.99999999993634,36.44
1602931538.3574,75.0,861.0,97.0,443.99999999993634,36.44
1602931538.3595,75.0,861.0,101.0,443.99999999993634,36.44
1602931538.3614,75.0,861.0,106.0,443.99999999993634,36.44
1602931538.3634,75.0,861.0,106.0,443.99999999993634,36.44
1602931538.3655,75.0,861.0,113.0,443.99999999993634,36.44
1602931538.3674,75.0,861.0,128.0,443.99999999993634,36.44
1602931538.7628,75.0,861.0,143.0,443.99999999993634,36.44
1602931538.7631,75.0,861.0,147.0,443.99999999993634,36.44
1602931538.7647,75.0,861.0,150.0,443.99999999993634,36.44
1602931538.7654,75.0,861.0,150.0,443.99999999993634,36.44
1602931538.7671,75.0,861.0,162.0,443.99999999993634,36.44
1602931538.7687,75.0,861.0,164.0,443.99999999993634,36.44
1602931538.7707,75.0,861.0,164.0,443.99999999993634,36.44
1602931538.7727,75.0,861.0,172.0,443.99999999993634,36.44
1602931538.7747,75.0,861.0,162.0,443.99999999993634,36.44
1602931538.7767,75.0,861.0,140.0,443.99999999993634,36.44
1602931538.7788,75.0,861.0,126.0,443.99999999993634,36.44
1602931538.7807,75.0,861.0,118.0,443.99999999993634,36.44
1602931538.7827,75.0,861.0,111.0,443.99999999993634,36.44
1602931538.7847,75.0,861.0,109.0,443.99999999993634,36.44
1602931538.7867,75.0,861.0,101.0,443.99999999993634,36.44
1602931538.7887,75.0,861.0,80.0,443.99999999993634,36.44
1602931538.7907,75.0,861.0,63.0,443.99999999993634,36.44
1602931538.7927,75.0,861.0,53.0,443.99999999993634,36.44
1602931538.7948,75.0,861.0,48.0,443.99999999993634,36.44
1602931538.7967,75.0,861.0,46.0,443.99999999993634,36.44
1602931538.7987,75.0,861.0,43.0,443.99999999993634,36.44
1602931538.8007,75.0,861.0,43.0,443.99999999993634,36.44
1602931538.8027,75.0,861.0,43.0,443.99999999993634,36.44
1602931538.8047,75.0,861.0,48.0,443.99999999993634,36.44
1602931538.8067,75.0,861.0,55.0,443.99999999993634,36.44
1602931538.8087,75.0,861.0,58.0,443.99999999993634,36.44
1602931538.8107,75.0,861.0,60.0,443.99999999993634,36.44
1602931538.8127,75.0,861.0,72.0,443.99999999993634,36.44
1602931538.8147,75.0,861.0,77.0,443.99999999993634,36.44
1602931538.8167,75.0,861.0,77.0,443.99999999993634,36.44
1602931538.8187,75.0,861.0,84.0,443.99999999993634,36.44
1602931538.8207,75.0,861.0,89.0,443.99999999993634,36.44
1602931538.8227,75.0,861.0,92.0,443.99999999993634,36.44
1602931538.8247,75.0,861.0,97.0,443.99999999993634,36.44
1602931538.8267,75.0,861.0,99.0,443.99999999993634,36.44
1602931538.8287,75.0,861.0,97.0,443.99999999993634,36.44
1602931538.8307,75.0,861.0,94.0,443.99999999993634,36.44
1602931538.8327,75.0,861.0,94.0,443.99999999993634,36.44
1602931538.8347,75.0,861.0,92.0,443.99999999993634,36.44
1602931538.8367,75.0,861.0,82.0,443.99999999993634,36.44
1602931538.8387,75.0,861.0,72.0,443.99999999993634,36.44
1602931538.8407,75.0,861.0,70.0,443.99999999993634,36.44
1602931538.8427,75.0,861.0,75.0,443.99999999993634,36.44
1602931538.8447,75.0,861.0,82.0,443.99999999993634,36.44
1602931538.8467,75.0,861.0,87.0,443.99999999993634,36.44
1602931538.8487,75.0,861.0,77.0,443.99999999993634,36.44
1602931538.8506,75.0,861.0,77.0,443.99999999993634,36.44
1602931538.8527,75.0,861.0,87.0,443.99999999993634,36.44
1602931538.8547,75.0,861.0,84.0,443.99999999993634,36.44
1602931538.8567,75.0,861.0,84.0,443.99999999993634,36.44
1602931538.8587,75.0,861.0,92.0,443.99999999993634,36.44
1602931538.8607,75.0,861.0,87.0,443.99999999993634,36.44
1602931538.8628,75.0,861.0,72.0,443.99999999993634,36.44
1602931538.8647,75.0,861.0,70.0,443.99999999993634,36.44
1602931538.8667,75.0,861.0,77.0,443.99999999993634,36.44
1602931538.8688,75.0,861.0,82.0,443.99999999993634,36.44
1602931538.8707,75.0,861.0,77.0,443.99999999993634,36.44
1602931538.8726,75.0,861.0,75.0,443.99999999993634,36.44
1602931538.8747,75.0,861.0,87.0,443.99999999993634,36.44
1602931538.8767,75.0,861.0,109.0,443.99999999993634,36.44
1602931538.8787,75.0,861.0,116.0,443.99999999993634,36.44
1602931538.8807,75.0,861.0,106.0,443.99999999993634,36.44
1602931538.8827,75.0,861.0,99.0,443.99999999993634,36.44
1602931538.8847,75.0,861.0,101.0,443.99999999993634,36.44
1602931538.8867,75.0,861.0,94.0,443.99999999993634,36.44
1602931538.8887,75.0,861.0,75.0,443.99999999993634,36.44
1602931538.8907,75.0,861.0,70.0,443.99999999993634,36.44
1602931538.8927,75.0,861.0,82.0,443.99999999993634,36.44
1602931538.8947,75.0,861.0,92.0,443.99999999993634,36.44
1602931538.8968,75.0,861.0,87.0,443.99999999993634,36.44
1602931538.8987,75.0,861.0,84.0,443.99999999993634,36.44
1602931538.9007,75.0,861.0,84.0,443.99999999993634,36.44
1602931538.9028,75.0,861.0,84.0,443.99999999993634,36.44
1602931539.3032,74.0,858.0,97.0,443.99999999993634,36.44
1602931539.304,74.0,858.0,210.0,443.99999999993634,36.44
1602931539.3056,74.0,858.0,448.0,443.99999999993634,36.44
1602931539.3076,74.0,858.0,535.0,443.99999999993634,36.44
1602931539.3096,74.0,858.0,111.0,443.99999999993634,36.44
1602931539.3116,74.0,858.0,-419.0,443.99999999993634,36.44
1602931539.3136,74.0,858.0,-310.0,443.99999999993634,36.44
1602931539.3155,74.0,858.0,84.0,443.99999999993634,36.44
1602931539.3175,74.0,858.0,111.0,443.99999999993634,36.44
1602931539.3196,74.0,858.0,46.0,443.99999999993634,36.44
1602931539.3216,74.0,858.0,121.0,443.99999999993634,36.44
1602931539.3236,74.0,858.0,130.0,443.99999999993634,36.44
1602931539.3255,74.0,858.0,92.0,443.99999999993634,36.44
1602931539.3277,74.0,858.0,121.0,443.99999999993634,36.44
1602931539.3295,74.0,858.0,143.0,443.99999999993634,36.44
1602931539.3315,74.0,858.0,126.0,443.99999999993634,36.44
1602931539.3335,74.0,858.0,128.0,443.99999999993634,36.44
1602931539.3355,74.0,858.0,145.0,443.99999999993634,36.44
1602931539.3375,74.0,858.0,143.0,443.99999999993634,36.44
1602931539.3395,74.0,858.0,140.0,443.99999999993634,36.44
1602931539.3416,74.0,858.0,140.0,443.99999999993634,36.44
1602931539.3435,74.0,858.0,133.0,443.99999999993634,36.44
1602931539.3454,74.0,858.0,135.0,443.99999999993634,36.44
1602931539.3475,74.0,858.0,150.0,443.99999999993634,36.44
1602931539.3494,74.0,858.0,167.0,443.99999999993634,36.44
1602931539.3516,74.0,858.0,172.0,443.99999999993634,36.44
1602931539.3534,74.0,858.0,172.0,443.99999999993634,36.44
1602931539.3554,74.0,858.0,172.0,443.99999999993634,36.44
1602931539.3575,74.0,858.0,174.0,443.99999999993634,36.44
1602931539.3595,74.0,858.0,189.0,443.99999999993634,36.44
1602931539.3615,74.0,858.0,194.0,443.99999999993634,36.44
1602931539.3635,74.0,858.0,189.0,443.99999999993634,36.44
1602931539.3655,74.0,858.0,189.0,443.99999999993634,36.44
1602931539.3677,74.0,858.0,198.0,443.99999999993634,36.44
1602931539.3695,74.0,858.0,196.0,443.99999999993634,36.44
1602931539.3715,74.0,858.0,189.0,443.99999999993634,36.44
1602931539.3734,74.0,858.0,181.0,443.99999999993634,36.44
1602931539.3754,74.0,858.0,172.0,443.99999999993634,36.44
1602931539.3775,74.0,858.0,167.0,443.99999999993634,36.44
1602931539.3796,74.0,858.0,169.0,443.99999999993634,36.44
1602931539.3815,74.0,858.0,160.0,443.99999999993634,36.44
1602931539.3835,74.0,858.0,145.0,443.99999999993634,36.44
1602931539.3855,74.0,858.0,130.0,443.99999999993634,36.44
1602931539.3875,74.0,858.0,116.0,443.99999999993634,36.44
1602931539.3894,74.0,858.0,104.0,443.99999999993634,36.44
1602931539.3915,74.0,858.0,94.0,443.99999999993634,36.44
1602931539.3934,74.0,858.0,87.0,443.99999999993634,36.44
1602931539.3955,74.0,858.0,82.0,443.99999999993634,36.44
1602931539.3975,74.0,858.0,80.0,443.99999999993634,36.44
1602931539.3996,74.0,858.0,75.0,443.99999999993634,36.44
1602931539.4015,74.0,858.0,77.0,443.99999999993634,36.44
1602931539.4035,74.0,858.0,92.0,443.99999999993634,36.44
1602931539.4055,74.0,858.0,94.0,443.99999999993634,36.44
1602931539.4076,74.0,858.0,94.0,443.99999999993634,36.44
1602931539.4095,74.0,858.0,97.0,443.99999999993634,36.44
1602931539.4115,74.0,858.0,104.0,443.99999999993634,36.44
1602931539.4134,74.0,858.0,106.0,443.99999999993634,36.44
1602931539.4155,74.0,858.0,106.0,443.99999999993634,36.44
1602931539.4175,74.0,858.0,106.0,443.99999999993634,36.44
1602931539.4194,74.0,858.0,111.0,443.99999999993634,36.44
1602931539.4215,74.0,858.0,113.0,443.99999999993634,36.44
1602931539.4235,74.0,858.0,116.0,443.99999999993634,36.44
1602931539.4255,74.0,858.0,116.0,443.99999999993634,36.44
1602931539.4275,74.0,858.0,116.0,443.99999999993634,36.44
1602931539.4295,74.0,858.0,113.0,443.99999999993634,36.44
1602931539.4315,74.0,858.0,109.0,443.99999999993634,36.44
1602931539.4335,74.0,858.0,113.0,443.99999999993634,36.44
1602931539.4355,74.0,858.0,121.0,443.99999999993634,36.44
1602931539.4374,74.0,858.0,116.0,443.99999999993634,36.44
1602931539.4395,74.0,858.0,106.0,443.99999999993634,36.44
1602931539.4415,74.0,858.0,99.0,443.99999999993634,36.44
1602931539.4434,74.0,858.0,99.0,443.99999999993634,36.44
1602931539.4455,74.0,858.0,109.0,443.99999999993634,36.44
1602931539.9033,74.0,858.0,118.0,443.99999999993634,36.44
1602931539.9045,74.0,858.0,113.0,443.99999999993634,36.44
1602931539.9069,74.0,858.0,104.0,443.99999999993634,36.44
1602931539.9096,74.0,858.0,92.0,443.99999999993634,36.44
1602931539.9116,74.0,858.0,77.0,443.99999999993634,36.44
1602931539.9136,74.0,858.0,80.0,443.99999999993634,36.44
1602931539.9156,74.0,858.0,89.0,443.99999999993634,36.44
1602931539.9176,74.0,858.0,89.0,443.99999999993634,36.44
1602931539.9196,74.0,858.0,84.0,443.99999999993634,36.44
1602931539.9215,74.0,858.0,84.0,443.99999999993634,36.44
1602931539.9235,74.0,858.0,94.0,443.99999999993634,36.44
1602931539.9257,74.0,858.0,104.0,443.99999999993634,36.44
1602931539.9275,74.0,858.0,116.0,443.99999999993634,36.44
1602931539.9296,74.0,858.0,121.0,443.99999999993634,36.44
1602931539.9314,74.0,858.0,116.0,443.99999999993634,36.44
1602931539.9335,74.0,858.0,111.0,443.99999999993634,36.44
1602931539.9355,74.0,858.0,113.0,443.99999999993634,36.44
1602931539.9374,74.0,858.0,116.0,443.99999999993634,36.44
1602931539.9395,74.0,858.0,109.0,443.99999999993634,36.44
1602931539.9414,74.0,858.0,94.0,443.99999999993634,36.44
1602931539.9434,74.0,858.0,80.0,443.99999999993634,36.44
1602931539.9455,74.0,858.0,77.0,443.99999999993634,36.44
1602931539.9474,74.0,858.0,84.0,443.99999999993634,36.44
1602931539.9495,74.0,858.0,94.0,443.99999999993634,36.44
1602931539.9515,74.0,858.0,101.0,443.99999999993634,36.44
1602931539.9534,74.0,858.0,97.0,443.99999999993634,36.44
1602931539.9554,74.0,858.0,80.0,443.99999999993634,36.44
1602931539.9574,74.0,858.0,106.0,443.99999999993634,36.44
1602931539.9595,74.0,858.0,281.0,443.99999999993634,36.44
1602931539.9614,74.0,858.0,511.0,443.99999999993634,36.44
1602931539.9635,74.0,858.0,429.0,443.99999999993634,36.44
1602931539.9655,74.0,858.0,-109.0,443.99999999993634,36.44
1602931539.9675,74.0,858.0,-443.0,443.99999999993634,36.44
1602931539.9695,74.0,858.0,-147.0,443.99999999993634,36.44
1602931539.9714,74.0,858.0,133.0,443.99999999993634,36.44
1602931539.9734,74.0,858.0,77.0,443.99999999993634,36.44
1602931539.9755,74.0,858.0,80.0,443.99999999993634,36.44
1602931539.9774,74.0,858.0,155.0,443.99999999993634,36.44
1602931539.9795,74.0,858.0,130.0,443.99999999993634,36.44
1602931539.9815,74.0,858.0,106.0,443.99999999993634,36.44
1602931539.9834,74.0,858.0,126.0,443.99999999993634,36.44
1602931539.9855,74.0,858.0,126.0,443.99999999993634,36.44
1602931539.9875,74.0,858.0,126.0,443.99999999993634,36.44
1602931539.9894,74.0,858.0,143.0,443.99999999993634,36.44
1602931539.9914,74.0,858.0,147.0,443.99999999993634,36.44
1602931539.9934,74.0,858.0,138.0,443.99999999993634,36.44
1602931539.9954,74.0,858.0,140.0,443.99999999993634,36.44
1602931539.9974,74.0,858.0,143.0,443.99999999993634,36.44
1602931539.9995,74.0,858.0,150.0,443.99999999993634,36.44
1602931540.0014,74.0,858.0,167.0,443.99999999993634,36.44
1602931540.0034,74.0,858.0,174.0,443.99999999993634,36.44
1602931540.0054,74.0,858.0,167.0,443.99999999993634,36.44
1602931540.0074,74.0,858.0,160.0,443.99999999993634,36.44
1602931540.0094,74.0,858.0,172.0,443.99999999993634,36.44
1602931540.0115,74.0,858.0,194.0,443.99999999993634,36.44
1602931540.0134,74.0,858.0,196.0,443.99999999993634,36.44
1602931540.0154,74.0,858.0,179.0,443.99999999993634,36.44
1602931540.0174,74.0,858.0,189.0,443.99999999993634,36.44
1602931540.0195,74.0,858.0,208.0,443.99999999993634,36.44
1602931540.0214,74.0,858.0,206.0,443.99999999993634,36.44
1602931540.0234,74.0,858.0,194.0,443.99999999993634,36.44
1602931540.0254,74.0,858.0,196.0,443.99999999993634,36.44
1602931540.0276,74.0,858.0,201.0,443.99999999993634,36.44
1602931540.0295,74.0,858.0,198.0,443.99999999993634,36.44
1602931540.0314,74.0,858.0,184.0,443.99999999993634,36.44
1602931540.0334,74.0,858.0,169.0,443.99999999993634,36.44
1602931540.0356,74.0,858.0,160.0,443.99999999993634,36.44
1602931540.0375,74.0,858.0,160.0,443.99999999993634,36.44
1602931540.0394,74.0,858.0,160.0,443.99999999993634,36.44
1602931540.0414,74.0,858.0,147.0,443.99999999993634,36.44
1602931540.0434,74.0,858.0,133.0,443.99999999993634,36.44
1602931540.0454,74.0,858.0,126.0,443.99999999993634,36.44
1602931540.0474,74.0,858.0,116.0,443.99999999993634,36.44
1602931540.4733,74.0,830.0,113.0,443.99999999993634,36.5
1602931540.474,74.0,830.0,121.0,443.99999999993634,36.5
1602931540.4764,74.0,830.0,118.0,443.99999999993634,36.5
1602931540.479,74.0,830.0,113.0,443.99999999993634,36.5
1602931540.481,74.0,830.0,113.0,443.99999999993634,36.5
1602931540.483,74.0,830.0,106.0,443.99999999993634,36.5
1602931540.4851,74.0,830.0,111.0,443.99999999993634,36.5
1602931540.4871,74.0,830.0,126.0,443.99999999993634,36.5
1602931540.4891,74.0,830.0,135.0,443.99999999993634,36.5
1602931540.491,74.0,830.0,128.0,443.99999999993634,36.5
1602931540.493,74.0,830.0,121.0,443.99999999993634,36.5
1602931540.495,74.0,830.0,130.0,443.99999999993634,36.5
1602931540.497,74.0,830.0,138.0,443.99999999993634,36.5
1602931540.499,74.0,830.0,130.0,443.99999999993634,36.5
1602931540.501,74.0,830.0,130.0,443.99999999993634,36.5
1602931540.503,74.0,830.0,135.0,443.99999999993634,36.5
1602931540.505,74.0,830.0,128.0,443.99999999993634,36.5
1602931540.507,74.0,830.0,126.0,443.99999999993634,36.5
1602931540.509,74.0,830.0,128.0,443.99999999993634,36.5
1602931540.511,74.0,830.0,130.0,443.99999999993634,36.5
1602931540.513,74.0,830.0,138.0,443.99999999993634,36.5
1602931540.515,74.0,830.0,147.0,443.99999999993634,36.5
1602931540.517,74.0,830.0,152.0,443.99999999993634,36.5
1602931540.5191,74.0,830.0,140.0,443.99999999993634,36.5
1602931540.521,74.0,830.0,121.0,443.99999999993634,36.5
1602931540.523,74.0,830.0,118.0,443.99999999993634,36.5
1602931540.525,74.0,830.0,126.0,443.99999999993634,36.5
1602931540.527,74.0,830.0,126.0,443.99999999993634,36.5
1602931540.5291,74.0,830.0,126.0,443.99999999993634,36.5
1602931540.531,74.0,830.0,130.0,443.99999999993634,36.5
1602931540.533,74.0,830.0,138.0,443.99999999993634,36.5
1602931540.535,74.0,830.0,143.0,443.99999999993634,36.5
1602931540.537,74.0,830.0,138.0,443.99999999993634,36.5
1602931540.539,74.0,830.0,130.0,443.99999999993634,36.5
1602931540.541,74.0,830.0,138.0,443.99999999993634,36.5
1602931540.543,74.0,830.0,155.0,443.99999999993634,36.5
1602931540.545,74.0,830.0,147.0,443.99999999993634,36.5
1602931540.547,74.0,830.0,113.0,443.99999999993634,36.5
1602931540.549,74.0,830.0,104.0,443.99999999993634,36.5
1602931540.551,74.0,830.0,130.0,443.99999999993634,36.5
1602931540.5532,74.0,830.0,157.0,443.99999999993634,36.5
1602931540.555,74.0,830.0,155.0,443.99999999993634,36.5
1602931540.557,74.0,830.0,145.0,443.99999999993634,36.5
1602931540.559,74.0,830.0,152.0,443.99999999993634,36.5
1602931540.561,74.0,830.0,157.0,443.99999999993634,36.5
1602931540.563,74.0,830.0,138.0,443.99999999993634,36.5
1602931540.5649,74.0,830.0,113.0,443.99999999993634,36.5
1602931540.567,74.0,830.0,116.0,443.99999999993634,36.5
1602931540.569,74.0,830.0,133.0,443.99999999993634,36.5
1602931540.5709,74.0,830.0,126.0,443.99999999993634,36.5
1602931540.573,74.0,830.0,111.0,443.99999999993634,36.5
1602931540.575,74.0,830.0,118.0,443.99999999993634,36.5
1602931540.5757,74.0,830.0,126.0,443.99999999993634,36.5
1602931540.578,74.0,830.0,118.0,443.99999999993634,36.5
1602931540.5801,74.0,830.0,109.0,443.99999999993634,36.5
1602931540.582,74.0,830.0,143.0,443.99999999993634,36.5
1602931540.584,74.0,830.0,303.0,443.99999999993634,36.5
1602931540.5859,74.0,830.0,526.0,443.99999999993634,36.5
1602931540.588,74.0,830.0,443.0,443.99999999993634,36.5
1602931540.59,74.0,830.0,-87.0,443.99999999993634,36.5
1602931540.592,74.0,830.0,-402.0,443.99999999993634,36.5
1602931540.594,74.0,830.0,-97.0,443.99999999993634,36.5
1602931540.596,74.0,830.0,169.0,443.99999999993634,36.5
1602931540.598,74.0,830.0,92.0,443.99999999993634,36.5
1602931540.6,74.0,830.0,75.0,443.99999999993634,36.5
1602931540.602,74.0,830.0,155.0,443.99999999993634,36.5
1602931540.604,74.0,830.0,147.0,443.99999999993634,36.5
1602931540.606,74.0,830.0,123.0,443.99999999993634,36.5
1602931540.6067,74.0,830.0,138.0,443.99999999993634,36.5
1602931540.609,74.0,830.0,140.0,443.99999999993634,36.5
1602931540.611,74.0,830.0,135.0,443.99999999993634,36.5
1602931540.613,74.0,830.0,138.0,443.99999999993634,36.5
1602931540.615,74.0,830.0,140.0,443.99999999993634,36.5
1602931541.0435,74.0,830.0,145.0,443.99999999993634,36.5
1602931541.0445,74.0,830.0,147.0,443.99999999993634,36.5
1602931541.0469,74.0,830.0,140.0,443.99999999993634,36.5
1602931541.0496,74.0,830.0,135.0,443.99999999993634,36.5
1602931541.0515,74.0,830.0,152.0,443.99999999993634,36.5
1602931541.0535,74.0,830.0,164.0,443.99999999993634,36.5
1602931541.0556,74.0,830.0,160.0,443.99999999993634,36.5
1602931541.0575,74.0,830.0,162.0,443.99999999993634,36.5
1602931541.0595,74.0,830.0,164.0,443.99999999993634,36.5
1602931541.0614,74.0,830.0,157.0,443.99999999993634,36.5
1602931541.0634,74.0,830.0,155.0,443.99999999993634,36.5
1602931541.0642,74.0,830.0,162.0,443.99999999993634,36.5
1602931541.0664,74.0,830.0,172.0,443.99999999993634,36.5
1602931541.0684,74.0,830.0,177.0,443.99999999993634,36.5
1602931541.0705,74.0,830.0,169.0,443.99999999993634,36.5
1602931541.0724,74.0,830.0,167.0,443.99999999993634,36.5
1602931541.0745,74.0,830.0,189.0,443.99999999993634,36.5
1602931541.0765,74.0,830.0,198.0,443.99999999993634,36.5
1602931541.0787,74.0,830.0,167.0,443.99999999993634,36.5
1602931541.0806,74.0,830.0,145.0,443.99999999993634,36.5
1602931541.0824,74.0,830.0,150.0,443.99999999993634,36.5
1602931541.0844,74.0,830.0,150.0,443.99999999993634,36.5
1602931541.0864,74.0,830.0,130.0,443.99999999993634,36.5
1602931541.0884,74.0,830.0,118.0,443.9858694606688,36.5
1602931541.0904,74.0,830.0,116.0,443.97318081316337,36.5
1602931541.0925,74.0,830.0,104.0,443.9619049282933,36.5
1602931541.0944,74.0,830.0,84.0,443.9520126769322,36.5
1602931541.0951,74.0,830.0,82.0,443.9434749299537,36.5
1602931541.0974,74.0,830.0,80.0,443.9362625582311,36.5
1602931541.0995,74.0,830.0,65.0,443.930346432638,36.5
1602931541.1014,74.0,830.0,65.0,443.9256974240477,36.5
1602931541.1035,74.0,830.0,77.0,443.92228640333406,36.5
1602931541.1055,74.0,830.0,77.0,443.9200842413702,36.5
1602931541.1074,74.0,830.0,70.0,443.9190618090299,36.5
1602931541.1095,74.0,830.0,77.0,443.91918997718653,36.5
1602931541.1114,74.0,830.0,89.0,443.92043961671357,36.5
1602931541.1134,74.0,830.0,87.0,443.92278159848456,36.5
1602931541.1154,74.0,830.0,87.0,443.92618679337306,36.5
1602931541.1174,74.0,830.0,97.0,443.9306260722524,36.5
1602931541.1195,74.0,830.0,101.0,443.93607030599617,36.5
1602931541.1214,74.0,830.0,104.0,443.94249036547785,36.5
1602931541.1234,74.0,830.0,104.0,443.94985712157086,36.5
1602931541.1254,74.0,830.0,106.0,443.95814144514884,36.5
1602931541.1262,74.0,830.0,111.0,443.9673142070852,36.5
1602931541.1285,74.0,830.0,109.0,443.97734627825355,36.5
1602931541.1304,74.0,830.0,104.0,443.98820852952724,36.5
1602931541.1325,74.0,830.0,104.0,443.9998718317797,36.5
1602931541.1345,74.0,830.0,111.0,444.01230705588466,36.5
1602931541.1365,74.0,830.0,113.0,444.02548507271547,36.5
1602931541.1385,74.0,830.0,113.0,444.0393767531457,36.5
1602931541.1405,74.0,830.0,106.0,444.05395296804875,36.5
1602931541.1424,74.0,830.0,99.0,444.0691845882982,36.5
1602931541.1444,74.0,830.0,104.0,444.0850424847674,36.5
1602931541.1464,74.0,830.0,111.0,444.10149752833,36.5
1602931541.1485,74.0,830.0,113.0,444.1185205898595,36.5
1602931541.1504,74.0,830.0,111.0,444.13608254022927,36.5
1602931541.1524,74.0,830.0,106.0,444.1541542503129,36.5
1602931541.1544,74.0,830.0,97.0,444.1727065909838,36.5
1602931541.1551,74.0,830.0,89.0,444.19171043311565,36.5
1602931541.1564,74.0,830.0,99.0,444.2111366475817,36.5
1602931541.1584,74.0,830.0,106.0,444.2309561052557,36.5
1602931541.1604,74.0,830.0,94.0,444.2511396770109,36.5
1602931541.1624,74.0,830.0,94.0,444.2716582337209,36.5
1602931541.1644,74.0,830.0,104.0,444.29248264625926,36.5
1602931541.1664,74.0,830.0,104.0,444.3135837854994,36.5
1602931541.1684,74.0,830.0,109.0,444.33493252231483,36.5
1602931541.1704,74.0,830.0,113.0,444.35649972757903,36.5
1602931541.1724,74.0,830.0,104.0,444.3782562721656,36.5
1602931541.1744,74.0,830.0,94.0,444.4001730269478,36.5
1602931541.1766,74.0,830.0,94.0,444.42222086279935,36.5
1602931541.1785,74.0,830.0,101.0,444.44437065059367,36.5
1602931541.1805,74.0,830.0,126.0,444.46659326120425,36.5
1602931541.1824,74.0,830.0,135.0,444.4888595655046,36.5
1602931541.5834,74.0,795.0,121.0,444.5111404343682,36.5
1602931541.5843,74.0,795.0,104.0,444.53340673866853,36.5
1602931541.5867,74.0,795.0,109.0,444.5556293492791,36.5
1602931541.5892,74.0,795.0,111.0,444.57777913707343,36.5
1602931541.5913,74.0,795.0,99.0,444.599826972925,36.5
1602931541.5932,74.0,795.0,92.0,444.62174372770727,36.5
1602931541.5954,74.0,795.0,80.0,444.64350027229375,36.5
1602931541.5973,74.0,795.0,67.0,444.66506747755795,36.5
1602931541.5993,74.0,795.0,72.0,444.68641621437337,36.5
1602931541.6012,74.0,795.0,87.0,444.70751735361347,36.5
1602931541.6032,74.0,795.0,72.0,444.7283417661518,36.5
1602931541.6052,74.0,795.0,58.0,444.74886032286184,36.5
1602931541.6072,74.0,795.0,60.0,444.769043894617,36.5
1602931541.608,74.0,795.0,82.0,444.78886335229095,36.5
1602931541.6103,74.0,795.0,191.0,444.8082895667571,36.5
1602931541.6122,74.0,795.0,409.0,444.82729340888886,36.5
1602931541.6142,74.0,795.0,458.0,444.8458457495598,36.5
1602931541.6162,74.0,795.0,31.0,444.86391745964346,36.5
1602931541.6182,74.0,795.0,-414.0,444.88147941001324,36.5
1602931541.6202,74.0,795.0,-242.0,444.89850247154266,36.5
1602931541.6222,74.0,795.0,101.0,444.9149575151053,36.5
1602931541.6242,74.0,795.0,92.0,444.93081541157454,36.5
1602931541.6262,74.0,795.0,43.0,444.9460470318239,36.5
1602931541.6282,74.0,795.0,109.0,444.9747537859945,36.5
1602931541.6302,74.0,795.0,97.0,445.00133411393017,36.5
1602931541.6322,74.0,795.0,58.0,445.025788015631,36.5
1602931541.6342,74.0,795.0,87.0,445.048115491097,36.5
1602931541.6362,74.0,795.0,94.0,445.06831654032817,36.5
1602931541.6382,74.0,795.0,77.0,445.08639116332444,36.5
1602931541.639,74.0,795.0,92.0,445.10233936008586,36.5
1602931541.6412,74.0,795.0,111.0,445.1161611306124,36.5
1602931541.6433,74.0,795.0,109.0,445.12785647490415,36.5
1602931541.6452,74.0,795.0,104.0,445.137425392961,36.5
1602931541.6472,74.0,795.0,106.0,445.14486788478297,36.5
1602931541.6492,74.0,795.0,116.0,445.15018395037015,36.5
1602931541.6512,74.0,795.0,126.0,445.15337358972243,36.5
1602931541.6532,74.0,795.0,123.0,445.1544368028398,36.5
1602931541.6552,74.0,795.0,133.0,445.15337358972243,36.5
1602931541.6572,74.0,795.0,152.0,445.15018395037015,36.5
1602931541.6593,74.0,795.0,152.0,445.14486788478297,36.5
1602931541.6612,74.0,795.0,140.0,445.137425392961,36.5
1602931541.6632,74.0,795.0,145.0,445.12785647490415,36.5
1602931541.6652,74.0,795.0,157.0,445.1161611306124,36.5
1602931541.6672,74.0,795.0,164.0,445.10233936008586,36.5
1602931541.6693,74.0,795.0,172.0,445.08639116332444,36.5
1602931541.67,74.0,795.0,177.0,445.06831654032817,36.5
1602931541.6722,74.0,795.0,172.0,445.048115491097,36.5
1602931541.6744,74.0,795.0,169.0,445.025788015631,36.5
1602931541.6763,74.0,795.0,169.0,445.00133411393017,36.5
1602931541.6782,74.0,795.0,164.0,444.9747537859945,36.5
1602931541.6802,74.0,795.0,155.0,444.9460470318239,36.5
1602931541.6822,74.0,795.0,152.0,444.93081541157454,36.5
1602931541.6842,74.0,795.0,157.0,444.9149575151053,36.5
1602931541.6862,74.0,795.0,145.0,444.89850247154266,36.5
1602931541.6882,74.0,795.0,121.0,444.88147941001324,36.5
1602931541.6902,74.0,795.0,104.0,444.86391745964346,36.5
1602931541.6922,74.0,795.0,89.0,444.8458457495598,36.5
1602931541.6942,74.0,795.0,80.0,444.82729340888886,36.5
1602931541.6962,74.0,795.0,75.0,444.8082895667571,36.5
1602931541.6982,74.0,795.0,70.0,444.78886335229095,36.5
1602931541.7003,74.0,795.0,65.0,444.769043894617,36.5
1602931541.7009,74.0,795.0,67.0,444.74886032286184,36.5
1602931541.7022,74.0,795.0,72.0,444.7283417661518,36.5
1602931541.7042,74.0,795.0,75.0,444.70751735361347,36.5
1602931541.7062,74.0,795.0,80.0,444.68641621437337,36.5
1602931541.7082,74.0,795.0,87.0,444.66506747755795,36.5
1602931541.7102,74.0,795.0,82.0,444.64350027229375,36.5
1602931541.7122,74.0,795.0,65.0,444.62174372770727,36.5
1602931541.7142,74.0,795.0,63.0,444.599826972925,36.5
1602931541.7162,74.0,795.0,72.0,444.57777913707343,36.5
1602931541.7182,74.0,795.0,75.0,444.5556293492791,36.5
1602931541.7203,74.0,795.0,75.0,444.53340673866853,36.5
1602931541.7222,74.0,795.0,82.0,444.5111404343682,36.5
1602931542.153,74.0,795.0,87.0,444.4888595655046,36.44
1602931542.1538,74.0,795.0,87.0,444.46659326120425,36.44
1602931542.1563,74.0,795.0,92.0,444.44437065059367,36.44
1602931542.1574,74.0,795.0,97.0,444.42222086279935,36.44
1602931542.1589,74.0,795.0,92.0,444.4001730269478,36.44
1602931542.1609,74.0,795.0,87.0,444.3782562721656,36.44
1602931542.1629,74.0,795.0,92.0,444.35649972757903,36.44
1602931542.165,74.0,795.0,99.0,444.33493252231483,36.44
1602931542.1669,74.0,795.0,94.0,444.3135837854994,36.44
1602931542.1689,74.0,795.0,80.0,444.29248264625926,36.44
1602931542.1709,74.0,795.0,72.0,444.2716582337209,36.44
1602931542.1728,74.0,795.0,72.0,444.2511396770109,36.44
1602931542.1748,74.0,795.0,72.0,444.2309561052557,36.44
1602931542.1768,74.0,795.0,82.0,444.2111366475817,36.44
1602931542.1788,74.0,795.0,87.0,444.19171043311565,36.44
1602931542.1808,74.0,795.0,72.0,444.1727065909838,36.44
1602931542.1828,74.0,795.0,63.0,444.1541542503129,36.44
1602931542.1848,74.0,795.0,75.0,444.13608254022927,36.44
1602931542.1868,74.0,795.0,82.0,444.1185205898595,36.44
1602931542.1951,74.0,795.0,82.0,444.10149752833,36.44
1602931542.1968,74.0,795.0,87.0,444.0850424847674,36.44
1602931542.1988,74.0,795.0,87.0,444.0691845882982,36.44
1602931542.2009,74.0,795.0,75.0,444.05395296804875,36.44
1602931542.2028,74.0,795.0,72.0,444.0393767531457,36.44
1602931542.2048,74.0,795.0,84.0,444.02548507271547,36.44
1602931542.2069,74.0,795.0,97.0,444.01230705588466,36.44
1602931542.2089,74.0,795.0,113.0,443.9998718317797,36.44
1602931542.2108,74.0,795.0,121.0,443.98820852952724,36.44
1602931542.2127,74.0,795.0,109.0,443.97734627825355,36.44
1602931542.2148,74.0,795.0,106.0,443.9673142070852,36.44
1602931542.2169,74.0,795.0,116.0,443.95814144514884,36.44
1602931542.2189,74.0,795.0,104.0,443.94985712157086,36.44
1602931542.2208,74.0,795.0,87.0,443.94249036547785,36.44
1602931542.2228,74.0,795.0,82.0,443.93607030599617,36.44
1602931542.2247,74.0,795.0,84.0,443.9306260722524,36.44
1602931542.2268,74.0,795.0,94.0,443.92618679337306,36.44
1602931542.2288,74.0,795.0,94.0,443.92278159848456,36.44
1602931542.2308,74.0,795.0,84.0,443.92043961671357,36.44
1602931542.2327,74.0,795.0,87.0,443.91918997718653,36.44
1602931542.2348,74.0,795.0,94.0,443.9190618090299,36.44
1602931542.2368,74.0,795.0,92.0,443.9200842413702,36.44
1602931542.2388,74.0,795.0,133.0,443.92228640333406,36.44
1602931542.2408,74.0,795.0,307.0,443.9256974240477,36.44
1602931542.2428,74.0,795.0,521.0,443.930346432638,36.44
1602931542.2448,74.0,795.0,383.0,443.9362625582311,36.44
1602931542.2468,74.0,795.0,-157.0,443.9434749299537,36.44
1602931542.2488,74.0,795.0,-385.0,443.9520126769322,36.44
1602931542.2508,74.0,795.0,-70.0,443.9619049282933,36.44
1602931542.2528,74.0,795.0,126.0,443.97318081316337,36.44
1602931542.2548,74.0,795.0,67.0,443.9858694606688,36.44
1602931542.2568,74.0,795.0,94.0,443.99999999993634,36.44
1602931542.2588,74.0,795.0,138.0,443.99999999993634,36.44
1602931542.2608,74.0,795.0,106.0,443.99999999993634,36.44
1602931542.2628,74.0,795.0,99.0,443.99999999993634,36.44
1602931542.2648,74.0,795.0,116.0,443.99999999993634,36.44
1602931542.2668,74.0,795.0,116.0,443.99999999993634,36.44
1602931542.2688,74.0,795.0,121.0,443.99999999993634,36.44
1602931542.2708,74.0,795.0,133.0,443.99999999993634,36.44
1602931542.2728,74.0,795.0,138.0,443.99999999993634,36.44
1602931542.2748,74.0,795.0,123.0,443.99999999993634,36.44
1602931542.2768,74.0,795.0,106.0,443.99999999993634,36.44
1602931542.2789,74.0,795.0,106.0,443.99999999993634,36.44
1602931542.2808,74.0,795.0,121.0,443.99999999993634,36.44
1602931542.2828,74.0,795.0,135.0,443.99999999993634,36.44
1602931542.2848,74.0,795.0,138.0,443.99999999993634,36.44
1602931542.2868,74.0,795.0,128.0,443.99999999993634,36.44
1602931542.2888,74.0,795.0,138.0,443.99999999993634,36.44
1602931542.2908,74.0,795.0,157.0,443.99999999993634,36.44
1602931542.2928,74.0,795.0,162.0,443.99999999993634,36.44
1602931542.2948,74.0,795.0,167.0,443.99999999993634,36.44
1602931542.2968,74.0,795.0,177.0,443.99999999993634,36.44
1602931542.2988,74.0,795.0,179.0,443.99999999993634,36.44
1602931542.3008,74.0,795.0,184.0,443.99999999993634,36.44
1602931542.6935,74.0,785.0,189.0,443.99999999993634,36.44
1602931542.6943,74.0,785.0,191.0,443.99999999993634,36.44
1602931542.6968,74.0,785.0,186.0,443.99999999993634,36.44
1602931542.6997,74.0,785.0,174.0,443.99999999993634,36.44
1602931542.7014,74.0,785.0,164.0,443.99999999993634,36.44
1602931542.7034,74.0,785.0,167.0,443.99999999993634,36.44
1602931542.7055,74.0,785.0,152.0,443.99999999993634,36.44
1602931542.7074,74.0,785.0,121.0,443.99999999993634,36.44
1602931542.7095,74.0,785.0,111.0,443.99999999993634,36.44
1602931542.7114,74.0,785.0,111.0,443.99999999993634,36.44
1602931542.7134,74.0,785.0,92.0,443.99999999993634,36.44
1602931542.7154,74.0,785.0,72.0,443.99999999993634,36.44
1602931542.7174,74.0,785.0,65.0,443.99999999993634,36.44
1602931542.7194,74.0,785.0,67.0,443.99999999993634,36.44
1602931542.7214,74.0,785.0,60.0,443.99999999993634,36.44
1602931542.7234,74.0,785.0,53.0,443.99999999993634,36.44
1602931542.7254,74.0,785.0,63.0,443.99999999993634,36.44
1602931542.7274,74.0,785.0,70.0,443.99999999993634,36.44
1602931542.7294,74.0,785.0,50.0,443.99999999993634,36.44
1602931542.7314,74.0,785.0,46.0,443.99999999993634,36.44
1602931542.7333,74.0,785.0,70.0,443.99999999993634,36.44
1602931542.7353,74.0,785.0,77.0,443.99999999993634,36.44
1602931542.7375,74.0,785.0,60.0,443.99999999993634,36.44
1602931542.7393,74.0,785.0,72.0,443.99999999993634,36.44
1602931542.7414,74.0,785.0,106.0,443.99999999993634,36.44
1602931542.7434,74.0,785.0,109.0,443.99999999993634,36.44
1602931542.7454,74.0,785.0,87.0,443.99999999993634,36.44
1602931542.7474,74.0,785.0,97.0,443.99999999993634,36.44
1602931542.7494,74.0,785.0,111.0,443.99999999993634,36.44
1602931542.7513,74.0,785.0,97.0,443.99999999993634,36.44
1602931542.7533,74.0,785.0,94.0,443.99999999993634,36.44
1602931542.7553,74.0,785.0,104.0,443.99999999993634,36.44
1602931542.7574,74.0,785.0,92.0,443.99999999993634,36.44
1602931542.7594,74.0,785.0,77.0,443.99999999993634,36.44
1602931542.7614,74.0,785.0,87.0,443.99999999993634,36.44
1602931542.7634,74.0,785.0,97.0,443.99999999993634,36.44
1602931542.7654,74.0,785.0,92.0,443.99999999993634,36.44
1602931542.7673,74.0,785.0,94.0,443.99999999993634,36.44
1602931542.7694,74.0,785.0,99.0,443.99999999993634,36.44
1602931542.7713,74.0,785.0,89.0,443.99999999993634,36.44
1602931542.7734,74.0,785.0,82.0,443.99999999993634,36.44
1602931542.7753,74.0,785.0,89.0,443.99999999993634,36.44
1602931542.7773,74.0,785.0,99.0,443.99999999993634,36.44
1602931542.7794,74.0,785.0,94.0,443.99999999993634,36.44
1602931542.7813,74.0,785.0,89.0,443.99999999993634,36.44
1602931542.7834,74.0,785.0,94.0,443.99999999993634,36.44
1602931542.7853,74.0,785.0,89.0,443.99999999993634,36.44
1602931542.7874,74.0,785.0,72.0,443.99999999993634,36.44
1602931542.7895,74.0,785.0,67.0,443.99999999993634,36.44
1602931542.7914,74.0,785.0,82.0,443.99999999993634,36.44
1602931542.7933,74.0,785.0,84.0,443.99999999993634,36.44
1602931542.7953,74.0,785.0,80.0,443.99999999993634,36.44
1602931542.7973,74.0,785.0,89.0,443.99999999993634,36.44
1602931542.7994,74.0,785.0,94.0,443.99999999993634,36.44
1602931542.8015,74.0,785.0,80.0,443.99999999993634,36.44
1602931542.8034,74.0,785.0,80.0,443.99999999993634,36.44
1602931542.8053,74.0,785.0,84.0,443.99999999993634,36.44
1602931542.8073,74.0,785.0,77.0,443.99999999993634,36.44
1602931542.8094,74.0,785.0,60.0,443.99999999993634,36.44
1602931542.8113,74.0,785.0,43.0,443.99999999993634,36.44
1602931542.8134,74.0,785.0,31.0,443.99999999993634,36.44
1602931542.8153,74.0,785.0,50.0,443.99999999993634,36.44
1602931542.8173,74.0,785.0,67.0,443.99999999993634,36.44
1602931542.8193,74.0,785.0,63.0,443.99999999993634,36.44
1602931542.8213,74.0,785.0,72.0,443.99999999993634,36.44
1602931542.8235,74.0,785.0,87.0,443.99999999993634,36.44
1602931542.8254,74.0,785.0,87.0,443.99999999993634,36.44
1602931542.8273,74.0,785.0,138.0,443.99999999993634,36.44
1602931542.8294,74.0,785.0,329.0,443.99999999993634,36.44
1602931542.8313,74.0,785.0,565.0,443.99999999993634,36.44
1602931542.8333,74.0,785.0,446.0,443.99999999993634,36.44
1602931542.8353,74.0,785.0,-92.0,443.99999999993634,36.44
1602931542.8374,74.0,785.0,-337.0,443.99999999993634,36.44
1602931543.2935,75.0,795.0,-26.0,443.99999999993634,36.44
1602931543.2943,75.0,795.0,177.0,443.99999999993634,36.44
1602931543.2968,75.0,795.0,126.0,443.99999999993634,36.44
1602931543.2994,75.0,795.0,150.0,443.99999999993634,36.44
1602931543.3014,75.0,795.0,189.0,443.99999999993634,36.44
1602931543.3034,75.0,795.0,164.0,443.99999999993634,36.44
1602931543.3054,75.0,795.0,155.0,443.99999999993634,36.44
1602931543.3074,75.0,795.0,155.0,443.99999999993634,36.44
1602931543.3094,75.0,795.0,138.0,443.99999999993634,36.44
1602931543.3113,75.0,795.0,143.0,443.99999999993634,36.44
1602931543.3133,75.0,795.0,160.0,443.99999999993634,36.44
1602931543.3153,75.0,795.0,155.0,443.99999999993634,36.44
1602931543.3173,75.0,795.0,162.0,443.99999999993634,36.44
1602931543.3194,75.0,795.0,174.0,443.99999999993634,36.44
1602931543.3213,75.0,795.0,160.0,443.99999999993634,36.44
1602931543.3234,75.0,795.0,155.0,443.99999999993634,36.44
1602931543.3253,75.0,795.0,172.0,443.99999999993634,36.44
1602931543.3273,75.0,795.0,172.0,443.99999999993634,36.44
1602931543.3294,75.0,795.0,169.0,443.99999999993634,36.44
1602931543.3313,75.0,795.0,177.0,443.99999999993634,36.44
1602931543.3333,75.0,795.0,184.0,443.99999999993634,36.44
1602931543.3353,75.0,795.0,194.0,443.99999999993634,36.44
1602931543.3373,75.0,795.0,201.0,443.99999999993634,36.44
1602931543.3393,75.0,795.0,196.0,443.99999999993634,36.44
1602931543.3413,75.0,795.0,203.0,443.99999999993634,36.44
1602931543.3434,75.0,795.0,218.0,443.99999999993634,36.44
1602931543.3453,75.0,795.0,208.0,443.99999999993634,36.44
1602931543.3473,75.0,795.0,194.0,443.99999999993634,36.44
1602931543.3493,75.0,795.0,198.0,443.99999999993634,36.44
1602931543.3513,75.0,795.0,194.0,443.99999999993634,36.44
1602931543.3533,75.0,795.0,184.0,443.99999999993634,36.44
1602931543.3553,75.0,795.0,186.0,443.99999999993634,36.44
1602931543.3574,75.0,795.0,181.0,443.99999999993634,36.44
1602931543.3593,75.0,795.0,164.0,443.99999999993634,36.44
1602931543.3613,75.0,795.0,152.0,443.99999999993634,36.44
1602931543.3633,75.0,795.0,145.0,443.99999999993634,36.44
1602931543.3653,75.0,795.0,130.0,443.99999999993634,36.44
1602931543.3673,75.0,795.0,118.0,443.99999999993634,36.44
1602931543.3693,75.0,795.0,116.0,443.99999999993634,36.44
1602931543.3713,75.0,795.0,111.0,443.99999999993634,36.44
1602931543.3733,75.0,795.0,94.0,443.99999999993634,36.44
1602931543.3754,75.0,795.0,80.0,443.99999999993634,36.44
1602931543.3773,75.0,795.0,82.0,443.99999999993634,36.44
1602931543.3793,75.0,795.0,87.0,443.99999999993634,36.44
1602931543.3813,75.0,795.0,80.0,443.99999999993634,36.44
1602931543.3833,75.0,795.0,75.0,443.99999999993634,36.44
1602931543.3853,75.0,795.0,87.0,443.99999999993634,36.44
1602931543.3873,75.0,795.0,92.0,443.99999999993634,36.44
1602931543.3893,75.0,795.0,89.0,443.99999999993634,36.44
1602931543.3913,75.0,795.0,97.0,443.99999999993634,36.44
1602931543.3933,75.0,795.0,109.0,443.99999999993634,36.44
1602931543.3953,75.0,795.0,106.0,443.99999999993634,36.44
1602931543.3973,75.0,795.0,104.0,443.99999999993634,36.44
1602931543.3993,75.0,795.0,111.0,443.99999999993634,36.44
1602931543.4013,75.0,795.0,113.0,443.99999999993634,36.44
1602931543.4033,75.0,795.0,101.0,443.99999999993634,36.44
1602931543.4053,75.0,795.0,94.0,443.99999999993634,36.44
1602931543.4073,75.0,795.0,104.0,443.99999999993634,36.44
1602931543.4093,75.0,795.0,111.0,443.99999999993634,36.44
1602931543.4113,75.0,795.0,113.0,443.99999999993634,36.44
1602931543.4133,75.0,795.0,116.0,443.99999999993634,36.44
1602931543.4153,75.0,795.0,113.0,443.99999999993634,36.44
1602931543.4173,75.0,795.0,92.0,443.99999999993634,36.44
1602931543.4193,75.0,795.0,82.0,443.99999999993634,36.44
1602931543.4213,75.0,795.0,94.0,443.99999999993634,36.44
1602931543.4233,75.0,795.0,99.0,443.99999999993634,36.44
1602931543.4253,75.0,795.0,92.0,443.99999999993634,36.44
1602931543.4273,75.0,795.0,87.0,443.99999999993634,36.44
1602931543.4293,75.0,795.0,92.0,443.99999999993634,36.44
1602931543.4313,75.0,795.0,94.0,443.99999999993634,36.44
1602931543.4333,75.0,795.0,92.0,443.99999999993634,36.44
1602931543.4353,75.0,795.0,97.0,443.99999999993634,36.44
1602931543.4373,75.0,795.0,106.0,443.99999999993634,36.44
1602931543.8329,75.0,795.0,111.0,443.99999999993634,36.5
1602931543.8335,75.0,795.0,106.0,443.99999999993634,36.5
1602931543.8359,75.0,795.0,87.0,443.99999999993634,36.5
1602931543.8386,75.0,795.0,75.0,443.99999999993634,36.5
1602931543.8406,75.0,795.0,92.0,443.99999999993634,36.5
1602931543.8426,75.0,795.0,121.0,443.99999999993634,36.5
1602931543.8446,75.0,795.0,123.0,443.99999999993634,36.5
1602931543.8466,75.0,795.0,104.0,443.99999999993634,36.5
1602931543.8486,75.0,795.0,97.0,443.99999999993634,36.5
1602931543.8506,75.0,795.0,111.0,443.99999999993634,36.5
1602931543.8528,75.0,795.0,128.0,443.99999999993634,36.5
1602931543.8546,75.0,795.0,109.0,443.99999999993634,36.5
1602931543.8566,75.0,795.0,77.0,443.99999999993634,36.5
1602931543.8586,75.0,795.0,72.0,443.99999999993634,36.5
1602931543.8605,75.0,795.0,77.0,443.99999999993634,36.5
1602931543.8625,75.0,795.0,65.0,443.99999999993634,36.5
1602931543.8645,75.0,795.0,65.0,443.99999999993634,36.5
1602931543.8665,75.0,795.0,77.0,443.99999999993634,36.5
1602931543.8685,75.0,795.0,82.0,443.99999999993634,36.5
1602931543.8705,75.0,795.0,72.0,443.99999999993634,36.5
1602931543.8726,75.0,795.0,94.0,443.99999999993634,36.5
1602931543.8745,75.0,795.0,235.0,443.99999999993634,36.5
1602931543.8765,75.0,795.0,460.0,443.99999999993634,36.5
1602931543.8785,75.0,795.0,419.0,443.99999999993634,36.5
1602931543.8805,75.0,795.0,-65.0,443.99999999993634,36.5
1602931543.8825,75.0,795.0,-392.0,443.99999999993634,36.5
1602931543.8845,75.0,795.0,-143.0,443.99999999993634,36.5
1602931543.8865,75.0,795.0,113.0,443.99999999993634,36.5
1602931543.8885,75.0,795.0,75.0,443.99999999993634,36.5
1602931543.8905,75.0,795.0,60.0,443.99999999993634,36.5
1602931543.8925,75.0,795.0,109.0,443.99999999993634,36.5
1602931543.8945,75.0,795.0,101.0,443.99999999993634,36.5
1602931543.8966,75.0,795.0,92.0,443.99999999993634,36.5
1602931543.8985,75.0,795.0,106.0,443.99999999993634,36.5
1602931543.9005,75.0,795.0,94.0,443.99999999993634,36.5
1602931543.9025,75.0,795.0,72.0,443.99999999993634,36.5
1602931543.9045,75.0,795.0,82.0,443.99999999993634,36.5
1602931543.9065,75.0,795.0,94.0,443.99999999993634,36.5
1602931543.9085,75.0,795.0,94.0,443.99999999993634,36.5
1602931543.9106,75.0,795.0,94.0,443.99999999993634,36.5
1602931543.9125,75.0,795.0,97.0,443.99999999993634,36.5
1602931543.9145,75.0,795.0,104.0,443.99999999993634,36.5
1602931543.9165,75.0,795.0,121.0,443.99999999993634,36.5
1602931543.9185,75.0,795.0,121.0,443.99999999993634,36.5
1602931543.9205,75.0,795.0,113.0,443.99999999993634,36.5
1602931543.9225,75.0,795.0,118.0,443.99999999993634,36.5
1602931543.9245,75.0,795.0,128.0,443.99999999993634,36.5
1602931543.9265,75.0,795.0,140.0,443.99999999993634,36.5
1602931543.9285,75.0,795.0,150.0,443.99999999993634,36.5
1602931543.9305,75.0,795.0,152.0,443.99999999993634,36.5
1602931543.9326,75.0,795.0,162.0,443.99999999993634,36.5
1602931543.9345,75.0,795.0,169.0,443.99999999993634,36.5
1602931543.9365,75.0,795.0,162.0,443.99999999993634,36.5
1602931543.9385,75.0,795.0,155.0,443.99999999993634,36.5
1602931543.9405,75.0,795.0,150.0,443.99999999993634,36.5
1602931543.9425,75.0,795.0,135.0,443.99999999993634,36.5
1602931543.9445,75.0,795.0,133.0,443.99999999993634,36.5
1602931543.9466,75.0,795.0,138.0,443.99999999993634,36.5
1602931543.9485,75.0,795.0,126.0,443.99999999993634,36.5
1602931543.9505,75.0,795.0,104.0,443.99999999993634,36.5
1602931543.9525,75.0,795.0,104.0,443.99999999993634,36.5
1602931543.9547,75.0,795.0,109.0,443.99999999993634,36.5
1602931543.9566,75.0,795.0,87.0,443.99999999993634,36.5
1602931543.9585,75.0,795.0,63.0,443.99999999993634,36.5
1602931543.9605,75.0,795.0,63.0,443.99999999993634,36.5
1602931543.9625,75.0,795.0,58.0,443.99999999993634,36.5
1602931543.9645,75.0,795.0,46.0,443.99999999993634,36.5
1602931543.9665,75.0,795.0,43.0,443.99999999993634,36.5
1602931543.9685,75.0,795.0,46.0,443.99999999993634,36.5
1602931543.9705,75.0,795.0,43.0,443.99999999993634,36.5
1602931543.9725,75.0,795.0,48.0,443.99999999993634,36.5
1602931543.9745,75.0,795.0,58.0,443.99999999993634,36.5
1602931543.9765,75.0,795.0,60.0,443.99999999993634,36.5
1602931544.3733,75.0,792.0,55.0,443.99999999993634,36.5
1602931544.3739,75.0,792.0,58.0,443.99999999993634,36.5
1602931544.3763,75.0,792.0,67.0,443.99999999993634,36.5
1602931544.3789,75.0,792.0,75.0,443.99999999993634,36.5
1602931544.3809,75.0,792.0,70.0,443.99999999993634,36.5
1602931544.3829,75.0,792.0,65.0,443.99999999993634,36.5
1602931544.385,75.0,792.0,72.0,443.99999999993634,36.5
1602931544.3869,75.0,792.0,80.0,443.99999999993634,36.5
1602931544.389,75.0,792.0,72.0,443.99999999993634,36.5
1602931544.3909,75.0,792.0,55.0,443.99999999993634,36.5
1602931544.393,75.0,792.0,48.0,443.99999999993634,36.5
1602931544.3949,75.0,792.0,58.0,443.99999999993634,36.5
1602931544.3969,75.0,792.0,58.0,443.99999999993634,36.5
1602931544.399,75.0,792.0,38.0,443.99999999993634,36.5
1602931544.4009,75.0,792.0,29.0,443.99999999993634,36.5
1602931544.4029,75.0,792.0,31.0,443.99999999993634,36.5
1602931544.4049,75.0,792.0,33.0,443.99999999993634,36.5
1602931544.4069,75.0,792.0,41.0,443.99999999993634,36.5
1602931544.4089,75.0,792.0,55.0,443.99999999993634,36.5
1602931544.4109,75.0,792.0,50.0,443.99999999993634,36.5
1602931544.4129,75.0,792.0,36.0,443.99999999993634,36.5
1602931544.4149,75.0,792.0,36.0,443.99999999993634,36.5
1602931544.4169,75.0,792.0,43.0,443.99999999993634,36.5
1602931544.4189,75.0,792.0,43.0,443.99999999993634,36.5
1602931544.4209,75.0,792.0,46.0,443.99999999993634,36.5
1602931544.4229,75.0,792.0,46.0,443.99999999993634,36.5
1602931544.4249,75.0,792.0,43.0,443.99999999993634,36.5
1602931544.4269,75.0,792.0,36.0,443.99999999993634,36.5
1602931544.429,75.0,792.0,33.0,443.99999999993634,36.5
1602931544.4309,75.0,792.0,38.0,443.99999999993634,36.5
1602931544.4329,75.0,792.0,50.0,443.99999999993634,36.5
1602931544.4349,75.0,792.0,63.0,443.99999999993634,36.5
1602931544.4369,75.0,792.0,65.0,443.99999999993634,36.5
1602931544.4389,75.0,792.0,63.0,443.99999999993634,36.5
1602931544.4409,75.0,792.0,63.0,443.99999999993634,36.5
1602931544.4429,75.0,792.0,60.0,443.99999999993634,36.5
1602931544.445,75.0,792.0,43.0,443.99999999993634,36.5
1602931544.4469,75.0,792.0,31.0,443.99999999993634,36.5
1602931544.449,75.0,792.0,38.0,443.99999999993634,36.5
1602931544.451,75.0,792.0,48.0,443.99999999993634,36.5
1602931544.4529,75.0,792.0,46.0,443.99999999993634,36.5
1602931544.4549,75.0,792.0,36.0,443.99999999993634,36.5
1602931544.4569,75.0,792.0,29.0,443.99999999993634,36.5
1602931544.4589,75.0,792.0,33.0,443.99999999993634,36.5
1602931544.4609,75.0,792.0,33.0,443.99999999993634,36.5
1602931544.4629,75.0,792.0,36.0,443.99999999993634,36.5
1602931544.4649,75.0,792.0,145.0,443.99999999993634,36.5
1602931544.4669,75.0,792.0,395.0,443.99999999993634,36.5
1602931544.4689,75.0,792.0,472.0,443.99999999993634,36.5
1602931544.4709,75.0,792.0,41.0,443.99999999993634,36.5
1602931544.4729,75.0,792.0,-458.0,443.99999999993634,36.5
1602931544.4749,75.0,792.0,-337.0,443.99999999993634,36.5
1602931544.4769,75.0,792.0,21.0,443.99999999993634,36.5
1602931544.4789,75.0,792.0,43.0,443.99999999993634,36.5
1602931544.4809,75.0,792.0,-2.0,443.99999999993634,36.5
1602931544.4829,75.0,792.0,67.0,443.99999999993634,36.5
1602931544.4849,75.0,792.0,67.0,443.99999999993634,36.5
1602931544.4869,75.0,792.0,33.0,443.99999999993634,36.5
1602931544.4889,75.0,792.0,48.0,443.99999999993634,36.5
1602931544.4909,75.0,792.0,55.0,443.99999999993634,36.5
1602931544.4929,75.0,792.0,46.0,443.99999999993634,36.5
1602931544.4949,75.0,792.0,58.0,443.99999999993634,36.5
1602931544.4969,75.0,792.0,63.0,443.99999999993634,36.5
1602931544.4989,75.0,792.0,50.0,443.99999999993634,36.5
1602931544.5009,75.0,792.0,48.0,443.99999999993634,36.5
1602931544.5029,75.0,792.0,60.0,443.99999999993634,36.5
1602931544.5049,75.0,792.0,60.0,443.99999999993634,36.5
1602931544.5069,75.0,792.0,53.0,443.99999999993634,36.5
1602931544.5089,75.0,792.0,63.0,443.99999999993634,36.5
1602931544.5109,75.0,792.0,75.0,443.99999999993634,36.5
1602931544.5129,75.0,792.0,75.0,443.99999999993634,36.5
1602931544.5149,75.0,792.0,75.0,443.99999999993634,36.5
1602931544.5169,75.0,792.0,87.0,443.99999999993634,36.5
1602931544.9436,75.0,792.0,104.0,443.99999999993634,36.5
1602931544.9449,75.0,792.0,113.0,443.99999999993634,36.5
1602931544.9474,75.0,792.0,113.0,443.99999999993634,36.5
1602931544.9499,75.0,792.0,104.0,443.99999999993634,36.5
1602931544.9519,75.0,792.0,99.0,443.99999999993634,36.5
1602931544.9539,75.0,792.0,111.0,443.99999999993634,36.5
1602931544.956,75.0,792.0,106.0,443.99999999993634,36.5
1602931544.9579,75.0,792.0,82.0,443.99999999993634,36.5
1602931544.9599,75.0,792.0,77.0,443.99999999993634,36.5
1602931544.962,75.0,792.0,84.0,443.99999999993634,36.5
1602931544.9639,75.0,792.0,80.0,443.99999999993634,36.5
1602931544.9658,75.0,792.0,65.0,443.99999999993634,36.5
1602931544.9678,75.0,792.0,58.0,443.99999999993634,36.5
1602931544.9699,75.0,792.0,53.0,443.99999999993634,36.5
1602931544.9718,75.0,792.0,41.0,443.99999999993634,36.5
1602931544.9738,75.0,792.0,26.0,443.99999999993634,36.5
1602931544.9758,75.0,792.0,19.0,443.99999999993634,36.5
1602931544.9782,75.0,792.0,4.0,443.99999999993634,36.5
1602931544.98,75.0,792.0,0.0,443.99999999993634,36.5
1602931544.9818,75.0,792.0,2.0,443.99999999993634,36.5
1602931544.9838,75.0,792.0,-7.0,443.99999999993634,36.5
1602931544.9858,75.0,792.0,-12.0,443.99999999993634,36.5
1602931544.9878,75.0,792.0,-4.0,443.99999999993634,36.5
1602931544.9898,75.0,792.0,2.0,443.99999999993634,36.5
1602931544.9919,75.0,792.0,14.0,443.99999999993634,36.5
1602931544.9938,75.0,792.0,16.0,443.99999999993634,36.5
1602931544.9959,75.0,792.0,12.0,443.99999999993634,36.5
1602931544.9978,75.0,792.0,19.0,443.99999999993634,36.5
1602931544.9998,75.0,792.0,31.0,443.99999999993634,36.5
1602931545.0018,75.0,792.0,38.0,443.99999999993634,36.5
1602931545.0038,75.0,792.0,43.0,443.99999999993634,36.5
1602931545.0058,75.0,792.0,46.0,443.99999999993634,36.5
1602931545.0078,75.0,792.0,46.0,443.99999999993634,36.5
1602931545.0098,75.0,792.0,46.0,443.99999999993634,36.5
1602931545.0121,75.0,792.0,50.0,443.99999999993634,36.5
1602931545.0138,75.0,792.0,48.0,443.99999999993634,36.5
1602931545.0158,75.0,792.0,46.0,443.99999999993634,36.5
1602931545.0178,75.0,792.0,43.0,443.99999999993634,36.5
1602931545.0198,75.0,792.0,41.0,443.99999999993634,36.5
1602931545.0218,75.0,792.0,38.0,443.99999999993634,36.5
1602931545.0238,75.0,792.0,43.0,443.99999999993634,36.5
1602931545.0258,75.0,792.0,46.0,443.99999999993634,36.5
1602931545.028,75.0,792.0,41.0,443.99999999993634,36.5
1602931545.0299,75.0,792.0,43.0,443.99999999993634,36.5
1602931545.0318,75.0,792.0,48.0,443.99999999993634,36.5
1602931545.0338,75.0,792.0,53.0,443.99999999993634,36.5
1602931545.0358,75.0,792.0,55.0,443.99999999993634,36.5
1602931545.0378,75.0,792.0,63.0,443.99999999993634,36.5
1602931545.0398,75.0,792.0,60.0,443.99999999993634,36.5
1602931545.0418,75.0,792.0,50.0,443.99999999993634,36.5
1602931545.0438,75.0,792.0,43.0,443.99999999993634,36.5
1602931545.046,75.0,792.0,43.0,443.99999999993634,36.5
1602931545.0478,75.0,792.0,50.0,443.99999999993634,36.5
1602931545.0498,75.0,792.0,63.0,443.99999999993634,36.5
1602931545.0519,75.0,792.0,82.0,443.99999999993634,36.5
1602931545.0538,75.0,792.0,94.0,443.99999999993634,36.5
1602931545.0558,75.0,792.0,92.0,443.99999999993634,36.5
1602931545.0578,75.0,792.0,84.0,443.99999999993634,36.5
1602931545.0598,75.0,792.0,87.0,443.99999999993634,36.5
1602931545.0619,75.0,792.0,89.0,443.99999999993634,36.5
1602931545.0638,75.0,792.0,72.0,443.99999999993634,36.5
1602931545.0658,75.0,792.0,55.0,443.99999999993634,36.5
1602931545.0678,75.0,792.0,58.0,443.99999999993634,36.5
1602931545.0698,75.0,792.0,63.0,443.99999999993634,36.5
1602931545.0718,75.0,792.0,60.0,443.99999999993634,36.5
1602931545.0739,75.0,792.0,67.0,443.99999999993634,36.5
1602931545.0759,75.0,792.0,77.0,443.99999999993634,36.5
1602931545.078,75.0,792.0,72.0,443.99999999993634,36.5
1602931545.0802,75.0,792.0,65.0,443.99999999993634,36.5
1602931545.0818,75.0,792.0,155.0,443.99999999993634,36.5
1602931545.0838,75.0,792.0,388.0,443.99999999993634,36.5
1602931545.0858,75.0,792.0,531.0,443.99999999993634,36.5
1602931545.0878,75.0,792.0,191.0,443.99999999993634,36.5
1602931545.4834,75.0,780.0,-375.0,443.99999999993634,36.5
1602931545.4838,75.0,780.0,-380.0,443.99999999993634,36.5
1602931545.4857,75.0,780.0,21.0,443.99999999993634,36.5
1602931545.4877,75.0,780.0,109.0,443.99999999993634,36.5
1602931545.4896,75.0,780.0,31.0,443.99999999993634,36.5
1602931545.4916,75.0,780.0,92.0,443.99999999993634,36.5
1602931545.4936,75.0,780.0,118.0,443.99999999993634,36.5
1602931545.4956,75.0,780.0,75.0,443.99999999993634,36.5
1602931545.4976,75.0,780.0,87.0,443.99999999993634,36.5
1602931545.4996,75.0,780.0,104.0,443.99999999993634,36.5
1602931545.5016,75.0,780.0,89.0,443.99999999993634,36.5
1602931545.5036,75.0,780.0,87.0,443.99999999993634,36.5
1602931545.5056,75.0,780.0,101.0,443.99999999993634,36.5
1602931545.5076,75.0,780.0,104.0,443.99999999993634,36.5
1602931545.5097,75.0,780.0,94.0,443.99999999993634,36.5
1602931545.5116,75.0,780.0,94.0,443.99999999993634,36.5
1602931545.5136,75.0,780.0,99.0,443.99999999993634,36.5
1602931545.5156,75.0,780.0,99.0,443.99999999993634,36.5
1602931545.5176,75.0,780.0,106.0,443.99999999993634,36.5
1602931545.5196,75.0,780.0,113.0,443.99999999993634,36.5
1602931545.5216,75.0,780.0,104.0,443.99999999993634,36.5
1602931545.5236,75.0,780.0,104.0,443.99999999993634,36.5
1602931545.5256,75.0,780.0,128.0,443.99999999993634,36.5
1602931545.5276,75.0,780.0,145.0,443.99999999993634,36.5
1602931545.5296,75.0,780.0,145.0,443.99999999993634,36.5
1602931545.5316,75.0,780.0,143.0,443.99999999993634,36.5
1602931545.5336,75.0,780.0,140.0,443.99999999993634,36.5
1602931545.5356,75.0,780.0,152.0,443.99999999993634,36.5
1602931545.5376,75.0,780.0,172.0,443.99999999993634,36.5
1602931545.5396,75.0,780.0,164.0,443.99999999993634,36.5
1602931545.5416,75.0,780.0,145.0,443.99999999993634,36.5
1602931545.5435,75.0,780.0,145.0,443.99999999993634,36.5
1602931545.5455,75.0,780.0,143.0,443.99999999993634,36.5
1602931545.5476,75.0,780.0,126.0,443.99999999993634,36.5
1602931545.5496,75.0,780.0,116.0,443.99999999993634,36.5
1602931545.5516,75.0,780.0,109.0,443.99999999993634,36.5
1602931545.5535,75.0,780.0,104.0,443.99999999993634,36.5
1602931545.5556,75.0,780.0,109.0,443.99999999993634,36.5
1602931545.5576,75.0,780.0,97.0,443.99999999993634,36.5
1602931545.5596,75.0,780.0,77.0,443.99999999993634,36.5
1602931545.5615,75.0,780.0,75.0,443.99999999993634,36.5
1602931545.5635,75.0,780.0,72.0,443.99999999993634,36.5
1602931545.5656,75.0,780.0,53.0,443.99999999993634,36.5
1602931545.5675,75.0,780.0,46.0,443.99999999993634,36.5
1602931545.5696,75.0,780.0,60.0,443.99999999993634,36.5
1602931545.5716,75.0,780.0,65.0,443.99999999993634,36.5
1602931545.5738,75.0,780.0,65.0,443.99999999993634,36.5
