Time,ECG
1606935799.5050,9
1606935799.5074,125
1606935799.5100,816
1606935799.5127,1994
1606935799.5149,2779
1606935799.5170,3179
1606935799.5189,3740
1606935799.5204,4292
1606935799.5224,4682
1606935799.5244,5087
1606935799.5264,5497
1606935799.5286,5831
1606935799.5311,6157
1606935799.5333,6489
1606935799.5354,6778
1606935799.5374,7043
1606935799.5391,7327
1606935799.5404,7599
1606935799.5424,7821
1606935799.5444,8011
1606935799.5464,8204
1606935799.5484,8397
1606935799.5504,8565
1606935799.5524,8722
1606935799.5544,8886
1606935799.5564,9047
1606935799.5584,9194
1606935799.5603,9334
1606935799.5623,9464
1606935799.5643,9575
1606935799.5664,9683
1606935799.5684,9847
1606935799.5703,10112
1606935799.5724,10341
1606935799.5743,10290
1606935799.5763,10175
1606935799.5784,10278
1606935799.5804,10343
1606935799.5824,10302
1606935799.5843,10355
1606935799.5863,10427
1606935799.5884,10444
1606935799.5904,10471
1606935799.5925,10512
1606935799.5943,10541
1606935799.5963,10560
1606935799.5984,10570
1606935799.6003,10577
1606935799.6024,10589
1606935799.6043,10603
1606935799.6066,10601
1606935799.6083,10577
1606935799.6103,10567
1606935799.6123,10565
1606935799.6143,10541
1606935799.6163,10519
1606935799.6183,10509
1606935799.6203,10483
1606935799.6223,10442
1606935799.6243,10418
1606935799.6263,10394
1606935799.6284,10338
1606935799.6303,10283
1606935799.6323,10242
1606935799.6343,10191
1606935799.6363,10134
1606935799.6383,10081
1606935799.6403,10032
1606935799.6423,9987
1606935799.6443,9924
1606935799.6463,9859
1606935799.6483,9816
1606935799.6503,9770
1606935800.0439,9702
1606935800.0448,9645
1606935800.0473,9594
1606935800.0499,9529
1606935800.0519,9461
1606935800.0539,9399
1606935800.0560,9341
1606935800.0580,9278
1606935800.0599,9201
1606935800.0619,9131
1606935800.0639,9083
1606935800.0659,9025
1606935800.0678,8927
1606935800.0698,8840
1606935800.0718,8782
1606935800.0738,8710
1606935800.0758,8628
1606935800.0779,8556
1606935800.0798,8493
1606935800.0818,8421
1606935800.0839,8337
1606935800.0858,8252
1606935800.0879,8185
1606935800.0898,8113
1606935800.0918,8031
1606935800.0938,7958
1606935800.0958,7891
1606935800.0979,7811
1606935800.1000,7732
1606935800.1018,7660
1606935800.1038,7592
1606935800.1058,7518
1606935800.1079,7443
1606935800.1098,7371
1606935800.1118,7303
1606935800.1138,7224
1606935800.1159,7147
1606935800.1178,7082
1606935800.1198,7016
1606935800.1218,6939
1606935800.1238,6867
1606935800.1258,6807
1606935800.1278,6764
1606935800.1298,6708
1606935800.1318,6624
1606935800.1338,6537
1606935800.1358,6462
1606935800.1379,6385
1606935800.1398,6296
1606935800.1418,6219
1606935800.1438,6159
1606935800.1458,6096
1606935800.1478,6022
1606935800.1498,5954
1606935800.1518,5896
1606935800.1538,5819
1606935800.1558,5749
1606935800.1578,5740
1606935800.1598,5834
1606935800.1618,5913
1606935800.1638,5757
1606935800.1658,5521
1606935800.1678,5465
1606935800.1698,5386
1606935800.1718,5234
1606935800.1738,5186
1606935800.1758,5154
1606935800.1778,5073
1606935800.1798,5010
1606935800.1818,4967
1606935800.1838,4906
1606935800.1858,4846
1606935800.1879,4798
1606935800.6125,4747
1606935800.6134,4690
1606935800.6159,4632
1606935800.6184,4584
1606935800.6204,4535
1606935800.6224,4482
1606935800.6247,4432
1606935800.6265,4386
1606935800.6285,4340
1606935800.6305,4282
1606935800.6324,4222
1606935800.6344,4174
1606935800.6364,4128
1606935800.6385,4075
1606935800.6404,4022
1606935800.6425,3977
1606935800.6444,3926
1606935800.6465,3868
1606935800.6485,3820
1606935800.6504,3774
1606935800.6524,3724
1606935800.6544,3673
1606935800.6564,3632
1606935800.6584,3598
1606935800.6604,3560
1606935800.6624,3519
1606935800.6644,3480
1606935800.6664,3447
1606935800.6684,3410
1606935800.6704,3372
1606935800.6724,3336
1606935800.6744,3297
1606935800.6764,3256
1606935800.6784,3223
1606935800.6804,3189
1606935800.6824,3150
1606935800.6844,3105
1606935800.6864,3064
1606935800.6884,3035
1606935800.6904,3003
1606935800.6924,2965
1606935800.6944,2929
1606935800.6964,2897
1606935800.6984,2856
1606935800.7004,2815
1606935800.7024,2784
1606935800.7044,2753
1606935800.7064,2719
1606935800.7090,2683
1606935800.7104,2649
1606935800.7124,2620
1606935800.7144,2591
1606935800.7164,2553
1606935800.7184,2522
1606935800.7204,2497
1606935800.7224,2461
1606935800.7244,2425
1606935800.7266,2404
1606935800.7285,2379
1606935800.7304,2346
1606935800.7324,2317
1606935800.7344,2293
1606935800.7364,2261
1606935800.7385,2235
1606935800.7404,2213
1606935800.7424,2189
1606935800.7444,2167
1606935800.7464,2148
1606935800.7484,2124
1606935800.7504,2100
1606935800.7524,2102
1606935800.7544,2093
1606935800.7564,2049
1606935801.1536,2006
1606935801.1544,1977
1606935801.1563,1939
1606935801.1581,1895
1606935801.1601,1866
1606935801.1621,1845
1606935801.1641,1811
1606935801.1661,1787
1606935801.1681,1784
1606935801.1701,1765
1606935801.1721,1724
1606935801.1741,1715
1606935801.1761,1797
1606935801.1782,1963
1606935801.1801,1999
1606935801.1821,1794
1606935801.1841,1678
1606935801.1861,1695
1606935801.1881,1604
1606935801.1900,1527
1606935801.1920,1548
1606935801.1940,1529
1606935801.1960,1488
1606935801.1981,1486
1606935801.2000,1479
1606935801.2020,1454
1606935801.2040,1438
1606935801.2060,1428
1606935801.2080,1409
1606935801.2100,1387
1606935801.2120,1375
1606935801.2140,1368
1606935801.2160,1353
1606935801.2180,1339
1606935801.2200,1324
1606935801.2222,1312
1606935801.2241,1300
1606935801.2261,1291
1606935801.2281,1279
1606935801.2300,1267
1606935801.2320,1252
1606935801.2341,1238
1606935801.2360,1221
1606935801.2381,1202
1606935801.2400,1185
1606935801.2420,1165
1606935801.2440,1149
1606935801.2460,1132
1606935801.2481,1115
1606935801.2500,1098
1606935801.2520,1091
1606935801.2540,1088
1606935801.2560,1081
1606935801.2581,1067
1606935801.2600,1062
1606935801.2620,1062
1606935801.2640,1055
1606935801.2660,1047
1606935801.2680,1040
1606935801.2700,1030
1606935801.2720,1018
1606935801.2740,1009
1606935801.2760,1002
1606935801.2781,994
1606935801.2800,987
1606935801.2820,977
1606935801.2840,963
1606935801.2860,953
1606935801.2881,949
1606935801.2900,937
1606935801.2920,925
1606935801.2940,917
1606935801.2960,908
1606935801.6939,896
1606935801.6947,886
1606935801.6972,876
1606935801.6998,867
1606935801.7017,859
1606935801.7037,850
1606935801.7058,840
1606935801.7078,821
1606935801.7097,806
1606935801.7117,804
1606935801.7137,799
1606935801.7157,790
1606935801.7177,778
1606935801.7199,773
1606935801.7218,766
1606935801.7237,756
1606935801.7257,746
1606935801.7278,741
1606935801.7297,732
1606935801.7317,725
1606935801.7337,725
1606935801.7357,725
1606935801.7377,713
1606935801.7397,713
1606935801.7417,734
1606935801.7437,741
1606935801.7457,715
1606935801.7477,693
1606935801.7497,681
1606935801.7517,664
1606935801.7538,640
1606935801.7557,623
1606935801.7577,623
1606935801.7597,626
1606935801.7617,623
1606935801.7639,619
1606935801.7657,616
1606935801.7677,604
1606935801.7697,609
1606935801.7717,705
1606935801.7737,898
1606935801.7757,939
1606935801.7777,710
1606935801.7797,597
1606935801.7817,664
1606935801.7837,604
1606935801.7857,527
1606935801.7877,561
1606935801.7897,568
1606935801.7917,539
1606935801.7937,546
1606935801.7957,551
1606935801.7977,541
1606935801.7997,537
1606935801.8017,537
1606935801.8037,534
1606935801.8057,534
1606935801.8077,527
1606935801.8097,517
1606935801.8117,515
1606935801.8137,520
1606935801.8157,520
1606935801.8177,520
1606935801.8197,525
1606935801.8219,520
1606935801.8238,508
1606935801.8257,508
1606935801.8277,510
1606935801.8297,505
1606935801.8317,493
1606935801.8337,486
1606935801.8357,481
1606935801.8377,472
1606935802.2639,457
1606935802.2648,445
1606935802.2673,440
1606935802.2698,436
1606935802.2718,428
1606935802.2738,421
1606935802.2758,423
1606935802.2779,428
1606935802.2798,426
1606935802.2818,421
1606935802.2838,423
1606935802.2858,423
1606935802.2879,419
1606935802.2898,416
1606935802.2918,411
1606935802.2938,404
1606935802.2958,399
1606935802.2978,399
1606935802.2998,399
1606935802.3018,402
1606935802.3038,399
1606935802.3058,397
1606935802.3078,397
1606935802.3098,395
1606935802.3118,390
1606935802.3138,385
1606935802.3158,378
1606935802.3178,370
1606935802.3198,366
1606935802.3219,361
1606935802.3238,358
1606935802.3258,356
1606935802.3279,354
1606935802.3298,349
1606935802.3318,339
1606935802.3338,330
1606935802.3359,315
1606935802.3378,308
1606935802.3398,317
1606935802.3418,330
1606935802.3438,327
1606935802.3458,317
1606935802.3480,310
1606935802.3498,303
1606935802.3518,301
1606935802.3538,303
1606935802.3558,301
1606935802.3579,296
1606935802.3598,301
1606935802.3618,322
1606935802.3638,339
1606935802.3658,325
1606935802.3678,298
1606935802.3698,289
1606935802.3718,281
1606935802.3738,262
1606935802.3758,248
1606935802.3778,240
1606935802.3798,233
1606935802.3818,236
1606935802.3840,238
1606935802.3858,231
1606935802.3878,221
1606935802.3898,233
1606935802.3918,315
1606935802.3938,505
1606935802.3958,602
1606935802.3978,407
1606935802.3998,240
1606935802.4018,291
1606935802.4038,257
1606935802.4058,171
1606935802.4078,190
1606935802.8642,204
1606935802.8651,183
1606935802.8677,190
1606935802.8702,190
1606935802.8722,175
1606935802.8742,175
1606935802.8764,168
1606935802.8782,158
1606935802.8801,163
1606935802.8821,158
1606935802.8841,151
1606935802.8862,156
1606935802.8882,158
1606935802.8901,154
1606935802.8921,154
1606935802.8941,154
1606935802.8961,154
1606935802.8981,154
1606935802.9001,156
1606935802.9021,149
1606935802.9043,137
1606935802.9061,127
1606935802.9082,130
1606935802.9101,130
1606935802.9121,122
1606935802.9141,113
1606935802.9161,103
1606935802.9181,89
1606935802.9201,81
1606935802.9221,89
1606935802.9241,96
1606935802.9261,96
1606935802.9282,89
1606935802.9301,84
1606935802.9321,91
1606935802.9341,96
1606935802.9362,86
1606935802.9381,84
1606935802.9401,86
1606935802.9421,77
1606935802.9441,67
1606935802.9461,74
1606935802.9481,79
1606935802.9502,79
1606935802.9522,79
1606935802.9541,79
1606935802.9561,79
1606935802.9582,81
1606935802.9601,81
1606935802.9621,72
1606935802.9641,74
1606935802.9661,79
1606935802.9681,69
1606935802.9701,57
1606935802.9721,60
1606935802.9741,65
1606935802.9761,60
1606935802.9781,55
1606935802.9801,52
1606935802.9821,45
1606935802.9841,43
1606935802.9861,45
1606935802.9881,40
1606935802.9901,33
1606935802.9921,33
1606935802.9941,38
1606935802.9961,40
1606935802.9981,38
1606935803.0001,38
1606935803.0021,40
1606935803.0041,38
1606935803.0063,31
1606935803.0082,28
1606935803.4031,24
1606935803.4039,21
1606935803.4057,33
1606935803.4078,48
1606935803.4097,52
1606935803.4117,50
1606935803.4137,62
1606935803.4158,84
1606935803.4177,86
1606935803.4197,74
1606935803.4217,62
1606935803.4237,43
1606935803.4257,21
1606935803.4278,14
1606935803.4297,12
1606935803.4317,9
1606935803.4337,9
1606935803.4357,12
1606935803.4377,19
1606935803.4397,26
1606935803.4417,21
1606935803.4437,28
1606935803.4457,125
1606935803.4477,315
1606935803.4497,378
1606935803.4517,211
1606935803.4537,118
1606935803.4557,120
1606935803.4577,40
1606935803.4597,-7
1606935803.4617,26
1606935803.4637,33
1606935803.4657,19
1606935803.4677,24
1606935803.4698,31
1606935803.4717,31
1606935803.4737,33
1606935803.4757,31
1606935803.4777,31
1606935803.4797,45
1606935803.4816,57
1606935803.4837,52
1606935803.4857,48
1606935803.4877,55
1606935803.4897,60
1606935803.4917,62
1606935803.4937,62
1606935803.4957,65
1606935803.4977,74
1606935803.4998,79
1606935803.5017,72
1606935803.5037,77
1606935803.5056,79
1606935803.5077,69
1606935803.5096,67
1606935803.5117,67
1606935803.5137,50
1606935803.5157,45
1606935803.5177,57
1606935803.5197,60
1606935803.5217,52
1606935803.5237,57
1606935803.5257,62
1606935803.5277,62
1606935803.5297,67
1606935803.5317,72
1606935803.5337,74
1606935803.5357,72
1606935803.5377,77
1606935803.5397,84
1606935803.5417,81
1606935803.5437,79
1606935803.5457,84
1606935803.9741,91
1606935803.9751,98
1606935803.9776,96
1606935803.9802,91
1606935803.9821,96
1606935803.9842,103
1606935803.9862,103
1606935803.9882,105
1606935803.9901,101
1606935803.9921,93
1606935803.9941,91
1606935803.9961,91
1606935803.9981,81
1606935804.0000,79
1606935804.0020,89
1606935804.0040,91
1606935804.0060,79
1606935804.0081,79
1606935804.0100,91
1606935804.0120,86
1606935804.0140,74
1606935804.0161,79
1606935804.0181,86
1606935804.0201,89
1606935804.0221,91
1606935804.0240,96
1606935804.0260,93
1606935804.0283,89
1606935804.0301,89
1606935804.0320,89
1606935804.0327,98
1606935804.0341,113
1606935804.0361,110
1606935804.0381,103
1606935804.0400,113
1606935804.0420,120
1606935804.0441,130
1606935804.0460,151
1606935804.0480,158
1606935804.0500,154
1606935804.0520,156
1606935804.0540,144
1606935804.0560,120
1606935804.0581,113
1606935804.0600,110
1606935804.0620,96
1606935804.0627,96
1606935804.0641,105
1606935804.0661,108
1606935804.0680,113
1606935804.0700,115
1606935804.0720,103
1606935804.0741,108
1606935804.0760,190
1606935804.0781,356
1606935804.0800,464
1606935804.0820,337
1606935804.0840,195
1606935804.0860,197
1606935804.0880,144
1606935804.0900,72
1606935804.0920,101
1606935804.0927,118
1606935804.0940,101
1606935804.0960,103
1606935804.0980,113
1606935804.1000,113
1606935804.1021,118
1606935804.1040,122
1606935804.1060,122
1606935804.1081,122
1606935804.1100,130
1606935804.1120,139
1606935804.5134,137
1606935804.5144,132
1606935804.5168,142
1606935804.5179,146
1606935804.5195,144
1606935804.5217,154
1606935804.5235,166
1606935804.5256,158
1606935804.5275,146
1606935804.5294,142
1606935804.5314,142
1606935804.5334,142
1606935804.5354,132
1606935804.5375,122
1606935804.5394,118
1606935804.5414,110
1606935804.5434,113
1606935804.5454,122
1606935804.5474,122
1606935804.5480,120
1606935804.5494,127
1606935804.5514,134
1606935804.5533,134
1606935804.5553,137
1606935804.5574,139
1606935804.5593,139
1606935804.5614,146
1606935804.5633,154
1606935804.5653,156
1606935804.5673,158
1606935804.5693,163
1606935804.5713,166
1606935804.5734,158
1606935804.5753,158
1606935804.5774,175
1606935804.5780,183
1606935804.5794,175
1606935804.5813,168
1606935804.5833,163
1606935804.5853,166
1606935804.5874,168
1606935804.5893,161
1606935804.5913,158
1606935804.5933,163
1606935804.5953,163
1606935804.5974,156
1606935804.5993,156
1606935804.6013,158
1606935804.6034,154
1606935804.6053,151
1606935804.6074,154
1606935804.6080,149
1606935804.6094,146
1606935804.6113,151
1606935804.6134,151
1606935804.6153,146
1606935804.6175,149
1606935804.6194,154
1606935804.6213,151
1606935804.6233,149
1606935804.6253,154
1606935804.6274,158
1606935804.6293,161
1606935804.6313,166
1606935804.6334,173
1606935804.6353,175
1606935804.6374,183
1606935804.6380,199
1606935804.6394,211
1606935804.6414,207
1606935804.6433,202
1606935804.6453,195
1606935804.6474,178
1606935805.0841,161
1606935805.0850,149
1606935805.0875,144
1606935805.0901,144
1606935805.0921,146
1606935805.0941,144
1606935805.0962,142
1606935805.0981,134
1606935805.1000,127
1606935805.1008,139
1606935805.1021,209
1606935805.1040,383
1606935805.1060,517
1606935805.1081,368
1606935805.1100,166
1606935805.1120,204
1606935805.1140,207
1606935805.1160,105
1606935805.1180,115
1606935805.1200,149
1606935805.1220,125
1606935805.1240,122
1606935805.1260,139
1606935805.1280,137
1606935805.1300,137
1606935805.1308,144
1606935805.1320,144
1606935805.1340,144
1606935805.1360,151
1606935805.1380,151
1606935805.1400,149
1606935805.1420,151
1606935805.1440,154
1606935805.1460,156
1606935805.1482,158
1606935805.1500,161
1606935805.1521,158
1606935805.1540,156
1606935805.1560,156
1606935805.1581,158
1606935805.1586,156
1606935805.1600,149
1606935805.1620,142
1606935805.1641,134
1606935805.1660,120
1606935805.1680,110
1606935805.1700,108
1606935805.1720,103
1606935805.1740,103
1606935805.1760,108
1606935805.1780,110
1606935805.1800,115
1606935805.1820,118
1606935805.1841,118
1606935805.1860,115
1606935805.1881,115
1606935805.1887,113
1606935805.1900,115
1606935805.1920,120
1606935805.1940,125
1606935805.1960,127
1606935805.1980,127
1606935805.2000,134
1606935805.2020,137
1606935805.2040,134
1606935805.2060,132
1606935805.2080,130
1606935805.2100,127
1606935805.2120,125
1606935805.2140,125
1606935805.2160,122
1606935805.2180,120
1606935805.2187,118
1606935805.6236,115
1606935805.6243,113
1606935805.6267,113
1606935805.6295,108
1606935805.6314,103
1606935805.6334,105
1606935805.6355,108
1606935805.6374,103
1606935805.6394,93
1606935805.6413,91
1606935805.6433,93
1606935805.6453,93
1606935805.6476,91
1606935805.6494,96
1606935805.6513,98
1606935805.6533,93
1606935805.6553,93
1606935805.6574,96
1606935805.6593,101
1606935805.6613,108
1606935805.6633,110
1606935805.6654,110
1606935805.6674,127
1606935805.6693,154
1606935805.6714,154
1606935805.6733,137
1606935805.6753,122
1606935805.6774,113
1606935805.6793,96
1606935805.6813,81
1606935805.6833,79
1606935805.6853,86
1606935805.6874,86
1606935805.6893,89
1606935805.6913,91
1606935805.6933,86
1606935805.6953,77
1606935805.6974,105
1606935805.6993,238
1606935805.7013,416
1606935805.7033,392
1606935805.7053,190
1606935805.7074,149
1606935805.7093,163
1606935805.7113,72
1606935805.7133,50
1606935805.7153,84
1606935805.7173,69
1606935805.7193,60
1606935805.7213,74
1606935805.7233,74
1606935805.7253,69
1606935805.7274,77
1606935805.7293,81
1606935805.7313,81
1606935805.7333,81
1606935805.7353,84
1606935805.7374,86
1606935805.7393,84
1606935805.7413,84
1606935805.7433,89
1606935805.7453,93
1606935805.7474,91
1606935805.7495,93
1606935805.7514,93
1606935805.7533,93
1606935805.7553,91
1606935805.7574,89
1606935805.7594,89
1606935805.7613,84
1606935805.7633,74
1606935805.7653,67
1606935805.7674,60
1606935806.2243,55
1606935806.2255,50
1606935806.2280,50
1606935806.2307,50
1606935806.2327,50
1606935806.2350,50
1606935806.2367,55
1606935806.2387,60
1606935806.2406,62
1606935806.2426,62
1606935806.2448,67
1606935806.2466,69
1606935806.2487,72
1606935806.2506,74
1606935806.2526,77
1606935806.2546,79
1606935806.2566,79
1606935806.2586,79
1606935806.2606,79
1606935806.2627,79
1606935806.2645,81
1606935806.2665,79
1606935806.2685,79
1606935806.2705,81
1606935806.2726,81
1606935806.2745,79
1606935806.2765,79
1606935806.2786,77
1606935806.2806,74
1606935806.2825,67
1606935806.2845,65
1606935806.2865,67
1606935806.2885,67
1606935806.2905,62
1606935806.2925,65
1606935806.2945,67
1606935806.2965,65
1606935806.2985,65
1606935806.3005,69
1606935806.3025,67
1606935806.3045,65
1606935806.3067,69
1606935806.3086,72
1606935806.3105,72
1606935806.3125,67
1606935806.3145,67
1606935806.3165,72
1606935806.3186,72
1606935806.3205,72
1606935806.3225,69
1606935806.3245,67
1606935806.3265,67
1606935806.3286,74
1606935806.3305,84
1606935806.3325,86
1606935806.3345,91
1606935806.3365,105
1606935806.3385,125
1606935806.3405,127
1606935806.3425,113
1606935806.3445,101
1606935806.3465,93
1606935806.3485,81
1606935806.3505,65
1606935806.3525,57
1606935806.3545,65
1606935806.3565,67
1606935806.3585,67
1606935806.3605,67
1606935806.3625,72
1606935806.3645,67
1606935806.3665,69
1606935806.3685,132
1606935806.7644,298
1606935806.7653,431
1606935806.7665,317
1606935806.7684,156
1606935806.7705,166
1606935806.7725,127
1606935806.7745,38
1606935806.7766,55
1606935806.7786,72
1606935806.7804,40
1606935806.7824,36
1606935806.7844,48
1606935806.7865,45
1606935806.7885,45
1606935806.7905,50
1606935806.7924,55
1606935806.7944,57
1606935806.7964,60
1606935806.7983,62
1606935806.8006,67
1606935806.8024,69
1606935806.8043,74
1606935806.8063,74
1606935806.8083,74
1606935806.8103,74
1606935806.8123,79
1606935806.8143,77
1606935806.8163,79
1606935806.8183,79
1606935806.8203,72
1606935806.8223,69
1606935806.8243,67
1606935806.8263,62
1606935806.8284,55
1606935806.8303,50
1606935806.8323,50
1606935806.8343,48
1606935806.8363,45
1606935806.8383,48
1606935806.8403,55
1606935806.8423,60
1606935806.8443,62
1606935806.8463,67
1606935806.8483,72
1606935806.8503,74
1606935806.8523,77
1606935806.8543,79
1606935806.8563,79
1606935806.8583,81
1606935806.8603,79
1606935806.8623,79
1606935806.8643,84
1606935806.8663,84
1606935806.8683,84
1606935806.8703,86
1606935806.8723,91
1606935806.8743,89
1606935806.8763,89
1606935806.8783,96
1606935806.8803,96
1606935806.8823,91
1606935806.8843,89
1606935806.8863,89
1606935806.8883,86
1606935806.8903,89
1606935806.8923,89
1606935806.8943,89
1606935806.8964,84
1606935806.8983,81
1606935806.9003,81
1606935806.9025,86
1606935806.9043,86
1606935806.9063,81
1606935807.3635,81
1606935807.3644,81
1606935807.3669,84
1606935807.3697,81
1606935807.3716,84
1606935807.3735,86
1606935807.3756,89
1606935807.3776,84
1606935807.3795,79
1606935807.3815,79
1606935807.3835,81
1606935807.3855,81
1606935807.3876,84
1606935807.3895,86
1606935807.3915,91
1606935807.3935,96
1606935807.3955,96
1606935807.3976,105
1606935807.3995,125
1606935807.4015,132
1606935807.4035,127
1606935807.4055,125
1606935807.4075,120
1606935807.4095,105
1606935807.4115,89
1606935807.4135,74
1606935807.4155,72
1606935807.4175,74
1606935807.4194,79
1606935807.4214,84
1606935807.4235,91
1606935807.4254,86
1606935807.4275,77
1606935807.4295,81
1606935807.4315,142
1606935807.4335,305
1606935807.4355,445
1606935807.4375,320
1606935807.4394,134
1606935807.4414,161
1606935807.4434,149
1606935807.4455,52
1606935807.4475,67
1606935807.4494,101
1606935807.4515,77
1606935807.4534,69
1606935807.4554,79
1606935807.4575,79
1606935807.4596,84
1606935807.4615,86
1606935807.4634,84
1606935807.4654,89
1606935807.4675,91
1606935807.4694,101
1606935807.4714,115
1606935807.4734,108
1606935807.4754,96
1606935807.4775,103
1606935807.4794,108
1606935807.4814,108
1606935807.4834,110
1606935807.4854,110
1606935807.4875,113
1606935807.4894,115
1606935807.4914,110
1606935807.4934,105
1606935807.4954,101
1606935807.4975,93
1606935807.4994,86
1606935807.5014,74
1606935807.5034,72
1606935807.5054,79
1606935807.5075,81
1606935807.8736,79
1606935807.8743,81
1606935807.8767,91
1606935807.8794,103
1606935807.8814,103
1606935807.8835,91
1606935807.8855,89
1606935807.8874,93
1606935807.8895,91
1606935807.8914,86
1606935807.8935,93
1606935807.8954,101
1606935807.8975,89
1606935807.8993,84
1606935807.9014,96
1606935807.9034,98
1606935807.9054,93
1606935807.9074,103
1606935807.9094,113
1606935807.9114,105
1606935807.9134,98
1606935807.9153,98
1606935807.9174,103
1606935807.9193,98
1606935807.9213,96
1606935807.9233,93
1606935807.9255,86
1606935807.9274,86
1606935807.9294,101
1606935807.9314,96
1606935807.9333,77
1606935807.9353,86
1606935807.9374,103
1606935807.9394,96
1606935807.9413,91
1606935807.9433,93
1606935807.9453,89
1606935807.9474,91
1606935807.9493,101
1606935807.9513,98
1606935807.9533,93
1606935807.9553,91
1606935807.9574,93
1606935807.9593,101
1606935807.9613,101
1606935807.9633,96
1606935807.9653,98
1606935807.9673,96
1606935807.9693,93
1606935807.9713,103
1606935807.9733,108
1606935807.9753,101
1606935807.9773,105
1606935807.9793,118
1606935807.9813,130
1606935807.9833,142
1606935807.9853,149
1606935807.9873,142
1606935807.9893,125
1606935807.9913,113
1606935807.9933,105
1606935807.9953,91
1606935807.9973,79
1606935807.9993,74
1606935808.0013,77
1606935808.0033,81
1606935808.0053,81
1606935808.0073,77
1606935808.0093,79
1606935808.0113,77
1606935808.0133,105
1606935808.0153,238
1606935808.0174,436
1606935808.4740,416
1606935808.4749,156
1606935808.4775,91
1606935808.4800,158
1606935808.4823,72
1606935808.4840,16
1606935808.4862,62
1606935808.4880,62
1606935808.4899,38
1606935808.4919,48
1606935808.4939,50
1606935808.4959,43
1606935808.4980,52
1606935808.4999,60
1606935808.5020,62
1606935808.5039,65
1606935808.5059,65
1606935808.5080,65
1606935808.5099,67
1606935808.5119,69
1606935808.5139,69
1606935808.5160,69
1606935808.5180,72
1606935808.5199,81
1606935808.5219,84
1606935808.5239,74
1606935808.5259,79
1606935808.5280,96
1606935808.5299,86
1606935808.5319,67
1606935808.5340,62
1606935808.5360,62
1606935808.5380,60
1606935808.5399,62
1606935808.5419,57
1606935808.5439,50
1606935808.5459,50
1606935808.5479,43
1606935808.5499,38
1606935808.5520,52
1606935808.5539,57
1606935808.5559,48
1606935808.5580,43
1606935808.5599,50
1606935808.5619,52
1606935808.5639,50
1606935808.5659,45
1606935808.5679,45
1606935808.5699,48
1606935808.5719,52
1606935808.5739,57
1606935808.5759,60
1606935808.5779,69
1606935808.5799,77
1606935808.5819,72
1606935808.5841,72
1606935808.5860,74
1606935808.5879,74
1606935808.5899,72
1606935808.5919,72
1606935808.5939,69
1606935808.5959,72
1606935808.5979,77
1606935808.5999,72
1606935808.6019,62
1606935808.6039,52
1606935808.6059,55
1606935808.6080,62
1606935808.6099,55
1606935808.6120,52
1606935808.6139,57
1606935808.6159,57
1606935808.6180,50
1606935808.9835,57
1606935808.9843,72
1606935808.9866,67
1606935808.9893,57
1606935808.9913,55
1606935808.9933,57
1606935808.9954,62
1606935808.9975,62
1606935808.9993,65
1606935809.0013,72
1606935809.0033,62
1606935809.0053,48
1606935809.0073,48
1606935809.0093,55
1606935809.0113,65
1606935809.0133,77
1606935809.0153,81
1606935809.0173,89
1606935809.0193,105
1606935809.0213,118
1606935809.0233,113
1606935809.0253,105
1606935809.0273,103
1606935809.0293,96
1606935809.0314,79
1606935809.0333,60
1606935809.0353,55
1606935809.0373,60
1606935809.0392,62
1606935809.0412,65
1606935809.0433,67
1606935809.0452,65
1606935809.0473,62
1606935809.0494,65
1606935809.0513,96
1606935809.0532,219
1606935809.0553,399
1606935809.0572,404
1606935809.0592,214
1606935809.0612,149
1606935809.0632,146
1606935809.0652,52
1606935809.0673,28
1606935809.0692,60
1606935809.0712,48
1606935809.0732,36
1606935809.0752,43
1606935809.0772,50
1606935809.0793,52
1606935809.0812,52
1606935809.0832,52
1606935809.0852,60
1606935809.0872,69
1606935809.0892,62
1606935809.0912,62
1606935809.0932,74
1606935809.0952,74
1606935809.0973,72
1606935809.0992,74
1606935809.1013,77
1606935809.1033,77
1606935809.1052,77
1606935809.1072,74
1606935809.1092,79
1606935809.1112,79
1606935809.1132,72
1606935809.1152,67
1606935809.1172,65
1606935809.1192,60
1606935809.1213,50
1606935809.1232,43
1606935809.1252,43
1606935809.1273,43
1606935809.5839,40
1606935809.5848,45
1606935809.5873,52
1606935809.5899,52
1606935809.5919,45
1606935809.5939,50
1606935809.5959,55
1606935809.5978,50
1606935809.5998,50
1606935809.6019,55
1606935809.6038,62
1606935809.6060,62
1606935809.6080,65
1606935809.6098,67
1606935809.6118,69
1606935809.6138,67
1606935809.6158,72
1606935809.6179,77
1606935809.6198,79
1606935809.6218,81
1606935809.6238,81
1606935809.6258,84
1606935809.6279,86
1606935809.6298,86
1606935809.6318,84
1606935809.6338,84
1606935809.6358,84
1606935809.6378,81
1606935809.6398,79
1606935809.6418,77
1606935809.6438,79
1606935809.6458,79
1606935809.6478,79
1606935809.6510,77
1606935809.6528,79
1606935809.6548,79
1606935809.6568,79
1606935809.6588,81
1606935809.6608,81
1606935809.6628,79
1606935809.6648,81
1606935809.6668,81
1606935809.6688,79
1606935809.6708,81
1606935809.6728,81
1606935809.6748,81
1606935809.6768,86
1606935809.6788,86
1606935809.6808,89
1606935809.6828,86
1606935809.6848,84
1606935809.6868,81
1606935809.6888,84
1606935809.6908,84
1606935809.6928,86
1606935809.6948,96
1606935809.6968,98
1606935809.6988,96
1606935809.7008,110
1606935809.7028,137
1606935809.7048,144
1606935809.7068,134
1606935809.7090,125
1606935809.7108,118
1606935809.7128,113
1606935809.7148,98
1606935809.7168,69
1606935809.7188,65
1606935809.7208,84
1606935809.7228,79
1606935809.7248,62
1606935809.7268,72
1606935809.7288,79
1606935810.1837,67
1606935810.1847,74
1606935810.1871,144
1606935810.1898,310
1606935810.1918,448
1606935810.1938,308
1606935810.1959,120
1606935810.1978,149
1606935810.1998,120
1606935810.2019,9
1606935810.2038,26
1606935810.2058,48
1606935810.2079,9
1606935810.2098,26
1606935810.2118,65
1606935810.2138,50
1606935810.2158,31
1606935810.2178,62
1606935810.2197,77
1606935810.2217,45
1606935810.2237,28
1606935810.2257,48
1606935810.2278,62
1606935810.2297,57
1606935810.2318,60
1606935810.2337,57
1606935810.2357,55
1606935810.2378,65
1606935810.2397,81
1606935810.2417,84
1606935810.2437,77
1606935810.2457,52
1606935810.2477,36
1606935810.2497,65
1606935810.2517,93
1606935810.2537,65
1606935810.2557,31
1606935810.2577,43
1606935810.2597,38
1606935810.2617,0
1606935810.2639,2
1606935810.2657,52
1606935810.2677,69
1606935810.2697,45
1606935810.2717,26
1606935810.2737,21
1606935810.2757,36
1606935810.2777,65
1606935810.2797,69
1606935810.2817,48
1606935810.2837,52
1606935810.2858,77
1606935810.2877,89
1606935810.2897,91
1606935810.2917,72
1606935810.2937,45
1606935810.2957,55
1606935810.2977,79
1606935810.2997,84
1606935810.3017,77
1606935810.3037,98
1606935810.3057,130
1606935810.3077,103
1606935810.3097,50
1606935810.3117,50
1606935810.3137,93
1606935810.3157,105
1606935810.3177,62
1606935810.3197,36
1606935810.3216,62
1606935810.3223,93
1606935810.3237,91
1606935810.3257,65
1606935810.6936,55
1606935810.6943,72
1606935810.6968,72
1606935810.6994,62
1606935810.7014,72
1606935810.7034,67
1606935810.7055,57
1606935810.7075,65
1606935810.7094,62
1606935810.7114,50
1606935810.7134,48
1606935810.7140,60
1606935810.7154,86
1606935810.7175,93
1606935810.7194,77
1606935810.7213,48
1606935810.7233,26
1606935810.7253,52
1606935810.7276,105
1606935810.7294,103
1606935810.7314,74
1606935810.7333,91
1606935810.7353,105
1606935810.7374,105
1606935810.7393,125
1606935810.7413,105
1606935810.7433,36
1606935810.7439,21
1606935810.7454,57
1606935810.7474,65
1606935810.7493,60
1606935810.7514,50
1606935810.7533,12
1606935810.7553,16
1606935810.7574,67
1606935810.7593,67
1606935810.7613,50
1606935810.7633,110
1606935810.7653,279
1606935810.7674,419
1606935810.7693,279
1606935810.7713,57
1606935810.7733,67
1606935810.7739,69
1606935810.7754,-21
1606935810.7774,-4
1606935810.7793,38
1606935810.7813,12
1606935810.7833,9
1606935810.7853,43
1606935810.7874,31
1606935810.7893,9
1606935810.7913,28
1606935810.7933,36
1606935810.7953,19
1606935810.7974,16
1606935810.7993,24
1606935810.8013,28
1606935810.8034,36
1606935810.8039,67
1606935810.8053,79
1606935810.8074,48
1606935810.8093,31
1606935810.8113,31
1606935810.8133,50
1606935810.8153,50
1606935810.8174,16
1606935810.8193,38
1606935810.8213,74
1606935810.8235,60
1606935810.8254,33
1606935810.8274,16
1606935810.8293,14
1606935811.2636,19
1606935811.2645,14
1606935811.2670,4
1606935811.2697,24
1606935811.2716,50
1606935811.2736,12
1606935811.2757,-21
1606935811.2777,24
1606935811.2796,36
1606935811.2816,7
1606935811.2836,14
1606935811.2856,19
1606935811.2877,28
1606935811.2896,52
1606935811.2916,36
1606935811.2936,28
1606935811.2956,62
1606935811.2962,55
1606935811.2975,36
1606935811.2995,62
1606935811.3015,89
1606935811.3036,79
1606935811.3055,60
1606935811.3076,65
1606935811.3095,89
1606935811.3115,77
1606935811.3135,62
1606935811.3155,74
1606935811.3176,67
1606935811.3195,55
1606935811.3215,62
1606935811.3235,67
1606935811.3255,79
1606935811.3261,86
1606935811.3276,50
1606935811.3295,14
1606935811.3315,45
1606935811.3335,77
1606935811.3355,65
1606935811.3376,60
1606935811.3396,62
1606935811.3415,52
1606935811.3435,65
1606935811.3455,93
1606935811.3475,77
1606935811.3495,50
1606935811.3515,69
1606935811.3537,79
1606935811.3541,62
1606935811.3555,62
1606935811.3576,86
1606935811.3595,113
1606935811.3615,105
1606935811.3635,72
1606935811.3655,89
1606935811.3675,151
1606935811.3695,151
1606935811.3715,105
1606935811.3735,91
1606935811.3755,98
1606935811.3775,84
1606935811.3795,74
1606935811.3815,86
1606935811.3835,77
1606935811.3841,50
1606935811.3855,48
1606935811.3876,77
1606935811.3895,101
1606935811.3915,72
1606935811.3935,16
1606935811.3955,43
1606935811.3975,185
1606935811.3995,404
1606935811.8032,484
1606935811.8041,243
1606935811.8066,74
1606935811.8093,142
1606935811.8113,86
1606935811.8120,28
1606935811.8132,103
1606935811.8152,60
1606935811.8172,-16
1606935811.8192,36
1606935811.8212,77
1606935811.8232,55
1606935811.8252,36
1606935811.8272,12
1606935811.8292,19
1606935811.8312,67
1606935811.8332,86
1606935811.8352,79
1606935811.8373,62
1606935811.8391,19
1606935811.8411,36
1606935811.8417,115
1606935811.8431,98
1606935811.8451,7
1606935811.8471,24
1606935811.8493,105
1606935811.8512,86
1606935811.8531,4
1606935811.8551,-2
1606935811.8571,72
1606935811.8591,91
1606935811.8611,4
1606935811.8631,-38
1606935811.8651,26
1606935811.8671,86
1606935811.8691,50
1606935811.8711,-36
1606935811.8717,-21
1606935811.8731,62
1606935811.8751,69
1606935811.8771,2
1606935811.8791,-26
1606935811.8811,21
1606935811.8831,57
1606935811.8851,38
1606935811.8871,12
1606935811.8892,9
1606935811.8911,26
1606935811.8931,28
1606935811.8951,26
1606935811.8971,21
1606935811.8991,24
1606935811.9011,48
1606935811.9018,43
1606935811.9032,21
1606935811.9051,14
1606935811.9071,31
1606935811.9091,48
1606935811.9112,36
1606935811.9131,19
1606935811.9152,9
1606935811.9171,7
1606935811.9192,28
1606935811.9211,38
1606935811.9231,28
1606935811.9251,21
1606935811.9271,19
1606935811.9291,24
1606935811.9311,28
1606935811.9331,21
1606935811.9352,16
1606935811.9371,31
1606935811.9391,48
1606935812.3438,60
1606935812.3447,60
1606935812.3472,40
1606935812.3500,21
1606935812.3518,19
1606935812.3538,38
1606935812.3559,55
1606935812.3578,40
1606935812.3597,26
1606935812.3617,60
1606935812.3638,77
1606935812.3657,43
1606935812.3678,28
1606935812.3697,67
1606935812.3717,96
1606935812.3737,79
1606935812.3758,62
1606935812.3778,69
1606935812.3797,103
1606935812.3817,118
1606935812.3837,91
1606935812.3857,81
1606935812.3877,79
1606935812.3897,50
1606935812.3917,36
1606935812.3937,60
1606935812.3957,79
1606935812.3977,48
1606935812.3997,24
1606935812.4017,52
1606935812.4037,79
1606935812.4057,65
1606935812.4078,79
1606935812.4097,178
1606935812.4117,356
1606935812.4137,455
1606935812.4157,289
1606935812.4176,105
1606935812.4199,122
1606935812.4217,103
1606935812.4237,40
1606935812.4257,67
1606935812.4277,69
1606935812.4297,26
1606935812.4316,52
1606935812.4336,86
1606935812.4357,40
1606935812.4377,26
1606935812.4398,62
1606935812.4417,62
1606935812.4437,57
1606935812.4457,72
1606935812.4477,72
1606935812.4497,55
1606935812.4519,65
1606935812.4537,79
1606935812.4557,65
1606935812.4577,65
1606935812.4597,77
1606935812.4617,72
1606935812.4637,74
1606935812.4657,93
1606935812.4677,98
1606935812.4697,62
1606935812.4717,50
1606935812.4737,72
1606935812.4757,67
1606935812.4777,52
1606935812.4797,52
1606935812.4817,43
1606935812.4837,38
1606935812.4857,38
1606935812.4877,48
1606935812.9714,72
1606935812.9723,62
1606935812.9748,31
1606935812.9775,26
1606935812.9794,26
1606935812.9814,40
1606935812.9836,55
1606935812.9854,38
1606935812.9875,38
1606935812.9894,57
1606935812.9914,50
1606935812.9934,43
1606935812.9954,52
1606935812.9974,60
1606935812.9993,60
1606935813.0015,77
1606935813.0036,86
1606935813.0053,52
1606935813.0074,38
1606935813.0093,72
1606935813.0113,93
1606935813.0133,81
1606935813.0153,67
1606935813.0174,81
1606935813.0194,89
1606935813.0213,60
1606935813.0233,40
1606935813.0253,60
1606935813.0274,81
1606935813.0293,77
1606935813.0313,57
1606935813.0333,57
1606935813.0355,67
1606935813.0374,65
1606935813.0393,79
1606935813.0413,84
1606935813.0433,55
1606935813.0453,50
1606935813.0474,74
1606935813.0493,65
1606935813.0513,55
1606935813.0533,77
1606935813.0553,74
1606935813.0574,52
1606935813.0593,62
1606935813.0613,69
1606935813.0633,62
1606935813.0653,67
1606935813.0674,81
1606935813.0693,96
1606935813.0713,91
1606935813.0733,93
1606935813.0753,110
1606935813.0774,108
1606935813.0793,103
1606935813.0813,110
1606935813.0833,89
1606935813.0853,67
1606935813.0874,65
1606935813.0893,43
1606935813.0913,36
1606935813.0933,52
1606935813.0953,55
1606935813.0974,45
1606935813.0993,38
1606935813.1013,43
1606935813.1033,62
1606935813.1053,103
1606935813.1074,257
1606935813.1093,467
1606935813.1113,411
1606935813.1133,142
1606935813.1153,86
1606935813.5135,127
1606935813.5142,28
1606935813.5166,2
1606935813.5193,57
1606935813.5213,40
1606935813.5233,16
1606935813.5254,31
1606935813.5274,26
1606935813.5293,14
1606935813.5312,26
1606935813.5335,33
1606935813.5353,24
1606935813.5374,28
1606935813.5393,45
1606935813.5413,33
1606935813.5433,24
1606935813.5454,38
1606935813.5473,52
1606935813.5493,55
1606935813.5512,57
1606935813.5532,50
1606935813.5552,43
1606935813.5573,60
1606935813.5592,77
1606935813.5613,69
1606935813.5632,52
1606935813.5652,43
1606935813.5673,40
1606935813.5692,48
1606935813.5712,38
1606935813.5732,24
1606935813.5752,24
1606935813.5773,26
1606935813.5792,31
1606935813.5812,33
1606935813.5832,36
1606935813.5852,28
1606935813.5873,4
1606935813.5892,12
1606935813.5912,43
1606935813.5932,38
1606935813.5952,19
1606935813.5973,26
1606935813.5993,36
1606935813.6012,24
1606935813.6032,26
1606935813.6052,38
1606935813.6073,31
1606935813.6092,33
1606935813.6112,48
1606935813.6132,55
1606935813.6152,55
1606935813.6173,55
1606935813.6192,57
1606935813.6212,60
1606935813.6232,60
1606935813.6253,60
1606935813.6273,67
1606935813.6292,60
1606935813.6312,45
1606935813.6332,57
1606935813.6354,60
1606935813.6374,55
1606935813.6392,55
1606935813.6412,40
1606935813.6432,38
1606935813.6452,60
1606935813.6473,57
1606935813.6492,24
1606935813.6567,28
1606935813.6583,52
1606935813.6602,55
1606935813.6622,52
1606935814.0813,52
1606935814.0823,43
1606935814.0848,43
1606935814.0874,60
1606935814.0894,67
1606935814.0913,57
1606935814.0934,57
1606935814.0954,55
1606935814.0974,38
1606935814.0993,40
1606935814.1013,62
1606935814.1033,57
1606935814.1054,38
1606935814.1074,45
1606935814.1093,57
1606935814.1113,57
1606935814.1133,65
1606935814.1153,86
1606935814.1174,108
1606935814.1194,113
1606935814.1213,96
1606935814.1233,89
1606935814.1253,86
1606935814.1274,67
1606935814.1293,48
1606935814.1312,33
1606935814.1333,28
1606935814.1353,45
1606935814.1374,43
1606935814.1393,28
1606935814.1413,40
1606935814.1433,57
1606935814.1453,45
1606935814.1473,40
1606935814.1492,105
1606935814.1512,281
1606935814.1534,448
1606935814.1552,344
1606935814.1574,139
1606935814.1596,130
1606935814.1613,122
1606935814.1632,24
1606935814.1653,0
1606935814.1673,24
1606935814.1692,24
1606935814.1712,33
1606935814.1732,38
1606935814.1752,21
1606935814.1773,24
1606935814.1792,43
1606935814.1812,43
1606935814.1832,31
1606935814.1852,38
1606935814.1873,48
1606935814.1893,31
1606935814.1912,31
1606935814.1932,52
1606935814.1952,62
1606935814.1974,57
1606935814.1992,50
1606935814.2012,48
1606935814.2033,55
1606935814.2052,60
1606935814.2073,50
1606935814.2092,40
1606935814.2112,36
1606935814.2132,43
1606935814.2152,55
1606935814.2173,45
1606935814.2192,26
1606935814.2212,31
1606935814.2232,28
1606935814.2253,16
1606935814.6231,26
1606935814.6238,43
1606935814.6262,40
1606935814.6290,24
1606935814.6308,24
1606935814.6329,50
1606935814.6350,52
1606935814.6369,36
1606935814.6389,50
1606935814.6409,45
1606935814.6429,21
1606935814.6449,38
1606935814.6470,52
1606935814.6488,40
1606935814.6508,43
1606935814.6528,48
1606935814.6548,45
1606935814.6570,52
1606935814.6590,55
1606935814.6608,43
1606935814.6628,52
1606935814.6648,69
1606935814.6668,65
1606935814.6688,65
1606935814.6708,72
1606935814.6728,65
1606935814.6748,48
1606935814.6768,52
1606935814.6789,67
1606935814.6808,67
1606935814.6828,65
1606935814.6849,69
1606935814.6868,77
1606935814.6889,77
1606935814.6909,55
1606935814.6928,50
1606935814.6948,74
1606935814.6968,74
1606935814.6989,65
1606935814.7008,77
1606935814.7028,89
1606935814.7048,96
1606935814.7068,84
1606935814.7089,65
1606935814.7108,79
1606935814.7128,96
1606935814.7148,86
1606935814.7168,81
1606935814.7188,84
1606935814.7208,93
1606935814.7228,108
1606935814.7248,101
1606935814.7268,65
1606935814.7289,57
1606935814.7308,81
1606935814.7328,98
1606935814.7349,98
1606935814.7368,98
1606935814.7389,105
1606935814.7408,120
1606935814.7428,127
1606935814.7448,125
1606935814.7468,134
1606935814.7488,149
1606935814.7508,151
1606935814.7528,134
1606935814.7548,108
1606935814.7568,101
1606935814.7591,101
1606935814.7609,74
1606935814.7628,69
1606935814.7648,91
1606935814.7668,89
1606935815.1633,86
1606935815.1642,103
1606935815.1667,98
1606935815.1693,86
1606935815.1714,156
1606935815.1733,339
1606935815.1755,479
1606935815.1774,346
1606935815.1793,137
1606935815.1813,151
1606935815.1833,146
1606935815.1853,48
1606935815.1875,45
1606935815.1896,74
1606935815.1914,62
1606935815.1933,65
1606935815.1953,74
1606935815.1973,69
1606935815.1993,72
1606935815.2012,81
1606935815.2033,79
1606935815.2053,77
1606935815.2074,81
1606935815.2092,81
1606935815.2112,77
1606935815.2132,77
1606935815.2152,79
1606935815.2173,79
1606935815.2192,77
1606935815.2212,77
1606935815.2232,81
1606935815.2252,84
1606935815.2273,84
1606935815.2292,81
1606935815.2313,74
1606935815.2332,74
1606935815.2352,72
1606935815.2373,67
1606935815.2392,65
1606935815.2412,62
1606935815.2432,52
1606935815.2452,43
1606935815.2473,48
1606935815.2492,52
1606935815.2512,48
1606935815.2532,45
1606935815.2554,50
1606935815.2574,52
1606935815.2592,60
1606935815.2612,69
1606935815.2632,69
1606935815.2653,67
1606935815.2673,69
1606935815.2692,79
1606935815.2712,84
1606935815.2732,81
1606935815.2752,79
1606935815.2772,84
1606935815.2792,89
1606935815.2813,91
1606935815.2832,89
1606935815.2852,89
1606935815.2873,93
1606935815.2892,96
1606935815.2912,91
1606935815.2932,86
1606935815.2952,89
1606935815.2972,91
1606935815.2992,91
1606935815.3012,89
1606935815.3032,89
1606935815.3052,86
1606935815.3072,81
1606935815.7332,81
1606935815.7341,84
1606935815.7356,84
1606935815.7375,81
1606935815.7395,84
1606935815.7415,81
1606935815.7435,74
1606935815.7455,72
1606935815.7475,74
1606935815.7495,74
1606935815.7515,74
1606935815.7535,74
1606935815.7555,74
1606935815.7576,77
1606935815.7595,79
1606935815.7615,79
1606935815.7635,81
1606935815.7655,84
1606935815.7675,79
1606935815.7695,81
1606935815.7714,89
1606935815.7741,89
1606935815.7755,89
1606935815.7775,101
1606935815.7796,110
1606935815.7815,118
1606935815.7834,125
1606935815.7855,127
1606935815.7875,122
1606935815.7894,110
1606935815.7914,98
1606935815.7934,86
1606935815.7954,72
1606935815.7974,67
1606935815.7994,60
1606935815.8014,57
1606935815.8034,67
1606935815.8054,67
1606935815.8075,60
1606935815.8094,60
1606935815.8114,72
1606935815.8134,132
1606935815.8154,313
1606935815.8175,496
1606935815.8194,332
1606935815.8214,7
1606935815.8234,36
1606935815.8254,151
1606935815.8275,57
1606935815.8294,28
1606935815.8315,81
1606935815.8334,62
1606935815.8354,38
1606935815.8374,52
1606935815.8395,55
1606935815.8414,57
1606935815.8434,62
1606935815.8454,65
1606935815.8474,69
1606935815.8494,74
1606935815.8515,65
1606935815.8534,62
1606935815.8554,65
1606935815.8575,62
1606935815.8594,67
1606935815.8614,79
1606935815.8634,84
1606935815.8654,89
1606935815.8675,98
1606935815.8694,96
1606935815.8714,91
1606935815.8735,93
1606935815.8754,93
1606935816.3335,89
1606935816.3344,91
1606935816.3371,84
1606935816.3396,72
1606935816.3415,77
1606935816.3435,74
1606935816.3456,55
1606935816.3475,50
1606935816.3495,62
1606935816.3515,65
1606935816.3535,67
1606935816.3555,74
1606935816.3575,62
1606935816.3594,50
1606935816.3614,55
1606935816.3634,60
1606935816.3654,57
1606935816.3675,62
1606935816.3694,69
1606935816.3714,67
1606935816.3734,69
1606935816.3754,79
1606935816.3776,81
1606935816.3794,91
1606935816.3814,101
1606935816.3834,98
1606935816.3854,96
1606935816.3874,93
1606935816.3894,96
1606935816.3914,101
1606935816.3934,96
1606935816.3954,89
1606935816.3975,89
1606935816.3994,86
1606935816.4014,81
1606935816.4034,81
1606935816.4054,81
1606935816.4074,77
1606935816.4094,74
1606935816.4114,74
1606935816.4134,79
1606935816.4154,77
1606935816.4174,69
1606935816.4194,69
1606935816.4214,72
1606935816.4234,69
1606935816.4254,62
1606935816.4275,62
1606935816.4294,67
1606935816.4314,65
1606935816.4334,57
1606935816.4353,62
1606935816.4375,74
1606935816.4396,74
1606935816.4414,81
1606935816.4434,101
1606935816.4454,115
1606935816.4475,110
1606935816.4494,96
1606935816.4514,86
1606935816.4534,77
1606935816.4554,62
1606935816.4574,50
1606935816.4594,38
1606935816.4614,33
1606935816.4634,36
1606935816.4654,45
1606935816.4675,45
1606935816.4694,43
1606935816.4714,40
1606935816.4734,43
1606935816.4754,115
1606935816.4775,313
1606935816.8736,496
1606935816.8746,325
1606935816.8770,-4
1606935816.8797,16
1606935816.8817,122
1606935816.8837,24
1606935816.8857,-9
1606935816.8877,40
1606935816.8896,24
1606935816.8916,4
1606935816.8936,26
1606935816.8956,24
1606935816.8976,7
1606935816.8996,16
1606935816.9018,26
1606935816.9036,26
1606935816.9056,26
1606935816.9078,31
1606935816.9097,38
1606935816.9117,33
1606935816.9136,31
1606935816.9156,36
1606935816.9177,38
1606935816.9196,33
1606935816.9216,33
1606935816.9236,40
1606935816.9256,43
1606935816.9276,43
1606935816.9296,45
1606935816.9316,43
1606935816.9336,40
1606935816.9358,36
1606935816.9377,31
1606935816.9396,21
1606935816.9416,16
1606935816.9436,12
1606935816.9456,12
1606935816.9476,14
1606935816.9496,16
1606935816.9518,16
1606935816.9536,21
1606935816.9556,21
1606935816.9576,14
1606935816.9596,12
1606935816.9615,12
1606935816.9636,12
1606935816.9655,16
1606935816.9676,24
1606935816.9696,28
1606935816.9716,36
1606935816.9735,38
1606935816.9755,40
1606935816.9776,45
1606935816.9795,55
1606935816.9815,57
1606935816.9822,52
1606935816.9836,52
1606935816.9856,57
1606935816.9876,57
1606935816.9895,57
1606935816.9915,57
1606935816.9936,55
1606935816.9955,50
1606935816.9975,45
1606935816.9995,45
1606935817.0017,45
1606935817.0036,45
1606935817.0056,43
1606935817.0076,43
1606935817.0095,43
1606935817.0115,45
1606935817.0122,45
1606935817.0135,40
1606935817.4133,38
1606935817.4140,36
1606935817.4156,38
1606935817.4176,40
1606935817.4196,40
1606935817.4216,43
1606935817.4236,43
1606935817.4256,43
1606935817.4275,43
1606935817.4298,43
1606935817.4316,48
1606935817.4322,60
1606935817.4336,74
1606935817.4356,84
1606935817.4376,84
1606935817.4395,74
1606935817.4415,62
1606935817.4435,52
1606935817.4456,38
1606935817.4475,24
1606935817.4496,14
1606935817.4516,16
1606935817.4535,21
1606935817.4555,21
1606935817.4576,26
1606935817.4595,28
1606935817.4615,28
1606935817.4622,24
1606935817.4635,57
1606935817.4655,197
1606935817.4676,404
1606935817.4695,395
1606935817.4715,137
1606935817.4735,50
1606935817.4755,105
1606935817.4777,33
1606935817.4795,-14
1606935817.4815,28
1606935817.4835,26
1606935817.4856,7
1606935817.4876,21
1606935817.4895,28
1606935817.4915,24
1606935817.4921,26
1606935817.4935,33
1606935817.4955,36
1606935817.4975,36
1606935817.4995,40
1606935817.5017,40
1606935817.5035,40
1606935817.5055,45
1606935817.5076,50
1606935817.5096,52
1606935817.5115,55
1606935817.5135,55
1606935817.5155,57
1606935817.5175,60
1606935817.5195,60
1606935817.5215,60
1606935817.5221,52
1606935817.5237,48
1606935817.5256,40
1606935817.5276,33
1606935817.5295,24
1606935817.5315,19
1606935817.5335,12
1606935817.5355,9
1606935817.5376,9
1606935817.5395,9
1606935817.5416,14
1606935817.5436,16
1606935817.5455,19
1606935817.5476,21
1606935817.9836,26
1606935817.9845,26
1606935817.9862,26
1606935817.9887,28
1606935817.9906,33
1606935817.9926,33
1606935817.9946,26
1606935817.9966,21
1606935817.9985,24
1606935818.0006,24
1606935818.0026,26
1606935818.0045,31
1606935818.0065,31
1606935818.0086,31
1606935818.0106,33
1606935818.0125,36
1606935818.0146,38
1606935818.0166,38
1606935818.0172,36
1606935818.0185,36
1606935818.0205,38
1606935818.0225,38
1606935818.0245,36
1606935818.0265,33
1606935818.0286,31
1606935818.0305,31
1606935818.0325,31
1606935818.0345,31
1606935818.0365,33
1606935818.0386,36
1606935818.0405,31
1606935818.0425,31
1606935818.0445,36
1606935818.0465,36
1606935818.0472,36
1606935818.0485,36
1606935818.0505,38
1606935818.0525,38
1606935818.0547,38
1606935818.0566,40
1606935818.0586,43
1606935818.0605,40
1606935818.0625,38
1606935818.0645,40
1606935818.0665,52
1606935818.0685,57
1606935818.0705,60
1606935818.0725,74
1606935818.0745,89
1606935818.0765,86
1606935818.0772,79
1606935818.0785,74
1606935818.0805,65
1606935818.0825,48
1606935818.0846,28
1606935818.0865,16
1606935818.0885,16
1606935818.0905,21
1606935818.0925,24
1606935818.0945,24
1606935818.0965,24
1606935818.0985,21
1606935818.1005,16
1606935818.1025,40
1606935818.1045,151
1606935818.1065,339
1606935818.1072,387
1606935818.1085,207
1606935818.1105,108
1606935818.1125,113
1606935818.1145,28
1606935818.1167,-19
1606935818.1185,16
1606935818.5534,9
1606935818.5544,-12
1606935818.5568,-2
1606935818.5595,7
1606935818.5614,0
1606935818.5634,4
1606935818.5641,12
1606935818.5655,4
1606935818.5675,0
1606935818.5694,7
1606935818.5714,9
1606935818.5734,7
1606935818.5754,7
1606935818.5775,12
1606935818.5794,9
1606935818.5814,9
1606935818.5837,14
1606935818.5854,14
1606935818.5874,16
1606935818.5894,19
1606935818.5914,21
1606935818.5934,21
1606935818.5940,19
1606935818.5954,14
1606935818.5974,12
1606935818.5994,9
1606935818.6014,7
1606935818.6034,2
1606935818.6054,0
1606935818.6074,-2
1606935818.6094,0
1606935818.6113,0
1606935818.6134,2
1606935818.6154,7
1606935818.6174,9
1606935818.6193,9
1606935818.6213,12
1606935818.6233,16
1606935818.6240,19
1606935818.6253,19
1606935818.6274,24
1606935818.6293,24
1606935818.6314,24
1606935818.6333,28
1606935818.6354,31
1606935818.6375,31
1606935818.6393,28
1606935818.6413,28
1606935818.6433,33
1606935818.6454,33
1606935818.6474,31
1606935818.6493,33
1606935818.6513,36
1606935818.6533,36
1606935818.6553,33
1606935818.6574,31
1606935818.6594,31
1606935818.6614,31
1606935818.6633,28
1606935818.6653,26
1606935818.6674,28
1606935818.6693,28
1606935818.6714,28
1606935818.6734,28
1606935818.6753,31
1606935818.6774,28
1606935818.6793,26
1606935818.6816,24
1606935818.6834,24
1606935818.6854,26
1606935818.6874,26
1606935818.6893,24
1606935818.6913,24
1606935819.1236,24
1606935819.1245,26
1606935819.1270,28
1606935819.1296,28
1606935819.1316,28
1606935819.1336,26
1606935819.1369,28
1606935819.1379,33
1606935819.1392,36
1606935819.1405,31
1606935819.1425,36
1606935819.1445,52
1606935819.1465,65
1606935819.1485,67
1606935819.1505,65
1606935819.1525,57
1606935819.1545,45
1606935819.1565,28
1606935819.1585,14
1606935819.1605,4
1606935819.1625,4
1606935819.1645,9
1606935819.1665,12
1606935819.1685,14
1606935819.1798,14
1606935819.1802,14
1606935819.1822,9
1606935819.1845,28
1606935819.1865,125
1606935819.1885,305
1606935819.1905,375
1606935819.1926,211
1606935819.1945,105
1606935819.1965,110
1606935819.1985,28
1606935819.2005,-26
1606935819.2025,7
1606935819.2045,4
1606935819.2065,-14
1606935819.2085,-2
1606935819.2105,2
1606935819.2126,-2
1606935819.2145,4
1606935819.2216,12
1606935819.2227,9
1606935819.2248,12
1606935819.2266,14
1606935819.2285,16
1606935819.2305,16
1606935819.2325,16
1606935819.2345,19
1606935819.2365,21
1606935819.2385,21
1606935819.2405,24
1606935819.2425,28
1606935819.2445,28
1606935819.2465,28
1606935819.2482,28
1606935819.2495,26
1606935819.2516,21
1606935819.2535,16
1606935819.2555,7
1606935819.2575,4
1606935819.2595,0
1606935819.2615,-4
1606935819.2635,-4
1606935819.2655,-4
1606935819.2675,-4
1606935819.2695,-2
1606935819.2715,0
1606935819.2735,0
1606935819.2755,7
1606935819.2775,9
1606935819.6934,12
1606935819.6941,14
1606935819.6966,16
1606935819.6992,19
1606935819.7012,21
1606935819.7032,21
1606935819.7052,14
1606935819.7074,14
1606935819.7092,19
1606935819.7112,16
1606935819.7132,9
1606935819.7152,12
1606935819.7173,19
1606935819.7192,16
1606935819.7212,16
1606935819.7232,19
1606935819.7252,21
1606935819.7272,24
1606935819.7292,24
1606935819.7311,24
1606935819.7331,24
1606935819.7352,21
1606935819.7372,19
1606935819.7393,21
1606935819.7412,26
1606935819.7431,24
1606935819.7451,21
1606935819.7472,24
1606935819.7491,21
1606935819.7511,19
1606935819.7531,21
1606935819.7551,21
1606935819.7572,19
1606935819.7591,19
1606935819.7611,24
1606935819.7631,28
1606935819.7651,28
1606935819.7672,28
1606935819.7691,31
1606935819.7711,33
1606935819.7731,36
1606935819.7751,36
1606935819.7772,33
1606935819.7791,36
1606935819.7811,43
1606935819.7831,50
1606935819.7851,52
1606935819.7872,62
1606935819.7891,77
1606935819.7911,89
1606935819.7931,89
1606935819.7951,79
1606935819.7972,69
1606935819.7991,55
1606935819.8011,38
1606935819.8031,26
1606935819.8051,21
1606935819.8072,24
1606935819.8091,26
1606935819.8111,26
1606935819.8131,28
1606935819.8151,31
1606935819.8172,31
1606935819.8191,28
1606935819.8211,77
1606935819.8231,221
1606935819.8251,387
1606935819.8272,322
1606935819.8291,120
1606935819.8311,105
1606935819.8331,113
1606935819.8351,14
1606935819.8372,7
1606935820.2336,40
1606935820.2348,24
1606935820.2370,16
1606935820.2396,36
1606935820.2416,38
1606935820.2436,31
1606935820.2456,33
1606935820.2476,36
1606935820.2496,38
1606935820.2516,43
1606935820.2536,40
1606935820.2556,33
1606935820.2576,36
1606935820.2596,43
1606935820.2616,45
1606935820.2636,43
1606935820.2656,48
1606935820.2676,55
1606935820.2696,57
1606935820.2716,55
1606935820.2736,60
1606935820.2756,62
1606935820.2776,50
1606935820.2796,43
1606935820.2815,43
1606935820.2835,40
1606935820.2855,36
1606935820.2876,26
1606935820.2895,21
1606935820.2915,24
1606935820.2935,28
1606935820.2955,28
1606935820.2975,38
1606935820.2995,45
1606935820.3016,45
1606935820.3035,48
1606935820.3055,55
1606935820.3077,55
1606935820.3095,55
1606935820.3116,60
1606935820.3136,65
1606935820.3162,65
1606935820.3176,67
1606935820.3195,72
1606935820.3215,72
1606935820.3235,67
1606935820.3255,65
1606935820.3276,65
1606935820.3295,67
1606935820.3315,69
1606935820.3335,67
1606935820.3355,65
1606935820.3377,65
1606935820.3396,62
1606935820.3415,62
1606935820.3435,62
1606935820.3455,60
1606935820.3475,55
1606935820.3495,55
1606935820.3515,52
1606935820.3535,57
1606935820.3555,57
1606935820.3575,55
1606935820.3595,55
1606935820.3615,57
1606935820.3635,60
1606935820.3655,57
1606935820.3675,57
1606935820.3695,60
1606935820.3715,55
1606935820.3735,55
1606935820.3756,57
1606935820.3776,60
1606935820.8032,60
1606935820.8041,55
1606935820.8066,55
1606935820.8092,55
1606935820.8111,55
1606935820.8131,60
1606935820.8152,65
1606935820.8173,65
1606935820.8192,72
1606935820.8211,93
1606935820.8231,98
1606935820.8251,74
1606935820.8273,57
1606935820.8291,52
1606935820.8311,38
1606935820.8331,24
1606935820.8351,16
1606935820.8372,21
1606935820.8391,24
1606935820.8411,24
1606935820.8431,24
1606935820.8451,24
1606935820.8471,21
1606935820.8491,45
1606935820.8511,163
1606935820.8531,356
1606935820.8551,385
1606935820.8572,156
1606935820.8591,52
1606935820.8611,108
1606935820.8633,43
1606935820.8651,-19
1606935820.8671,16
1606935820.8691,21
1606935820.8711,0
1606935820.8731,7
1606935820.8751,12
1606935820.8771,4
1606935820.8791,9
1606935820.8811,9
1606935820.8831,0
1606935820.8851,0
1606935820.8872,9
1606935820.8891,9
1606935820.8911,9
1606935820.8931,16
1606935820.8951,21
1606935820.8971,21
1606935820.8991,28
1606935820.9012,31
1606935820.9031,26
1606935820.9051,33
1606935820.9071,40
1606935820.9091,31
1606935820.9111,14
1606935820.9131,16
1606935820.9151,24
1606935820.9172,14
1606935820.9191,4
1606935820.9211,0
1606935820.9231,-9
1606935820.9251,-16
1606935820.9271,-4
1606935820.9291,7
1606935820.9311,9
1606935820.9331,9
1606935820.9351,12
1606935820.9371,12
1606935820.9391,14
1606935820.9411,14
1606935820.9431,9
1606935820.9451,24
1606935820.9472,38
1606935821.3435,31
1606935821.3445,19
1606935821.3469,28
1606935821.3496,43
1606935821.3516,40
1606935821.3536,33
1606935821.3557,36
1606935821.3576,40
1606935821.3597,36
1606935821.3616,33
1606935821.3635,36
1606935821.3655,38
1606935821.3676,28
1606935821.3696,19
1606935821.3715,33
1606935821.3735,43
1606935821.3755,24
1606935821.3775,19
1606935821.3795,31
1606935821.3815,26
1606935821.3834,19
1606935821.3854,26
1606935821.3875,26
1606935821.3894,19
1606935821.3914,14
1606935821.3934,14
1606935821.3954,26
1606935821.3974,40
1606935821.3995,33
1606935821.4014,9
1606935821.4035,4
1606935821.4054,21
1606935821.4075,38
1606935821.4094,24
1606935821.4114,2
1606935821.4134,2
1606935821.4154,14
1606935821.4174,24
1606935821.4194,16
1606935821.4214,7
1606935821.4234,19
1606935821.4254,31
1606935821.4275,24
1606935821.4294,28
1606935821.4315,60
1606935821.4334,74
1606935821.4354,52
1606935821.4375,40
1606935821.4394,48
1606935821.4414,36
1606935821.4435,14
1606935821.4454,2
1606935821.4474,-4
1606935821.4495,-2
1606935821.4515,2
1606935821.4534,-2
1606935821.4554,4
1606935821.4575,12
1606935821.4594,-2
1606935821.4616,26
1606935821.4635,156
1606935821.4655,342
1606935821.4674,358
1606935821.4694,175
1606935821.4714,101
1606935821.4734,105
1606935821.4754,9
1606935821.4775,-33
1606935821.4794,2
1606935821.4815,-9
1606935821.4834,-24
1606935821.4854,-7
1606935821.4875,-12
1606935821.9136,-12
1606935821.9145,7
1606935821.9170,7
1606935821.9196,-4
1606935821.9216,0
1606935821.9236,-4
1606935821.9257,-7
1606935821.9277,4
1606935821.9296,7
1606935821.9317,12
1606935821.9336,9
1606935821.9356,4
1606935821.9376,12
1606935821.9395,19
1606935821.9416,14
1606935821.9436,12
1606935821.9455,14
1606935821.9476,9
1606935821.9495,2
1606935821.9516,7
1606935821.9535,2
1606935821.9555,-16
1606935821.9576,-16
1606935821.9595,-19
1606935821.9615,-33
1606935821.9635,-24
1606935821.9655,-21
1606935821.9675,-38
1606935821.9695,-28
1606935821.9715,-2
1606935821.9735,7
1606935821.9755,-2
1606935821.9775,-4
1606935821.9795,12
1606935821.9815,14
1606935821.9835,9
1606935821.9855,16
1606935821.9877,21
1606935821.9896,19
1606935821.9915,16
1606935821.9935,21
1606935821.9956,26
1606935821.9976,16
1606935821.9995,28
1606935822.0016,48
1606935822.0035,31
1606935822.0055,12
1606935822.0076,19
1606935822.0095,33
1606935822.0115,38
1606935822.0136,28
1606935822.0155,24
1606935822.0175,31
1606935822.0195,19
1606935822.0215,12
1606935822.0235,31
1606935822.0255,38
1606935822.0275,21
1606935822.0295,19
1606935822.0316,26
1606935822.0335,16
1606935822.0355,14
1606935822.0375,26
1606935822.0395,36
1606935822.0415,31
1606935822.0435,26
1606935822.0455,31
1606935822.0475,33
1606935822.0495,26
1606935822.0515,24
1606935822.0535,19
1606935822.0555,21
1606935822.0575,38
1606935822.4529,40
1606935822.4537,31
1606935822.4555,28
1606935822.4575,33
1606935822.4594,43
1606935822.4614,40
1606935822.4634,36
1606935822.4654,57
1606935822.4675,81
1606935822.4694,77
1606935822.4714,62
1606935822.4734,57
1606935822.4754,48
1606935822.4774,33
1606935822.4793,24
1606935822.4815,12
1606935822.4834,-4
1606935822.4853,-7
1606935822.4874,-4
1606935822.4894,-4
1606935822.4913,4
1606935822.4933,14
1606935822.4953,4
1606935822.4974,14
1606935822.4993,125
1606935822.5014,317
1606935822.5034,354
1606935822.5054,166
1606935822.5075,81
1606935822.5093,108
1606935822.5113,14
1606935822.5134,-45
1606935822.5153,-2
1606935822.5174,-2
1606935822.5194,-31
1606935822.5214,-21
1606935822.5234,-14
1606935822.5254,-16
1606935822.5274,-2
1606935822.5293,0
1606935822.5313,-14
1606935822.5333,-12
1606935822.5353,-2
1606935822.5374,-2
1606935822.5393,2
1606935822.5413,-2
1606935822.5434,0
1606935822.5453,16
1606935822.5474,9
1606935822.5494,7
1606935822.5514,24
1606935822.5533,21
1606935822.5554,2
1606935822.5575,4
1606935822.5593,9
1606935822.5614,4
1606935822.5633,0
1606935822.5654,-9
1606935822.5674,-21
1606935822.5693,-21
1606935822.5714,-21
1606935822.5734,-28
1606935822.5755,-19
1606935822.5774,-9
1606935822.5793,-4
1606935822.5813,7
1606935822.5836,4
1606935822.5854,-2
1606935822.5874,12
1606935822.5894,24
1606935822.5914,14
1606935822.5933,14
1606935822.5953,36
1606935823.0532,36
1606935823.0539,19
1606935823.0564,26
1606935823.0589,40
1606935823.0609,31
1606935823.0629,12
1606935823.0650,14
1606935823.0669,28
1606935823.0689,36
1606935823.0709,26
1606935823.0729,14
1606935823.0749,16
1606935823.0769,14
1606935823.0789,16
1606935823.0809,28
1606935823.0829,26
1606935823.0850,14
1606935823.0869,12
1606935823.0889,9
1606935823.0909,9
1606935823.0929,19
1606935823.0949,16
1606935823.0969,16
1606935823.0989,31
1606935823.1009,21
1606935823.1029,7
1606935823.1049,21
1606935823.1069,24
1606935823.1089,19
1606935823.1109,33
1606935823.1129,24
1606935823.1150,7
1606935823.1169,14
1606935823.1189,24
1606935823.1209,28
1606935823.1229,33
1606935823.1249,26
1606935823.1269,16
1606935823.1289,21
1606935823.1309,38
1606935823.1329,48
1606935823.1350,43
1606935823.1369,52
1606935823.1389,74
1606935823.1411,74
1606935823.1430,65
1606935823.1449,77
1606935823.1469,72
1606935823.1489,45
1606935823.1509,24
1606935823.1529,16
1606935823.1549,16
1606935823.1569,19
1606935823.1589,24
1606935823.1610,26
1606935823.1629,26
1606935823.1650,14
1606935823.1669,4
1606935823.1689,28
1606935823.1709,105
1606935823.1729,255
1606935823.1749,390
1606935823.1769,291
1606935823.1789,113
1606935823.1809,122
1606935823.1829,96
1606935823.1849,-12
1606935823.1869,2
1606935823.1889,36
1606935823.1909,0
1606935823.1929,-7
1606935823.1949,16
1606935823.1970,7
1606935823.6235,0
1606935823.6245,21
1606935823.6270,24
1606935823.6295,7
1606935823.6316,12
1606935823.6336,24
1606935823.6356,19
1606935823.6376,16
1606935823.6395,26
1606935823.6415,28
1606935823.6435,24
1606935823.6455,26
1606935823.6476,38
1606935823.6495,38
1606935823.6516,28
1606935823.6535,26
1606935823.6555,21
1606935823.6576,19
1606935823.6596,19
1606935823.6615,9
1606935823.6635,0
1606935823.6655,2
1606935823.6677,2
1606935823.6695,-9
1606935823.6715,-16
1606935823.6735,-7
1606935823.6755,9
1606935823.6775,14
1606935823.6795,9
1606935823.6815,19
1606935823.6835,24
1606935823.6855,16
1606935823.6875,19
1606935823.6895,26
1606935823.6915,28
1606935823.6944,38
1606935823.6955,38
1606935823.6975,36
1606935823.6995,38
1606935823.7015,43
1606935823.7035,48
1606935823.7055,52
1606935823.7075,48
1606935823.7095,45
1606935823.7115,52
1606935823.7135,52
1606935823.7155,48
1606935823.7175,45
1606935823.7195,43
1606935823.7215,52
1606935823.7222,55
1606935823.7245,43
1606935823.7265,38
1606935823.7285,36
1606935823.7305,31
1606935823.7325,31
1606935823.7345,33
1606935823.7365,45
1606935823.7385,50
1606935823.7405,36
1606935823.7425,26
1606935823.7445,31
1606935823.7465,45
1606935823.7485,43
1606935823.7505,33
1606935823.7525,33
1606935823.7532,36
1606935823.7555,31
1606935823.7575,31
1606935823.7595,38
1606935823.7615,38
1606935823.7635,33
1606935823.7655,31
1606935824.1638,33
1606935824.1649,43
1606935824.1673,52
1606935824.1700,52
1606935824.1720,57
1606935824.1739,72
1606935824.1761,81
1606935824.1780,77
1606935824.1786,65
1606935824.1809,65
1606935824.1829,60
1606935824.1849,31
1606935824.1869,4
1606935824.1889,7
1606935824.1908,9
1606935824.1928,2
1606935824.1948,4
1606935824.1968,14
1606935824.1988,16
1606935824.2008,19
1606935824.2028,7
1606935824.2048,7
1606935824.2068,89
1606935824.2089,260
1606935824.2095,368
1606935824.2119,250
1606935824.2138,108
1606935824.2158,108
1606935824.2179,57
1606935824.2198,-26
1606935824.2218,-4
1606935824.2238,16
1606935824.2258,-12
1606935824.2279,-14
1606935824.2298,2
1606935824.2318,-2
1606935824.2338,-2
1606935824.2358,4
1606935824.2379,-4
1606935824.2398,4
1606935824.2405,31
1606935824.2428,16
1606935824.2448,2
1606935824.2468,24
1606935824.2489,31
1606935824.2509,14
1606935824.2528,7
1606935824.2548,14
1606935824.2568,24
1606935824.2588,28
1606935824.2608,31
1606935824.2630,21
1606935824.2649,4
1606935824.2668,2
1606935824.2688,9
1606935824.2708,4
1606935824.2715,-4
1606935824.2738,-14
1606935824.2758,-19
1606935824.2779,-14
1606935824.2798,-19
1606935824.2818,-19
1606935824.2838,-12
1606935824.2858,-9
1606935824.2879,-4
1606935824.2898,4
1606935824.2918,9
1606935824.2938,0
1606935824.2958,0
1606935824.2979,16
1606935824.2998,21
1606935824.3020,16
1606935824.3039,21
1606935824.7028,28
1606935824.7036,28
1606935824.7060,31
1606935824.7088,28
1606935824.7107,26
1606935824.7127,28
1606935824.7147,38
1606935824.7167,48
1606935824.7186,43
1606935824.7206,31
1606935824.7226,33
1606935824.7246,28
1606935824.7253,21
1606935824.7276,38
1606935824.7296,52
1606935824.7316,48
1606935824.7336,40
1606935824.7356,31
1606935824.7376,28
1606935824.7396,40
1606935824.7416,33
1606935824.7436,16
1606935824.7456,24
1606935824.7476,31
1606935824.7496,19
1606935824.7516,16
1606935824.7536,24
1606935824.7556,19
1606935824.7563,16
1606935824.7588,9
1606935824.7607,12
1606935824.7626,16
1606935824.7646,12
1606935824.7666,12
1606935824.7686,19
1606935824.7706,12
1606935824.7726,0
1606935824.7746,12
1606935824.7766,38
1606935824.7786,31
1606935824.7806,21
1606935824.7826,43
1606935824.7846,62
1606935824.7866,72
1606935824.7873,65
1606935824.7896,45
1606935824.7916,40
1606935824.7936,31
1606935824.7956,12
1606935824.7976,-2
1606935824.7996,-7
1606935824.8016,4
1606935824.8036,14
1606935824.8056,4
1606935824.8076,0
1606935824.8096,4
1606935824.8116,2
1606935824.8136,16
1606935824.8156,101
1606935824.8176,274
1606935824.8183,366
1606935824.8206,214
1606935824.8226,81
1606935824.8246,115
1606935824.8266,45
1606935824.8286,-43
1606935824.8306,0
1606935824.8326,14
1606935824.8346,-19
1606935824.8366,-12
1606935824.8386,12
1606935824.8406,4
1606935824.8426,-2
1606935825.2731,0
1606935825.2740,2
1606935825.2758,16
1606935825.2782,21
1606935825.2801,4
1606935825.2821,-2
1606935825.2840,12
1606935825.2863,24
1606935825.2881,14
1606935825.2900,12
1606935825.2920,28
1606935825.2940,26
1606935825.2960,21
1606935825.2980,26
1606935825.3000,14
1606935825.3020,14
1606935825.3040,28
1606935825.3061,16
1606935825.3067,4
1606935825.3091,16
1606935825.3110,7
1606935825.3130,-7
1606935825.3150,-2
1606935825.3164,9
1606935825.3180,9
1606935825.3200,9
1606935825.3221,12
1606935825.3240,19
1606935825.3260,28
1606935825.3281,26
1606935825.3300,24
1606935825.3320,33
1606935825.3346,43
1606935825.3361,43
1606935825.3380,38
1606935825.3400,33
1606935825.3420,28
1606935825.3440,33
1606935825.3460,43
1606935825.3480,50
1606935825.3500,50
1606935825.3520,57
1606935825.3540,57
1606935825.3560,57
1606935825.3580,57
1606935825.3600,52
1606935825.3620,55
1606935825.3640,62
1606935825.3660,55
1606935825.3680,48
1606935825.3700,45
1606935825.3720,38
1606935825.3740,40
1606935825.3760,45
1606935825.3780,38
1606935825.3800,38
1606935825.3820,55
1606935825.3840,45
1606935825.3862,31
1606935825.3881,38
1606935825.3900,38
1606935825.3920,36
1606935825.3940,45
1606935825.3960,48
1606935825.3980,43
1606935825.4000,38
1606935825.4020,38
1606935825.4041,45
1606935825.4060,43
1606935825.4080,28
1606935825.4100,36
1606935825.4120,50
1606935825.4140,45
1606935825.8132,48
1606935825.8141,62
1606935825.8166,77
1606935825.8193,84
1606935825.8212,86
1606935825.8232,86
1606935825.8254,74
1606935825.8273,60
1606935825.8292,36
1606935825.8312,14
1606935825.8332,16
1606935825.8352,19
1606935825.8373,4
1606935825.8392,7
1606935825.8412,28
1606935825.8432,31
1606935825.8452,16
1606935825.8472,14
1606935825.8492,38
1606935825.8512,142
1606935825.8532,346
1606935825.8552,404
1606935825.8572,166
1606935825.8593,33
1606935825.8612,101
1606935825.8632,38
1606935825.8651,-40
1606935825.8672,2
1606935825.8692,4
1606935825.8712,-33
1606935825.8732,-7
1606935825.8752,16
1606935825.8773,-12
1606935825.8791,-19
1606935825.8811,9
1606935825.8831,9
1606935825.8854,-7
1606935825.8873,-7
1606935825.8891,4
1606935825.8911,12
1606935825.8931,9
1606935825.8951,7
1606935825.8972,14
1606935825.8991,24
1606935825.9011,24
1606935825.9031,24
1606935825.9051,21
1606935825.9072,19
1606935825.9091,28
1606935825.9111,28
1606935825.9131,16
1606935825.9151,14
1606935825.9173,0
1606935825.9191,-14
1606935825.9211,-4
1606935825.9231,0
1606935825.9251,-9
1606935825.9272,-12
1606935825.9291,-14
1606935825.9311,-16
1606935825.9331,-12
1606935825.9351,-7
1606935825.9372,0
1606935825.9391,0
1606935825.9411,-14
1606935825.9431,-19
1606935825.9451,-7
1606935825.9472,0
1606935825.9492,-7
1606935825.9512,-7
1606935825.9531,4
1606935825.9551,14
1606935825.9572,14
1606935826.4133,14
1606935826.4142,16
1606935826.4159,26
1606935826.4179,31
1606935826.4199,19
1606935826.4219,9
1606935826.4239,21
1606935826.4259,33
1606935826.4280,24
1606935826.4299,7
1606935826.4319,12
1606935826.4339,21
1606935826.4359,14
1606935826.4379,12
1606935826.4401,19
1606935826.4419,14
1606935826.4439,9
1606935826.4459,9
1606935826.4480,7
1606935826.4499,16
1606935826.4518,16
1606935826.4538,0
1606935826.4558,2
1606935826.4578,24
1606935826.4598,24
1606935826.4618,12
1606935826.4638,7
1606935826.4658,4
1606935826.4679,12
1606935826.4698,21
1606935826.4718,24
1606935826.4739,14
1606935826.4758,2
1606935826.4778,14
1606935826.4798,33
1606935826.4818,26
1606935826.4838,16
1606935826.4858,38
1606935826.4878,57
1606935826.4898,60
1606935826.4918,57
1606935826.4938,50
1606935826.4958,40
1606935826.4979,31
1606935826.4998,21
1606935826.5018,2
1606935826.5038,-2
1606935826.5058,9
1606935826.5078,7
1606935826.5098,0
1606935826.5118,9
1606935826.5138,9
1606935826.5158,-2
1606935826.5178,14
1606935826.5198,69
1606935826.5218,202
1606935826.5238,366
1606935826.5258,313
1606935826.5278,118
1606935826.5298,96
1606935826.5318,93
1606935826.5339,-2
1606935826.5358,-14
1606935826.5378,14
1606935826.5398,4
1606935826.5420,2
1606935826.5439,9
1606935826.5458,2
1606935826.5478,7
1606935826.5498,24
1606935826.5518,16
1606935826.5539,7
1606935826.5558,21
1606935826.9836,28
1606935826.9849,31
1606935826.9874,31
1606935826.9900,24
1606935826.9919,28
1606935826.9939,38
1606935826.9961,40
1606935826.9980,40
1606935826.9999,38
1606935827.0019,31
1606935827.0039,21
1606935827.0059,21
1606935827.0080,21
1606935827.0099,9
1606935827.0119,0
1606935827.0139,-7
1606935827.0159,-7
1606935827.0183,-2
1606935827.0200,-2
1606935827.0221,-14
1606935827.0241,-24
1606935827.0261,-12
1606935827.0281,0
1606935827.0301,-4
1606935827.0320,-12
1606935827.0340,-12
1606935827.0359,-7
1606935827.0381,-4
1606935827.0400,-9
1606935827.0422,-4
1606935827.0441,4
1606935827.0461,4
1606935827.0480,4
1606935827.0485,9
1606935827.0501,7
1606935827.0519,12
1606935827.0539,19
1606935827.0559,12
1606935827.0580,9
1606935827.0599,19
1606935827.0619,26
1606935827.0638,19
1606935827.0659,19
1606935827.0680,28
1606935827.0699,24
1606935827.0718,14
1606935827.0739,19
1606935827.0758,24
1606935827.0779,24
1606935827.0785,24
1606935827.0799,21
1606935827.0818,14
1606935827.0838,16
1606935827.0859,21
1606935827.0879,16
1606935827.0899,9
1606935827.0919,9
1606935827.0938,12
1606935827.0958,14
1606935827.0979,12
1606935827.0999,12
1606935827.1019,14
1606935827.1038,12
1606935827.1058,12
1606935827.1079,7
1606935827.1085,7
1606935827.1099,19
1606935827.1118,21
1606935827.1139,9
1606935827.1159,12
1606935827.1179,21
1606935827.1199,24
1606935827.1219,21
1606935827.5231,26
1606935827.5241,48
1606935827.5265,62
1606935827.5291,52
1606935827.5311,40
1606935827.5331,33
1606935827.5338,14
1606935827.5351,-9
1606935827.5372,-26
1606935827.5390,-33
1606935827.5412,-33
1606935827.5431,-45
1606935827.5450,-52
1606935827.5471,-31
1606935827.5490,-21
1606935827.5510,-43
1606935827.5530,-38
1606935827.5550,19
1606935827.5571,151
1606935827.5590,308
1606935827.5610,243
1606935827.5632,55
1606935827.5637,38
1606935827.5652,16
1606935827.5671,-77
1606935827.5690,-72
1606935827.5710,-50
1606935827.5730,-74
1606935827.5750,-74
1606935827.5771,-60
1606935827.5790,-67
1606935827.5810,-69
1606935827.5830,-67
1606935827.5850,-67
1606935827.5871,-72
1606935827.5890,-72
1606935827.5910,-67
1606935827.5917,-62
1606935827.5930,-62
1606935827.5950,-65
1606935827.5971,-62
1606935827.5990,-57
1606935827.6010,-52
1606935827.6031,-48
1606935827.6050,-50
1606935827.6071,-52
1606935827.6090,-52
1606935827.6110,-52
1606935827.6130,-60
1606935827.6150,-72
1606935827.6171,-77
1606935827.6190,-74
1606935827.6210,-79
1606935827.6217,-89
1606935827.6230,-91
1606935827.6250,-89
1606935827.6271,-89
1606935827.6290,-84
1606935827.6310,-79
1606935827.6331,-79
1606935827.6350,-77
1606935827.6371,-74
1606935827.6390,-72
1606935827.6410,-69
1606935827.6430,-69
1606935827.6450,-72
1606935827.6471,-69
1606935827.6490,-65
1606935827.6510,-62
1606935827.6517,-60
1606935827.6531,-55
1606935827.6550,-52
1606935827.6573,-52
1606935828.0635,-52
1606935828.0644,-48
1606935828.0668,-38
1606935828.0695,-40
1606935828.0715,-43
1606935828.0735,-38
1606935828.0756,-38
1606935828.0776,-45
1606935828.0794,-52
1606935828.0814,-55
1606935828.0834,-55
1606935828.0855,-62
1606935828.0861,-65
1606935828.0876,-65
1606935828.0894,-60
1606935828.0914,-60
1606935828.0935,-60
1606935828.0954,-55
1606935828.0974,-55
1606935828.0994,-55
1606935828.1014,-52
1606935828.1034,-48
1606935828.1054,-48
1606935828.1074,-50
1606935828.1094,-50
1606935828.1114,-45
1606935828.1134,-36
1606935828.1154,-31
1606935828.1236,-33
1606935828.1254,-36
1606935828.1275,-36
1606935828.1294,-33
1606935828.1314,-28
1606935828.1334,-26
1606935828.1354,-26
1606935828.1374,-33
1606935828.1394,-31
1606935828.1414,-21
1606935828.1434,-21
1606935828.1455,-19
1606935828.1474,-4
1606935828.1494,9
1606935828.1515,4
1606935828.1521,-4
1606935828.1533,-9
1606935828.1554,-19
1606935828.1574,-38
1606935828.1594,-52
1606935828.1614,-57
1606935828.1634,-52
1606935828.1656,-48
1606935828.1674,-48
1606935828.1694,-43
1606935828.1714,-36
1606935828.1734,-40
1606935828.1754,-40
1606935828.1774,9
1606935828.1794,163
1606935828.1814,322
1606935828.1821,250
1606935828.1834,62
1606935828.1854,52
1606935828.1874,40
1606935828.1894,-60
1606935828.1914,-55
1606935828.1934,-24
1606935828.1954,-52
1606935828.1974,-60
1606935828.1994,-38
1606935828.2015,-38
1606935828.2034,-38
1606935828.2054,-28
1606935828.2074,-24
1606935828.6330,-24
1606935828.6337,-21
1606935828.6361,-19
1606935828.6389,-24
1606935828.6408,-28
1606935828.6428,-33
1606935828.6449,-33
1606935828.6467,-24
1606935828.6487,-14
1606935828.6507,-12
1606935828.6527,-14
1606935828.6547,-9
1606935828.6568,-4
1606935828.6587,-12
1606935828.6607,-16
1606935828.6615,-19
1606935828.6637,-21
1606935828.6657,-31
1606935828.6677,-33
1606935828.6697,-33
1606935828.6717,-36
1606935828.6737,-36
1606935828.6757,-31
1606935828.6777,-24
1606935828.6797,-19
1606935828.6817,-12
1606935828.6837,-4
1606935828.6857,4
1606935828.6879,9
1606935828.6898,7
1606935828.6917,7
1606935828.6924,12
1606935828.6947,16
1606935828.6967,19
1606935828.6987,24
1606935828.7007,28
1606935828.7028,31
1606935828.7047,33
1606935828.7067,36
1606935828.7087,40
1606935828.7107,43
1606935828.7127,43
1606935828.7147,40
1606935828.7167,45
1606935828.7187,45
1606935828.7207,38
1606935828.7227,36
1606935828.7234,38
1606935828.7257,38
1606935828.7277,36
1606935828.7297,38
1606935828.7317,40
1606935828.7337,40
1606935828.7357,38
1606935828.7377,33
1606935828.7397,33
1606935828.7418,38
1606935828.7438,40
1606935828.7457,38
1606935828.7478,36
1606935828.7497,38
1606935828.7517,43
1606935828.7537,45
1606935828.7544,45
1606935828.7567,43
1606935828.7587,43
1606935828.7607,45
1606935828.7627,48
1606935828.7648,50
1606935828.7667,50
1606935828.7687,45
1606935828.7707,43
1606935828.7727,45
1606935829.1728,57
1606935829.1736,65
1606935829.1759,67
1606935829.1786,77
1606935829.1806,89
1606935829.1826,91
1606935829.1836,74
1606935829.1857,62
1606935829.1876,60
1606935829.1896,45
1606935829.1916,24
1606935829.1936,14
1606935829.1956,19
1606935829.1976,24
1606935829.1996,26
1606935829.2017,33
1606935829.2036,38
1606935829.2056,33
1606935829.2075,26
1606935829.2096,65
1606935829.2115,204
1606935829.2136,402
1606935829.2142,378
1606935829.2155,108
1606935829.2176,38
1606935829.2196,125
1606935829.2216,45
1606935829.2236,-14
1606935829.2255,31
1606935829.2276,28
1606935829.2295,2
1606935829.2316,19
1606935829.2336,28
1606935829.2356,21
1606935829.2376,26
1606935829.2395,33
1606935829.2416,31
1606935829.2436,31
1606935829.2443,36
1606935829.2456,38
1606935829.2476,36
1606935829.2495,38
1606935829.2515,43
1606935829.2536,45
1606935829.2556,45
1606935829.2576,48
1606935829.2595,48
1606935829.2616,45
1606935829.2636,45
1606935829.2656,45
1606935829.2675,43
1606935829.2696,43
1606935829.2715,40
1606935829.2735,36
1606935829.2742,28
1606935829.2756,26
1606935829.2775,24
1606935829.2798,16
1606935829.2816,16
1606935829.2836,21
1606935829.2856,26
1606935829.2876,24
1606935829.2895,24
1606935829.2915,21
1606935829.2936,19
1606935829.2955,19
1606935829.2976,19
1606935829.2995,24
1606935829.3015,26
1606935829.3036,24
1606935829.3042,26
1606935829.3056,28
1606935829.3076,33
1606935829.8031,38
1606935829.8040,43
1606935829.8064,45
1606935829.8092,38
1606935829.8111,33
1606935829.8131,38
1606935829.8152,43
1606935829.8171,40
1606935829.8191,38
1606935829.8211,40
1606935829.8231,38
1606935829.8238,33
1606935829.8251,33
1606935829.8271,33
1606935829.8290,33
1606935829.8311,31
1606935829.8330,28
1606935829.8350,31
1606935829.8372,31
1606935829.8390,31
1606935829.8410,28
1606935829.8430,31
1606935829.8450,36
1606935829.8471,33
1606935829.8490,33
1606935829.8511,36
1606935829.8530,38
1606935829.8537,33
1606935829.8550,31
1606935829.8571,31
1606935829.8590,33
1606935829.8610,33
1606935829.8632,33
1606935829.8651,33
1606935829.8671,33
1606935829.8692,36
1606935829.8711,40
1606935829.8730,50
1606935829.8750,52
1606935829.8771,55
1606935829.8790,67
1606935829.8810,86
1606935829.8830,89
1606935829.8837,79
1606935829.8850,74
1606935829.8872,69
1606935829.8890,52
1606935829.8910,36
1606935829.8930,24
1606935829.8951,21
1606935829.8971,26
1606935829.8990,26
1606935829.9010,31
1606935829.9030,36
1606935829.9050,33
1606935829.9071,21
1606935829.9090,33
1606935829.9110,125
1606935829.9130,308
1606935829.9138,399
1606935829.9151,245
1606935829.9171,105
1606935829.9190,110
1606935829.9211,40
1606935829.9231,-24
1606935829.9251,9
1606935829.9271,14
1606935829.9291,-7
1606935829.9310,2
1606935829.9330,12
1606935829.9351,4
1606935829.9371,7
1606935829.9390,16
1606935830.3731,19
1606935830.3741,19
1606935830.3765,21
1606935830.3792,26
1606935830.3812,28
1606935830.3832,31
1606935830.3852,31
1606935830.3873,31
1606935830.3893,28
1606935830.3911,21
1606935830.3931,24
1606935830.3951,28
1606935830.3972,24
1606935830.3993,14
1606935830.4011,14
1606935830.4031,16
1606935830.4038,12
1606935830.4051,7
1606935830.4072,4
1606935830.4091,0
1606935830.4111,-7
1606935830.4131,-7
1606935830.4151,-2
1606935830.4172,2
1606935830.4191,4
1606935830.4212,12
1606935830.4231,16
1606935830.4251,21
1606935830.4272,26
1606935830.4291,28
1606935830.4311,33
1606935830.4331,36
1606935830.4338,38
1606935830.4351,40
1606935830.4371,45
1606935830.4391,48
1606935830.4411,48
1606935830.4431,50
1606935830.4451,52
1606935830.4472,57
1606935830.4491,57
1606935830.4511,60
1606935830.4531,62
1606935830.4551,62
1606935830.4572,62
1606935830.4591,62
1606935830.4611,62
1606935830.4631,62
1606935830.4638,60
1606935830.4651,55
1606935830.4673,52
1606935830.4691,52
1606935830.4711,52
1606935830.4731,52
1606935830.4751,52
1606935830.4771,52
1606935830.4791,50
1606935830.4811,52
1606935830.4831,55
1606935830.4851,52
1606935830.4872,52
1606935830.4891,52
1606935830.4911,52
1606935830.4931,52
1606935830.4939,55
1606935830.4952,55
1606935830.4972,55
1606935830.4991,52
1606935830.5011,52
1606935830.5031,57
1606935830.5051,57
1606935830.5072,57
1606935830.5091,57
1606935830.8833,57
1606935830.8840,60
1606935830.8864,69
1606935830.8891,74
1606935830.8911,77
1606935830.8917,89
1606935830.8931,101
1606935830.8952,103
1606935830.8971,96
1606935830.8990,93
1606935830.9010,81
1606935830.9030,62
1606935830.9050,45
1606935830.9071,28
1606935830.9090,16
1606935830.9110,19
1606935830.9130,26
1606935830.9150,26
1606935830.9171,26
1606935830.9190,28
1606935830.9211,26
1606935830.9216,38
1606935830.9230,118
1606935830.9250,293
1606935830.9270,397
1606935830.9290,260
1606935830.9310,115
1606935830.9330,118
1606935830.9350,55
1606935830.9370,-19
1606935830.9390,9
1606935830.9410,16
1606935830.9430,-7
1606935830.9450,0
1606935830.9470,12
1606935830.9490,9
1606935830.9510,12
1606935830.9516,19
1606935830.9530,19
1606935830.9550,21
1606935830.9571,24
1606935830.9590,19
1606935830.9612,14
1606935830.9630,14
1606935830.9650,19
1606935830.9671,21
1606935830.9690,21
1606935830.9710,24
1606935830.9730,26
1606935830.9750,26
1606935830.9771,26
1606935830.9790,28
1606935830.9810,28
1606935830.9817,26
1606935830.9830,24
1606935830.9850,19
1606935830.9871,14
1606935830.9890,12
1606935830.9910,9
1606935830.9930,7
1606935830.9950,7
1606935830.9971,7
1606935830.9990,14
1606935831.0014,19
1606935831.0030,24
1606935831.0050,28
1606935831.0070,31
1606935831.0090,33
1606935831.0110,36
1606935831.0117,40
1606935831.0130,45
1606935831.0150,48
1606935831.0171,48
1606935831.4534,50
1606935831.4544,48
1606935831.4568,48
1606935831.4594,48
1606935831.4614,50
1606935831.4634,52
1606935831.4655,50
1606935831.4674,43
1606935831.4694,40
1606935831.4714,48
1606935831.4721,48
1606935831.4734,43
1606935831.4754,43
1606935831.4774,45
1606935831.4793,43
1606935831.4814,40
1606935831.4834,40
1606935831.4854,40
1606935831.4874,38
1606935831.4893,40
1606935831.4915,43
1606935831.4934,40
1606935831.4953,40
1606935831.4974,40
1606935831.4993,40
1606935831.5014,40
1606935831.5020,40
1606935831.5034,43
1606935831.5053,40
1606935831.5074,43
1606935831.5093,43
1606935831.5114,43
1606935831.5133,43
1606935831.5154,40
1606935831.5173,38
1606935831.5193,36
1606935831.5213,36
1606935831.5233,40
1606935831.5253,43
1606935831.5274,43
1606935831.5293,45
1606935831.5313,45
1606935831.5321,43
1606935831.5333,48
1606935831.5353,62
1606935831.5374,65
1606935831.5393,67
1606935831.5413,81
1606935831.5434,96
1606935831.5453,96
1606935831.5474,86
1606935831.5493,81
1606935831.5514,72
1606935831.5533,55
1606935831.5553,36
1606935831.5574,28
1606935831.5594,31
1606935831.5613,36
1606935831.5620,38
1606935831.5634,38
1606935831.5654,38
1606935831.5674,36
1606935831.5693,38
1606935831.5713,81
1606935831.5733,211
1606935831.5753,385
1606935831.5774,354
1606935831.5793,142
1606935831.5813,98
1606935831.5833,110
1606935831.5853,16
1606935831.5876,-4
1606935831.5894,31
1606935831.9934,12
1606935831.9944,0
1606935831.9968,19
1606935831.9995,21
1606935832.0016,16
1606935832.0034,21
1606935832.0056,24
1606935832.0075,24
1606935832.0094,24
1606935832.0114,19
1606935832.0134,19
1606935832.0154,21
1606935832.0174,21
1606935832.0181,21
1606935832.0204,26
1606935832.0210,31
1606935832.0223,28
1606935832.0243,31
1606935832.0263,36
1606935832.0283,36
1606935832.0305,36
1606935832.0323,33
1606935832.0343,31
1606935832.0363,28
1606935832.0384,21
1606935832.0403,16
1606935832.0423,9
1606935832.0443,2
1606935832.0463,0
1606935832.0484,7
1606935832.0489,9
1606935832.0503,9
1606935832.0524,14
1606935832.0543,21
1606935832.0563,24
1606935832.0584,24
1606935832.0603,26
1606935832.0624,36
1606935832.0643,40
1606935832.0663,45
1606935832.0683,45
1606935832.0703,48
1606935832.0723,48
1606935832.0743,52
1606935832.0763,57
1606935832.0784,62
1606935832.0789,60
1606935832.0803,60
1606935832.0823,60
1606935832.0845,60
1606935832.0864,62
1606935832.0883,60
1606935832.0903,55
1606935832.0923,55
1606935832.0943,55
1606935832.0963,57
1606935832.0984,57
1606935832.1003,55
1606935832.1024,52
1606935832.1043,50
1606935832.1063,48
1606935832.1083,43
1606935832.1089,43
1606935832.1103,50
1606935832.1123,52
1606935832.1143,52
1606935832.1163,52
1606935832.1183,52
1606935832.1203,57
1606935832.1223,55
1606935832.1243,48
1606935832.1263,50
1606935832.1284,60
1606935832.5934,62
1606935832.5944,57
1606935832.5968,55
1606935832.5979,60
1606935832.5995,65
1606935832.6015,57
1606935832.6035,55
1606935832.6055,67
1606935832.6075,77
1606935832.6094,84
1606935832.6114,96
1606935832.6134,98
1606935832.6154,91
1606935832.6175,84
1606935832.6194,74
1606935832.6214,62
1606935832.6234,48
1606935832.6254,33
1606935832.6275,33
1606935832.6280,33
1606935832.6294,26
1606935832.6314,28
1606935832.6334,40
1606935832.6354,45
1606935832.6374,48
1606935832.6394,105
1606935832.6414,269
1606935832.6436,440
1606935832.6454,337
1606935832.6475,65
1606935832.6494,45
1606935832.6514,113
1606935832.6534,28
1606935832.6554,4
1606935832.6574,55
1606935832.6580,48
1606935832.6594,21
1606935832.6614,33
1606935832.6634,48
1606935832.6654,43
1606935832.6674,40
1606935832.6695,52
1606935832.6714,65
1606935832.6734,67
1606935832.6754,69
1606935832.6774,62
1606935832.6794,60
1606935832.6814,74
1606935832.6834,77
1606935832.6854,65
1606935832.6874,69
1606935832.6880,91
1606935832.6894,93
1606935832.6914,93
1606935832.6934,89
1606935832.6954,74
1606935832.6974,72
1606935832.6994,89
1606935832.7015,84
1606935832.7034,57
1606935832.7054,55
1606935832.7074,57
1606935832.7094,60
1606935832.7114,55
1606935832.7134,36
1606935832.7154,38
1606935832.7174,60
1606935832.7182,67
1606935832.7205,81
1606935832.7224,89
1606935832.7244,62
1606935832.7264,62
1606935832.7284,93
1606935833.1330,93
1606935833.1336,101
1606935833.1356,120
1606935833.1376,79
1606935833.1395,65
1606935833.1417,122
1606935833.1437,142
1606935833.1456,110
1606935833.1475,101
1606935833.1480,113
1606935833.1494,118
1606935833.1514,113
1606935833.1535,93
1606935833.1554,93
1606935833.1574,115
1606935833.1595,105
1606935833.1616,81
1606935833.1634,96
1606935833.1654,122
1606935833.1674,86
1606935833.1694,62
1606935833.1714,115
1606935833.1735,115
1606935833.1754,72
1606935833.1774,81
1606935833.1784,77
1606935833.1805,77
1606935833.1825,110
1606935833.1845,89
1606935833.1866,62
1606935833.1884,96
1606935833.1904,108
1606935833.1924,77
1606935833.1944,69
1606935833.1964,81
1606935833.1984,84
1606935833.2004,101
1606935833.2025,142
1606935833.2044,146
1606935833.2064,115
1606935833.2084,86
1606935833.2092,81
1606935833.2114,86
1606935833.2135,65
1606935833.2155,57
1606935833.2175,72
1606935833.2195,52
1606935833.2215,52
1606935833.2235,86
1606935833.2255,81
1606935833.2274,118
1606935833.2295,305
1606935833.2314,505
1606935833.2331,397
1606935833.2348,-45
1606935833.2372,-216
1606935833.2396,79
1606935833.2415,161
1606935833.2436,14
1606935833.2446,74
1606935833.2464,113
1606935833.2484,21
1606935833.2506,50
1606935833.2525,125
1606935833.2546,81
1606935833.2565,33
1606935833.2586,60
1606935833.2604,93
1606935833.2624,89
1606935833.2647,84
1606935833.2664,91
1606935833.2685,86
1606935833.2705,86
1606935833.7026,96
1606935833.7033,96
1606935833.7045,125
1606935833.7065,132
1606935833.7085,74
1606935833.7107,81
1606935833.7125,134
1606935833.7145,89
1606935833.7165,55
1606935833.7185,98
1606935833.7206,89
1606935833.7225,50
1606935833.7245,57
1606935833.7265,50
1606935833.7271,21
1606935833.7285,38
1606935833.7306,55
1606935833.7326,38
1606935833.7345,43
1606935833.7365,45
1606935833.7386,36
1606935833.7405,48
1606935833.7425,45
1606935833.7445,26
1606935833.7465,28
1606935833.7485,48
1606935833.7505,57
1606935833.7525,55
1606935833.7545,65
1606935833.7565,74
1606935833.7572,69
1606935833.7585,65
1606935833.7605,77
1606935833.7622,93
1606935833.7637,86
1606935833.7656,67
1606935833.7677,77
1606935833.7696,96
1606935833.7715,81
1606935833.7735,60
1606935833.7755,69
1606935833.7775,81
1606935833.7795,79
1606935833.7815,67
1606935833.7836,52
1606935833.7842,60
1606935833.7855,57
1606935833.7876,52
1606935833.7897,65
1606935833.7916,65
1606935833.7935,52
1606935833.7955,55
1606935833.7975,62
1606935833.7995,48
1606935833.8014,33
1606935833.8036,45
1606935833.8055,52
1606935833.8075,72
1606935833.8095,113
1606935833.8115,122
1606935833.8135,93
1606935833.8147,69
1606935833.8165,50
1606935833.8185,38
1606935833.8205,40
1606935833.8225,50
1606935833.8245,43
1606935833.8264,21
1606935833.8285,24
1606935833.8305,48
1606935833.8325,57
1606935833.8345,60
1606935833.8366,115
1606935834.2425,277
1606935834.2440,392
1606935834.2452,144
1606935834.2471,-209
1606935834.2491,-81
1606935834.2511,149
1606935834.2531,40
1606935834.2551,-19
1606935834.2571,67
1606935834.2591,55
1606935834.2611,9
1606935834.2631,38
1606935834.2652,57
1606935834.2674,38
1606935834.2691,38
1606935834.2711,50
1606935834.2717,50
1606935834.2731,55
1606935834.2751,65
1606935834.2771,65
1606935834.2791,65
1606935834.2811,62
1606935834.2831,62
1606935834.2851,72
1606935834.2871,72
1606935834.2891,69
1606935834.2911,72
1606935834.2947,62
1606935834.2961,60
1606935834.2981,65
1606935834.3001,57
1606935834.3021,50
1606935834.3027,40
1606935834.3064,21
1606935834.3081,14
1606935834.3101,14
1606935834.3121,12
1606935834.3141,12
1606935834.3161,28
1606935834.3181,43
1606935834.3201,38
1606935834.3221,31
1606935834.3241,40
1606935834.3261,60
1606935834.3281,62
1606935834.3302,48
1606935834.3321,43
1606935834.3341,55
1606935834.3347,62
1606935834.3361,50
1606935834.3381,48
1606935834.3401,69
1606935834.3421,69
1606935834.3441,48
1606935834.3461,45
1606935834.3481,60
1606935834.3501,81
1606935834.3521,72
1606935834.3541,43
1606935834.3561,48
1606935834.3581,60
1606935834.3601,57
1606935834.3621,55
1606935834.3643,50
1606935834.3647,40
1606935834.3662,33
1606935834.3681,31
1606935834.3701,36
1606935834.3721,43
1606935834.3742,40
1606935834.3762,26
1606935834.3781,26
1606935834.3803,33
1606935834.8127,38
1606935834.8134,45
1606935834.8152,67
1606935834.8171,98
1606935834.8190,105
1606935834.8210,67
1606935834.8230,36
1606935834.8250,38
1606935834.8272,38
1606935834.8291,21
1606935834.8311,16
1606935834.8317,14
1606935834.8331,2
1606935834.8350,12
1606935834.8371,28
1606935834.8390,21
1606935834.8410,36
1606935834.8430,127
1606935834.8450,313
1606935834.8471,436
1606935834.8490,163
1606935834.8510,-226
1606935834.8530,-113
1606935834.8550,125
1606935834.8571,36
1606935834.8590,-19
1606935834.8611,55
1606935834.8616,43
1606935834.8630,2
1606935834.8650,16
1606935834.8670,31
1606935834.8690,28
1606935834.8710,38
1606935834.8730,40
1606935834.8750,33
1606935834.8771,36
1606935834.8790,48
1606935834.8810,55
1606935834.8830,55
1606935834.8850,48
1606935834.8871,48
1606935834.8891,57
1606935834.8911,55
1606935834.8916,52
1606935834.8930,55
1606935834.8950,40
1606935834.8969,26
1606935834.8989,36
1606935834.9010,36
1606935834.9030,21
1606935834.9050,12
1606935834.9070,7
1606935834.9090,2
1606935834.9111,2
1606935834.9135,7
1606935834.9151,16
1606935834.9171,31
1606935834.9191,33
1606935834.9211,31
1606935834.9216,43
1606935834.9230,57
1606935834.9250,52
1606935834.9271,48
1606935834.9290,60
1606935834.9310,65
1606935834.9330,52
1606935834.9350,60
1606935834.9370,72
1606935834.9389,69
1606935834.9409,65
1606935834.9429,65
1606935834.9450,62
1606935834.9471,60
1606935835.3530,60
1606935835.3539,57
1606935835.3544,60
1606935835.3571,57
1606935835.3590,43
1606935835.3610,38
1606935835.3630,50
1606935835.3651,43
1606935835.3670,31
1606935835.3689,26
1606935835.3709,24
1606935835.3729,21
1606935835.3749,24
1606935835.3770,31
1606935835.3789,26
1606935835.3809,36
1606935835.3829,69
1606935835.3849,93
1606935835.3855,77
1606935835.3871,45
1606935835.3889,33
1606935835.3909,31
1606935835.3929,16
1606935835.3949,-2
1606935835.3969,-7
1606935835.3990,2
1606935835.4009,12
1606935835.4029,14
1606935835.4049,12
1606935835.4069,7
1606935835.4089,19
1606935835.4109,105
1606935835.4129,313
1606935835.4149,462
1606935835.4155,216
1606935835.4170,-108
1606935835.4189,-9
1606935835.4208,113
1606935835.4229,-4
1606935835.4249,-31
1606935835.4269,28
1606935835.4288,9
1606935835.4308,-9
1606935835.4328,12
1606935835.4349,21
1606935835.4369,16
1606935835.4388,21
1606935835.4408,24
1606935835.4428,28
1606935835.4435,33
1606935835.4449,28
1606935835.4469,21
1606935835.4489,28
1606935835.4508,38
1606935835.4529,36
1606935835.4548,33
1606935835.4569,40
1606935835.4589,43
1606935835.4608,38
1606935835.4629,36
1606935835.4649,38
1606935835.4670,31
1606935835.4688,19
1606935835.4709,12
1606935835.4728,9
1606935835.4735,0
1606935835.4748,-7
1606935835.4769,-12
1606935835.4788,-12
1606935835.4808,-2
1606935835.4830,4
1606935835.4849,9
1606935835.4870,19
1606935835.9237,31
1606935835.9247,38
1606935835.9262,38
1606935835.9282,38
1606935835.9302,36
1606935835.9322,31
1606935835.9342,33
1606935835.9362,40
1606935835.9370,40
1606935835.9382,38
1606935835.9402,40
1606935835.9422,43
1606935835.9442,43
1606935835.9462,40
1606935835.9482,43
1606935835.9502,40
1606935835.9522,36
1606935835.9542,36
1606935835.9562,36
1606935835.9582,36
1606935835.9601,31
1606935835.9621,26
1606935835.9641,26
1606935835.9661,24
1606935835.9667,21
1606935835.9681,26
1606935835.9701,33
1606935835.9721,50
1606935835.9741,72
1606935835.9761,67
1606935835.9781,48
1606935835.9801,31
1606935835.9821,19
1606935835.9841,2
1606935835.9861,-12
1606935835.9881,-9
1606935835.9901,-7
1606935835.9921,-4
1606935835.9941,0
1606935835.9961,0
1606935835.9967,-4
1606935835.9981,-9
1606935836.0001,40
1606935836.0021,216
1606935836.0041,428
1606935836.0061,334
1606935836.0081,2
1606935836.0101,-33
1606935836.0123,77
1606935836.0141,-12
1606935836.0160,-62
1606935836.0181,-12
1606935836.0201,-19
1606935836.0221,-43
1606935836.0241,-21
1606935836.0261,-19
1606935836.0267,-28
1606935836.0281,-19
1606935836.0301,-12
1606935836.0321,-19
1606935836.0341,-14
1606935836.0361,-4
1606935836.0381,-4
1606935836.0401,-12
1606935836.0421,-12
1606935836.0441,-2
1606935836.0461,2
1606935836.0481,2
1606935836.0501,4
1606935836.0521,9
1606935836.0541,7
1606935836.0561,2
1606935836.0567,2
1606935836.5233,-2
1606935836.5242,-14
1606935836.5267,-24
1606935836.5293,-31
1606935836.5314,-33
1606935836.5333,-43
1606935836.5354,-48
1606935836.5374,-45
1606935836.5394,-33
1606935836.5413,-21
1606935836.5433,-14
1606935836.5453,-4
1606935836.5460,4
1606935836.5474,7
1606935836.5493,9
1606935836.5513,14
1606935836.5533,16
1606935836.5553,16
1606935836.5573,16
1606935836.5593,24
1606935836.5613,31
1606935836.5633,26
1606935836.5653,26
1606935836.5672,28
1606935836.5692,33
1606935836.5712,31
1606935836.5734,28
1606935836.5753,26
1606935836.5758,26
1606935836.5773,24
1606935836.5792,19
1606935836.5812,16
1606935836.5833,16
1606935836.5852,14
1606935836.5873,12
1606935836.5892,7
1606935836.5912,2
1606935836.5932,2
1606935836.5952,7
1606935836.5973,7
1606935836.5992,16
1606935836.6013,43
1606935836.6032,62
1606935836.6052,50
1606935836.6058,28
1606935836.6073,19
1606935836.6092,9
1606935836.6112,-7
1606935836.6132,-16
1606935836.6152,-12
1606935836.6173,-9
1606935836.6193,-12
1606935836.6212,-9
1606935836.6232,-4
1606935836.6252,-12
1606935836.6273,-14
1606935836.6292,40
1606935836.6312,209
1606935836.6332,395
1606935836.6352,325
1606935836.6358,84
1606935836.6373,43
1606935836.6392,65
1606935836.6412,-24
1606935836.6432,-43
1606935836.6452,-7
1606935836.6472,-24
1606935836.6492,-31
1606935836.6513,-14
1606935836.6532,-14
1606935836.6552,-14
1606935836.6573,-7
1606935836.6592,-4
1606935837.0632,-4
1606935837.0641,-2
1606935837.0666,0
1606935837.0677,2
1606935837.0695,4
1606935837.0713,9
1606935837.0732,12
1606935837.0752,14
1606935837.0772,14
1606935837.0791,14
1606935837.0811,12
1606935837.0831,4
1606935837.0851,-2
1606935837.0872,-2
1606935837.0892,-7
1606935837.0911,-14
1606935837.0931,-19
1606935837.0952,-24
1606935837.0973,-31
1606935837.0978,-38
1606935837.0991,-38
1606935837.1011,-36
1606935837.1031,-26
1606935837.1051,-19
1606935837.1072,-9
1606935837.1091,2
1606935837.1111,9
1606935837.1131,12
1606935837.1151,14
1606935837.1171,16
1606935837.1191,21
1606935837.1211,24
1606935837.1231,26
1606935837.1251,28
1606935837.1272,28
1606935837.1277,28
1606935837.1291,31
1606935837.1311,33
1606935837.1331,31
1606935837.1351,31
1606935837.1371,31
1606935837.1391,28
1606935837.1411,26
1606935837.1431,26
1606935837.1451,24
1606935837.1471,24
1606935837.1491,21
1606935837.1511,19
1606935837.1531,19
1606935837.1551,19
1606935837.1571,16
1606935837.1577,14
1606935837.1591,16
1606935837.1611,16
1606935837.1631,14
1606935837.1653,16
1606935837.1672,19
1606935837.1691,24
1606935837.1712,24
1606935837.1732,36
1606935837.1752,62
1606935837.1772,74
1606935837.1791,57
1606935837.1812,38
1606935837.1832,36
1606935837.1852,21
1606935837.1872,2
1606935837.1877,-4
1606935837.1891,0
1606935837.1911,0
1606935837.1931,0
1606935837.1951,2
1606935837.1971,4
1606935837.6335,-2
1606935837.6344,-9
1606935837.6368,33
1606935837.6379,173
1606935837.6395,351
1606935837.6415,327
1606935837.6435,132
1606935837.6456,79
1606935837.6476,67
1606935837.6495,-31
1606935837.6515,-45
1606935837.6535,-9
1606935837.6555,-28
1606935837.6575,-38
1606935837.6594,-19
1606935837.6614,-16
1606935837.6635,-21
1606935837.6655,-14
1606935837.6674,-7
1606935837.6680,-9
1606935837.6694,-12
1606935837.6715,-12
1606935837.6735,-9
1606935837.6754,-4
1606935837.6775,-4
1606935837.6794,-2
1606935837.6814,2
1606935837.6834,7
1606935837.6854,9
1606935837.6874,9
1606935837.6894,12
1606935837.6914,9
1606935837.6934,4
1606935837.6956,0
1606935837.6975,0
1606935837.6980,-7
1606935837.6994,-14
1606935837.7014,-19
1606935837.7034,-21
1606935837.7054,-24
1606935837.7075,-24
1606935837.7094,-16
1606935837.7114,-12
1606935837.7134,-7
1606935837.7154,0
1606935837.7174,9
1606935837.7194,14
1606935837.7214,19
1606935837.7234,21
1606935837.7254,24
1606935837.7274,26
1606935837.7280,26
1606935837.7294,26
1606935837.7314,31
1606935837.7334,31
1606935837.7354,28
1606935837.7374,28
1606935837.7394,31
1606935837.7414,31
1606935837.7434,31
1606935837.7454,33
1606935837.7474,33
1606935837.7494,33
1606935837.7514,33
1606935837.7534,31
1606935837.7554,28
1606935837.7575,26
1606935837.7580,24
1606935837.7594,24
1606935837.7614,24
1606935837.7634,21
1606935837.7654,21
1606935837.7674,21
1606935838.1730,24
1606935838.1739,24
1606935838.1763,21
1606935838.1780,21
1606935838.1800,26
1606935838.1820,31
1606935838.1840,31
1606935838.1860,31
1606935838.1881,50
1606935838.1885,72
1606935838.1900,65
1606935838.1922,40
1606935838.1940,31
1606935838.1959,21
1606935838.1980,2
1606935838.2000,-12
1606935838.2020,-9
1606935838.2039,-7
1606935838.2059,-7
1606935838.2080,-4
1606935838.2100,0
1606935838.2119,-2
1606935838.2140,-9
1606935838.2159,-2
1606935838.2180,72
1606935838.2185,248
1606935838.2199,356
1606935838.2219,219
1606935838.2239,74
1606935838.2259,89
1606935838.2280,31
1606935838.2299,-48
1606935838.2319,-19
1606935838.2339,-7
1606935838.2359,-33
1606935838.2380,-24
1606935838.2400,-12
1606935838.2419,-19
1606935838.2439,-16
1606935838.2459,-7
1606935838.2479,-7
1606935838.2485,-9
1606935838.2499,-7
1606935838.2519,-7
1606935838.2539,-7
1606935838.2559,-7
1606935838.2579,-2
1606935838.2599,0
1606935838.2619,0
1606935838.2639,0
1606935838.2659,4
1606935838.2680,7
1606935838.2700,4
1606935838.2719,2
1606935838.2739,-2
1606935838.2759,-9
1606935838.2780,-16
1606935838.2785,-21
1606935838.2799,-24
1606935838.2819,-28
1606935838.2839,-33
1606935838.2859,-31
1606935838.2881,-26
1606935838.2900,-21
1606935838.2919,-14
1606935838.2939,-9
1606935838.2959,-2
1606935838.2972,4
1606935838.2989,7
1606935838.3009,12
1606935838.3030,16
1606935838.3049,19
1606935838.3055,16
1606935838.7430,19
1606935838.7439,24
1606935838.7465,26
1606935838.7491,24
1606935838.7511,26
1606935838.7530,24
1606935838.7551,16
1606935838.7571,9
1606935838.7590,12
1606935838.7610,14
1606935838.7630,12
1606935838.7650,9
1606935838.7670,12
1606935838.7675,14
1606935838.7690,9
1606935838.7710,7
1606935838.7730,7
1606935838.7750,7
1606935838.7770,4
1606935838.7789,7
1606935838.7809,9
1606935838.7831,9
1606935838.7850,7
1606935838.7870,9
1606935838.7889,12
1606935838.7909,12
1606935838.7929,12
1606935838.7949,12
1606935838.7970,12
1606935838.7975,14
1606935838.7989,19
1606935838.8009,24
1606935838.8030,24
1606935838.8049,33
1606935838.8070,60
1606935838.8089,74
1606935838.8109,57
1606935838.8129,40
1606935838.8149,33
1606935838.8170,21
1606935838.8191,4
1606935838.8210,-2
1606935838.8229,2
1606935838.8249,2
1606935838.8270,2
1606935838.8275,4
1606935838.8289,4
1606935838.8309,-2
1606935838.8329,2
1606935838.8349,67
1606935838.8369,228
1606935838.8389,366
1606935838.8409,260
1606935838.8429,89
1606935838.8449,93
1606935838.8470,57
1606935838.8489,-36
1606935838.8509,-21
1606935838.8529,-2
1606935838.8549,-28
1606935838.8570,-26
1606935838.8575,-12
1606935838.8589,-16
1606935838.8609,-16
1606935838.8629,-9
1606935838.8649,-9
1606935838.8671,-9
1606935838.8689,-4
1606935838.8709,-2
1606935838.8729,-2
1606935838.8749,0
1606935838.8770,-2
1606935838.8789,-2
1606935839.2831,2
1606935839.2840,4
1606935839.2852,4
1606935839.2873,7
1606935839.2879,7
1606935839.2892,2
1606935839.2912,0
1606935839.2932,-4
1606935839.2952,-16
1606935839.2972,-24
1606935839.2992,-26
1606935839.3012,-28
1606935839.3032,-33
1606935839.3052,-31
1606935839.3072,-26
1606935839.3092,-21
1606935839.3112,-14
1606935839.3132,-7
1606935839.3153,2
1606935839.3172,7
1606935839.3177,9
1606935839.3192,14
1606935839.3212,19
1606935839.3232,21
1606935839.3251,21
1606935839.3271,26
1606935839.3291,28
1606935839.3311,31
1606935839.3331,31
1606935839.3348,33
1606935839.3358,33
1606935839.3366,33
1606935839.3391,33
1606935839.3411,36
1606935839.3419,36
1606935839.3441,33
1606935839.3462,33
1606935839.3482,33
1606935839.3503,31
1606935839.3521,26
1606935839.3541,26
1606935839.3561,26
1606935839.3582,26
1606935839.3587,24
1606935839.3601,24
1606935839.3622,24
1606935839.3640,21
1606935839.3660,21
1606935839.3680,24
1606935839.3701,24
1606935839.3720,21
1606935839.3740,16
1606935839.3760,16
1606935839.3781,19
1606935839.3800,24
1606935839.3820,28
1606935839.3840,26
1606935839.3860,31
1606935839.3881,57
1606935839.3886,77
1606935839.3900,60
1606935839.3920,43
1606935839.3941,36
1606935839.3960,21
1606935839.3981,0
1606935839.4000,-7
1606935839.4020,-2
1606935839.4040,-4
1606935839.4060,-7
1606935839.4082,-7
1606935839.4101,-9
1606935839.4114,-16
1606935839.4131,-9
1606935839.8830,48
1606935839.8839,204
1606935839.8864,344
1606935839.8890,248
1606935839.8910,72
1606935839.8930,67
1606935839.8951,36
1606935839.8971,-52
1606935839.8991,-38
1606935839.9010,-16
1606935839.9030,-40
1606935839.9051,-38
1606935839.9071,-21
1606935839.9076,-26
1606935839.9090,-24
1606935839.9109,-16
1606935839.9129,-14
1606935839.9150,-14
1606935839.9171,-9
1606935839.9191,-4
1606935839.9211,-7
1606935839.9230,-7
1606935839.9249,0
1606935839.9270,4
1606935839.9289,7
1606935839.9309,9
1606935839.9329,12
1606935839.9349,14
1606935839.9370,9
1606935839.9375,7
1606935839.9389,7
1606935839.9409,4
1606935839.9429,0
1606935839.9450,-7
1606935839.9470,-12
1606935839.9489,-14
1606935839.9509,-19
1606935839.9531,-21
1606935839.9549,-16
1606935839.9570,-9
1606935839.9589,-4
1606935839.9609,2
1606935839.9629,12
1606935839.9649,19
1606935839.9669,21
1606935839.9675,21
1606935839.9689,24
1606935839.9711,28
1606935839.9729,28
1606935839.9749,31
1606935839.9770,33
1606935839.9789,31
1606935839.9809,28
1606935839.9829,31
1606935839.9849,36
1606935839.9869,36
1606935839.9889,31
1606935839.9909,26
1606935839.9929,26
1606935839.9949,31
1606935839.9970,26
1606935839.9975,21
1606935839.9989,21
1606935840.0010,19
1606935840.0033,12
1606935840.0050,9
1606935840.0070,12
1606935840.0090,9
1606935840.0109,4
1606935840.0129,2
1606935840.0149,2
1606935840.0170,0
1606935840.0190,-2
1606935840.4230,2
1606935840.4237,7
1606935840.4240,4
1606935840.4262,2
1606935840.4282,19
1606935840.4301,48
1606935840.4321,43
1606935840.4341,19
1606935840.4362,2
1606935840.4381,-7
1606935840.4401,-33
1606935840.4421,-57
1606935840.4441,-60
1606935840.4461,-55
1606935840.4481,-57
1606935840.4501,-60
1606935840.4521,-55
1606935840.4541,-57
1606935840.4547,-67
1606935840.4561,-52
1606935840.4581,38
1606935840.4601,219
1606935840.4621,277
1606935840.4641,96
1606935840.4661,-7
1606935840.4682,16
1606935840.4701,-62
1606935840.4721,-125
1606935840.4741,-86
1606935840.4761,-89
1606935840.4781,-115
1606935840.4801,-105
1606935840.4821,-98
1606935840.4841,-108
1606935840.4847,-108
1606935840.4861,-103
1606935840.4881,-105
1606935840.4901,-108
1606935840.4921,-110
1606935840.4941,-110
1606935840.4961,-110
1606935840.4981,-110
1606935840.5001,-113
1606935840.5021,-113
1606935840.5041,-113
1606935840.5061,-118
1606935840.5081,-120
1606935840.5101,-120
1606935840.5121,-127
1606935840.5141,-137
1606935840.5147,-149
1606935840.5161,-158
1606935840.5180,-171
1606935840.5201,-180
1606935840.5221,-187
1606935840.5241,-195
1606935840.5261,-204
1606935840.5281,-207
1606935840.5301,-204
1606935840.5321,-199
1606935840.5341,-197
1606935840.5361,-195
1606935840.5381,-192
1606935840.5401,-190
1606935840.5421,-192
1606935840.5441,-192
1606935840.5447,-192
1606935840.5461,-192
1606935840.5481,-197
1606935840.5501,-197
1606935840.5520,-197
1606935840.5541,-197
1606935840.5561,-202
1606935840.9932,-204
1606935840.9940,-207
1606935840.9965,-207
1606935840.9995,-209
1606935841.0012,-214
1606935841.0031,-214
1606935841.0052,-219
1606935841.0071,-231
1606935841.0076,-240
1606935841.0090,-243
1606935841.0110,-248
1606935841.0130,-257
1606935841.0150,-264
1606935841.0171,-264
1606935841.0190,-267
1606935841.0211,-269
1606935841.0230,-272
1606935841.0250,-272
1606935841.0271,-272
1606935841.0290,-277
1606935841.0310,-277
1606935841.0330,-274
1606935841.0350,-274
1606935841.0370,-274
1606935841.0376,-272
1606935841.0390,-272
1606935841.0410,-269
1606935841.0430,-269
1606935841.0450,-262
1606935841.0470,-260
1606935841.0490,-262
1606935841.0510,-248
1606935841.0530,-216
1606935841.0550,-209
1606935841.0570,-231
1606935841.0590,-240
1606935841.0610,-243
1606935841.0630,-257
1606935841.0650,-272
1606935841.0670,-272
1606935841.0676,-262
1606935841.0690,-262
1606935841.0710,-264
1606935841.0730,-264
1606935841.0750,-260
1606935841.0770,-257
1606935841.0790,-231
1606935841.0810,-118
1606935841.0830,72
1606935841.0850,105
1606935841.0870,-84
1606935841.0890,-163
1606935841.0910,-139
1606935841.0930,-224
1606935841.0951,-267
1606935841.0971,-224
1606935841.0976,-226
1606935841.0990,-243
1606935841.1010,-224
1606935841.1031,-214
1606935841.1050,-216
1606935841.1071,-207
1606935841.1090,-199
1606935841.1110,-197
1606935841.1130,-190
1606935841.1150,-183
1606935841.1170,-183
1606935841.1190,-178
1606935841.1210,-171
1606935841.1230,-163
1606935841.1250,-158
1606935841.1270,-154
1606935841.1276,-146
1606935841.5330,-144
1606935841.5336,-144
1606935841.5360,-144
1606935841.5388,-142
1606935841.5407,-142
1606935841.5426,-146
1606935841.5448,-149
1606935841.5467,-149
1606935841.5487,-156
1606935841.5507,-168
1606935841.5527,-168
1606935841.5546,-163
1606935841.5567,-158
1606935841.5573,-151
1606935841.5586,-139
1606935841.5606,-130
1606935841.5626,-122
1606935841.5646,-118
1606935841.5666,-110
1606935841.5686,-103
1606935841.5706,-101
1606935841.5726,-96
1606935841.5746,-91
1606935841.5767,-89
1606935841.5786,-89
1606935841.5806,-89
1606935841.5826,-84
1606935841.5847,-79
1606935841.5866,-79
1606935841.5872,-79
1606935841.5887,-77
1606935841.5907,-74
1606935841.5929,-77
1606935841.5946,-79
1606935841.5966,-81
1606935841.5986,-89
1606935841.6006,-91
1606935841.6026,-91
1606935841.6046,-91
1606935841.6066,-91
1606935841.6086,-91
1606935841.6106,-91
1606935841.6126,-91
1606935841.6146,-89
1606935841.6166,-89
1606935841.6172,-89
1606935841.6186,-86
1606935841.6206,-84
1606935841.6226,-86
1606935841.6246,-86
1606935841.6266,-84
1606935841.6286,-86
1606935841.6306,-89
1606935841.6326,-89
1606935841.6346,-86
1606935841.6366,-86
1606935841.6386,-84
1606935841.6406,-81
1606935841.6426,-74
1606935841.6446,-69
1606935841.6466,-69
1606935841.6472,-60
1606935841.6486,-31
1606935841.6506,-14
1606935841.6526,-28
1606935841.6546,-48
1606935841.6566,-57
1606935841.6586,-67
1606935841.6606,-84
1606935841.6626,-91
1606935841.6646,-84
1606935841.6666,-79
1606935841.6687,-81
1606935842.1029,-74
1606935842.1038,-72
1606935842.1062,-77
1606935842.1074,-69
1606935842.1089,7
1606935842.1108,178
1606935842.1128,289
1606935842.1149,151
1606935842.1169,2
1606935842.1188,19
1606935842.1210,-31
1606935842.1229,-115
1606935842.1248,-86
1606935842.1269,-69
1606935842.1288,-96
1606935842.1308,-89
1606935842.1328,-72
1606935842.1348,-77
1606935842.1369,-77
1606935842.1374,-65
1606935842.1388,-60
1606935842.1408,-57
1606935842.1428,-55
1606935842.1448,-52
1606935842.1468,-52
1606935842.1488,-50
1606935842.1508,-50
1606935842.1528,-50
1606935842.1548,-48
1606935842.1568,-43
1606935842.1588,-38
1606935842.1608,-36
1606935842.1628,-36
1606935842.1648,-36
1606935842.1669,-36
1606935842.1674,-40
1606935842.1688,-45
1606935842.1708,-50
1606935842.1728,-55
1606935842.1748,-57
1606935842.1768,-60
1606935842.1788,-62
1606935842.1808,-62
1606935842.1828,-55
1606935842.1849,-48
1606935842.1869,-40
1606935842.1888,-33
1606935842.1908,-26
1606935842.1928,-21
1606935842.1948,-19
1606935842.1969,-14
1606935842.1974,-9
1606935842.1988,-7
1606935842.2008,-7
1606935842.2028,-4
1606935842.2048,-2
1606935842.2068,-2
1606935842.2088,-2
1606935842.2108,-4
1606935842.2128,-4
1606935842.2148,-4
1606935842.2170,-4
1606935842.2188,-2
1606935842.2208,0
1606935842.2228,0
1606935842.2248,-2
1606935842.2268,0
1606935842.2274,2
1606935842.2288,0
1606935842.2308,-2
1606935842.2328,0
1606935842.2348,-2
1606935842.2370,-4
1606935842.6423,-4
1606935842.6427,-4
1606935842.6445,-4
1606935842.6465,-7
1606935842.6484,-9
1606935842.6567,-9
1606935842.6585,-9
1606935842.6604,-14
1606935842.6625,-19
1606935842.6644,-16
1606935842.6664,-14
1606935842.6685,-19
1606935842.6704,-14
1606935842.6724,-9
1606935842.6744,-9
1606935842.6765,-9
1606935842.6784,-12
1606935842.6805,-9
1606935842.6824,-4
1606935842.6845,-2
1606935842.6852,0
1606935842.6865,2
1606935842.6885,9
1606935842.6905,28
1606935842.6925,52
1606935842.6946,50
1606935842.6965,31
1606935842.6986,21
1606935842.7005,14
1606935842.7025,2
1606935842.7045,-9
1606935842.7065,-7
1606935842.7085,-2
1606935842.7104,0
1606935842.7110,0
1606935842.7125,2
1606935842.7145,0
1606935842.7161,2
1606935842.7175,62
1606935842.7197,224
1606935842.7216,373
1606935842.7234,279
1606935842.7254,101
1606935842.7275,96
1606935842.7295,67
1606935842.7315,-26
1606935842.7334,-14
1606935842.7354,9
1606935842.7375,-14
1606935842.7384,-16
1606935842.7405,-2
1606935842.7424,-7
1606935842.7444,-7
1606935842.7465,2
1606935842.7484,4
1606935842.7504,7
1606935842.7525,12
1606935842.7544,14
1606935842.7564,14
1606935842.7585,19
1606935842.7605,24
1606935842.7625,26
1606935842.7644,31
1606935842.7664,33
1606935842.7684,33
1606935842.7691,33
1606935842.7705,36
1606935842.7725,36
1606935842.7744,33
1606935842.7764,28
1606935842.7784,21
1606935842.7805,16
1606935842.7825,14
1606935843.2725,9
1606935843.2729,4
1606935843.2753,4
1606935843.2779,2
1606935843.2799,2
1606935843.2819,2
1606935843.2839,9
1606935843.2846,14
1606935843.2859,16
1606935843.2879,19
1606935843.2899,26
1606935843.2919,28
1606935843.2939,26
1606935843.2959,26
1606935843.2979,31
1606935843.2999,33
1606935843.3019,36
1606935843.3040,38
1606935843.3059,40
1606935843.3079,40
1606935843.3099,45
1606935843.3119,45
1606935843.3140,45
1606935843.3146,48
1606935843.3169,50
1606935843.3190,48
1606935843.3210,45
1606935843.3229,43
1606935843.3249,40
1606935843.3269,38
1606935843.3289,40
1606935843.3309,40
1606935843.3329,36
1606935843.3350,36
1606935843.3370,38
1606935843.3389,38
1606935843.3409,36
1606935843.3429,36
1606935843.3449,38
1606935843.3455,36
1606935843.3469,33
1606935843.3489,36
1606935843.3509,40
1606935843.3530,38
1606935843.3549,38
1606935843.3570,38
1606935843.3590,40
1606935843.3610,40
1606935843.3630,40
1606935843.3650,43
1606935843.3669,45
1606935843.3690,43
1606935843.3710,43
1606935843.3730,45
1606935843.3750,48
1606935843.3756,50
1606935843.3770,55
1606935843.3790,55
1606935843.3810,60
1606935843.3829,86
1606935843.3849,108
1606935843.3869,98
1606935843.3889,79
1606935843.3909,69
1606935843.3929,62
1606935843.3949,48
1606935843.3970,36
1606935843.3989,36
1606935843.4011,40
1606935843.4030,40
1606935843.4049,43
1606935843.4055,43
1606935843.4070,36
1606935843.7829,43
1606935843.7838,118
1606935843.7862,289
1606935843.7890,411
1606935843.7908,284
1606935843.7928,125
1606935843.7950,130
1606935843.7969,79
1606935843.7988,-7
1606935843.8008,12
1606935843.8028,21
1606935843.8048,-2
1606935843.8054,4
1606935843.8069,9
1606935843.8088,-2
1606935843.8108,2
1606935843.8128,14
1606935843.8148,14
1606935843.8169,14
1606935843.8188,21
1606935843.8208,21
1606935843.8228,21
1606935843.8248,28
1606935843.8269,33
1606935843.8288,36
1606935843.8308,38
1606935843.8328,40
1606935843.8347,43
1606935843.8354,43
1606935843.8368,40
1606935843.8387,38
1606935843.8407,36
1606935843.8428,33
1606935843.8447,26
1606935843.8468,21
1606935843.8487,19
1606935843.8508,14
1606935843.8528,9
1606935843.8548,4
1606935843.8568,7
1606935843.8587,14
1606935843.8607,19
1606935843.8627,26
1606935843.8647,33
1606935843.8654,36
1606935843.8668,38
1606935843.8689,43
1606935843.8708,45
1606935843.8728,45
1606935843.8748,48
1606935843.8768,50
1606935843.8788,50
1606935843.8807,52
1606935843.8827,52
1606935843.8847,55
1606935843.8868,57
1606935843.8887,57
1606935843.8908,55
1606935843.8927,57
1606935843.8947,60
1606935843.8954,57
1606935843.8968,55
1606935843.8987,50
1606935843.9007,48
1606935843.9028,48
1606935843.9047,48
1606935843.9068,48
1606935843.9087,48
1606935843.9107,45
1606935843.9127,40
1606935843.9148,40
1606935843.9168,38
1606935843.9188,36
1606935844.4129,38
1606935844.4141,38
1606935844.4165,38
1606935844.4191,38
1606935844.4211,40
1606935844.4231,43
1606935844.4252,38
1606935844.4272,31
1606935844.4291,33
1606935844.4311,38
1606935844.4318,38
1606935844.4331,38
1606935844.4351,40
1606935844.4372,43
1606935844.4392,40
1606935844.4411,43
1606935844.4431,48
1606935844.4451,52
1606935844.4471,55
1606935844.4491,57
1606935844.4511,72
1606935844.4531,98
1606935844.4551,101
1606935844.4571,81
1606935844.4593,69
1606935844.4611,62
1606935844.4617,48
1606935844.4631,33
1606935844.4650,31
1606935844.4671,36
1606935844.4691,38
1606935844.4711,38
1606935844.4731,40
1606935844.4751,38
1606935844.4771,36
1606935844.4790,77
1606935844.4811,214
1606935844.4830,392
1606935844.4851,363
1606935844.4871,168
1606935844.4890,127
1606935844.4910,125
1606935844.4917,21
1606935844.4930,4
1606935844.4950,43
1606935844.4971,24
1606935844.4990,9
1606935844.5010,26
1606935844.5031,28
1606935844.5050,24
1606935844.5070,28
1606935844.5090,36
1606935844.5110,36
1606935844.5130,33
1606935844.5150,31
1606935844.5171,33
1606935844.5190,36
1606935844.5210,38
1606935844.5217,40
1606935844.5230,45
1606935844.5250,48
1606935844.5270,45
1606935844.5290,43
1606935844.5310,40
1606935844.5330,38
1606935844.5350,38
1606935844.5371,33
1606935844.5390,28
1606935844.5410,24
1606935844.5430,21
1606935844.5450,14
1606935844.5470,9
1606935844.5490,4
1606935844.9232,0
1606935844.9243,0
1606935844.9271,4
1606935844.9295,12
1606935844.9313,16
1606935844.9333,21
1606935844.9353,26
1606935844.9374,28
1606935844.9393,24
1606935844.9413,24
1606935844.9433,28
1606935844.9453,31
1606935844.9473,28
1606935844.9494,28
1606935844.9513,33
1606935844.9519,33
1606935844.9533,26
1606935844.9553,24
1606935844.9573,28
1606935844.9593,28
1606935844.9613,28
1606935844.9633,33
1606935844.9653,33
1606935844.9673,31
1606935844.9693,31
1606935844.9713,33
1606935844.9733,33
1606935844.9753,33
1606935844.9773,31
1606935844.9792,31
1606935844.9812,31
1606935844.9819,31
1606935844.9833,31
1606935844.9853,36
1606935844.9873,36
1606935844.9885,33
1606935844.9902,33
1606935844.9922,36
1606935844.9943,38
1606935844.9963,38
1606935844.9983,36
1606935845.0003,38
1606935845.0024,38
1606935845.0042,38
1606935845.0062,38
1606935845.0083,38
1606935845.0089,40
1606935845.0102,38
1606935845.0122,38
1606935845.0142,40
1606935845.0162,43
1606935845.0182,45
1606935845.0203,52
1606935845.0224,55
1606935845.0243,60
1606935845.0262,84
1606935845.0282,96
1606935845.0302,79
1606935845.0322,62
1606935845.0342,57
1606935845.0363,43
1606935845.0383,26
1606935845.0389,21
1606935845.0403,26
1606935845.0423,28
1606935845.0442,28
1606935845.0462,28
1606935845.0483,26
1606935845.0502,24
1606935845.0522,52
1606935845.0542,171
1606935845.0562,356
1606935845.0583,373
1606935845.4632,180
1606935845.4641,108
1606935845.4665,118
1606935845.4677,21
1606935845.4692,-16
1606935845.4712,16
1606935845.4731,0
1606935845.4753,-16
1606935845.4772,0
1606935845.4791,-2
1606935845.4811,-14
1606935845.4831,-7
1606935845.4851,-2
1606935845.4872,-4
1606935845.4891,0
1606935845.4911,4
1606935845.4931,4
1606935845.4951,7
1606935845.4972,12
1606935845.4978,19
1606935845.4991,21
1606935845.5011,24
1606935845.5031,26
1606935845.5051,28
1606935845.5071,31
1606935845.5091,31
1606935845.5111,28
1606935845.5131,28
1606935845.5151,24
1606935845.5171,16
1606935845.5190,9
1606935845.5212,4
1606935845.5231,-2
1606935845.5251,-4
1606935845.5271,-4
1606935845.5277,-4
1606935845.5291,-4
1606935845.5310,0
1606935845.5331,9
1606935845.5350,16
1606935845.5371,19
1606935845.5390,21
1606935845.5410,26
1606935845.5430,31
1606935845.5451,36
1606935845.5471,36
1606935845.5490,38
1606935845.5510,38
1606935845.5531,38
1606935845.5551,38
1606935845.5571,40
1606935845.5577,43
1606935845.5591,45
1606935845.5610,45
1606935845.5630,48
1606935845.5650,48
1606935845.5671,48
1606935845.5691,48
1606935845.5711,48
1606935845.5730,45
1606935845.5750,43
1606935845.5771,43
1606935845.5791,43
1606935845.5811,40
1606935845.5830,38
1606935845.5851,38
1606935845.5871,40
1606935845.5877,38
1606935845.5890,36
1606935845.5911,38
1606935845.5931,38
1606935845.5950,36
1606935845.5971,36
1606935846.0030,38
1606935846.0039,38
1606935846.0064,38
1606935846.0081,38
1606935846.0099,40
1606935846.0119,38
1606935846.0139,33
1606935846.0159,26
1606935846.0180,28
1606935846.0189,31
1606935846.0200,28
1606935846.0219,31
1606935846.0239,36
1606935846.0259,38
1606935846.0279,36
1606935846.0299,36
1606935846.0319,43
1606935846.0339,48
1606935846.0359,48
1606935846.0379,62
1606935846.0399,91
1606935846.0419,96
1606935846.0439,74
1606935846.0459,60
1606935846.0465,57
1606935846.0479,43
1606935846.0499,24
1606935846.0519,19
1606935846.0539,24
1606935846.0559,26
1606935846.0579,28
1606935846.0599,31
1606935846.0619,31
1606935846.0639,26
1606935846.0659,67
1606935846.0679,211
1606935846.0699,387
1606935846.0719,349
1606935846.0739,151
1606935846.0759,115
1606935846.0765,103
1606935846.0779,0
1606935846.0799,-9
1606935846.0819,26
1606935846.0839,4
1606935846.0860,-7
1606935846.0880,7
1606935846.0900,7
1606935846.0919,4
1606935846.0939,9
1606935846.0959,14
1606935846.0979,14
1606935846.0999,16
1606935846.1019,19
1606935846.1039,19
1606935846.1059,24
1606935846.1065,28
1606935846.1080,28
1606935846.1099,28
1606935846.1119,28
1606935846.1140,31
1606935846.1159,33
1606935846.1179,33
1606935846.1199,31
1606935846.1219,26
1606935846.1239,21
1606935846.1259,19
1606935846.1279,14
1606935846.1299,9
1606935846.1319,4
1606935846.1339,-2
1606935846.1359,-4
1606935846.1365,-4
1606935846.6332,-2
1606935846.6340,0
1606935846.6365,7
1606935846.6391,7
1606935846.6411,4
1606935846.6431,9
1606935846.6451,16
1606935846.6472,19
1606935846.6491,19
1606935846.6511,24
1606935846.6531,26
1606935846.6551,28
1606935846.6571,31
1606935846.6578,33
1606935846.6591,36
1606935846.6611,33
1606935846.6631,36
1606935846.6651,38
1606935846.6671,36
1606935846.6690,33
1606935846.6710,38
1606935846.6730,38
1606935846.6750,38
1606935846.6771,38
1606935846.6790,38
1606935846.6810,38
1606935846.6830,38
1606935846.6850,36
1606935846.6871,36
1606935846.6876,38
1606935846.6890,36
1606935846.6910,33
1606935846.6930,33
1606935846.6951,28
1606935846.6970,24
1606935846.6990,26
1606935846.7010,31
1606935846.7030,33
1606935846.7052,33
1606935846.7070,33
1606935846.7090,31
1606935846.7110,28
1606935846.7130,31
1606935846.7150,33
1606935846.7170,33
1606935846.7176,33
1606935846.7190,38
1606935846.7210,38
1606935846.7230,38
1606935846.7250,36
1606935846.7270,33
1606935846.7290,36
1606935846.7310,43
1606935846.7331,43
1606935846.7350,50
1606935846.7370,81
1606935846.7390,96
1606935846.7410,77
1606935846.7430,57
1606935846.7450,55
1606935846.7470,45
1606935846.7476,26
1606935846.7490,19
1606935846.7510,24
1606935846.7530,28
1606935846.7550,26
1606935846.7570,26
1606935846.7590,26
1606935846.7610,26
1606935846.7630,50
1606935846.7650,166
1606935846.7670,358
1606935846.7690,390
1606935847.2632,180
1606935847.2646,86
1606935847.2664,118
1606935847.2677,33
1606935847.2694,-14
1606935847.2714,28
1606935847.2734,19
1606935847.2754,-2
1606935847.2773,9
1606935847.2793,9
1606935847.2813,2
1606935847.2833,12
1606935847.2853,16
1606935847.2872,4
1606935847.2893,4
1606935847.2901,12
1606935847.2916,9
1606935847.2933,9
1606935847.2953,16
1606935847.2973,21
1606935847.2993,21
