,hr,rr,ecg,gsr,temperature
1603016040.6757,73.0,815.0,4780.0,458.0,36.81
1603016040.6772,73.0,815.0,5572.0,458.0,36.81
1603016040.6796,73.0,815.0,6238.0,458.0,36.81
1603016040.6816,73.0,815.0,6733.0,458.0,36.81
1603016040.6838,73.0,815.0,7239.0,458.0,36.81
1603016040.6859,73.0,815.0,7722.0,458.00000000000006,36.81
1603016040.6878,73.0,815.0,8132.0,458.00000000000006,36.81
1603016040.6893,73.0,815.0,8502.0,458.00000000000006,36.81
1603016040.6911,73.0,815.0,8847.0,458.00000000000006,36.81
1603016040.6931,73.0,815.0,9165.0,458.00000000000006,36.81
1603016040.6951,73.0,815.0,9459.0,458.00000000000006,36.81
1603016040.6972,73.0,815.0,9733.0,458.00000000000006,36.81
1603016040.6991,73.0,815.0,9991.0,458.00000000000006,36.81
1603016040.7011,73.0,815.0,10226.0,458.00000000000006,36.81
1603016040.7031,73.0,815.0,10443.0,458.00000000000006,36.81
1603016040.7051,73.0,815.0,10635.0,458.0000000000001,36.81
1603016040.7072,73.0,815.0,10812.0,458.0000000000001,36.81
1603016040.7091,73.0,815.0,10987.0,458.0000000000001,36.81
1603016040.7111,73.0,815.0,11150.0,458.0000000000001,36.81
1603016040.7131,73.0,815.0,11298.0,458.0000000000001,36.81
1603016040.7152,73.0,815.0,11446.0,458.0000000000001,36.81
1603016040.7171,73.0,815.0,11587.0,458.0000000000001,36.81
1603016040.7191,73.0,815.0,11699.0,458.0000000000001,36.81
1603016040.7211,73.0,815.0,11798.0,458.0000000000001,36.81
1603016040.7231,73.0,815.0,11893.0,458.0000000000001,36.81
1603016040.7251,73.0,815.0,11980.0,458.0000000000001,36.81
1603016040.7271,73.0,815.0,12082.0,458.0000000000001,36.81
1603016040.7291,73.0,815.0,12187.0,458.0000000000001,36.81
1603016040.731,73.0,815.0,12238.0,458.0000000000001,36.81
1603016040.733,73.0,815.0,12284.0,458.0000000000001,36.81
1603016040.735,73.0,815.0,12352.0,458.0000000000001,36.81
1603016040.737,73.0,815.0,12401.0,458.0000000000001,36.81
1603016040.739,73.0,815.0,12439.0,458.0000000000001,36.81
1603016040.741,73.0,815.0,12469.0,458.0000000000001,36.81
1603016040.743,73.0,815.0,12471.0,458.0000000000001,36.81
1603016040.745,73.0,815.0,12481.0,458.0000000000001,36.81
1603016040.7471,73.0,815.0,12500.0,458.0000000000001,36.81
1603016040.749,73.0,815.0,12503.0,458.0000000000001,36.81
1603016040.7511,73.0,815.0,12505.0,458.0000000000001,36.81
1603016040.753,73.0,815.0,12515.0,458.0000000000001,36.81
1603016040.755,73.0,815.0,12510.0,458.0000000000001,36.81
1603016040.757,73.0,815.0,12510.0,458.0000000000001,36.81
1603016040.7584,73.0,815.0,12500.0,458.0000000000001,36.81
1603016040.7601,73.0,815.0,12459.0,458.0000000000001,36.81
1603016040.7622,73.0,815.0,12498.0,458.0000000000001,36.81
1603016040.764,73.0,815.0,12714.0,458.0000000000001,36.81
1603016040.7661,73.0,815.0,12877.0,458.0000000000001,36.81
1603016040.768,73.0,815.0,12537.0,458.0000000000001,36.81
1603016040.7701,73.0,815.0,11893.0,458.0000000000001,36.81
1603016040.7721,73.0,815.0,11803.0,458.0000000000001,36.81
1603016040.775,73.0,815.0,12180.0,457.9999999999345,36.81
1603016040.7761,73.0,815.0,12233.0,457.9999999999345,36.81
1603016040.778,73.0,815.0,12080.0,457.9999999999345,36.81
1603016040.78,73.0,815.0,12094.0,457.9999999999345,36.81
1603016040.782,73.0,815.0,12097.0,457.9999999999345,36.81
1603016040.784,73.0,815.0,12000.0,457.9999999999345,36.81
1603016040.786,73.0,815.0,11941.0,457.9999999999345,36.81
1603016040.788,73.0,815.0,11893.0,457.9999999999345,36.81
1603016040.7899,73.0,815.0,11820.0,457.9999999999345,36.81
1603016040.792,73.0,815.0,11762.0,457.9999999999345,36.81
1603016040.794,73.0,815.0,11703.0,457.9999999999345,36.81
1603016040.7961,73.0,815.0,11631.0,457.9999999999345,36.81
1603016040.798,73.0,815.0,11567.0,457.9999999999345,36.81
1603016040.7999,73.0,815.0,11502.0,457.9999999999345,36.81
1603016040.8019,73.0,815.0,11429.0,457.9999999999345,36.81
1603016040.8039,73.0,815.0,11363.0,457.9999999999345,36.81
1603016040.8059,73.0,815.0,11305.0,457.9999999999345,36.81
1603016040.808,73.0,815.0,11227.0,457.9999999999345,36.81
1603016040.8099,73.0,815.0,11145.0,457.9999999999345,36.81
1603016040.812,73.0,815.0,11072.0,457.9999999999345,36.81
1603016040.814,73.0,815.0,10994.0,457.9999999999345,36.81
1603016040.8159,73.0,815.0,10919.0,457.9999999999345,36.81
1603016040.818,73.0,815.0,10851.0,457.9999999999345,36.81
1603016041.2745,73.0,815.0,10790.0,457.9999999999345,36.81
1603016041.2755,73.0,815.0,10722.0,457.9999999999345,36.81
1603016041.278,73.0,815.0,10637.0,457.9999999999345,36.81
1603016041.2806,73.0,815.0,10550.0,457.9999999999345,36.81
1603016041.2826,73.0,815.0,10472.0,457.9999999999345,36.81
1603016041.2846,73.0,815.0,10394.0,457.9999999999345,36.81
1603016041.2868,73.0,815.0,10299.0,457.9999999999345,36.81
1603016041.2886,73.0,815.0,10207.0,457.9999999999345,36.81
1603016041.2906,73.0,815.0,10132.0,457.9999999999345,36.81
1603016041.2926,73.0,815.0,10052.0,457.9999999999345,36.81
1603016041.2946,73.0,815.0,9928.0,457.9999999999345,36.81
1603016041.2967,73.0,815.0,9779.0,457.9999999999345,36.81
1603016041.2987,73.0,815.0,9677.0,457.9999999999345,36.81
1603016041.3006,73.0,815.0,9588.0,457.9999999999345,36.81
1603016041.3026,73.0,815.0,9466.0,457.9999999999345,36.81
1603016041.3046,73.0,815.0,9345.0,457.9999999999345,36.81
1603016041.3066,73.0,815.0,9255.0,457.9999999999345,36.81
1603016041.3086,73.0,815.0,9165.0,457.9999999999345,36.81
1603016041.3106,73.0,815.0,9068.0,457.9999999999345,36.81
1603016041.3127,73.0,815.0,8978.0,457.9999999999345,36.81
1603016041.3146,73.0,815.0,8893.0,457.9999999999345,36.81
1603016041.3165,73.0,815.0,8786.0,457.9999999999345,36.81
1603016041.3186,73.0,815.0,8691.0,457.9999999999345,36.81
1603016041.3205,73.0,815.0,8623.0,457.9999999999345,36.81
1603016041.3225,73.0,815.0,8545.0,457.9999999999345,36.81
1603016041.3245,73.0,815.0,8458.0,457.9999999999345,36.81
1603016041.3265,73.0,815.0,8373.0,457.9999999999345,36.81
1603016041.3286,73.0,815.0,8278.0,457.9999999999345,36.81
1603016041.3307,73.0,815.0,8200.0,457.9999999999345,36.81
1603016041.3326,73.0,815.0,8130.0,457.9999999999345,36.81
1603016041.3345,73.0,815.0,8043.0,457.9999999999345,36.81
1603016041.3365,73.0,815.0,7955.0,457.9999999999345,36.81
1603016041.3385,73.0,815.0,7875.0,457.9999999999345,36.81
1603016041.3405,73.0,815.0,7788.0,457.9999999999345,36.81
1603016041.3425,73.0,815.0,7695.0,457.9999999999345,36.81
1603016041.3446,73.0,815.0,7620.0,457.9999999999345,36.81
1603016041.3465,73.0,815.0,7557.0,457.9999999999345,36.81
1603016041.3486,73.0,815.0,7467.0,457.9999999999345,36.81
1603016041.3505,73.0,815.0,7375.0,457.9999999999345,36.81
1603016041.3525,73.0,815.0,7309.0,457.9999999999345,36.81
1603016041.3545,73.0,815.0,7231.0,457.9999999999345,36.81
1603016041.3565,73.0,815.0,7139.0,457.9999999999345,36.81
1603016041.3585,73.0,815.0,7061.0,457.9999999999345,36.81
1603016041.3605,73.0,815.0,6991.0,457.9999999999345,36.81
1603016041.3626,73.0,815.0,6911.0,457.9999999999345,36.81
1603016041.3645,73.0,815.0,6823.0,457.9999999999345,36.81
1603016041.3665,73.0,815.0,6738.0,457.9999999999345,36.81
1603016041.3686,73.0,815.0,6673.0,457.9999999999345,36.81
1603016041.3705,73.0,815.0,6609.0,457.9999999999345,36.81
1603016041.3725,73.0,815.0,6529.0,457.9999999999345,36.81
1603016041.3745,73.0,815.0,6449.0,457.9999999999345,36.81
1603016041.3765,73.0,815.0,6381.0,457.9999999999345,36.81
1603016041.3786,73.0,815.0,6311.0,457.9999999999345,36.81
1603016041.3805,73.0,815.0,6233.0,457.9999999999345,36.81
1603016041.3825,73.0,815.0,6160.0,457.9999999999345,36.81
1603016041.3845,73.0,815.0,6087.0,457.9999999999345,36.81
1603016041.3865,73.0,815.0,6009.0,457.9999999999345,36.81
1603016041.3886,73.0,815.0,5936.0,457.9999999999345,36.81
1603016041.3905,73.0,815.0,5876.0,457.9999999999345,36.81
1603016041.3925,73.0,815.0,5822.0,457.9999999999345,36.81
1603016041.3946,73.0,815.0,5774.0,457.9999999999345,36.81
1603016041.3965,73.0,815.0,5720.0,457.9999999999345,36.81
1603016041.3985,73.0,815.0,5635.0,457.9999999999345,36.81
1603016041.4005,73.0,815.0,5553.0,457.9999999999345,36.81
1603016041.4025,73.0,815.0,5499.0,457.9999999999345,36.81
1603016041.4045,73.0,815.0,5426.0,457.9999999999345,36.81
1603016041.4065,73.0,815.0,5334.0,457.9999999999345,36.81
1603016041.4085,73.0,815.0,5268.0,457.9999999999345,36.81
1603016041.4106,73.0,815.0,5198.0,457.9999999999345,36.81
1603016041.4126,73.0,815.0,5118.0,457.9999999999345,36.81
1603016041.4145,73.0,815.0,5072.0,457.9999999999345,36.81
1603016041.4165,73.0,815.0,5035.0,457.9999999999345,36.81
1603016041.4185,73.0,815.0,4970.0,457.9999999999345,36.81
1603016041.7844,74.0,784.0,4897.0,457.9999999999345,36.81
1603016041.7851,74.0,784.0,4824.0,457.9999999999345,36.81
1603016041.7877,74.0,784.0,4770.0,457.9999999999345,36.81
1603016041.7902,74.0,784.0,4831.0,457.9999999999345,36.81
1603016041.7922,74.0,784.0,5030.0,457.9999999999345,36.81
1603016041.7943,74.0,784.0,5077.0,457.9999999999345,36.81
1603016041.7965,74.0,784.0,4586.0,457.9999999999345,36.81
1603016041.7983,74.0,784.0,3993.0,457.9999999999345,36.81
1603016041.8002,74.0,784.0,4061.0,457.9999999999345,36.81
1603016041.8022,74.0,784.0,4396.0,457.9999999999345,36.81
1603016041.8042,74.0,784.0,4360.0,457.9999999999345,36.81
1603016041.8062,74.0,784.0,4238.0,457.9999999999345,36.81
1603016041.8082,74.0,784.0,4253.0,457.9999999999345,36.81
1603016041.8102,74.0,784.0,4197.0,457.9999999999345,36.81
1603016041.8123,74.0,784.0,4105.0,457.9999999999345,36.81
1603016041.8142,74.0,784.0,4071.0,457.9999999999345,36.81
1603016041.8162,74.0,784.0,4032.0,457.9999999999345,36.81
1603016041.8183,74.0,784.0,3986.0,457.9999999999345,36.81
1603016041.8202,74.0,784.0,3942.0,457.9999999999345,36.81
1603016041.8222,74.0,784.0,3894.0,457.9999999999345,36.81
1603016041.8242,74.0,784.0,3852.0,457.9999999999345,36.81
1603016041.8262,74.0,784.0,3811.0,457.9999999999345,36.81
1603016041.8283,74.0,784.0,3765.0,457.9999999999345,36.81
1603016041.8302,74.0,784.0,3721.0,457.9999999999345,36.81
1603016041.8321,74.0,784.0,3680.0,457.9999999999345,36.81
1603016041.8341,74.0,784.0,3631.0,457.9999999999345,36.81
1603016041.8362,74.0,784.0,3580.0,457.9999999999345,36.81
1603016041.8382,74.0,784.0,3546.0,457.9999999999345,36.81
1603016041.8401,74.0,784.0,3515.0,457.9999999999345,36.81
1603016041.8422,74.0,784.0,3488.0,457.9999999999345,36.81
1603016041.8443,74.0,784.0,3468.0,457.9999999999345,36.81
1603016041.8461,74.0,784.0,3427.0,457.9999999999345,36.81
1603016041.8483,74.0,784.0,3386.0,457.9999999999345,36.81
1603016041.8502,74.0,784.0,3357.0,457.9999999999345,36.81
1603016041.8521,74.0,784.0,3320.0,457.9999999999345,36.81
1603016041.8542,74.0,784.0,3284.0,457.9999999999345,36.81
1603016041.8561,74.0,784.0,3259.0,457.9999999999345,36.81
1603016041.8582,74.0,784.0,3233.0,457.9999999999345,36.81
1603016041.8602,74.0,784.0,3191.0,457.9999999999345,36.81
1603016041.8622,74.0,784.0,3140.0,457.9999999999345,36.81
1603016041.8642,74.0,784.0,3099.0,457.9999999999345,36.81
1603016041.8662,74.0,784.0,3058.0,457.9999999999345,36.81
1603016041.8681,74.0,784.0,2990.0,457.9999999999345,36.81
1603016041.8702,74.0,784.0,2934.0,457.9999999999345,36.81
1603016041.8721,74.0,784.0,2890.0,457.9999999999345,36.81
1603016041.8741,74.0,784.0,2832.0,457.9999999999345,36.81
1603016041.8762,74.0,784.0,2766.0,457.9999999999345,36.81
1603016041.8783,74.0,784.0,2713.0,457.9999999999345,36.81
1603016041.8802,74.0,784.0,2679.0,457.9999999999345,36.81
1603016041.8822,74.0,784.0,2640.0,457.9999999999345,36.81
1603016041.8842,74.0,784.0,2594.0,457.9999999999345,36.81
1603016041.8862,74.0,784.0,2555.0,457.9999999999345,36.81
1603016041.8882,74.0,784.0,2523.0,457.9999999999345,36.81
1603016041.8902,74.0,784.0,2494.0,457.9999999999345,36.81
1603016041.8922,74.0,784.0,2460.0,457.9999999999345,36.81
1603016041.8942,74.0,784.0,2417.0,457.9999999999345,36.81
1603016041.8961,74.0,784.0,2402.0,457.9999999999345,36.81
1603016041.8984,74.0,784.0,2397.0,457.9999999999345,36.81
1603016041.9002,74.0,784.0,2361.0,457.9999999999345,36.81
1603016041.9022,74.0,784.0,2334.0,457.9999999999345,36.81
1603016041.9041,74.0,784.0,2315.0,457.9999999999345,36.81
1603016041.9061,74.0,784.0,2273.0,457.9999999999345,36.81
1603016041.9081,74.0,784.0,2234.0,457.9999999999345,36.81
1603016041.9102,74.0,784.0,2210.0,457.9999999999345,36.81
1603016041.9122,74.0,784.0,2198.0,457.9999999999345,36.81
1603016041.9141,74.0,784.0,2176.0,457.9999999999345,36.81
1603016041.9161,74.0,784.0,2137.0,457.9999999999345,36.81
1603016041.9182,74.0,784.0,2096.0,457.9999999999345,36.81
1603016041.9202,74.0,784.0,2084.0,457.9999999999345,36.81
1603016041.9222,74.0,784.0,2081.0,457.9999999999345,36.81
1603016041.9241,74.0,784.0,2050.0,457.9999999999345,36.81
1603016041.9262,74.0,784.0,2018.0,457.9999999999345,36.81
1603016041.9283,74.0,784.0,1996.0,457.9999999999345,36.81
1603016042.3244,74.0,784.0,1957.0,457.9999999999345,36.81
1603016042.3254,74.0,784.0,1936.0,457.9999999999345,36.81
1603016042.3279,74.0,784.0,1928.0,457.9999999999345,36.81
1603016042.3305,74.0,784.0,1902.0,457.9999999999345,36.81
1603016042.3325,74.0,784.0,1870.0,457.9999999999345,36.81
1603016042.3345,74.0,784.0,1838.0,457.9999999999345,36.81
1603016042.3365,74.0,784.0,1807.0,457.9999999999345,36.81
1603016042.3384,74.0,784.0,1787.0,457.9999999999345,36.81
1603016042.3404,74.0,784.0,1756.0,457.9999999999345,36.81
1603016042.3425,74.0,784.0,1717.0,457.9999999999345,36.81
1603016042.3445,74.0,784.0,1702.0,457.9999999999345,36.81
1603016042.3464,74.0,784.0,1700.0,457.9999999999345,36.81
1603016042.3484,74.0,784.0,1673.0,457.9999999999345,36.81
1603016042.3503,74.0,784.0,1642.0,457.9999999999345,36.81
1603016042.3525,74.0,784.0,1642.0,457.9999999999345,36.81
1603016042.3544,74.0,784.0,1642.0,457.9999999999345,36.81
1603016042.3564,74.0,784.0,1610.0,457.9999999999345,36.81
1603016042.3583,74.0,784.0,1586.0,457.9999999999345,36.81
1603016042.3604,74.0,784.0,1576.0,457.9999999999345,36.81
1603016042.3624,74.0,784.0,1549.0,457.9999999999345,36.81
1603016042.3643,74.0,784.0,1510.0,457.9999999999345,36.81
1603016042.3663,74.0,784.0,1486.0,457.9999999999345,36.81
1603016042.3683,74.0,784.0,1484.0,457.9999999999345,36.81
1603016042.3703,74.0,784.0,1493.0,457.9999999999345,36.81
1603016042.3723,74.0,784.0,1484.0,457.9999999999345,36.81
1603016042.3743,74.0,784.0,1455.0,457.9999999999345,36.81
1603016042.3764,74.0,784.0,1433.0,457.9999999999345,36.81
1603016042.3784,74.0,784.0,1418.0,457.9999999999345,36.81
1603016042.3803,74.0,784.0,1408.0,457.9999999999345,36.81
1603016042.3823,74.0,784.0,1387.0,457.9999999999345,36.81
1603016042.3843,74.0,784.0,1360.0,457.9999999999345,36.81
1603016042.3863,74.0,784.0,1336.0,457.9999999999345,36.81
1603016042.3883,74.0,784.0,1311.0,457.9999999999345,36.81
1603016042.3903,74.0,784.0,1292.0,457.9999999999345,36.81
1603016042.3923,74.0,784.0,1292.0,457.9999999999345,36.81
1603016042.3946,74.0,784.0,1287.0,457.9999999999345,36.81
1603016042.3964,74.0,784.0,1270.0,457.9999999999345,36.81
1603016042.3983,74.0,784.0,1251.0,457.9999999999345,36.81
1603016042.4003,74.0,784.0,1238.0,457.9999999999345,36.81
1603016042.4023,74.0,784.0,1316.0,457.9999999999345,36.81
1603016042.4043,74.0,784.0,1549.0,457.9999999999345,36.81
1603016042.4063,74.0,784.0,1664.0,457.9999999999345,36.81
1603016042.4083,74.0,784.0,1234.0,457.9999999999345,36.81
1603016042.4104,74.0,784.0,663.0,457.9999999999345,36.81
1603016042.4123,74.0,784.0,755.0,457.9999999999345,36.81
1603016042.4143,74.0,784.0,1141.0,457.9999999999345,36.81
1603016042.4163,74.0,784.0,1161.0,457.9999999999345,36.81
1603016042.4183,74.0,784.0,1071.0,457.9999999999345,36.81
1603016042.4203,74.0,784.0,1122.0,457.9999999999345,36.81
1603016042.4223,74.0,784.0,1132.0,457.9999999999345,36.81
1603016042.4243,74.0,784.0,1088.0,457.9999999999345,36.81
1603016042.4264,74.0,784.0,1090.0,457.9999999999345,36.81
1603016042.4284,74.0,784.0,1090.0,457.9999999999345,36.81
1603016042.4303,74.0,784.0,1073.0,457.9999999999345,36.81
1603016042.4323,74.0,784.0,1066.0,457.9999999999345,36.81
1603016042.4343,74.0,784.0,1054.0,457.9999999999345,36.81
1603016042.4363,74.0,784.0,1027.0,457.9999999999345,36.81
1603016042.4383,74.0,784.0,1022.0,457.9999999999345,36.81
1603016042.4404,74.0,784.0,1044.0,457.9999999999345,36.81
1603016042.4423,74.0,784.0,1039.0,457.9999999999345,36.81
1603016042.4444,74.0,784.0,1017.0,457.9999999999345,36.81
1603016042.4463,74.0,784.0,1020.0,457.9999999999345,36.81
1603016042.4483,74.0,784.0,1020.0,457.9999999999345,36.81
1603016042.4503,74.0,784.0,998.0,457.9999999999345,36.81
1603016042.4523,74.0,784.0,993.0,457.9999999999345,36.81
1603016042.4543,74.0,784.0,1008.0,457.9999999999345,36.81
1603016042.4564,74.0,784.0,1003.0,457.9999999999345,36.81
1603016042.4584,74.0,784.0,993.0,457.9999999999345,36.81
1603016042.4604,74.0,784.0,991.0,457.9999999999345,36.81
1603016042.4623,74.0,784.0,991.0,457.9999999999345,36.81
1603016042.4643,74.0,784.0,986.0,457.9999999999345,36.81
1603016042.4663,74.0,784.0,978.0,457.9999999999345,36.81
1603016042.4684,74.0,784.0,976.0,457.9999999999345,36.81
1603016042.894,74.0,791.0,964.0,457.9999999999345,36.81
1603016042.8948,74.0,791.0,954.0,457.9999999999345,36.81
1603016042.8964,74.0,791.0,964.0,457.9999999999345,36.81
1603016042.8985,74.0,791.0,957.0,457.9999999999345,36.81
1603016042.9004,74.0,791.0,918.0,457.9999999999345,36.81
1603016042.9024,74.0,791.0,886.0,457.9999999999345,36.81
1603016042.9044,74.0,791.0,845.0,457.9999999999345,36.81
1603016042.9064,74.0,791.0,804.0,457.9999999999345,36.81
1603016042.9085,74.0,791.0,777.0,457.9999999999345,36.81
1603016042.9105,74.0,791.0,750.0,457.9999999999345,36.81
1603016042.9124,74.0,791.0,723.0,457.9999999999345,36.81
1603016042.9144,74.0,791.0,714.0,457.9999999999345,36.81
1603016042.9164,74.0,791.0,709.0,457.9999999999345,36.81
1603016042.9186,74.0,791.0,689.0,457.9999999999345,36.81
1603016042.9204,74.0,791.0,675.0,457.9999999999345,36.81
1603016042.9224,74.0,791.0,677.0,457.9999999999345,36.81
1603016042.9244,74.0,791.0,668.0,457.9999999999345,36.81
1603016042.9265,74.0,791.0,653.0,457.9999999999345,36.81
1603016042.9285,74.0,791.0,655.0,457.9999999999345,36.81
1603016042.9304,74.0,791.0,655.0,457.9999999999345,36.81
1603016042.9324,74.0,791.0,643.0,457.9999999999345,36.81
1603016042.9344,74.0,791.0,643.0,457.9999999999345,36.81
1603016042.9364,74.0,791.0,653.0,457.9999999999345,36.81
1603016042.9384,74.0,791.0,655.0,457.9999999999345,36.81
1603016042.9404,74.0,791.0,651.0,457.9999999999345,36.81
1603016042.9425,74.0,791.0,641.0,457.9999999999345,36.81
1603016042.9445,74.0,791.0,631.0,457.9999999999345,36.81
1603016042.9464,74.0,791.0,624.0,457.9999999999345,36.81
1603016042.9485,74.0,791.0,619.0,457.9999999999345,36.81
1603016042.9504,74.0,791.0,612.0,457.9999999999345,36.81
1603016042.9524,74.0,791.0,607.0,457.9999999999345,36.81
1603016042.9544,74.0,791.0,597.0,457.9999999999345,36.81
1603016042.9564,74.0,791.0,587.0,457.9999999999345,36.81
1603016042.9584,74.0,791.0,583.0,457.9999999999345,36.81
1603016042.9605,74.0,791.0,583.0,457.9999999999345,36.81
1603016042.9624,74.0,791.0,580.0,457.9999999999345,36.81
1603016042.9644,74.0,791.0,570.0,457.9999999999345,36.81
1603016042.9664,74.0,791.0,563.0,457.9999999999345,36.81
1603016042.9684,74.0,791.0,558.0,457.9999999999345,36.81
1603016042.9704,74.0,791.0,544.0,457.9999999999345,36.81
1603016042.9724,74.0,791.0,534.0,457.9999999999345,36.81
1603016042.9744,74.0,791.0,539.0,457.9999999999345,36.81
1603016042.9765,74.0,791.0,539.0,457.9999999999345,36.81
1603016042.9784,74.0,791.0,529.0,457.9999999999345,36.81
1603016042.9804,74.0,791.0,527.0,457.9999999999345,36.81
1603016042.9824,74.0,791.0,519.0,457.9999999999345,36.81
1603016042.9844,74.0,791.0,502.0,457.9999999999345,36.81
1603016042.9864,74.0,791.0,493.0,457.9999999999345,36.81
1603016042.9884,74.0,791.0,495.0,457.9999999999345,36.81
1603016042.9904,74.0,791.0,495.0,457.9999999999345,36.81
1603016042.9925,74.0,791.0,488.0,457.9999999999345,36.81
1603016042.9945,74.0,791.0,485.0,457.9999999999345,36.81
1603016042.9964,74.0,791.0,480.0,457.9999999999345,36.81
1603016042.9984,74.0,791.0,473.0,457.9999999999345,36.81
1603016043.0004,74.0,791.0,468.0,457.9999999999345,36.81
1603016043.0024,74.0,791.0,468.0,457.9999999999345,36.81
1603016043.0044,74.0,791.0,466.0,457.9999999999345,36.81
1603016043.0064,74.0,791.0,466.0,457.9999999999345,36.81
1603016043.0086,74.0,791.0,461.0,457.9999999999345,36.81
1603016043.0105,74.0,791.0,459.0,457.9999999999345,36.81
1603016043.0124,74.0,791.0,480.0,457.9999999999345,36.81
1603016043.0144,74.0,791.0,493.0,457.9999999999345,36.81
1603016043.0164,74.0,791.0,466.0,457.9999999999345,36.81
1603016043.0184,74.0,791.0,446.0,457.9999999999345,36.81
1603016043.0206,74.0,791.0,449.0,457.9999999999345,36.81
1603016043.0224,74.0,791.0,449.0,457.9999999999345,36.81
1603016043.0244,74.0,791.0,434.0,457.9999999999345,36.81
1603016043.0265,74.0,791.0,417.0,457.9999999999345,36.81
1603016043.0284,74.0,791.0,410.0,457.9999999999345,36.81
1603016043.0304,74.0,791.0,410.0,457.9999999999345,36.81
1603016043.0324,74.0,791.0,408.0,457.9999999999345,36.81
1603016043.0344,74.0,791.0,403.0,457.9999999999345,36.81
1603016043.0364,74.0,791.0,403.0,457.9999999999345,36.81
1603016043.4343,74.0,791.0,408.0,457.9999999999345,36.81
1603016043.4352,74.0,791.0,400.0,457.9999999999345,36.81
1603016043.4376,74.0,791.0,415.0,457.9999999999345,36.81
1603016043.4402,74.0,791.0,583.0,457.9999999999345,36.81
1603016043.4422,74.0,791.0,852.0,457.9999999999345,36.81
1603016043.4443,74.0,791.0,762.0,457.9999999999345,36.81
1603016043.4463,74.0,791.0,150.0,457.9999999999345,36.81
1603016043.4483,74.0,791.0,-189.0,457.9999999999345,36.81
1603016043.4502,74.0,791.0,150.0,457.9999999999345,36.81
1603016043.4522,74.0,791.0,408.0,457.9999999999345,36.81
1603016043.4542,74.0,791.0,325.0,457.9999999999345,36.81
1603016043.4562,74.0,791.0,349.0,457.9999999999345,36.81
1603016043.4583,74.0,791.0,425.0,457.9999999999345,36.81
1603016043.4602,74.0,791.0,383.0,457.9999999999345,36.81
1603016043.4621,74.0,791.0,366.0,457.9999999999345,36.81
1603016043.4641,74.0,791.0,405.0,457.9999999999345,36.81
1603016043.4662,74.0,791.0,405.0,457.9999999999345,36.81
1603016043.4682,74.0,791.0,388.0,457.9999999999345,36.81
1603016043.4701,74.0,791.0,388.0,457.9999999999345,36.81
1603016043.4721,74.0,791.0,386.0,457.9999999999345,36.81
1603016043.4742,74.0,791.0,386.0,457.9999999999345,36.81
1603016043.4762,74.0,791.0,395.0,457.9999999999345,36.81
1603016043.4782,74.0,791.0,395.0,457.9999999999345,36.81
1603016043.4801,74.0,791.0,391.0,457.9999999999345,36.81
1603016043.4821,74.0,791.0,393.0,457.9999999999345,36.81
1603016043.4841,74.0,791.0,408.0,457.9999999999345,36.81
1603016043.4861,74.0,791.0,412.0,457.9999999999345,36.81
1603016043.4882,74.0,791.0,408.0,457.9999999999345,36.81
1603016043.4902,74.0,791.0,405.0,457.9999999999345,36.81
1603016043.4922,74.0,791.0,410.0,457.9999999999345,36.81
1603016043.4942,74.0,791.0,415.0,457.9999999999345,36.81
1603016043.4961,74.0,791.0,427.0,457.9999999999345,36.81
1603016043.4982,74.0,791.0,444.0,457.9999999999345,36.81
1603016043.5002,74.0,791.0,449.0,457.9999999999345,36.81
1603016043.5022,74.0,791.0,451.0,457.9999999999345,36.81
1603016043.5041,74.0,791.0,461.0,457.9999999999345,36.81
1603016043.5062,74.0,791.0,463.0,457.9999999999345,36.81
1603016043.5082,74.0,791.0,449.0,457.9999999999345,36.81
1603016043.5102,74.0,791.0,439.0,457.9999999999345,36.81
1603016043.5122,74.0,791.0,439.0,457.9999999999345,36.81
1603016043.5141,74.0,791.0,439.0,457.9999999999345,36.81
1603016043.5162,74.0,791.0,425.0,457.9999999999345,36.81
1603016043.5184,74.0,791.0,398.0,457.9999999999345,36.81
1603016043.5203,74.0,791.0,369.0,457.9999999999345,36.81
1603016043.5222,74.0,791.0,344.0,457.9999999999345,36.81
1603016043.5242,74.0,791.0,325.0,457.9999999999345,36.81
1603016043.5262,74.0,791.0,308.0,457.9999999999345,36.81
1603016043.5282,74.0,791.0,289.0,457.9999999999345,36.81
1603016043.5302,74.0,791.0,272.0,457.9999999999345,36.81
1603016043.5321,74.0,791.0,262.0,457.9999999999345,36.81
1603016043.5341,74.0,791.0,255.0,457.9999999999345,36.81
1603016043.5361,74.0,791.0,245.0,457.9999999999345,36.81
1603016043.5382,74.0,791.0,238.0,457.9999999999345,36.81
1603016043.5401,74.0,791.0,247.0,457.9999999999345,36.81
1603016043.5423,74.0,791.0,247.0,457.9999999999345,36.81
1603016043.5442,74.0,791.0,240.0,457.9999999999345,36.81
1603016043.5462,74.0,791.0,242.0,457.9999999999345,36.81
1603016043.5482,74.0,791.0,240.0,457.9999999999345,36.81
1603016043.5502,74.0,791.0,233.0,457.9999999999345,36.81
1603016043.5522,74.0,791.0,235.0,457.9999999999345,36.81
1603016043.5542,74.0,791.0,247.0,457.9999999999345,36.81
1603016043.5561,74.0,791.0,264.0,457.9999999999345,36.81
1603016043.5582,74.0,791.0,257.0,457.9999999999345,36.81
1603016043.5602,74.0,791.0,235.0,457.9999999999345,36.81
1603016043.5622,74.0,791.0,233.0,457.9999999999345,36.81
1603016043.5641,74.0,791.0,245.0,457.9999999999345,36.81
1603016043.5662,74.0,791.0,242.0,457.9999999999345,36.81
1603016043.5682,74.0,791.0,230.0,457.9999999999345,36.81
1603016043.5703,74.0,791.0,245.0,457.9999999999345,36.81
1603016043.5722,74.0,791.0,259.0,457.9999999999345,36.81
1603016043.5741,74.0,791.0,240.0,457.9999999999345,36.81
1603016043.5763,74.0,791.0,235.0,457.9999999999345,36.81
1603016043.5782,74.0,791.0,245.0,457.9999999999345,36.81
1603016044.0339,75.0,825.0,228.0,457.9999999999345,36.81
1603016044.0347,75.0,825.0,218.0,457.9999999999345,36.81
1603016044.037,75.0,825.0,225.0,457.9999999999345,36.81
1603016044.0397,75.0,825.0,208.0,457.9999999999345,36.81
1603016044.0417,75.0,825.0,199.0,457.9999999999345,36.81
1603016044.0438,75.0,825.0,206.0,457.9999999999345,36.81
1603016044.0458,75.0,825.0,201.0,457.9999999999345,36.81
1603016044.0478,75.0,825.0,194.0,457.9999999999345,36.81
1603016044.0497,75.0,825.0,204.0,457.9999999999345,36.81
1603016044.0517,75.0,825.0,216.0,457.9999999999345,36.81
1603016044.0537,75.0,825.0,208.0,457.9999999999345,36.81
1603016044.0557,75.0,825.0,201.0,457.9999999999345,36.81
1603016044.0577,75.0,825.0,213.0,457.9999999999345,36.81
1603016044.0597,75.0,825.0,216.0,457.9999999999345,36.81
1603016044.0616,75.0,825.0,208.0,457.9999999999345,36.81
1603016044.0637,75.0,825.0,206.0,457.9999999999345,36.81
1603016044.0657,75.0,825.0,211.0,457.9999999999345,36.81
1603016044.0678,75.0,825.0,206.0,457.9999999999345,36.81
1603016044.0697,75.0,825.0,204.0,457.9999999999345,36.81
1603016044.0717,75.0,825.0,208.0,457.9999999999345,36.81
1603016044.0739,75.0,825.0,218.0,457.9999999999345,36.81
1603016044.0758,75.0,825.0,228.0,457.9999999999345,36.81
1603016044.0778,75.0,825.0,233.0,457.9999999999345,36.81
1603016044.0797,75.0,825.0,225.0,457.9999999999345,36.81
1603016044.0817,75.0,825.0,225.0,457.9999999999345,36.81
1603016044.0836,75.0,825.0,233.0,457.9999999999345,36.81
1603016044.0856,75.0,825.0,223.0,457.9999999999345,36.81
1603016044.0877,75.0,825.0,206.0,457.9999999999345,36.81
1603016044.0896,75.0,825.0,206.0,457.9999999999345,36.81
1603016044.0917,75.0,825.0,213.0,457.9999999999345,36.81
1603016044.0938,75.0,825.0,206.0,457.9999999999345,36.81
1603016044.0958,75.0,825.0,194.0,457.9999999999345,36.81
1603016044.0977,75.0,825.0,206.0,457.9999999999345,36.81
1603016044.0997,75.0,825.0,228.0,457.9999999999345,36.81
1603016044.1017,75.0,825.0,223.0,457.9999999999345,36.81
1603016044.1037,75.0,825.0,199.0,457.9999999999345,36.81
1603016044.1057,75.0,825.0,252.0,457.9999999999345,36.81
1603016044.1078,75.0,825.0,476.0,457.9999999999345,36.81
1603016044.1097,75.0,825.0,706.0,457.9999999999345,36.81
1603016044.1116,75.0,825.0,468.0,457.9999999999345,36.81
1603016044.1136,75.0,825.0,-179.0,457.9999999999345,36.81
1603016044.1156,75.0,825.0,-340.0,457.9999999999345,36.81
1603016044.1177,75.0,825.0,89.0,457.9999999999345,36.81
1603016044.1197,75.0,825.0,257.0,457.9999999999345,36.81
1603016044.1216,75.0,825.0,155.0,457.9999999999345,36.81
1603016044.1237,75.0,825.0,213.0,457.9999999999345,36.81
1603016044.1257,75.0,825.0,274.0,457.9999999999345,36.81
1603016044.1277,75.0,825.0,228.0,457.9999999999345,36.81
1603016044.1297,75.0,825.0,223.0,457.9999999999345,36.81
1603016044.1318,75.0,825.0,247.0,457.9999999999345,36.81
1603016044.1336,75.0,825.0,240.0,457.9999999999345,36.81
1603016044.1356,75.0,825.0,242.0,457.9999999999345,36.81
1603016044.1377,75.0,825.0,247.0,457.9999999999345,36.81
1603016044.1396,75.0,825.0,238.0,457.9999999999345,36.81
1603016044.1417,75.0,825.0,235.0,457.9999999999345,36.81
1603016044.1436,75.0,825.0,235.0,457.9999999999345,36.81
1603016044.1456,75.0,825.0,242.0,457.9999999999345,36.81
1603016044.1477,75.0,825.0,250.0,457.9999999999345,36.81
1603016044.1496,75.0,825.0,252.0,457.9999999999345,36.81
1603016044.1516,75.0,825.0,257.0,457.9999999999345,36.81
1603016044.1536,75.0,825.0,259.0,457.9999999999345,36.81
1603016044.1556,75.0,825.0,257.0,457.9999999999345,36.81
1603016044.1577,75.0,825.0,267.0,457.9999999999345,36.81
1603016044.1597,75.0,825.0,291.0,457.9999999999345,36.81
1603016044.1616,75.0,825.0,313.0,457.9999999999345,36.81
1603016044.1636,75.0,825.0,315.0,457.9999999999345,36.81
1603016044.1656,75.0,825.0,310.0,457.9999999999345,36.81
1603016044.1677,75.0,825.0,318.0,457.9999999999345,36.81
1603016044.1696,75.0,825.0,327.0,457.9999999999345,36.81
1603016044.1716,75.0,825.0,327.0,457.9999999999345,36.81
1603016044.1737,75.0,825.0,330.0,457.9999999999345,36.81
1603016044.1759,75.0,825.0,340.0,457.9999999999345,36.81
1603016044.1778,75.0,825.0,337.0,457.9999999999345,36.81
1603016044.6341,75.0,825.0,315.0,457.9999999999345,36.81
1603016044.635,75.0,825.0,306.0,457.9999999999345,36.81
1603016044.6375,75.0,825.0,298.0,457.9999999999345,36.81
1603016044.64,75.0,825.0,281.0,457.9999999999345,36.81
1603016044.6421,75.0,825.0,259.0,457.9999999999345,36.81
1603016044.644,75.0,825.0,233.0,457.9999999999345,36.81
1603016044.646,75.0,825.0,204.0,457.9999999999345,36.81
1603016044.648,75.0,825.0,177.0,457.9999999999345,36.81
1603016044.6499,75.0,825.0,148.0,457.9999999999345,36.81
1603016044.652,75.0,825.0,131.0,457.9999999999345,36.81
1603016044.6539,75.0,825.0,131.0,457.9999999999345,36.81
1603016044.656,75.0,825.0,128.0,457.9999999999345,36.81
1603016044.658,75.0,825.0,121.0,457.9999999999345,36.81
1603016044.66,75.0,825.0,121.0,457.9999999999345,36.81
1603016044.662,75.0,825.0,123.0,457.9999999999345,36.81
1603016044.664,75.0,825.0,123.0,457.9999999999345,36.81
1603016044.666,75.0,825.0,121.0,457.9999999999345,36.81
1603016044.668,75.0,825.0,126.0,457.9999999999345,36.81
1603016044.67,75.0,825.0,136.0,457.9999999999345,36.81
1603016044.6719,75.0,825.0,150.0,457.9999999999345,36.81
1603016044.6739,75.0,825.0,157.0,457.9999999999345,36.81
1603016044.676,75.0,825.0,145.0,457.9999999999345,36.81
1603016044.678,75.0,825.0,138.0,457.9999999999345,36.81
1603016044.6799,75.0,825.0,150.0,457.9999999999345,36.81
1603016044.6819,75.0,825.0,157.0,457.9999999999345,36.81
1603016044.684,75.0,825.0,165.0,457.9999999999345,36.81
1603016044.686,75.0,825.0,170.0,457.9999999999345,36.81
1603016044.688,75.0,825.0,162.0,457.9999999999345,36.81
1603016044.69,75.0,825.0,145.0,457.9999999999345,36.81
1603016044.692,75.0,825.0,143.0,457.9999999999345,36.81
1603016044.694,75.0,825.0,155.0,457.9999999999345,36.81
1603016044.696,75.0,825.0,150.0,457.9999999999345,36.81
1603016044.698,75.0,825.0,140.0,457.9999999999345,36.81
1603016044.7,75.0,825.0,145.0,457.9999999999345,36.81
1603016044.7019,75.0,825.0,148.0,457.9999999999345,36.81
1603016044.704,75.0,825.0,150.0,457.9999999999345,36.81
1603016044.706,75.0,825.0,150.0,457.9999999999345,36.81
1603016044.708,75.0,825.0,145.0,457.9999999999345,36.81
1603016044.71,75.0,825.0,145.0,457.9999999999345,36.81
1603016044.712,75.0,825.0,150.0,457.9999999999345,36.81
1603016044.7139,75.0,825.0,148.0,457.9999999999345,36.81
1603016044.7159,75.0,825.0,140.0,457.9999999999345,36.81
1603016044.7181,75.0,825.0,136.0,457.9999999999345,36.81
1603016044.72,75.0,825.0,140.0,457.9999999999345,36.81
1603016044.722,75.0,825.0,138.0,457.9999999999345,36.81
1603016044.7239,75.0,825.0,133.0,457.9999999999345,36.81
1603016044.726,75.0,825.0,140.0,457.9999999999345,36.81
1603016044.728,75.0,825.0,138.0,457.9999999999345,36.81
1603016044.7301,75.0,825.0,138.0,457.9999999999345,36.81
1603016044.7321,75.0,825.0,153.0,457.9999999999345,36.81
1603016044.734,75.0,825.0,150.0,457.9999999999345,36.81
1603016044.736,75.0,825.0,143.0,457.9999999999345,36.81
1603016044.738,75.0,825.0,157.0,457.9999999999345,36.81
1603016044.7399,75.0,825.0,182.0,457.9999999999345,36.81
1603016044.742,75.0,825.0,187.0,457.9999999999345,36.81
1603016044.744,75.0,825.0,172.0,457.9999999999345,36.81
1603016044.7459,75.0,825.0,170.0,457.9999999999345,36.81
1603016044.748,75.0,825.0,174.0,457.9999999999345,36.81
1603016044.7499,75.0,825.0,170.0,457.9999999999345,36.81
1603016044.7519,75.0,825.0,162.0,457.9999999999345,36.81
1603016044.7539,75.0,825.0,155.0,457.9999999999345,36.81
1603016044.7559,75.0,825.0,153.0,457.9999999999345,36.81
1603016044.758,75.0,825.0,150.0,457.9999999999345,36.81
1603016044.76,75.0,825.0,150.0,457.9999999999345,36.81
1603016044.762,75.0,825.0,160.0,457.9999999999345,36.81
1603016044.764,75.0,825.0,170.0,457.9999999999345,36.81
1603016044.766,75.0,825.0,160.0,457.9999999999345,36.81
1603016044.768,75.0,825.0,145.0,457.9999999999345,36.81
1603016044.77,75.0,825.0,189.0,457.9999999999345,36.81
1603016044.772,75.0,825.0,383.0,457.9999999999345,36.81
1603016044.7739,75.0,825.0,631.0,457.9999999999345,36.81
1603016044.7761,75.0,825.0,488.0,457.9999999999345,36.81
1603016044.778,75.0,825.0,-119.0,457.9999999999345,36.81
1603016045.1444,75.0,858.0,-383.0,457.9999999999345,36.81
1603016045.1451,75.0,858.0,-4.0,457.9999999999345,36.81
1603016045.1475,75.0,858.0,228.0,457.9999999999345,36.81
1603016045.1501,75.0,858.0,133.0,457.9999999999345,36.81
1603016045.1522,75.0,858.0,145.0,457.9999999999345,36.81
1603016045.1542,75.0,858.0,204.0,457.9999999999345,36.81
1603016045.1562,75.0,858.0,172.0,457.9999999999345,36.81
1603016045.1582,75.0,858.0,174.0,457.9999999999345,36.81
1603016045.1601,75.0,858.0,206.0,457.9999999999345,36.81
1603016045.1621,75.0,858.0,199.0,457.9999999999345,36.81
1603016045.1641,75.0,858.0,191.0,457.9999999999345,36.81
1603016045.1661,75.0,858.0,206.0,457.9999999999345,36.81
1603016045.1681,75.0,858.0,206.0,457.9999999999345,36.81
1603016045.1702,75.0,858.0,189.0,457.9999999999345,36.81
1603016045.1721,75.0,858.0,187.0,457.9999999999345,36.81
1603016045.1741,75.0,858.0,199.0,457.9999999999345,36.81
1603016045.1761,75.0,858.0,194.0,457.9999999999345,36.81
1603016045.1781,75.0,858.0,191.0,457.9999999999345,36.81
1603016045.1801,75.0,858.0,208.0,457.9999999999345,36.81
1603016045.1821,75.0,858.0,228.0,457.9999999999345,36.81
1603016045.1841,75.0,858.0,228.0,457.9999999999345,36.81
1603016045.1861,75.0,858.0,223.0,457.9999999999345,36.81
1603016045.1881,75.0,858.0,230.0,457.9999999999345,36.81
1603016045.19,75.0,858.0,242.0,458.01413053920203,36.81
1603016045.1922,75.0,858.0,252.0,458.0268191867075,36.81
1603016045.1941,75.0,858.0,259.0,458.0380950715776,36.81
1603016045.1961,75.0,858.0,272.0,458.04798732293864,36.81
1603016045.1983,75.0,858.0,279.0,458.05652506991726,36.81
1603016045.2002,75.0,858.0,281.0,458.0637374416398,36.81
1603016045.2008,75.0,858.0,279.0,458.069653567233,36.81
1603016045.2031,75.0,858.0,281.0,458.07430257582314,36.81
1603016045.2051,75.0,858.0,284.0,458.0777135965368,36.81
1603016045.2071,75.0,858.0,286.0,458.07991575850065,36.81
1603016045.2092,75.0,858.0,274.0,458.0809381908409,36.81
1603016045.2111,75.0,858.0,242.0,458.0808100226843,36.81
1603016045.2131,75.0,858.0,213.0,458.0795603831573,36.81
1603016045.2151,75.0,858.0,201.0,458.0772184013863,36.81
1603016045.2171,75.0,858.0,179.0,458.0738132064978,36.81
1603016045.2191,75.0,858.0,148.0,458.06937392761847,36.81
1603016045.2211,75.0,858.0,131.0,458.0639296938747,36.81
1603016045.2231,75.0,858.0,128.0,458.057509634393,36.81
1603016045.2252,75.0,858.0,109.0,458.0501428783,36.81
1603016045.2271,75.0,858.0,85.0,458.041858554722,36.81
1603016045.2291,75.0,858.0,87.0,458.0326857927856,36.81
1603016045.2298,75.0,858.0,106.0,458.0226537216173,36.81
1603016045.2321,75.0,858.0,102.0,458.0117914703436,36.81
1603016045.2341,75.0,858.0,85.0,458.0001281680911,36.81
1603016045.2361,75.0,858.0,89.0,457.9876929439862,36.81
1603016045.2381,75.0,858.0,114.0,457.9745149271554,36.81
1603016045.2401,75.0,858.0,119.0,457.96062324672516,36.81
1603016045.2422,75.0,858.0,114.0,457.9460470318221,36.81
1603016045.2441,75.0,858.0,121.0,457.93081541157267,36.81
1603016045.246,75.0,858.0,126.0,457.9149575151034,36.81
1603016045.2481,75.0,858.0,119.0,457.89850247154084,36.81
1603016045.2501,75.0,858.0,123.0,457.88147941001137,36.81
1603016045.2521,75.0,858.0,136.0,457.8639174596416,36.81
1603016045.2541,75.0,858.0,128.0,457.84584574955795,36.81
1603016045.2561,75.0,858.0,116.0,457.82729340888704,36.81
1603016045.2582,75.0,858.0,116.0,457.8082895667552,36.81
1603016045.2601,75.0,858.0,126.0,457.7888633522891,36.81
1603016045.2608,75.0,858.0,131.0,457.76904389461527,36.81
1603016045.2631,75.0,858.0,121.0,457.74886032285997,36.81
1603016045.2651,75.0,858.0,109.0,457.7283417661499,36.81
1603016045.2671,75.0,858.0,109.0,457.7075173536116,36.81
1603016045.2691,75.0,858.0,121.0,457.68641621437155,36.81
1603016045.2711,75.0,858.0,131.0,457.665067477556,36.81
1603016045.2731,75.0,858.0,123.0,457.6435002722918,36.81
1603016045.2752,75.0,858.0,106.0,457.62174372770534,36.81
1603016045.2771,75.0,858.0,106.0,457.5998269729231,36.81
1603016045.2791,75.0,858.0,111.0,457.57777913707156,36.81
1603016045.2811,75.0,858.0,109.0,457.55562934927724,36.81
1603016045.2831,75.0,858.0,109.0,457.53340673866666,36.81
1603016045.2851,75.0,858.0,114.0,457.5111404343663,36.81
1603016045.714,74.0,863.0,116.0,457.4888595655027,36.81
1603016045.7148,74.0,863.0,119.0,457.4665932612024,36.81
1603016045.7172,74.0,863.0,116.0,457.4443706505918,36.81
1603016045.7198,74.0,863.0,119.0,457.4222208627975,36.81
1603016045.7218,74.0,863.0,116.0,457.4001730269459,36.81
1603016045.7242,74.0,863.0,111.0,457.3782562721636,36.81
1603016045.726,74.0,863.0,114.0,457.3564997275771,36.81
1603016045.7278,74.0,863.0,104.0,457.3349325223129,36.81
1603016045.7298,74.0,863.0,94.0,457.3135837854975,36.81
1603016045.7317,74.0,863.0,114.0,457.2924826462573,36.81
1603016045.7337,74.0,863.0,148.0,457.27165823371894,36.81
1603016045.7357,74.0,863.0,150.0,457.2511396770089,36.81
1603016045.7378,74.0,863.0,131.0,457.2309561052537,36.81
1603016045.7397,74.0,863.0,126.0,457.21113664757985,36.81
1603016045.7419,74.0,863.0,131.0,457.19171043311366,36.81
1603016045.7438,74.0,863.0,131.0,457.17270659098193,36.81
1603016045.7445,74.0,863.0,126.0,457.154154250311,36.81
1603016045.7467,74.0,863.0,116.0,457.1360825402274,36.81
1603016045.7488,74.0,863.0,116.0,457.1185205898576,36.81
1603016045.7508,74.0,863.0,123.0,457.10149752832814,36.81
1603016045.7527,74.0,863.0,123.0,457.08504248476555,36.81
1603016045.7548,74.0,863.0,123.0,457.0691845882963,36.81
1603016045.7568,74.0,863.0,138.0,457.0539529680469,36.81
1603016045.7589,74.0,863.0,140.0,457.0535072924113,36.81
1603016045.7607,74.0,863.0,116.0,457.0523042594867,36.81
1603016045.7628,74.0,863.0,140.0,457.05040212752596,36.81
1603016045.7648,74.0,863.0,335.0,457.0478591547821,36.81
1603016045.7668,74.0,863.0,592.0,457.0447335995081,36.81
1603016045.7688,74.0,863.0,454.0,457.04108371995704,36.81
1603016045.7708,74.0,863.0,-150.0,457.0369677743818,36.81
1603016045.7728,74.0,863.0,-417.0,457.0324440210357,36.81
1603016045.7749,74.0,863.0,-46.0,457.0275707181714,36.81
1603016045.7755,74.0,863.0,187.0,457.0224061240421,36.81
1603016045.7778,74.0,863.0,94.0,457.0170084969007,36.81
1603016045.7797,74.0,863.0,114.0,457.0114360950003,36.81
1603016045.7818,74.0,863.0,182.0,457.00574717659396,36.81
1603016045.7838,74.0,863.0,143.0,456.9999999999346,36.81
1603016045.7857,74.0,863.0,136.0,456.9942528232752,36.81
1603016045.7878,74.0,863.0,167.0,456.9885639048687,36.81
1603016045.7898,74.0,863.0,165.0,456.98299150296833,36.81
1603016045.7918,74.0,863.0,160.0,456.97759387582704,36.81
1603016045.7939,74.0,863.0,170.0,456.97242928169766,36.81
1603016045.7957,74.0,863.0,174.0,456.96755597883345,36.81
1603016045.7978,74.0,863.0,172.0,456.9630322254872,36.81
1603016045.7998,74.0,863.0,174.0,456.9589162799121,36.81
1603016045.8017,74.0,863.0,182.0,456.95526640036104,36.81
1603016045.8037,74.0,863.0,172.0,456.95214084508706,36.81
1603016045.8057,74.0,863.0,165.0,456.9495978723432,36.81
1603016045.8064,74.0,863.0,196.0,456.94769574038236,36.81
1603016045.8079,74.0,863.0,216.0,456.9464927074577,36.81
1603016045.8098,74.0,863.0,213.0,456.94604703182216,36.81
1603016045.8119,74.0,863.0,218.0,456.93081541157284,36.81
1603016045.8138,74.0,863.0,221.0,456.9149575151036,36.81
1603016045.8157,74.0,863.0,218.0,456.8985024715409,36.81
1603016045.8178,74.0,863.0,230.0,456.8814794100114,36.81
1603016045.8197,74.0,863.0,245.0,456.86391745964164,36.81
1603016045.8219,74.0,863.0,252.0,456.845845749558,36.81
1603016045.8239,74.0,863.0,252.0,456.8272934088871,36.81
1603016045.8258,74.0,863.0,257.0,456.80828956675526,36.81
1603016045.8278,74.0,863.0,264.0,456.7888633522892,36.81
1603016045.8297,74.0,863.0,267.0,456.7690438946153,36.81
1603016045.8317,74.0,863.0,262.0,456.74886032286,36.81
1603016045.8337,74.0,863.0,255.0,456.72834176615,36.81
1603016045.8358,74.0,863.0,247.0,456.70751735361165,36.81
1603016045.8366,74.0,863.0,230.0,456.68641621437155,36.81
1603016045.8388,74.0,863.0,213.0,456.66506747755614,36.81
1603016045.8408,74.0,863.0,189.0,456.64350027229193,36.81
1603016045.8427,74.0,863.0,162.0,456.62174372770545,36.81
1603016045.8447,74.0,863.0,138.0,456.59982697292315,36.81
1603016045.8468,74.0,863.0,119.0,456.5777791370716,36.81
1603016045.8488,74.0,863.0,109.0,456.5556293492773,36.81
1603016045.8507,74.0,863.0,106.0,456.53340673866677,36.81
1603016045.8527,74.0,863.0,97.0,456.51114043436644,36.81
1603016046.2545,74.0,863.0,87.0,456.48885956550293,36.81
1603016046.2554,74.0,863.0,87.0,456.4665932612026,36.81
1603016046.2579,74.0,863.0,80.0,456.444370650592,36.81
1603016046.2604,74.0,863.0,72.0,456.42222086279776,36.81
1603016046.2624,74.0,863.0,82.0,456.40017302694616,36.81
1603016046.2644,74.0,863.0,92.0,456.37825627216387,36.81
1603016046.2651,74.0,863.0,92.0,456.35649972757744,36.81
1603016046.2674,74.0,863.0,87.0,456.33493252231324,36.81
1603016046.2693,74.0,863.0,89.0,456.3135837854978,36.81
1603016046.2714,74.0,863.0,92.0,456.29248264625767,36.81
1603016046.2734,74.0,863.0,87.0,456.27165823371934,36.81
1603016046.2753,74.0,863.0,82.0,456.2511396770093,36.81
1603016046.2774,74.0,863.0,89.0,456.230956105254,36.81
1603016046.2793,74.0,863.0,102.0,456.21113664758013,36.81
1603016046.2813,74.0,863.0,104.0,456.19171043311394,36.81
1603016046.2833,74.0,863.0,94.0,456.1727065909822,36.81
1603016046.2853,74.0,863.0,92.0,456.1541542503112,36.81
1603016046.2873,74.0,863.0,102.0,456.13608254022756,36.81
1603016046.2893,74.0,863.0,102.0,456.1185205898578,36.81
1603016046.2914,74.0,863.0,89.0,456.1014975283284,36.81
1603016046.2933,74.0,863.0,80.0,456.0850424847657,36.81
1603016046.294,74.0,863.0,82.0,456.0691845882965,36.81
1603016046.2963,74.0,863.0,85.0,456.05395296804716,36.81
1603016046.2984,74.0,863.0,80.0,456.0393767531441,36.81
1603016046.3003,74.0,863.0,85.0,456.0254850727139,36.81
1603016046.3024,74.0,863.0,82.0,456.01230705588307,36.81
1603016046.3043,74.0,863.0,75.0,455.99987183177814,36.81
1603016046.3064,74.0,863.0,80.0,455.98820852952565,36.81
1603016046.3083,74.0,863.0,82.0,455.97734627825196,36.81
1603016046.3103,74.0,863.0,77.0,455.96731420708363,36.81
1603016046.3124,74.0,863.0,85.0,455.95814144514725,36.81
1603016046.3143,74.0,863.0,92.0,455.94985712156927,36.81
1603016046.3163,74.0,863.0,89.0,455.94249036547626,36.81
1603016046.3183,74.0,863.0,89.0,455.9360703059946,36.81
1603016046.3206,74.0,863.0,92.0,455.9306260722508,36.81
1603016046.3223,74.0,863.0,92.0,455.92618679337147,36.81
1603016046.3244,74.0,863.0,94.0,455.92278159848297,36.81
1603016046.325,74.0,863.0,89.0,455.920439616712,36.81
1603016046.3275,74.0,863.0,92.0,455.91918997718494,36.81
1603016046.3293,74.0,863.0,109.0,455.91906180902834,36.81
1603016046.3313,74.0,863.0,119.0,455.9200842413686,36.81
1603016046.3333,74.0,863.0,121.0,455.92228640333235,36.81
1603016046.3353,74.0,863.0,128.0,455.9256974240461,36.81
1603016046.3373,74.0,863.0,131.0,455.93034643263627,36.81
1603016046.3394,74.0,863.0,119.0,455.9362625582295,36.81
1603016046.3413,74.0,863.0,109.0,455.943474929952,36.81
1603016046.3433,74.0,863.0,102.0,455.9520126769306,36.81
1603016046.3453,74.0,863.0,94.0,455.9619049282917,36.81
1603016046.3474,74.0,863.0,92.0,455.97318081316166,36.81
1603016046.3493,74.0,863.0,97.0,455.98586946066723,36.81
1603016046.3513,74.0,863.0,102.0,455.99999999993474,36.81
1603016046.3533,74.0,863.0,97.0,455.99999999993474,36.81
1603016046.3553,74.0,863.0,97.0,455.99999999993474,36.81
1603016046.3561,74.0,863.0,99.0,455.99999999993474,36.81
1603016046.3584,74.0,863.0,97.0,455.99999999993474,36.81
1603016046.3603,74.0,863.0,182.0,455.99999999993474,36.81
1603016046.3623,74.0,863.0,432.0,455.99999999993474,36.81
1603016046.3644,74.0,863.0,585.0,455.99999999993474,36.81
1603016046.3663,74.0,863.0,211.0,455.99999999993474,36.81
1603016046.3683,74.0,863.0,-364.0,455.99999999993474,36.81
1603016046.3704,74.0,863.0,-315.0,455.99999999993474,36.81
1603016046.3723,74.0,863.0,87.0,455.99999999993474,36.81
1603016046.3744,74.0,863.0,133.0,455.99999999993474,36.81
1603016046.3763,74.0,863.0,55.0,455.99999999993474,36.81
1603016046.3784,74.0,863.0,133.0,455.99999999993474,36.81
1603016046.3803,74.0,863.0,155.0,455.99999999993474,36.81
1603016046.3823,74.0,863.0,114.0,455.99999999993474,36.81
1603016046.3843,74.0,863.0,128.0,455.99999999993474,36.81
1603016046.3863,74.0,863.0,145.0,455.99999999993474,36.81
1603016046.3871,74.0,863.0,126.0,455.99999999993474,36.81
1603016046.3894,74.0,863.0,136.0,455.99999999993474,36.81
1603016046.3914,74.0,863.0,162.0,455.99999999993474,36.81
1603016046.3933,74.0,863.0,157.0,455.99999999993474,36.81
1603016046.8238,74.0,828.0,148.0,455.99999999993474,36.81
1603016046.8246,74.0,828.0,153.0,455.99999999993474,36.81
1603016046.827,74.0,828.0,157.0,455.99999999993474,36.81
1603016046.8296,74.0,828.0,165.0,455.99999999993474,36.81
1603016046.8315,74.0,828.0,174.0,455.99999999993474,36.81
1603016046.8335,74.0,828.0,167.0,455.99999999993474,36.81
1603016046.8354,74.0,828.0,155.0,455.99999999993474,36.81
1603016046.8376,74.0,828.0,165.0,455.99999999993474,36.81
1603016046.8396,74.0,828.0,177.0,455.99999999993474,36.81
1603016046.8415,74.0,828.0,172.0,455.99999999993474,36.81
1603016046.8435,74.0,828.0,174.0,455.99999999993474,36.81
1603016046.8455,74.0,828.0,194.0,455.99999999993474,36.81
1603016046.8477,74.0,828.0,208.0,455.99999999993474,36.81
1603016046.8496,74.0,828.0,208.0,455.99999999993474,36.81
1603016046.8515,74.0,828.0,213.0,455.99999999993474,36.81
1603016046.8535,74.0,828.0,221.0,455.99999999993474,36.81
1603016046.8555,74.0,828.0,223.0,455.99999999993474,36.81
1603016046.8576,74.0,828.0,211.0,455.99999999993474,36.81
1603016046.8596,74.0,828.0,206.0,455.99999999993474,36.81
1603016046.8615,74.0,828.0,221.0,455.99999999993474,36.81
1603016046.8635,74.0,828.0,218.0,455.99999999993474,36.81
1603016046.8655,74.0,828.0,196.0,455.99999999993474,36.81
1603016046.8675,74.0,828.0,174.0,455.99999999993474,36.81
1603016046.8695,74.0,828.0,143.0,456.01413053920226,36.81
1603016046.8715,74.0,828.0,111.0,456.0268191867078,36.81
1603016046.8736,74.0,828.0,97.0,456.0380950715778,36.81
1603016046.8755,74.0,828.0,85.0,456.04798732293887,36.81
1603016046.8775,74.0,828.0,68.0,456.0565250699175,36.81
1603016046.8795,74.0,828.0,63.0,456.0637374416401,36.81
1603016046.8815,74.0,828.0,68.0,456.0696535672332,36.81
1603016046.8835,74.0,828.0,63.0,456.07430257582337,36.81
1603016046.8855,74.0,828.0,55.0,456.07771359653714,36.81
1603016046.8875,74.0,828.0,60.0,456.0799157585009,36.81
1603016046.8896,74.0,828.0,58.0,456.08093819084127,36.81
1603016046.8916,74.0,828.0,55.0,456.08081002268455,36.81
1603016046.8935,74.0,828.0,70.0,456.0795603831575,36.81
1603016046.8955,74.0,828.0,85.0,456.0772184013865,36.81
1603016046.8976,74.0,828.0,75.0,456.07381320649813,36.81
1603016046.8995,74.0,828.0,65.0,456.0693739276188,36.81
1603016046.9015,74.0,828.0,77.0,456.063929693875,36.81
1603016046.9035,74.0,828.0,89.0,456.05750963439334,36.81
1603016046.9055,74.0,828.0,80.0,456.0501428783002,36.81
1603016046.9076,74.0,828.0,77.0,456.04185855472224,36.81
1603016046.9095,74.0,828.0,87.0,456.03268579278586,36.81
1603016046.9115,74.0,828.0,80.0,456.02265372161764,36.81
1603016046.9135,74.0,828.0,80.0,456.01179147034395,36.81
1603016046.9155,74.0,828.0,94.0,456.00012816809135,36.81
1603016046.9175,74.0,828.0,92.0,455.9876929439864,36.81
1603016046.9195,74.0,828.0,72.0,455.9745149271556,36.81
1603016046.9216,74.0,828.0,77.0,455.9606232467255,36.81
1603016046.9236,74.0,828.0,94.0,455.94604703182245,36.81
1603016046.9255,74.0,828.0,92.0,455.930815411573,36.81
1603016046.9275,74.0,828.0,87.0,455.91495751510377,36.81
1603016046.9295,74.0,828.0,89.0,455.8985024715412,36.81
1603016046.9315,74.0,828.0,92.0,455.8814794100117,36.81
1603016046.9335,74.0,828.0,89.0,455.8639174596419,36.81
1603016046.9355,74.0,828.0,82.0,455.8458457495583,36.81
1603016046.9375,74.0,828.0,80.0,455.8272934088874,36.81
1603016046.9396,74.0,828.0,80.0,455.80828956675555,36.81
1603016046.9415,74.0,828.0,72.0,455.78886335228947,36.81
1603016046.9435,74.0,828.0,70.0,455.7690438946155,36.81
1603016046.9455,74.0,828.0,77.0,455.7488603228603,36.81
1603016046.9475,74.0,828.0,75.0,455.72834176615027,36.81
1603016046.9497,74.0,828.0,77.0,455.70751735361193,36.81
1603016046.9516,74.0,828.0,80.0,455.6864162143718,36.81
1603016046.9535,74.0,828.0,68.0,455.66506747755636,36.81
1603016046.9555,74.0,828.0,72.0,455.64350027229216,36.81
1603016046.9576,74.0,828.0,97.0,455.6217437277056,36.81
1603016046.9595,74.0,828.0,111.0,455.5998269729233,36.81
1603016046.9615,74.0,828.0,119.0,455.57777913707173,36.81
1603016046.9635,74.0,828.0,121.0,455.55562934927747,36.81
1603016046.9655,74.0,828.0,106.0,455.5334067386669,36.81
1603016046.9675,74.0,828.0,89.0,455.51114043436655,36.81
1603016047.4245,74.0,828.0,92.0,455.488859565503,36.81
1603016047.4253,74.0,828.0,99.0,455.46659326120266,36.81
1603016047.4278,74.0,828.0,89.0,455.4443706505921,36.81
1603016047.4305,74.0,828.0,82.0,455.42222086279776,36.81
1603016047.4325,74.0,828.0,77.0,455.4001730269462,36.81
1603016047.4345,74.0,828.0,68.0,455.378256272164,36.81
1603016047.4365,74.0,828.0,75.0,455.3564997275775,36.81
1603016047.4384,74.0,828.0,77.0,455.3349325223133,36.81
1603016047.4405,74.0,828.0,65.0,455.3135837854979,36.81
1603016047.4425,74.0,828.0,58.0,455.2924826462578,36.81
1603016047.4445,74.0,828.0,77.0,455.27165823371945,36.81
1603016047.4465,74.0,828.0,223.0,455.2511396770094,36.81
1603016047.4485,74.0,828.0,505.0,455.23095610525417,36.81
1603016047.4504,74.0,828.0,534.0,455.21113664758025,36.81
1603016047.4524,74.0,828.0,-19.0,455.1917104331141,36.81
1603016047.4544,74.0,828.0,-510.0,455.17270659098233,36.81
1603016047.4565,74.0,828.0,-257.0,455.15415425031136,36.81
1603016047.4583,74.0,828.0,111.0,455.13608254022773,36.81
1603016047.4604,74.0,828.0,72.0,455.11852058985795,36.81
1603016047.4624,74.0,828.0,51.0,455.1014975283285,36.81
1603016047.4644,74.0,828.0,145.0,455.0850424847659,36.81
1603016047.4665,74.0,828.0,140.0,455.06918458829665,36.81
1603016047.4685,74.0,828.0,109.0,455.0539529680472,36.81
1603016047.4704,74.0,828.0,128.0,455.0393767531442,36.81
1603016047.4725,74.0,828.0,131.0,455.025485072714,36.81
1603016047.4747,74.0,828.0,131.0,455.0123070558832,36.81
1603016047.4764,74.0,828.0,153.0,454.99987183177825,36.81
1603016047.4784,74.0,828.0,153.0,454.9882085295257,36.81
1603016047.4804,74.0,828.0,143.0,454.97734627825207,36.81
1603016047.4824,74.0,828.0,157.0,454.96731420708375,36.81
1603016047.4844,74.0,828.0,157.0,454.95814144514736,36.81
1603016047.4864,74.0,828.0,145.0,454.9498571215694,36.81
1603016047.4884,74.0,828.0,155.0,454.9424903654763,36.81
1603016047.4905,74.0,828.0,174.0,454.93607030599463,36.81
1603016047.4924,74.0,828.0,187.0,454.93062607225085,36.81
1603016047.4944,74.0,828.0,182.0,454.9261867933715,36.81
1603016047.4964,74.0,828.0,177.0,454.9227815984831,36.81
1603016047.4984,74.0,828.0,199.0,454.9204396167121,36.81
1603016047.5004,74.0,828.0,223.0,454.91918997718506,36.81
1603016047.5024,74.0,828.0,218.0,454.91906180902845,36.81
1603016047.5044,74.0,828.0,218.0,454.9200842413687,36.81
1603016047.5066,74.0,828.0,230.0,454.9222864033325,36.81
1603016047.5084,74.0,828.0,247.0,454.92569742404623,36.81
1603016047.5103,74.0,828.0,257.0,454.93034643263644,36.81
1603016047.5123,74.0,828.0,257.0,454.93626255822954,36.81
1603016047.5144,74.0,828.0,250.0,454.9434749299522,36.81
1603016047.5164,74.0,828.0,247.0,454.95201267693074,36.81
1603016047.5184,74.0,828.0,252.0,454.9619049282918,36.81
1603016047.5204,74.0,828.0,250.0,454.97318081316183,36.81
1603016047.5225,74.0,828.0,230.0,454.98586946066735,36.81
1603016047.5244,74.0,828.0,204.0,454.99999999993486,36.81
1603016047.5264,74.0,828.0,184.0,454.99999999993486,36.81
1603016047.5284,74.0,828.0,160.0,454.99999999993486,36.81
1603016047.5304,74.0,828.0,126.0,454.99999999993486,36.81
1603016047.5324,74.0,828.0,102.0,454.99999999993486,36.81
1603016047.5344,74.0,828.0,94.0,454.99999999993486,36.81
1603016047.5364,74.0,828.0,92.0,454.99999999993486,36.81
1603016047.5384,74.0,828.0,82.0,454.99999999993486,36.81
1603016047.5404,74.0,828.0,68.0,454.99999999993486,36.81
1603016047.5424,74.0,828.0,55.0,454.99999999993486,36.81
1603016047.5444,74.0,828.0,53.0,454.99999999993486,36.81
1603016047.5464,74.0,828.0,65.0,454.99999999993486,36.81
1603016047.5483,74.0,828.0,80.0,454.99999999993486,36.81
1603016047.5503,74.0,828.0,82.0,454.99999999993486,36.81
1603016047.5524,74.0,828.0,75.0,454.99999999993486,36.81
1603016047.5544,74.0,828.0,75.0,454.99999999993486,36.81
1603016047.5564,74.0,828.0,87.0,454.99999999993486,36.81
1603016047.5584,74.0,828.0,89.0,454.99999999993486,36.81
1603016047.5604,74.0,828.0,92.0,454.99999999993486,36.81
1603016047.5624,74.0,828.0,97.0,454.99999999993486,36.81
1603016047.5644,74.0,828.0,89.0,454.99999999993486,36.81
1603016047.5664,74.0,828.0,94.0,454.99999999993486,36.81
1603016047.5684,74.0,828.0,106.0,454.99999999993486,36.81
1603016047.9635,74.0,811.0,102.0,454.99999999993486,36.81
1603016047.9642,74.0,811.0,92.0,454.99999999993486,36.81
1603016047.9666,74.0,811.0,92.0,454.99999999993486,36.81
1603016047.9693,74.0,811.0,97.0,454.99999999993486,36.81
1603016047.9712,74.0,811.0,94.0,454.99999999993486,36.81
1603016047.9733,74.0,811.0,92.0,454.99999999993486,36.81
1603016047.9753,74.0,811.0,92.0,454.99999999993486,36.81
1603016047.9772,74.0,811.0,92.0,454.99999999993486,36.81
1603016047.9792,74.0,811.0,87.0,454.99999999993486,36.81
1603016047.9812,74.0,811.0,89.0,454.99999999993486,36.81
1603016047.9832,74.0,811.0,87.0,454.99999999993486,36.81
1603016047.9852,74.0,811.0,85.0,454.99999999993486,36.81
1603016047.9874,74.0,811.0,82.0,454.99999999993486,36.81
1603016047.9892,74.0,811.0,77.0,454.99999999993486,36.81
1603016047.9912,74.0,811.0,75.0,454.99999999993486,36.81
1603016047.9932,74.0,811.0,75.0,454.99999999993486,36.81
1603016047.9952,74.0,811.0,75.0,454.99999999993486,36.81
1603016047.9972,74.0,811.0,75.0,454.99999999993486,36.81
1603016047.9992,74.0,811.0,80.0,454.99999999993486,36.81
1603016048.0014,74.0,811.0,80.0,454.99999999993486,36.81
1603016048.0032,74.0,811.0,70.0,454.99999999993486,36.81
1603016048.0053,74.0,811.0,77.0,454.99999999993486,36.81
1603016048.0072,74.0,811.0,72.0,454.99999999993486,36.81
1603016048.0092,74.0,811.0,58.0,454.99999999993486,36.81
1603016048.0112,74.0,811.0,80.0,454.99999999993486,36.81
1603016048.0132,74.0,811.0,111.0,454.99999999993486,36.81
1603016048.0152,74.0,811.0,111.0,454.99999999993486,36.81
1603016048.0172,74.0,811.0,97.0,454.99999999993486,36.81
1603016048.0192,74.0,811.0,92.0,454.99999999993486,36.81
1603016048.0213,74.0,811.0,106.0,454.99999999993486,36.81
1603016048.0232,74.0,811.0,111.0,454.99999999993486,36.81
1603016048.0252,74.0,811.0,92.0,454.99999999993486,36.81
1603016048.0272,74.0,811.0,82.0,454.99999999993486,36.81
1603016048.0292,74.0,811.0,92.0,454.99999999993486,36.81
1603016048.0312,74.0,811.0,89.0,454.99999999993486,36.81
1603016048.0332,74.0,811.0,82.0,454.99999999993486,36.81
1603016048.0352,74.0,811.0,92.0,454.99999999993486,36.81
1603016048.0373,74.0,811.0,102.0,454.99999999993486,36.81
1603016048.0392,74.0,811.0,94.0,454.99999999993486,36.81
1603016048.0412,74.0,811.0,85.0,454.99999999993486,36.81
1603016048.0432,74.0,811.0,92.0,454.99999999993486,36.81
1603016048.0452,74.0,811.0,184.0,454.99999999993486,36.81
1603016048.0473,74.0,811.0,429.0,454.99999999993486,36.81
1603016048.0492,74.0,811.0,583.0,454.99999999993486,36.81
1603016048.0512,74.0,811.0,206.0,454.99999999993486,36.81
1603016048.0532,74.0,811.0,-386.0,454.99999999993486,36.81
1603016048.0553,74.0,811.0,-340.0,454.99999999993486,36.81
1603016048.0572,74.0,811.0,82.0,454.99999999993486,36.81
1603016048.0592,74.0,811.0,133.0,454.99999999993486,36.81
1603016048.0612,74.0,811.0,46.0,454.99999999993486,36.81
1603016048.0632,74.0,811.0,126.0,454.99999999993486,36.81
1603016048.0653,74.0,811.0,157.0,454.99999999993486,36.81
1603016048.0672,74.0,811.0,114.0,454.99999999993486,36.81
1603016048.0692,74.0,811.0,126.0,454.99999999993486,36.81
1603016048.0713,74.0,811.0,148.0,454.99999999993486,36.81
1603016048.0732,74.0,811.0,133.0,454.99999999993486,36.81
1603016048.0752,74.0,811.0,126.0,454.99999999993486,36.81
1603016048.0772,74.0,811.0,138.0,454.99999999993486,36.81
1603016048.0792,74.0,811.0,145.0,454.99999999993486,36.81
1603016048.0812,74.0,811.0,150.0,454.99999999993486,36.81
1603016048.0832,74.0,811.0,157.0,454.99999999993486,36.81
1603016048.0852,74.0,811.0,155.0,454.99999999993486,36.81
1603016048.0872,74.0,811.0,150.0,454.99999999993486,36.81
1603016048.0892,74.0,811.0,160.0,454.99999999993486,36.81
1603016048.0912,74.0,811.0,174.0,454.99999999993486,36.81
1603016048.0932,74.0,811.0,177.0,454.99999999993486,36.81
1603016048.0952,74.0,811.0,172.0,454.99999999993486,36.81
1603016048.0972,74.0,811.0,174.0,454.99999999993486,36.81
1603016048.0992,74.0,811.0,189.0,454.99999999993486,36.81
1603016048.1012,74.0,811.0,194.0,454.99999999993486,36.81
1603016048.1033,74.0,811.0,204.0,454.99999999993486,36.81
1603016048.1052,74.0,811.0,228.0,454.99999999993486,36.81
1603016048.1071,74.0,811.0,235.0,454.99999999993486,36.81
1603016048.5045,74.0,811.0,225.0,454.99999999993486,36.81
1603016048.5054,74.0,811.0,233.0,454.99999999993486,36.81
1603016048.5079,74.0,811.0,247.0,454.99999999993486,36.81
1603016048.5104,74.0,811.0,247.0,454.99999999993486,36.81
1603016048.5124,74.0,811.0,240.0,454.99999999993486,36.81
1603016048.5144,74.0,811.0,223.0,454.99999999993486,36.81
1603016048.5165,74.0,811.0,211.0,454.99999999993486,36.81
1603016048.5185,74.0,811.0,201.0,454.99999999993486,36.81
1603016048.5203,74.0,811.0,177.0,454.99999999993486,36.81
1603016048.5225,74.0,811.0,140.0,454.99999999993486,36.81
1603016048.5244,74.0,811.0,114.0,454.99999999993486,36.81
1603016048.5264,74.0,811.0,97.0,454.99999999993486,36.81
1603016048.5284,74.0,811.0,80.0,454.99999999993486,36.81
1603016048.5304,74.0,811.0,65.0,454.99999999993486,36.81
1603016048.5324,74.0,811.0,55.0,454.99999999993486,36.81
1603016048.5344,74.0,811.0,51.0,454.99999999993486,36.81
1603016048.5363,74.0,811.0,53.0,454.99999999993486,36.81
1603016048.5384,74.0,811.0,63.0,454.99999999993486,36.81
1603016048.5403,74.0,811.0,65.0,454.99999999993486,36.81
1603016048.5423,74.0,811.0,58.0,454.99999999993486,36.81
1603016048.5443,74.0,811.0,51.0,454.99999999993486,36.81
1603016048.5463,74.0,811.0,60.0,454.99999999993486,36.81
1603016048.5484,74.0,811.0,72.0,454.99999999993486,36.81
1603016048.5504,74.0,811.0,77.0,455.0282610784699,36.81
1603016048.5523,74.0,811.0,80.0,455.05363837348096,36.81
1603016048.5544,74.0,811.0,80.0,455.076190143221,36.81
1603016048.5563,74.0,811.0,87.0,455.09597464594316,36.81
1603016048.5583,74.0,811.0,99.0,455.11305013990034,36.81
1603016048.5603,74.0,811.0,97.0,455.12747488334554,36.81
1603016048.5623,74.0,811.0,89.0,455.1393071345318,36.81
1603016048.5643,74.0,811.0,99.0,455.14860515171216,36.81
1603016048.5664,74.0,811.0,106.0,455.1554271931396,36.81
1603016048.5684,74.0,811.0,87.0,455.1598315170672,36.81
1603016048.5704,74.0,811.0,75.0,455.1618763817478,36.81
1603016048.5725,74.0,811.0,92.0,455.1616200454345,36.81
1603016048.5743,74.0,811.0,99.0,455.1591207663804,36.81
1603016048.5763,74.0,811.0,85.0,455.15443680283846,36.81
1603016048.5784,74.0,811.0,82.0,455.1476264130616,36.81
1603016048.5803,74.0,811.0,87.0,455.1387478553029,36.81
1603016048.5824,74.0,811.0,85.0,455.12785938781536,36.81
1603016048.5843,74.0,811.0,80.0,455.11501926885205,36.81
1603016048.5863,74.0,811.0,82.0,455.10028575666587,36.81
1603016048.5884,74.0,811.0,97.0,455.0837171095099,36.81
1603016048.5903,74.0,811.0,99.0,455.06537158563714,36.81
1603016048.5923,74.0,811.0,89.0,455.04530744330054,36.81
1603016048.5943,74.0,811.0,87.0,455.0235829407532,36.81
1603016048.5963,74.0,811.0,85.0,455.0002563362481,36.81
1603016048.5984,74.0,811.0,82.0,454.97538588803826,36.81
1603016048.6005,74.0,811.0,82.0,454.94902985437665,36.81
1603016048.6024,74.0,811.0,82.0,454.92124649351626,36.81
1603016048.6044,74.0,811.0,82.0,454.8920940637102,36.81
1603016048.6064,74.0,811.0,77.0,454.8616308232114,36.81
1603016048.6083,74.0,811.0,80.0,454.82991503027284,36.81
1603016048.6103,74.0,811.0,85.0,454.79700494314767,36.81
1603016048.6123,74.0,811.0,72.0,454.7629588200887,36.81
1603016048.6143,74.0,811.0,65.0,454.72783491934916,36.81
1603016048.6163,74.0,811.0,85.0,454.69169149918196,36.81
1603016048.6184,74.0,811.0,109.0,454.65458681784,36.81
1603016048.6203,74.0,811.0,104.0,454.61657913357647,36.81
1603016048.6224,74.0,811.0,87.0,454.57772670464425,36.81
1603016048.6243,74.0,811.0,87.0,454.5380877892964,36.81
1603016048.6263,74.0,811.0,87.0,454.49772064578593,36.81
1603016048.6283,74.0,811.0,87.0,454.4566835323659,36.81
1603016048.6303,74.0,811.0,87.0,454.41503470728924,36.81
1603016048.6323,74.0,811.0,82.0,454.372832428809,36.81
1603016048.6343,74.0,811.0,82.0,454.33013495517815,36.81
1603016048.6363,74.0,811.0,75.0,454.28700054464974,36.81
1603016048.6384,74.0,811.0,70.0,454.2434874554768,36.81
1603016048.6403,74.0,811.0,80.0,454.19965394591225,36.81
1603016048.6423,74.0,811.0,82.0,454.15555827420917,36.81
1603016048.6443,74.0,811.0,77.0,454.11125869862053,36.81
1603016048.6463,74.0,811.0,87.0,454.0668134773994,36.81
1603016048.6484,74.0,811.0,167.0,454.02228086879876,36.81
1603016049.0742,74.0,808.0,403.0,453.9777191310715,36.81
1603016049.075,74.0,808.0,573.0,453.93318652247086,36.81
1603016049.0775,74.0,808.0,223.0,453.8887413012497,36.81
1603016049.0801,74.0,808.0,-366.0,453.84444172566106,36.81
1603016049.0821,74.0,808.0,-349.0,453.800346053958,36.81
1603016049.0841,74.0,808.0,53.0,453.75651254439344,36.81
1603016049.0862,74.0,808.0,102.0,453.7129994552204,36.81
1603016049.0881,74.0,808.0,7.0,453.66986504469196,36.81
1603016049.0901,74.0,808.0,92.0,453.6271675710611,36.81
1603016049.092,74.0,808.0,123.0,453.5849652925808,36.81
1603016049.094,74.0,808.0,70.0,453.54331646750416,36.81
1603016049.096,74.0,808.0,92.0,453.50227935408407,36.81
1603016049.0981,74.0,808.0,128.0,453.4619122105736,36.81
1603016049.1,74.0,808.0,111.0,453.42227329522575,36.81
1603016049.102,74.0,808.0,104.0,453.3834208662936,36.81
1603016049.1041,74.0,808.0,121.0,453.34541318203003,36.81
1603016049.106,74.0,808.0,119.0,453.3083085006881,36.81
1603016049.108,74.0,808.0,114.0,453.27216508052084,36.81
1603016049.11,74.0,808.0,131.0,453.2370411797813,36.81
1603016049.112,74.0,808.0,143.0,453.20299505672233,36.81
1603016049.114,74.0,808.0,133.0,453.17008496959716,36.81
1603016049.116,74.0,808.0,136.0,453.13836917665856,36.81
1603016049.118,74.0,808.0,150.0,453.1079059361598,36.81
1603016049.12,74.0,808.0,160.0,453.0787535063537,36.81
1603016049.1221,74.0,808.0,157.0,453.05097014549335,36.81
1603016049.124,74.0,808.0,162.0,453.02461411183174,36.81
1603016049.1262,74.0,808.0,179.0,452.99974366362187,36.81
1603016049.1281,74.0,808.0,194.0,452.9764170591168,36.81
1603016049.13,74.0,808.0,199.0,452.9546925565694,36.81
1603016049.132,74.0,808.0,201.0,452.93462841423286,36.81
1603016049.134,74.0,808.0,206.0,452.9162828903601,36.81
1603016049.136,74.0,808.0,218.0,452.89971424320413,36.81
1603016049.1381,74.0,808.0,230.0,452.884980731018,36.81
1603016049.14,74.0,808.0,228.0,452.87214061205464,36.81
1603016049.142,74.0,808.0,228.0,452.86125214456706,36.81
1603016049.144,74.0,808.0,223.0,452.8523735868084,36.81
1603016049.146,74.0,808.0,201.0,452.84556319703154,36.81
1603016049.1481,74.0,808.0,184.0,452.84087923348955,36.81
1603016049.15,74.0,808.0,182.0,452.8383799544355,36.81
1603016049.152,74.0,808.0,172.0,452.83812361812227,36.81
1603016049.1541,74.0,808.0,136.0,452.8401684828028,36.81
1603016049.156,74.0,808.0,104.0,452.8445728067304,36.81
1603016049.158,74.0,808.0,89.0,452.85139484815784,36.81
1603016049.16,74.0,808.0,72.0,452.86069286533825,36.81
1603016049.1621,74.0,808.0,58.0,452.87252511652446,36.81
1603016049.164,74.0,808.0,53.0,452.8869498599697,36.81
1603016049.166,74.0,808.0,48.0,452.90402535392684,36.81
1603016049.168,74.0,808.0,55.0,452.923809856649,36.81
1603016049.1701,74.0,808.0,48.0,452.94636162638903,36.81
1603016049.172,74.0,808.0,26.0,452.97173892140006,36.81
1603016049.174,74.0,808.0,26.0,452.9999999999352,36.81
1603016049.176,74.0,808.0,34.0,452.9999999999352,36.81
1603016049.178,74.0,808.0,46.0,452.9999999999352,36.81
1603016049.18,74.0,808.0,60.0,452.9999999999352,36.81
1603016049.182,74.0,808.0,58.0,452.9999999999352,36.81
1603016049.184,74.0,808.0,53.0,452.9999999999352,36.81
1603016049.186,74.0,808.0,53.0,452.9999999999352,36.81
1603016049.1881,74.0,808.0,63.0,452.9999999999352,36.81
1603016049.19,74.0,808.0,75.0,452.9999999999352,36.81
1603016049.192,74.0,808.0,68.0,452.9999999999352,36.81
1603016049.194,74.0,808.0,58.0,452.9999999999352,36.81
1603016049.196,74.0,808.0,65.0,452.9999999999352,36.81
1603016049.198,74.0,808.0,72.0,452.9999999999352,36.81
1603016049.2,74.0,808.0,68.0,452.9999999999352,36.81
1603016049.202,74.0,808.0,65.0,452.9999999999352,36.81
1603016049.2041,74.0,808.0,63.0,452.9999999999352,36.81
1603016049.206,74.0,808.0,65.0,452.9999999999352,36.81
1603016049.208,74.0,808.0,75.0,452.9999999999352,36.81
1603016049.21,74.0,808.0,65.0,452.9999999999352,36.81
1603016049.212,74.0,808.0,43.0,452.9999999999352,36.81
1603016049.214,74.0,808.0,48.0,452.9999999999352,36.81
1603016049.216,74.0,808.0,65.0,452.9999999999352,36.81
1603016049.218,74.0,808.0,65.0,452.9999999999352,36.81
1603016049.6141,74.0,808.0,65.0,452.9999999999352,36.88
1603016049.6148,74.0,808.0,65.0,452.9999999999352,36.88
1603016049.6173,74.0,808.0,60.0,452.9999999999352,36.88
1603016049.6199,74.0,808.0,60.0,452.9999999999352,36.88
1603016049.6222,74.0,808.0,60.0,452.9999999999352,36.88
1603016049.6239,74.0,808.0,58.0,452.9999999999352,36.88
1603016049.6259,74.0,808.0,53.0,452.9999999999352,36.88
1603016049.628,74.0,808.0,53.0,452.9999999999352,36.88
1603016049.6298,74.0,808.0,51.0,452.9999999999352,36.88
1603016049.6319,74.0,808.0,38.0,452.9999999999352,36.88
1603016049.6338,74.0,808.0,29.0,452.9999999999352,36.88
1603016049.6359,74.0,808.0,34.0,452.9999999999352,36.88
1603016049.638,74.0,808.0,43.0,452.9999999999352,36.88
1603016049.6399,74.0,808.0,55.0,452.9999999999352,36.88
1603016049.6419,74.0,808.0,63.0,452.9999999999352,36.88
1603016049.6439,74.0,808.0,72.0,452.9999999999352,36.88
1603016049.6458,74.0,808.0,82.0,452.9999999999352,36.88
1603016049.6479,74.0,808.0,70.0,452.9999999999352,36.88
1603016049.6498,74.0,808.0,58.0,452.9999999999352,36.88
1603016049.6519,74.0,808.0,72.0,452.9999999999352,36.88
1603016049.654,74.0,808.0,77.0,452.9999999999352,36.88
1603016049.6558,74.0,808.0,63.0,452.9999999999352,36.88
1603016049.6578,74.0,808.0,53.0,452.9999999999352,36.88
1603016049.6598,74.0,808.0,51.0,452.9999999999352,36.88
1603016049.6619,74.0,808.0,48.0,452.9999999999352,36.88
1603016049.6638,74.0,808.0,46.0,452.9999999999352,36.88
1603016049.6658,74.0,808.0,63.0,452.9999999999352,36.88
1603016049.6679,74.0,808.0,85.0,452.9999999999352,36.88
1603016049.6699,74.0,808.0,82.0,452.9999999999352,36.88
1603016049.6719,74.0,808.0,60.0,452.9999999999352,36.88
1603016049.6738,74.0,808.0,46.0,452.9999999999352,36.88
1603016049.6758,74.0,808.0,153.0,452.9999999999352,36.88
1603016049.6779,74.0,808.0,439.0,452.9999999999352,36.88
1603016049.6798,74.0,808.0,561.0,452.9999999999352,36.88
1603016049.6818,74.0,808.0,94.0,452.9999999999352,36.88
1603016049.6838,74.0,808.0,-473.0,452.9999999999352,36.88
1603016049.6858,74.0,808.0,-340.0,452.9999999999352,36.88
1603016049.6881,74.0,808.0,70.0,452.9999999999352,36.88
1603016049.6899,74.0,808.0,85.0,452.9999999999352,36.88
1603016049.6919,74.0,808.0,26.0,452.9999999999352,36.88
1603016049.6939,74.0,808.0,102.0,452.9999999999352,36.88
1603016049.6968,74.0,808.0,102.0,452.9999999999352,36.88
1603016049.6989,74.0,808.0,68.0,452.9999999999352,36.88
1603016049.7003,74.0,808.0,102.0,452.9999999999352,36.88
1603016049.7019,74.0,808.0,114.0,452.9999999999352,36.88
1603016049.7039,74.0,808.0,92.0,452.9999999999352,36.88
1603016049.7059,74.0,808.0,99.0,452.9999999999352,36.88
1603016049.7079,74.0,808.0,126.0,452.9999999999352,36.88
1603016049.7098,74.0,808.0,121.0,452.9999999999352,36.88
1603016049.7119,74.0,808.0,111.0,452.9999999999352,36.88
1603016049.7138,74.0,808.0,123.0,452.9999999999352,36.88
1603016049.7158,74.0,808.0,126.0,452.9999999999352,36.88
1603016049.7179,74.0,808.0,128.0,452.9999999999352,36.88
1603016049.7199,74.0,808.0,140.0,452.9999999999352,36.88
1603016049.7219,74.0,808.0,143.0,452.9999999999352,36.88
1603016049.724,74.0,808.0,140.0,452.9999999999352,36.88
1603016049.7259,74.0,808.0,153.0,452.9999999999352,36.88
1603016049.728,74.0,808.0,167.0,452.9999999999352,36.88
1603016049.7299,74.0,808.0,165.0,452.9999999999352,36.88
1603016049.7318,74.0,808.0,170.0,452.9999999999352,36.88
1603016049.7338,74.0,808.0,199.0,452.9999999999352,36.88
1603016049.7359,74.0,808.0,211.0,452.9999999999352,36.88
1603016049.7379,74.0,808.0,196.0,452.9999999999352,36.88
1603016049.7399,74.0,808.0,204.0,452.9999999999352,36.88
1603016049.7419,74.0,808.0,225.0,452.9999999999352,36.88
1603016049.7439,74.0,808.0,225.0,452.9999999999352,36.88
1603016049.7459,74.0,808.0,218.0,452.9999999999352,36.88
1603016049.7479,74.0,808.0,218.0,452.9999999999352,36.88
1603016049.7499,74.0,808.0,208.0,452.9999999999352,36.88
1603016049.752,74.0,808.0,187.0,452.9999999999352,36.88
1603016049.754,74.0,808.0,167.0,452.9999999999352,36.88
1603016049.756,74.0,808.0,160.0,452.9999999999352,36.88
1603016049.7579,74.0,808.0,143.0,452.9999999999352,36.88
1603016050.1842,75.0,800.0,114.0,452.9999999999352,36.88
1603016050.1851,75.0,800.0,80.0,452.9999999999352,36.88
1603016050.1876,75.0,800.0,58.0,452.9999999999352,36.88
1603016050.1902,75.0,800.0,55.0,452.9999999999352,36.88
1603016050.1922,75.0,800.0,43.0,452.9999999999352,36.88
1603016050.1942,75.0,800.0,17.0,452.9999999999352,36.88
1603016050.1963,75.0,800.0,17.0,452.9999999999352,36.88
1603016050.1982,75.0,800.0,24.0,452.9999999999352,36.88
1603016050.2001,75.0,800.0,12.0,452.9999999999352,36.88
1603016050.2021,75.0,800.0,14.0,452.9999999999352,36.88
1603016050.2043,75.0,800.0,29.0,452.9999999999352,36.88
1603016050.2061,75.0,800.0,31.0,452.9999999999352,36.88
1603016050.2081,75.0,800.0,34.0,452.9999999999352,36.88
1603016050.2101,75.0,800.0,38.0,452.9999999999352,36.88
1603016050.2121,75.0,800.0,38.0,452.9999999999352,36.88
1603016050.2141,75.0,800.0,51.0,452.9999999999352,36.88
1603016050.2161,75.0,800.0,72.0,452.9999999999352,36.88
1603016050.2181,75.0,800.0,72.0,452.9999999999352,36.88
1603016050.2202,75.0,800.0,51.0,452.9999999999352,36.88
1603016050.2221,75.0,800.0,41.0,452.9999999999352,36.88
1603016050.2241,75.0,800.0,51.0,452.9999999999352,36.88
1603016050.226,75.0,800.0,68.0,452.9999999999352,36.88
1603016050.2281,75.0,800.0,75.0,452.9999999999352,36.88
1603016050.2301,75.0,800.0,75.0,453.0282610784702,36.88
1603016050.2321,75.0,800.0,65.0,453.05363837348125,36.88
1603016050.2341,75.0,800.0,53.0,453.0761901432213,36.88
1603016050.2361,75.0,800.0,55.0,453.09597464594344,36.88
1603016050.2381,75.0,800.0,58.0,453.11305013990057,36.88
1603016050.2401,75.0,800.0,65.0,453.1274748833458,36.88
1603016050.2421,75.0,800.0,75.0,453.13930713453203,36.88
1603016050.2441,75.0,800.0,68.0,453.14860515171245,36.88
1603016050.2461,75.0,800.0,58.0,453.1554271931399,36.88
1603016050.2481,75.0,800.0,72.0,453.15983151706746,36.88
1603016050.2503,75.0,800.0,77.0,453.161876381748,36.88
1603016050.2521,75.0,800.0,58.0,453.1616200454348,36.88
1603016050.2541,75.0,800.0,46.0,453.15912076638074,36.88
1603016050.2561,75.0,800.0,60.0,453.15443680283875,36.88
1603016050.258,75.0,800.0,65.0,453.14762641306186,36.88
1603016050.2601,75.0,800.0,51.0,453.1387478553032,36.88
1603016050.2621,75.0,800.0,53.0,453.12785938781565,36.88
1603016050.264,75.0,800.0,60.0,453.1150192688523,36.88
1603016050.266,75.0,800.0,53.0,453.10028575666615,36.88
1603016050.2681,75.0,800.0,53.0,453.0837171095102,36.88
1603016050.2702,75.0,800.0,58.0,453.0653715856374,36.88
1603016050.272,75.0,800.0,60.0,453.0453074433009,36.88
1603016050.2741,75.0,800.0,68.0,453.0235829407535,36.88
1603016050.2761,75.0,800.0,92.0,453.0002563362484,36.88
1603016050.2781,75.0,800.0,109.0,452.97538588803855,36.88
1603016050.28,75.0,800.0,94.0,452.94902985437693,36.88
1603016050.282,75.0,800.0,85.0,452.9212464935166,36.88
1603016050.2841,75.0,800.0,89.0,452.8920940637105,36.88
1603016050.2861,75.0,800.0,77.0,452.8616308232116,36.88
1603016050.2881,75.0,800.0,65.0,452.8299150302731,36.88
1603016050.2901,75.0,800.0,68.0,452.79700494314795,36.88
1603016050.2921,75.0,800.0,63.0,452.762958820089,36.88
1603016050.294,75.0,800.0,60.0,452.72783491934945,36.88
1603016050.296,75.0,800.0,70.0,452.6916914991822,36.88
1603016050.2981,75.0,800.0,77.0,452.65458681784025,36.88
1603016050.3001,75.0,800.0,77.0,452.6165791335767,36.88
1603016050.3021,75.0,800.0,75.0,452.57772670464453,36.88
1603016050.3042,75.0,800.0,65.0,452.5380877892967,36.88
1603016050.3061,75.0,800.0,121.0,452.4977206457862,36.88
1603016050.3081,75.0,800.0,352.0,452.4566835323661,36.88
1603016050.3101,75.0,800.0,580.0,452.41503470728946,36.88
1603016050.312,75.0,800.0,330.0,452.37283242880915,36.88
1603016050.314,75.0,800.0,-308.0,452.3301349551783,36.88
1603016050.3161,75.0,800.0,-449.0,452.2870005446499,36.88
1603016050.3181,75.0,800.0,-21.0,452.24348745547695,36.88
1603016050.3201,75.0,800.0,138.0,452.19965394591236,36.88
1603016050.3221,75.0,800.0,34.0,452.1555582742093,36.88
1603016050.3242,75.0,800.0,87.0,452.1112586986207,36.88
1603016050.3261,75.0,800.0,148.0,452.06681347739953,36.88
1603016050.3281,75.0,800.0,111.0,452.0222808687989,36.88
1603016050.7843,75.0,819.0,111.0,451.9777191310717,36.81
1603016050.7853,75.0,819.0,123.0,451.93318652247103,36.81
1603016050.7877,75.0,819.0,114.0,451.8887413012499,36.81
1603016050.7903,75.0,819.0,128.0,451.8444417256613,36.81
1603016050.7923,75.0,819.0,140.0,451.80034605395815,36.81
1603016050.7943,75.0,819.0,128.0,451.7565125443936,36.81
1603016050.7965,75.0,819.0,116.0,451.7129994552206,36.81
1603016050.7984,75.0,819.0,121.0,451.6698650446922,36.81
1603016050.8003,75.0,819.0,133.0,451.6271675710613,36.81
1603016050.8023,75.0,819.0,138.0,451.58496529258105,36.81
1603016050.8043,75.0,819.0,140.0,451.5433164675044,36.81
1603016050.8065,75.0,819.0,145.0,451.50227935408435,36.81
1603016050.8083,75.0,819.0,143.0,451.46191221057387,36.81
1603016050.8102,75.0,819.0,143.0,451.42227329522603,36.81
1603016050.8122,75.0,819.0,150.0,451.3834208662938,36.81
1603016050.8143,75.0,819.0,170.0,451.34541318203026,36.81
1603016050.8162,75.0,819.0,199.0,451.3083085006883,36.81
1603016050.8183,75.0,819.0,206.0,451.2721650805211,36.81
1603016050.8203,75.0,819.0,194.0,451.2370411797815,36.81
1603016050.8222,75.0,819.0,201.0,451.2029950567226,36.81
1603016050.8242,75.0,819.0,223.0,451.1700849695974,36.81
1603016050.8263,75.0,819.0,240.0,451.1383691766589,36.81
1603016050.8283,75.0,819.0,240.0,451.1079059361601,36.81
1603016050.8302,75.0,819.0,230.0,451.10701458488904,36.81
1603016050.8322,75.0,819.0,225.0,451.10460851903974,36.81
1603016050.8342,75.0,819.0,216.0,451.1008042551182,36.81
1603016050.8363,75.0,819.0,196.0,451.09571830963046,36.81
1603016050.8382,75.0,819.0,182.0,451.0894671990825,36.81
1603016050.8402,75.0,819.0,172.0,451.08216743998037,36.81
1603016050.8422,75.0,819.0,138.0,451.0739355488301,36.81
1603016050.8442,75.0,819.0,99.0,451.0648880421377,36.81
1603016050.8462,75.0,819.0,97.0,451.05514143640914,36.81
1603016050.8483,75.0,819.0,89.0,451.04481224815055,36.81
1603016050.8502,75.0,819.0,60.0,451.0340169938678,36.81
1603016050.8523,75.0,819.0,46.0,451.02287219006706,36.81
1603016050.8543,75.0,819.0,38.0,451.01149435325425,36.81
1603016050.8562,75.0,819.0,36.0,450.9999999999354,36.81
1603016050.8582,75.0,819.0,46.0,450.9885056466166,36.81
1603016050.8602,75.0,819.0,46.0,450.9771278098038,36.81
1603016050.8622,75.0,819.0,41.0,450.965983006003,36.81
1603016050.8642,75.0,819.0,43.0,450.9551877517203,36.81
1603016050.8662,75.0,819.0,55.0,450.9448585634617,36.81
1603016050.8683,75.0,819.0,65.0,450.93511195773317,36.81
1603016050.8703,75.0,819.0,68.0,450.9260644510407,36.81
1603016050.8722,75.0,819.0,68.0,450.9178325598905,36.81
1603016050.8742,75.0,819.0,65.0,450.91053280078836,36.81
1603016050.8762,75.0,819.0,70.0,450.9042816902404,36.81
1603016050.8782,75.0,819.0,77.0,450.89919574475266,36.81
1603016050.8802,75.0,819.0,68.0,450.8953914808311,36.81
1603016050.8823,75.0,819.0,65.0,450.8929854149818,36.81
1603016050.8843,75.0,819.0,82.0,450.8920940637107,36.81
1603016050.8863,75.0,819.0,85.0,450.86163082321195,36.81
1603016050.8882,75.0,819.0,82.0,450.8299150302734,36.81
1603016050.8902,75.0,819.0,85.0,450.79700494314824,36.81
1603016050.8922,75.0,819.0,87.0,450.7629588200893,36.81
1603016050.8942,75.0,819.0,80.0,450.72783491934973,36.81
1603016050.8962,75.0,819.0,68.0,450.69169149918247,36.81
1603016050.8982,75.0,819.0,72.0,450.65458681784054,36.81
1603016050.9002,75.0,819.0,85.0,450.616579133577,36.81
1603016050.9023,75.0,819.0,77.0,450.57772670464476,36.81
1603016050.9043,75.0,819.0,68.0,450.5380877892969,36.81
1603016050.9063,75.0,819.0,75.0,450.49772064578644,36.81
1603016050.9084,75.0,819.0,87.0,450.45668353236636,36.81
1603016050.9103,75.0,819.0,87.0,450.4150347072897,36.81
1603016050.9122,75.0,819.0,75.0,450.37283242880943,36.81
1603016050.9142,75.0,819.0,72.0,450.3301349551786,36.81
1603016050.9162,75.0,819.0,77.0,450.28700054465014,36.81
1603016050.9183,75.0,819.0,72.0,450.2434874554772,36.81
1603016050.9202,75.0,819.0,63.0,450.19965394591264,36.81
1603016050.9222,75.0,819.0,65.0,450.15555827420957,36.81
1603016050.9242,75.0,819.0,68.0,450.11125869862093,36.81
1603016050.9262,75.0,819.0,72.0,450.06681347739976,36.81
1603016050.9283,75.0,819.0,77.0,450.0222808687991,36.81
1603016051.3242,75.0,819.0,58.0,449.9777191310719,36.81
1603016051.3253,75.0,819.0,43.0,449.93318652247126,36.81
1603016051.3277,75.0,819.0,58.0,449.8887413012501,36.81
1603016051.3303,75.0,819.0,85.0,449.8444417256615,36.81
1603016051.3322,75.0,819.0,99.0,449.80034605395844,36.81
1603016051.3343,75.0,819.0,99.0,449.7565125443939,36.81
1603016051.3364,75.0,819.0,87.0,449.7129994552209,36.81
1603016051.3384,75.0,819.0,85.0,449.6698650446925,36.81
1603016051.3402,75.0,819.0,89.0,449.6271675710616,36.81
1603016051.3422,75.0,819.0,82.0,449.58496529258133,36.81
1603016051.3442,75.0,819.0,75.0,449.54331646750467,36.81
1603016051.3462,75.0,819.0,60.0,449.50227935408464,36.81
1603016051.3483,75.0,819.0,48.0,449.46191221057416,36.81
1603016051.3502,75.0,819.0,58.0,449.4222732952263,36.81
1603016051.3523,75.0,819.0,65.0,449.38342086629416,36.81
1603016051.3542,75.0,819.0,58.0,449.34541318203054,36.81
1603016051.3562,75.0,819.0,58.0,449.30830850068867,36.81
1603016051.3582,75.0,819.0,68.0,449.2721650805214,36.81
1603016051.3602,75.0,819.0,65.0,449.2370411797818,36.81
1603016051.3622,75.0,819.0,63.0,449.2029950567229,36.81
1603016051.3642,75.0,819.0,167.0,449.17008496959767,36.81
1603016051.3662,75.0,819.0,425.0,449.1383691766592,36.81
1603016051.3683,75.0,819.0,510.0,449.10790593616036,36.81
1603016051.3703,75.0,819.0,60.0,449.0787535063543,36.81
1603016051.3722,75.0,819.0,-449.0,449.0509701454939,36.81
1603016051.3742,75.0,819.0,-289.0,449.0246141118323,36.81
1603016051.3762,75.0,819.0,97.0,448.99974366362244,36.81
1603016051.3782,75.0,819.0,89.0,448.97641705911735,36.81
1603016051.3802,75.0,819.0,29.0,448.95469255657,36.81
1603016051.3822,75.0,819.0,111.0,448.93462841423343,36.81
1603016051.3843,75.0,819.0,116.0,448.91628289036066,36.81
1603016051.3862,75.0,819.0,77.0,448.8997142432047,36.81
1603016051.3882,75.0,819.0,97.0,448.8849807310185,36.81
1603016051.3902,75.0,819.0,102.0,448.87214061205515,36.81
1603016051.3922,75.0,819.0,94.0,448.86125214456763,36.81
1603016051.3942,75.0,819.0,109.0,448.85237358680894,36.81
1603016051.3962,75.0,819.0,121.0,448.8455631970321,36.81
1603016051.3983,75.0,819.0,116.0,448.8408792334901,36.81
1603016051.4002,75.0,819.0,111.0,448.838379954436,36.81
1603016051.4023,75.0,819.0,121.0,448.8381236181228,36.81
1603016051.4044,75.0,819.0,123.0,448.8401684828034,36.81
1603016051.4062,75.0,819.0,119.0,448.8445728067309,36.81
1603016051.4082,75.0,819.0,133.0,448.8513948481584,36.81
1603016051.4102,75.0,819.0,153.0,448.86069286533876,36.81
1603016051.4122,75.0,819.0,157.0,448.872525116525,36.81
1603016051.4142,75.0,819.0,157.0,448.88694985997023,36.81
1603016051.4162,75.0,819.0,162.0,448.9040253539274,36.81
1603016051.4183,75.0,819.0,174.0,448.92380985664954,36.81
1603016051.4202,75.0,819.0,189.0,448.9463616263896,36.81
1603016051.4223,75.0,819.0,196.0,448.97173892140063,36.81
1603016051.4242,75.0,819.0,201.0,448.9999999999357,36.81
1603016051.4262,75.0,819.0,206.0,448.9999999999357,36.81
1603016051.4282,75.0,819.0,213.0,448.9999999999357,36.81
1603016051.4302,75.0,819.0,221.0,448.9999999999357,36.81
1603016051.4322,75.0,819.0,223.0,448.9999999999357,36.81
1603016051.4341,75.0,819.0,233.0,448.9999999999357,36.81
1603016051.4363,75.0,819.0,228.0,448.9999999999357,36.81
1603016051.4382,75.0,819.0,199.0,448.9999999999357,36.81
1603016051.4402,75.0,819.0,177.0,448.9999999999357,36.81
1603016051.4422,75.0,819.0,177.0,448.9999999999357,36.81
1603016051.4442,75.0,819.0,167.0,448.9999999999357,36.81
1603016051.4462,75.0,819.0,128.0,448.9999999999357,36.81
1603016051.4483,75.0,819.0,99.0,448.9999999999357,36.81
1603016051.4489,75.0,819.0,99.0,448.9999999999357,36.81
1603016051.4502,75.0,819.0,80.0,448.9999999999357,36.81
1603016051.4523,75.0,819.0,53.0,448.9999999999357,36.81
1603016051.4542,75.0,819.0,48.0,448.9999999999357,36.81
1603016051.4562,75.0,819.0,48.0,448.9999999999357,36.81
1603016051.4582,75.0,819.0,34.0,448.9999999999357,36.81
1603016051.4602,75.0,819.0,31.0,448.9999999999357,36.81
1603016051.4622,75.0,819.0,46.0,448.9999999999357,36.81
1603016051.4642,75.0,819.0,55.0,448.9999999999357,36.81
1603016051.4662,75.0,819.0,51.0,448.9999999999357,36.81
1603016051.8938,75.0,825.0,53.0,448.9999999999357,36.81
1603016051.8947,75.0,825.0,60.0,448.9999999999357,36.81
1603016051.8971,75.0,825.0,70.0,448.9999999999357,36.81
1603016051.8983,75.0,825.0,70.0,448.9999999999357,36.81
1603016051.8997,75.0,825.0,58.0,448.9999999999357,36.81
1603016051.9018,75.0,825.0,58.0,448.9999999999357,36.81
1603016051.9037,75.0,825.0,65.0,448.9999999999357,36.81
1603016051.9057,75.0,825.0,58.0,448.9999999999357,36.81
1603016051.9077,75.0,825.0,51.0,448.9999999999357,36.81
1603016051.9097,75.0,825.0,53.0,448.9999999999357,36.81
1603016051.9117,75.0,825.0,58.0,448.9999999999357,36.81
1603016051.9137,75.0,825.0,55.0,448.9999999999357,36.81
1603016051.9157,75.0,825.0,48.0,448.9999999999357,36.81
1603016051.9177,75.0,825.0,46.0,448.9999999999357,36.81
1603016051.9198,75.0,825.0,55.0,448.9999999999357,36.81
1603016051.9216,75.0,825.0,68.0,448.9999999999357,36.81
1603016051.9237,75.0,825.0,60.0,448.9999999999357,36.81
1603016051.9256,75.0,825.0,43.0,448.9999999999357,36.81
1603016051.9279,75.0,825.0,43.0,448.9999999999357,36.81
1603016051.9284,75.0,825.0,51.0,448.9999999999357,36.81
1603016051.9296,75.0,825.0,58.0,448.9999999999357,36.81
1603016051.9317,75.0,825.0,63.0,448.9999999999357,36.81
1603016051.9337,75.0,825.0,55.0,448.9999999999357,36.81
1603016051.9358,75.0,825.0,55.0,448.9999999999357,36.81
1603016051.9376,75.0,825.0,58.0,448.9999999999357,36.81
1603016051.9396,75.0,825.0,48.0,448.9999999999357,36.81
1603016051.9416,75.0,825.0,46.0,448.9999999999357,36.81
1603016051.9437,75.0,825.0,53.0,448.9999999999357,36.81
1603016051.9457,75.0,825.0,51.0,448.9999999999357,36.81
1603016051.9477,75.0,825.0,53.0,448.9999999999357,36.81
1603016051.9496,75.0,825.0,55.0,448.9999999999357,36.81
1603016051.9518,75.0,825.0,43.0,448.9999999999357,36.81
1603016051.9536,75.0,825.0,48.0,448.9999999999357,36.81
1603016051.9558,75.0,825.0,65.0,448.9999999999357,36.81
1603016051.9577,75.0,825.0,65.0,448.9999999999357,36.81
1603016051.9583,75.0,825.0,70.0,448.9999999999357,36.81
1603016051.9596,75.0,825.0,92.0,448.9999999999357,36.81
1603016051.9617,75.0,825.0,94.0,448.9999999999357,36.81
1603016051.9637,75.0,825.0,72.0,448.9999999999357,36.81
1603016051.9657,75.0,825.0,68.0,448.9999999999357,36.81
1603016051.9677,75.0,825.0,85.0,448.9999999999357,36.81
1603016051.9697,75.0,825.0,89.0,448.9999999999357,36.81
1603016051.9718,75.0,825.0,68.0,448.9999999999357,36.81
1603016051.9737,75.0,825.0,55.0,448.9999999999357,36.81
1603016051.9757,75.0,825.0,68.0,448.9999999999357,36.81
1603016051.9777,75.0,825.0,77.0,448.9999999999357,36.81
1603016051.9798,75.0,825.0,87.0,448.9999999999357,36.81
1603016051.9817,75.0,825.0,89.0,448.9999999999357,36.81
1603016051.9836,75.0,825.0,75.0,448.9999999999357,36.81
1603016051.9858,75.0,825.0,68.0,448.9999999999357,36.81
1603016051.9877,75.0,825.0,60.0,448.9999999999357,36.81
1603016051.9883,75.0,825.0,82.0,448.9999999999357,36.81
1603016051.9896,75.0,825.0,245.0,448.9999999999357,36.81
1603016051.9917,75.0,825.0,502.0,448.9999999999357,36.81
1603016051.9936,75.0,825.0,468.0,448.9999999999357,36.81
1603016051.9956,75.0,825.0,-75.0,448.9999999999357,36.81
1603016051.9977,75.0,825.0,-463.0,448.9999999999357,36.81
1603016051.9996,75.0,825.0,-177.0,448.9999999999357,36.81
1603016052.0017,75.0,825.0,123.0,448.9999999999357,36.81
1603016052.0038,75.0,825.0,65.0,448.9999999999357,36.81
1603016052.0056,75.0,825.0,60.0,448.9999999999357,36.81
1603016052.0076,75.0,825.0,136.0,448.9999999999357,36.81
1603016052.0096,75.0,825.0,109.0,448.9999999999357,36.81
1603016052.0116,75.0,825.0,85.0,448.9999999999357,36.81
1603016052.0136,75.0,825.0,106.0,448.9999999999357,36.81
1603016052.0157,75.0,825.0,99.0,448.9999999999357,36.81
1603016052.0177,75.0,825.0,102.0,448.9999999999357,36.81
1603016052.0183,75.0,825.0,133.0,448.9999999999357,36.81
1603016052.0197,75.0,825.0,136.0,448.9999999999357,36.81
1603016052.0218,75.0,825.0,116.0,448.9999999999357,36.81
1603016052.0237,75.0,825.0,116.0,448.9999999999357,36.81
1603016052.0256,75.0,825.0,123.0,448.9999999999357,36.81
1603016052.0277,75.0,825.0,131.0,448.9999999999357,36.81
1603016052.4638,75.0,825.0,140.0,448.9999999999357,36.81
1603016052.4647,75.0,825.0,140.0,448.9999999999357,36.81
1603016052.4671,75.0,825.0,138.0,448.9999999999357,36.81
1603016052.4698,75.0,825.0,133.0,448.9999999999357,36.81
1603016052.4717,75.0,825.0,133.0,448.9999999999357,36.81
1603016052.4737,75.0,825.0,153.0,448.9999999999357,36.81
1603016052.4757,75.0,825.0,170.0,448.9999999999357,36.81
1603016052.4778,75.0,825.0,170.0,448.9999999999357,36.81
1603016052.4796,75.0,825.0,174.0,448.9999999999357,36.81
1603016052.4804,75.0,825.0,170.0,448.9999999999357,36.81
1603016052.4827,75.0,825.0,174.0,448.9999999999357,36.81
1603016052.4848,75.0,825.0,191.0,448.9999999999357,36.81
1603016052.4867,75.0,825.0,187.0,448.9999999999357,36.81
1603016052.4886,75.0,825.0,179.0,448.9999999999357,36.81
1603016052.4907,75.0,825.0,179.0,448.9999999999357,36.81
1603016052.4926,75.0,825.0,174.0,448.9999999999357,36.81
1603016052.4946,75.0,825.0,170.0,448.9999999999357,36.81
1603016052.4966,75.0,825.0,165.0,448.9999999999357,36.81
1603016052.4987,75.0,825.0,143.0,448.9999999999357,36.81
1603016052.5007,75.0,825.0,109.0,448.9999999999357,36.81
1603016052.5027,75.0,825.0,82.0,448.9999999999357,36.81
1603016052.5046,75.0,825.0,68.0,448.9999999999357,36.81
1603016052.5066,75.0,825.0,55.0,448.9999999999357,36.81
1603016052.5086,75.0,825.0,43.0,448.9999999999357,36.81
1603016052.5107,75.0,825.0,26.0,448.9999999999357,36.81
1603016052.5114,75.0,825.0,21.0,448.9999999999357,36.81
1603016052.5126,75.0,825.0,24.0,448.9999999999357,36.81
1603016052.5146,75.0,825.0,21.0,448.9999999999357,36.81
1603016052.5166,75.0,825.0,17.0,448.9999999999357,36.81
1603016052.5187,75.0,825.0,19.0,448.9999999999357,36.81
1603016052.5207,75.0,825.0,21.0,448.9999999999357,36.81
1603016052.5226,75.0,825.0,31.0,448.9999999999357,36.81
1603016052.5246,75.0,825.0,31.0,448.9999999999357,36.81
1603016052.5266,75.0,825.0,34.0,448.9999999999357,36.81
1603016052.5287,75.0,825.0,46.0,448.9999999999357,36.81
1603016052.5306,75.0,825.0,48.0,448.9999999999357,36.81
1603016052.5326,75.0,825.0,41.0,448.9999999999357,36.81
1603016052.5347,75.0,825.0,36.0,448.9999999999357,36.81
1603016052.5366,75.0,825.0,26.0,448.9999999999357,36.81
1603016052.5387,75.0,825.0,31.0,448.9999999999357,36.81
1603016052.5406,75.0,825.0,63.0,448.9999999999357,36.81
1603016052.5413,75.0,825.0,75.0,448.9999999999357,36.81
1603016052.5436,75.0,825.0,55.0,448.9999999999357,36.81
1603016052.5456,75.0,825.0,51.0,448.9999999999357,36.81
1603016052.5477,75.0,825.0,60.0,448.9999999999357,36.81
1603016052.5497,75.0,825.0,55.0,448.9999999999357,36.81
1603016052.5517,75.0,825.0,51.0,448.9999999999357,36.81
1603016052.5539,75.0,825.0,53.0,448.9999999999357,36.81
1603016052.5557,75.0,825.0,53.0,448.9999999999357,36.81
1603016052.5576,75.0,825.0,51.0,448.9999999999357,36.81
1603016052.5596,75.0,825.0,48.0,448.9999999999357,36.81
1603016052.5616,75.0,825.0,46.0,448.9999999999357,36.81
1603016052.5637,75.0,825.0,41.0,448.9999999999357,36.81
1603016052.5658,75.0,825.0,38.0,448.9999999999357,36.81
1603016052.5678,75.0,825.0,41.0,448.9999999999357,36.81
1603016052.5697,75.0,825.0,46.0,448.9999999999357,36.81
1603016052.5704,75.0,825.0,46.0,448.9999999999357,36.81
1603016052.5727,75.0,825.0,43.0,448.9999999999357,36.81
1603016052.5746,75.0,825.0,43.0,448.9999999999357,36.81
1603016052.5766,75.0,825.0,43.0,448.9999999999357,36.81
1603016052.5787,75.0,825.0,43.0,448.9999999999357,36.81
1603016052.5806,75.0,825.0,53.0,448.9999999999357,36.81
1603016052.5827,75.0,825.0,60.0,448.9999999999357,36.81
1603016052.5848,75.0,825.0,53.0,448.9999999999357,36.81
1603016052.5866,75.0,825.0,41.0,448.9999999999357,36.81
1603016052.5886,75.0,825.0,41.0,448.9999999999357,36.81
1603016052.5906,75.0,825.0,43.0,448.9999999999357,36.81
1603016052.5926,75.0,825.0,53.0,448.9999999999357,36.81
1603016052.5947,75.0,825.0,70.0,448.9999999999357,36.81
1603016052.5966,75.0,825.0,77.0,448.9999999999357,36.81
1603016052.5986,75.0,825.0,72.0,448.9999999999357,36.81
1603016052.6007,75.0,825.0,70.0,448.9999999999357,36.81
1603016052.6013,75.0,825.0,70.0,448.9999999999357,36.81
1603016053.0037,75.0,814.0,63.0,448.9999999999357,36.81
1603016053.0046,75.0,814.0,48.0,448.9999999999357,36.81
1603016053.0071,75.0,814.0,41.0,448.9999999999357,36.81
1603016053.0096,75.0,814.0,48.0,448.9999999999357,36.81
1603016053.0116,75.0,814.0,46.0,448.9999999999357,36.81
1603016053.0136,75.0,814.0,36.0,448.9999999999357,36.81
1603016053.0158,75.0,814.0,43.0,448.9999999999357,36.81
1603016053.0177,75.0,814.0,60.0,448.9999999999357,36.81
1603016053.0196,75.0,814.0,72.0,448.9999999999357,36.81
1603016053.0216,75.0,814.0,55.0,448.9999999999357,36.81
1603016053.0236,75.0,814.0,75.0,448.9999999999357,36.81
1603016053.0256,75.0,814.0,276.0,448.9999999999357,36.81
1603016053.0263,75.0,814.0,544.0,448.9999999999357,36.81
1603016053.0287,75.0,814.0,364.0,448.9999999999357,36.81
1603016053.0306,75.0,814.0,-293.0,448.9999999999357,36.81
1603016053.0327,75.0,814.0,-522.0,448.9999999999357,36.81
1603016053.0347,75.0,814.0,-109.0,448.9999999999357,36.81
1603016053.0366,75.0,814.0,99.0,448.9999999999357,36.81
1603016053.0386,75.0,814.0,-4.0,448.9999999999357,36.81
1603016053.0406,75.0,814.0,36.0,448.9999999999357,36.81
1603016053.0426,75.0,814.0,121.0,448.9999999999357,36.81
1603016053.0446,75.0,814.0,89.0,448.9999999999357,36.81
1603016053.0466,75.0,814.0,63.0,448.9999999999357,36.81
1603016053.0487,75.0,814.0,92.0,448.9999999999357,36.81
1603016053.0507,75.0,814.0,116.0,448.9999999999357,36.81
1603016053.0528,75.0,814.0,111.0,448.9999999999357,36.81
1603016053.0546,75.0,814.0,99.0,448.9999999999357,36.81
1603016053.0566,75.0,814.0,99.0,448.9999999999357,36.81
1603016053.0573,75.0,814.0,104.0,448.9999999999357,36.81
1603016053.0586,75.0,814.0,106.0,448.9999999999357,36.81
1603016053.0606,75.0,814.0,109.0,448.9999999999357,36.81
1603016053.0626,75.0,814.0,119.0,448.9999999999357,36.81
1603016053.0646,75.0,814.0,131.0,448.9999999999357,36.81
1603016053.0667,75.0,814.0,138.0,448.9999999999357,36.81
1603016053.0687,75.0,814.0,140.0,448.9999999999357,36.81
1603016053.0707,75.0,814.0,136.0,448.9999999999357,36.81
1603016053.0726,75.0,814.0,153.0,448.9999999999357,36.81
1603016053.0746,75.0,814.0,167.0,448.9999999999357,36.81
1603016053.0766,75.0,814.0,157.0,448.9999999999357,36.81
1603016053.0786,75.0,814.0,157.0,448.9999999999357,36.81
1603016053.0806,75.0,814.0,184.0,448.9999999999357,36.81
1603016053.0826,75.0,814.0,206.0,448.9999999999357,36.81
1603016053.0848,75.0,814.0,206.0,448.9999999999357,36.81
1603016053.0867,75.0,814.0,204.0,448.9999999999357,36.81
1603016053.0886,75.0,814.0,223.0,448.9999999999357,36.81
1603016053.0906,75.0,814.0,221.0,448.9999999999357,36.81
1603016053.0926,75.0,814.0,201.0,448.9999999999357,36.81
1603016053.0946,75.0,814.0,199.0,448.9999999999357,36.81
1603016053.0966,75.0,814.0,201.0,448.9999999999357,36.81
1603016053.0986,75.0,814.0,189.0,448.9999999999357,36.81
1603016053.1007,75.0,814.0,157.0,448.9999999999357,36.81
1603016053.1026,75.0,814.0,121.0,448.9999999999357,36.81
1603016053.1046,75.0,814.0,97.0,448.9999999999357,36.81
1603016053.1066,75.0,814.0,75.0,448.9999999999357,36.81
1603016053.1086,75.0,814.0,60.0,448.9999999999357,36.81
1603016053.1106,75.0,814.0,46.0,448.9999999999357,36.81
1603016053.1126,75.0,814.0,36.0,448.9999999999357,36.81
1603016053.1146,75.0,814.0,36.0,448.9999999999357,36.81
1603016053.1167,75.0,814.0,29.0,448.9999999999357,36.81
1603016053.1186,75.0,814.0,17.0,448.9999999999357,36.81
1603016053.1207,75.0,814.0,21.0,448.9999999999357,36.81
1603016053.1226,75.0,814.0,19.0,448.9999999999357,36.81
1603016053.1246,75.0,814.0,19.0,448.9999999999357,36.81
1603016053.1266,75.0,814.0,29.0,448.9999999999357,36.81
1603016053.1286,75.0,814.0,31.0,448.9999999999357,36.81
1603016053.1306,75.0,814.0,36.0,448.9999999999357,36.81
1603016053.1326,75.0,814.0,46.0,448.9999999999357,36.81
1603016053.1347,75.0,814.0,51.0,448.9999999999357,36.81
1603016053.1366,75.0,814.0,51.0,448.9999999999357,36.81
1603016053.1386,75.0,814.0,48.0,448.9999999999357,36.81
1603016053.1406,75.0,814.0,46.0,448.9999999999357,36.81
1603016053.1426,75.0,814.0,51.0,448.9999999999357,36.81
1603016053.1446,75.0,814.0,55.0,448.9999999999357,36.81
1603016053.5442,75.0,814.0,55.0,448.9999999999357,36.81
1603016053.5451,75.0,814.0,63.0,448.9999999999357,36.81
1603016053.5477,75.0,814.0,68.0,448.9999999999357,36.81
1603016053.5506,75.0,814.0,58.0,448.9999999999357,36.81
1603016053.5522,75.0,814.0,48.0,448.9999999999357,36.81
1603016053.5542,75.0,814.0,53.0,448.9999999999357,36.81
1603016053.5563,75.0,814.0,53.0,448.9999999999357,36.81
1603016053.5582,75.0,814.0,41.0,448.9999999999357,36.81
1603016053.5602,75.0,814.0,38.0,448.9999999999357,36.81
1603016053.5622,75.0,814.0,43.0,448.9999999999357,36.81
1603016053.5642,75.0,814.0,46.0,448.9999999999357,36.81
1603016053.5663,75.0,814.0,46.0,448.9999999999357,36.81
1603016053.5683,75.0,814.0,43.0,448.9999999999357,36.81
1603016053.5702,75.0,814.0,34.0,448.9999999999357,36.81
1603016053.5722,75.0,814.0,26.0,448.9999999999357,36.81
1603016053.5742,75.0,814.0,31.0,448.9999999999357,36.81
1603016053.5762,75.0,814.0,41.0,448.9999999999357,36.81
1603016053.5782,75.0,814.0,51.0,448.9999999999357,36.81
1603016053.5802,75.0,814.0,53.0,448.9999999999357,36.81
1603016053.5822,75.0,814.0,46.0,448.9999999999357,36.81
1603016053.5844,75.0,814.0,38.0,448.9999999999357,36.81
1603016053.5862,75.0,814.0,41.0,448.9999999999357,36.81
1603016053.5882,75.0,814.0,38.0,448.9999999999357,36.81
1603016053.5902,75.0,814.0,48.0,449.0141305392032,36.81
1603016053.5922,75.0,814.0,72.0,449.02681918670874,36.81
1603016053.5942,75.0,814.0,87.0,449.03809507157877,36.81
1603016053.5962,75.0,814.0,82.0,449.04798732293983,36.81
1603016053.5982,75.0,814.0,68.0,449.0565250699184,36.81
1603016053.6003,75.0,814.0,65.0,449.063737441641,36.81
1603016053.6021,75.0,814.0,72.0,449.0696535672341,36.81
1603016053.6042,75.0,814.0,63.0,449.07430257582433,36.81
1603016053.6061,75.0,814.0,48.0,449.07771359653805,36.81
1603016053.6081,75.0,814.0,53.0,449.07991575850184,36.81
1603016053.6101,75.0,814.0,60.0,449.0809381908421,36.81
1603016053.6121,75.0,814.0,53.0,449.0808100226855,36.81
1603016053.6141,75.0,814.0,51.0,449.0795603831585,36.81
1603016053.6163,75.0,814.0,70.0,449.0772184013875,36.81
1603016053.6182,75.0,814.0,77.0,449.07381320649904,36.81
1603016053.6201,75.0,814.0,68.0,449.0693739276197,36.81
1603016053.6221,75.0,814.0,126.0,449.06392969387593,36.81
1603016053.6241,75.0,814.0,364.0,449.05750963439425,36.81
1603016053.6261,75.0,814.0,583.0,449.0501428783012,36.81
1603016053.6281,75.0,814.0,281.0,449.0418585547232,36.81
1603016053.6302,75.0,814.0,-374.0,449.0326857927868,36.81
1603016053.6321,75.0,814.0,-456.0,449.02265372161855,36.81
1603016053.6342,75.0,814.0,-7.0,449.01179147034486,36.81
1603016053.6361,75.0,814.0,126.0,449.0001281680923,36.81
1603016053.6381,75.0,814.0,29.0,448.9876929439874,36.81
1603016053.6401,75.0,814.0,89.0,448.9745149271566,36.81
1603016053.6421,75.0,814.0,143.0,448.9606232467264,36.81
1603016053.6441,75.0,814.0,102.0,448.94604703182335,36.81
1603016053.6461,75.0,814.0,94.0,448.930815411574,36.81
1603016053.6481,75.0,814.0,116.0,448.9149575151047,36.81
1603016053.6502,75.0,814.0,114.0,448.8985024715421,36.81
1603016053.6523,75.0,814.0,109.0,448.8814794100127,36.81
1603016053.6542,75.0,814.0,111.0,448.8639174596429,36.81
1603016053.6561,75.0,814.0,121.0,448.84584574955926,36.81
1603016053.6581,75.0,814.0,128.0,448.8272934088883,36.81
1603016053.6601,75.0,814.0,114.0,448.8082895667565,36.81
1603016053.6621,75.0,814.0,111.0,448.7888633522904,36.81
1603016053.6641,75.0,814.0,138.0,448.76904389461646,36.81
1603016053.6662,75.0,814.0,150.0,448.7488603228612,36.81
1603016053.6682,75.0,814.0,143.0,448.7283417661512,36.81
1603016053.6701,75.0,814.0,145.0,448.70751735361284,36.81
1603016053.6721,75.0,814.0,150.0,448.6864162143727,36.81
1603016053.6741,75.0,814.0,155.0,448.6650674775573,36.81
1603016053.6761,75.0,814.0,165.0,448.64350027229307,36.81
1603016053.6781,75.0,814.0,182.0,448.6217437277066,36.81
1603016053.6801,75.0,814.0,191.0,448.59982697292435,36.81
1603016053.6821,75.0,814.0,201.0,448.5777791370728,36.81
1603016053.6842,75.0,814.0,216.0,448.5556293492785,36.81
1603016053.6861,75.0,814.0,223.0,448.53340673866796,36.81
1603016053.6882,75.0,814.0,228.0,448.51114043436763,36.81
1603016054.1443,75.0,823.0,221.0,448.488859565504,36.81
1603016054.1454,75.0,823.0,211.0,448.4665932612037,36.81
1603016054.148,75.0,823.0,211.0,448.4443706505931,36.81
1603016054.1506,75.0,823.0,221.0,448.4222208627988,36.81
1603016054.1525,75.0,823.0,213.0,448.40017302694724,36.81
1603016054.1545,75.0,823.0,179.0,448.37825627216495,36.81
1603016054.1565,75.0,823.0,148.0,448.35649972757847,36.81
1603016054.1585,75.0,823.0,121.0,448.33493252231426,36.81
1603016054.1605,75.0,823.0,97.0,448.31358378549885,36.81
1603016054.1625,75.0,823.0,82.0,448.29248264625875,36.81
1603016054.1645,75.0,823.0,72.0,448.2716582337204,36.81
1603016054.1666,75.0,823.0,53.0,448.25113967701037,36.81
1603016054.1686,75.0,823.0,34.0,448.23095610525513,36.81
1603016054.1705,75.0,823.0,38.0,448.2111366475812,36.81
1603016054.1725,75.0,823.0,51.0,448.19171043311513,36.81
1603016054.1745,75.0,823.0,41.0,448.17270659098335,36.81
1603016054.1765,75.0,823.0,21.0,448.1541542503124,36.81
1603016054.1785,75.0,823.0,24.0,448.13608254022876,36.81
1603016054.1805,75.0,823.0,43.0,448.118520589859,36.81
1603016054.1826,75.0,823.0,53.0,448.1014975283295,36.81
1603016054.1845,75.0,823.0,55.0,448.0850424847669,36.81
1603016054.1865,75.0,823.0,58.0,448.0691845882977,36.81
1603016054.1885,75.0,823.0,58.0,448.05395296804824,36.81
1603016054.1904,75.0,823.0,60.0,448.03937675314523,36.81
1603016054.1925,75.0,823.0,70.0,448.025485072715,36.81
1603016054.1944,75.0,823.0,77.0,448.0123070558842,36.81
1603016054.1965,75.0,823.0,72.0,447.9998718317793,36.81
1603016054.1986,75.0,823.0,70.0,447.98820852952673,36.81
1603016054.2005,75.0,823.0,80.0,447.9773462782531,36.81
1603016054.2024,75.0,823.0,80.0,447.96731420708477,36.81
1603016054.2045,75.0,823.0,68.0,447.9581414451484,36.81
1603016054.2064,75.0,823.0,72.0,447.9498571215704,36.81
1603016054.2086,75.0,823.0,87.0,447.94249036547734,36.81
1603016054.2105,75.0,823.0,80.0,447.93607030599566,36.81
1603016054.2124,75.0,823.0,60.0,447.93062607225187,36.81
1603016054.2144,75.0,823.0,60.0,447.92618679337255,36.81
1603016054.2165,75.0,823.0,77.0,447.9227815984841,36.81
1603016054.2185,75.0,823.0,75.0,447.9204396167131,36.81
1603016054.2205,75.0,823.0,63.0,447.9191899771861,36.81
1603016054.2224,75.0,823.0,55.0,447.9190618090295,36.81
1603016054.2245,75.0,823.0,46.0,447.92008424136975,36.81
1603016054.2264,75.0,823.0,53.0,447.92228640333354,36.81
1603016054.2284,75.0,823.0,85.0,447.92569742404726,36.81
1603016054.2304,75.0,823.0,89.0,447.93034643263746,36.81
1603016054.2325,75.0,823.0,68.0,447.93626255823057,36.81
1603016054.2344,75.0,823.0,60.0,447.9434749299532,36.81
1603016054.2364,75.0,823.0,70.0,447.95201267693176,36.81
1603016054.2385,75.0,823.0,60.0,447.9619049282928,36.81
1603016054.2404,75.0,823.0,46.0,447.97318081316286,36.81
1603016054.2424,75.0,823.0,53.0,447.98586946066837,36.81
1603016054.2444,75.0,823.0,60.0,447.99999999993594,36.81
1603016054.2464,75.0,823.0,55.0,447.99999999993594,36.81
1603016054.2485,75.0,823.0,65.0,447.99999999993594,36.81
1603016054.2504,75.0,823.0,99.0,447.99999999993594,36.81
1603016054.2524,75.0,823.0,104.0,447.99999999993594,36.81
1603016054.2544,75.0,823.0,77.0,447.99999999993594,36.81
1603016054.2564,75.0,823.0,77.0,447.99999999993594,36.81
1603016054.2584,75.0,823.0,87.0,447.99999999993594,36.81
1603016054.2604,75.0,823.0,75.0,447.99999999993594,36.81
1603016054.2624,75.0,823.0,60.0,447.99999999993594,36.81
1603016054.2644,75.0,823.0,60.0,447.99999999993594,36.81
1603016054.2665,75.0,823.0,58.0,447.99999999993594,36.81
1603016054.2685,75.0,823.0,48.0,447.99999999993594,36.81
1603016054.2704,75.0,823.0,55.0,447.99999999993594,36.81
1603016054.2724,75.0,823.0,85.0,447.99999999993594,36.81
1603016054.2744,75.0,823.0,94.0,447.99999999993594,36.81
1603016054.2764,75.0,823.0,72.0,447.99999999993594,36.81
1603016054.2784,75.0,823.0,72.0,447.99999999993594,36.81
1603016054.2804,75.0,823.0,174.0,447.99999999993594,36.81
1603016054.2825,75.0,823.0,410.0,447.99999999993594,36.81
1603016054.2844,75.0,823.0,534.0,447.99999999993594,36.81
1603016054.2864,75.0,823.0,136.0,447.99999999993594,36.81
1603016054.2885,75.0,823.0,-429.0,447.99999999993594,36.81
1603016054.684,75.0,825.0,-337.0,447.99999999993594,36.88
1603016054.6845,75.0,825.0,80.0,447.99999999993594,36.88
1603016054.6854,75.0,825.0,109.0,447.99999999993594,36.88
1603016054.6874,75.0,825.0,29.0,447.99999999993594,36.88
1603016054.6895,75.0,825.0,116.0,447.99999999993594,36.88
1603016054.6914,75.0,825.0,133.0,447.99999999993594,36.88
1603016054.6934,75.0,825.0,80.0,447.99999999993594,36.88
1603016054.6954,75.0,825.0,92.0,447.99999999993594,36.88
1603016054.6974,75.0,825.0,116.0,447.99999999993594,36.88
1603016054.6995,75.0,825.0,104.0,447.99999999993594,36.88
1603016054.7016,75.0,825.0,99.0,447.99999999993594,36.88
1603016054.7034,75.0,825.0,106.0,447.99999999993594,36.88
1603016054.7054,75.0,825.0,104.0,447.99999999993594,36.88
1603016054.7075,75.0,825.0,87.0,447.99999999993594,36.88
1603016054.7094,75.0,825.0,92.0,447.99999999993594,36.88
1603016054.7115,75.0,825.0,111.0,447.99999999993594,36.88
1603016054.7134,75.0,825.0,121.0,447.99999999993594,36.88
1603016054.7155,75.0,825.0,123.0,447.99999999993594,36.88
1603016054.7175,75.0,825.0,123.0,447.99999999993594,36.88
1603016054.7194,75.0,825.0,128.0,447.99999999993594,36.88
1603016054.7214,75.0,825.0,155.0,447.99999999993594,36.88
1603016054.7234,75.0,825.0,167.0,447.99999999993594,36.88
1603016054.7254,75.0,825.0,160.0,447.99999999993594,36.88
1603016054.7275,75.0,825.0,170.0,447.99999999993594,36.88
1603016054.7294,75.0,825.0,191.0,447.99999999993594,36.88
1603016054.7316,75.0,825.0,189.0,447.99999999993594,36.88
1603016054.7335,75.0,825.0,182.0,447.99999999993594,36.88
1603016054.7355,75.0,825.0,201.0,447.99999999993594,36.88
1603016054.7375,75.0,825.0,213.0,447.99999999993594,36.88
1603016054.7394,75.0,825.0,196.0,447.99999999993594,36.88
1603016054.7414,75.0,825.0,199.0,447.99999999993594,36.88
1603016054.7435,75.0,825.0,218.0,447.99999999993594,36.88
1603016054.7454,75.0,825.0,218.0,447.99999999993594,36.88
1603016054.7475,75.0,825.0,196.0,447.99999999993594,36.88
1603016054.7496,75.0,825.0,177.0,447.99999999993594,36.88
1603016054.7514,75.0,825.0,153.0,447.99999999993594,36.88
1603016054.7534,75.0,825.0,119.0,447.99999999993594,36.88
1603016054.7554,75.0,825.0,87.0,447.99999999993594,36.88
1603016054.7575,75.0,825.0,77.0,447.99999999993594,36.88
1603016054.7594,75.0,825.0,70.0,447.99999999993594,36.88
1603016054.7614,75.0,825.0,51.0,447.99999999993594,36.88
1603016054.7634,75.0,825.0,43.0,447.99999999993594,36.88
1603016054.7655,75.0,825.0,48.0,447.99999999993594,36.88
1603016054.7675,75.0,825.0,38.0,447.99999999993594,36.88
1603016054.7694,75.0,825.0,26.0,447.99999999993594,36.88
1603016054.7714,75.0,825.0,29.0,447.99999999993594,36.88
1603016054.7734,75.0,825.0,19.0,447.99999999993594,36.88
1603016054.7754,75.0,825.0,19.0,447.99999999993594,36.88
1603016054.7775,75.0,825.0,41.0,447.99999999993594,36.88
1603016054.7794,75.0,825.0,58.0,447.99999999993594,36.88
1603016054.7815,75.0,825.0,46.0,447.99999999993594,36.88
1603016054.7835,75.0,825.0,38.0,447.99999999993594,36.88
1603016054.7854,75.0,825.0,51.0,447.99999999993594,36.88
1603016054.7874,75.0,825.0,68.0,447.99999999993594,36.88
1603016054.7894,75.0,825.0,77.0,447.99999999993594,36.88
1603016054.7914,75.0,825.0,72.0,447.99999999993594,36.88
1603016054.7934,75.0,825.0,60.0,447.99999999993594,36.88
1603016054.7954,75.0,825.0,55.0,447.99999999993594,36.88
1603016054.7974,75.0,825.0,55.0,447.99999999993594,36.88
1603016054.7995,75.0,825.0,63.0,447.99999999993594,36.88
1603016054.8014,75.0,825.0,68.0,447.99999999993594,36.88
1603016054.8036,75.0,825.0,72.0,447.99999999993594,36.88
1603016054.8055,75.0,825.0,65.0,447.99999999993594,36.88
1603016054.8075,75.0,825.0,60.0,447.99999999993594,36.88
1603016054.8094,75.0,825.0,68.0,447.99999999993594,36.88
1603016054.8114,75.0,825.0,70.0,447.99999999993594,36.88
1603016054.8134,75.0,825.0,68.0,447.99999999993594,36.88
1603016054.8155,75.0,825.0,75.0,447.99999999993594,36.88
1603016054.8175,75.0,825.0,68.0,447.99999999993594,36.88
1603016054.8194,75.0,825.0,55.0,447.99999999993594,36.88
1603016054.8214,75.0,825.0,58.0,447.99999999993594,36.88
1603016054.8234,75.0,825.0,58.0,447.99999999993594,36.88
1603016054.8254,75.0,825.0,53.0,447.99999999993594,36.88
1603016055.2538,75.0,825.0,70.0,447.99999999993594,36.88
1603016055.2544,75.0,825.0,77.0,447.99999999993594,36.88
1603016055.2554,75.0,825.0,65.0,447.99999999993594,36.88
1603016055.2575,75.0,825.0,58.0,447.99999999993594,36.88
1603016055.2594,75.0,825.0,51.0,447.99999999993594,36.88
1603016055.2614,75.0,825.0,36.0,447.99999999993594,36.88
1603016055.2634,75.0,825.0,29.0,447.99999999993594,36.88
1603016055.2655,75.0,825.0,29.0,447.99999999993594,36.88
1603016055.2675,75.0,825.0,51.0,447.99999999993594,36.88
1603016055.2694,75.0,825.0,82.0,447.99999999993594,36.88
1603016055.2714,75.0,825.0,82.0,447.99999999993594,36.88
1603016055.2734,75.0,825.0,65.0,447.99999999993594,36.88
1603016055.2754,75.0,825.0,65.0,447.99999999993594,36.88
1603016055.2775,75.0,825.0,60.0,447.99999999993594,36.88
1603016055.2794,75.0,825.0,36.0,447.99999999993594,36.88
1603016055.2815,75.0,825.0,34.0,447.99999999993594,36.88
1603016055.2834,75.0,825.0,58.0,447.99999999993594,36.88
1603016055.2854,75.0,825.0,58.0,447.99999999993594,36.88
1603016055.2874,75.0,825.0,41.0,447.99999999993594,36.88
1603016055.2895,75.0,825.0,43.0,447.99999999993594,36.88
1603016055.2914,75.0,825.0,53.0,447.99999999993594,36.88
1603016055.2934,75.0,825.0,63.0,447.99999999993594,36.88
1603016055.2954,75.0,825.0,70.0,447.99999999993594,36.88
1603016055.2974,75.0,825.0,63.0,447.99999999993594,36.88
1603016055.2995,75.0,825.0,143.0,447.99999999993594,36.88
1603016055.3014,75.0,825.0,386.0,447.99999999993594,36.88
1603016055.3034,75.0,825.0,534.0,447.99999999993594,36.88
1603016055.3054,75.0,825.0,165.0,447.99999999993594,36.88
1603016055.3074,75.0,825.0,-400.0,447.99999999993594,36.88
1603016055.3094,75.0,825.0,-359.0,447.99999999993594,36.88
1603016055.3114,75.0,825.0,38.0,447.99999999993594,36.88
1603016055.3134,75.0,825.0,92.0,447.99999999993594,36.88
1603016055.3156,75.0,825.0,26.0,447.99999999993594,36.88
1603016055.3175,75.0,825.0,94.0,447.99999999993594,36.88
1603016055.3194,75.0,825.0,99.0,447.99999999993594,36.88
1603016055.3214,75.0,825.0,48.0,447.99999999993594,36.88
1603016055.3234,75.0,825.0,70.0,447.99999999993594,36.88
1603016055.3254,75.0,825.0,92.0,447.99999999993594,36.88
1603016055.3274,75.0,825.0,82.0,447.99999999993594,36.88
1603016055.3296,75.0,825.0,85.0,447.99999999993594,36.88
1603016055.3315,75.0,825.0,87.0,447.99999999993594,36.88
1603016055.3334,75.0,825.0,82.0,447.99999999993594,36.88
1603016055.3354,75.0,825.0,92.0,447.99999999993594,36.88
1603016055.3376,75.0,825.0,116.0,447.99999999993594,36.88
1603016055.3394,75.0,825.0,128.0,447.99999999993594,36.88
1603016055.3414,75.0,825.0,116.0,447.99999999993594,36.88
1603016055.3434,75.0,825.0,102.0,447.99999999993594,36.88
1603016055.3454,75.0,825.0,111.0,447.99999999993594,36.88
1603016055.3475,75.0,825.0,138.0,447.99999999993594,36.88
1603016055.3495,75.0,825.0,138.0,447.99999999993594,36.88
1603016055.3514,75.0,825.0,121.0,447.99999999993594,36.88
1603016055.3534,75.0,825.0,140.0,447.99999999993594,36.88
1603016055.3554,75.0,825.0,174.0,447.99999999993594,36.88
1603016055.3574,75.0,825.0,179.0,447.99999999993594,36.88
1603016055.3594,75.0,825.0,172.0,447.99999999993594,36.88
1603016055.3614,75.0,825.0,182.0,447.99999999993594,36.88
1603016055.3634,75.0,825.0,206.0,447.99999999993594,36.88
1603016055.3655,75.0,825.0,216.0,447.99999999993594,36.88
1603016055.3675,75.0,825.0,199.0,447.99999999993594,36.88
1603016055.3694,75.0,825.0,187.0,447.99999999993594,36.88
1603016055.3714,75.0,825.0,177.0,447.99999999993594,36.88
1603016055.3734,75.0,825.0,165.0,447.99999999993594,36.88
1603016055.3754,75.0,825.0,170.0,447.99999999993594,36.88
1603016055.3774,75.0,825.0,155.0,447.99999999993594,36.88
1603016055.3794,75.0,825.0,131.0,447.99999999993594,36.88
1603016055.3815,75.0,825.0,133.0,447.99999999993594,36.88
1603016055.3834,75.0,825.0,114.0,447.99999999993594,36.88
1603016055.3854,75.0,825.0,68.0,447.99999999993594,36.88
1603016055.3874,75.0,825.0,53.0,447.99999999993594,36.88
1603016055.3894,75.0,825.0,46.0,447.99999999993594,36.88
1603016055.3914,75.0,825.0,24.0,447.99999999993594,36.88
1603016055.3934,75.0,825.0,29.0,447.99999999993594,36.88
1603016055.3954,75.0,825.0,36.0,447.99999999993594,36.88
1603016055.7943,75.0,802.0,14.0,447.99999999993594,36.81
1603016055.7952,75.0,802.0,9.0,447.99999999993594,36.81
1603016055.7977,75.0,802.0,31.0,447.99999999993594,36.81
1603016055.8003,75.0,802.0,38.0,447.99999999993594,36.81
1603016055.8023,75.0,802.0,36.0,447.99999999993594,36.81
1603016055.8043,75.0,802.0,34.0,447.99999999993594,36.81
1603016055.8064,75.0,802.0,31.0,447.99999999993594,36.81
1603016055.8083,75.0,802.0,36.0,447.99999999993594,36.81
1603016055.8103,75.0,802.0,24.0,447.99999999993594,36.81
1603016055.8123,75.0,802.0,12.0,447.99999999993594,36.81
1603016055.8144,75.0,802.0,19.0,447.99999999993594,36.81
1603016055.8163,75.0,802.0,36.0,447.99999999993594,36.81
1603016055.8184,75.0,802.0,46.0,447.99999999993594,36.81
1603016055.8202,75.0,802.0,46.0,447.99999999993594,36.81
1603016055.8222,75.0,802.0,51.0,447.99999999993594,36.81
1603016055.8243,75.0,802.0,48.0,447.99999999993594,36.81
1603016055.8262,75.0,802.0,31.0,447.99999999993594,36.81
1603016055.8284,75.0,802.0,36.0,447.99999999993594,36.81
1603016055.8303,75.0,802.0,55.0,447.99999999993594,36.81
1603016055.8323,75.0,802.0,41.0,447.99999999993594,36.81
1603016055.8342,75.0,802.0,21.0,447.99999999993594,36.81
1603016055.8362,75.0,802.0,38.0,447.99999999993594,36.81
1603016055.8382,75.0,802.0,53.0,447.99999999993594,36.81
1603016055.8402,75.0,802.0,43.0,448.01413053920345,36.81
1603016055.8422,75.0,802.0,31.0,448.02681918670896,36.81
1603016055.8442,75.0,802.0,31.0,448.038095071579,36.81
1603016055.8462,75.0,802.0,26.0,448.04798732294006,36.81
1603016055.8483,75.0,802.0,19.0,448.0565250699186,36.81
1603016055.8502,75.0,802.0,19.0,448.06373744164125,36.81
1603016055.8522,75.0,802.0,21.0,448.06965356723435,36.81
1603016055.8542,75.0,802.0,17.0,448.07430257582456,36.81
1603016055.8562,75.0,802.0,14.0,448.0777135965383,36.81
1603016055.8582,75.0,802.0,36.0,448.07991575850207,36.81
1603016055.8602,75.0,802.0,58.0,448.08093819084235,36.81
1603016055.8622,75.0,802.0,36.0,448.08081002268574,36.81
1603016055.8643,75.0,802.0,17.0,448.0795603831587,36.81
1603016055.8662,75.0,802.0,41.0,448.0772184013877,36.81
1603016055.8682,75.0,802.0,65.0,448.07381320649927,36.81
1603016055.8702,75.0,802.0,58.0,448.06937392761995,36.81
1603016055.8722,75.0,802.0,36.0,448.06392969387616,36.81
1603016055.8742,75.0,802.0,34.0,448.0575096343945,36.81
1603016055.8762,75.0,802.0,65.0,448.0501428783014,36.81
1603016055.8783,75.0,802.0,70.0,448.04185855472343,36.81
1603016055.8804,75.0,802.0,21.0,448.03268579278705,36.81
1603016055.8822,75.0,802.0,2.0,448.0226537216188,36.81
1603016055.8842,75.0,802.0,41.0,448.0117914703451,36.81
1603016055.8862,75.0,802.0,75.0,448.00012816809254,36.81
1603016055.8883,75.0,802.0,55.0,447.9876929439876,36.81
1603016055.8902,75.0,802.0,34.0,447.9745149271568,36.81
1603016055.8922,75.0,802.0,46.0,447.96062324672664,36.81
1603016055.8942,75.0,802.0,43.0,447.9460470318236,36.81
1603016055.8962,75.0,802.0,26.0,447.93081541157414,36.81
1603016055.8983,75.0,802.0,153.0,447.9149575151049,36.81
1603016055.9002,75.0,802.0,468.0,447.8985024715423,36.81
1603016055.9022,75.0,802.0,561.0,447.88147941001284,36.81
1603016055.9042,75.0,802.0,26.0,447.86391745964306,36.81
1603016055.9062,75.0,802.0,-551.0,447.84584574955943,36.81
1603016055.9082,75.0,802.0,-357.0,447.82729340888847,36.81
1603016055.9102,75.0,802.0,65.0,447.8082895667567,36.81
1603016055.9122,75.0,802.0,60.0,447.7888633522906,36.81
1603016055.9143,75.0,802.0,9.0,447.7690438946167,36.81
1603016055.9162,75.0,802.0,97.0,447.74886032286145,36.81
1603016055.9182,75.0,802.0,94.0,447.7283417661514,36.81
1603016055.9202,75.0,802.0,51.0,447.70751735361307,36.81
1603016055.9222,75.0,802.0,82.0,447.6864162143729,36.81
1603016055.9242,75.0,802.0,109.0,447.66506747755744,36.81
1603016055.9262,75.0,802.0,92.0,447.64350027229324,36.81
1603016055.9282,75.0,802.0,89.0,447.6217437277067,36.81
1603016055.9304,75.0,802.0,99.0,447.5998269729244,36.81
1603016055.9323,75.0,802.0,104.0,447.57777913707287,36.81
1603016055.9342,75.0,802.0,102.0,447.55562934927855,36.81
1603016055.9362,75.0,802.0,106.0,447.53340673866796,36.81
1603016055.9382,75.0,802.0,119.0,447.51114043436763,36.81
1603016056.4238,75.0,802.0,119.0,447.4888595655041,36.81
1603016056.4244,75.0,802.0,106.0,447.46659326120374,36.81
1603016056.4257,75.0,802.0,116.0,447.44437065059316,36.81
1603016056.4278,75.0,802.0,148.0,447.42222086279884,36.81
1603016056.4297,75.0,802.0,160.0,447.4001730269473,36.81
1603016056.4319,75.0,802.0,140.0,447.37825627216506,36.81
1603016056.4339,75.0,802.0,121.0,447.3564997275786,36.81
1603016056.4357,75.0,802.0,140.0,447.3349325223144,36.81
1603016056.4377,75.0,802.0,179.0,447.31358378549896,36.81
1603016056.4397,75.0,802.0,199.0,447.29248264625886,36.81
1603016056.4417,75.0,802.0,194.0,447.27165823372053,36.81
1603016056.4437,75.0,802.0,194.0,447.2511396770105,36.81
1603016056.4457,75.0,802.0,196.0,447.23095610525525,36.81
1603016056.4479,75.0,802.0,191.0,447.2111366475813,36.81
1603016056.4497,75.0,802.0,196.0,447.19171043311525,36.81
1603016056.4518,75.0,802.0,201.0,447.17270659098347,36.81
1603016056.4537,75.0,802.0,184.0,447.1541542503125,36.81
1603016056.4557,75.0,802.0,162.0,447.13608254022887,36.81
1603016056.4578,75.0,802.0,140.0,447.1185205898591,36.81
1603016056.4598,75.0,802.0,116.0,447.1014975283296,36.81
1603016056.4617,75.0,802.0,102.0,447.08504248476703,36.81
1603016056.4639,75.0,802.0,80.0,447.0691845882978,36.81
1603016056.4658,75.0,802.0,41.0,447.0539529680484,36.81
1603016056.4678,75.0,802.0,21.0,447.03937675314535,36.81
1603016056.4697,75.0,802.0,19.0,447.0254850727152,36.81
1603016056.4718,75.0,802.0,19.0,447.0123070558844,36.81
1603016056.4737,75.0,802.0,29.0,446.99987183177944,36.81
1603016056.4758,75.0,802.0,34.0,446.9882085295269,36.81
1603016056.4778,75.0,802.0,12.0,446.9773462782532,36.81
1603016056.4798,75.0,802.0,-2.0,446.96731420708494,36.81
1603016056.4818,75.0,802.0,12.0,446.95814144514856,36.81
1603016056.4838,75.0,802.0,21.0,446.9498571215706,36.81
1603016056.4858,75.0,802.0,26.0,446.94249036547745,36.81
1603016056.4878,75.0,802.0,41.0,446.93607030599577,36.81
1603016056.4897,75.0,802.0,48.0,446.93062607225204,36.81
1603016056.4918,75.0,802.0,53.0,446.92618679337266,36.81
1603016056.4937,75.0,802.0,55.0,446.9227815984843,36.81
1603016056.4958,75.0,802.0,60.0,446.9204396167133,36.81
1603016056.4979,75.0,802.0,65.0,446.91918997718625,36.81
1603016056.4997,75.0,802.0,60.0,446.9190618090296,36.81
1603016056.5017,75.0,802.0,58.0,446.9200842413699,36.81
1603016056.5038,75.0,802.0,65.0,446.9222864033337,36.81
1603016056.5058,75.0,802.0,68.0,446.9256974240474,36.81
1603016056.5078,75.0,802.0,68.0,446.9303464326376,36.81
1603016056.5098,75.0,802.0,72.0,446.93626255823074,36.81
1603016056.5118,75.0,802.0,70.0,446.94347492995337,36.81
1603016056.514,75.0,802.0,70.0,446.95201267693193,36.81
1603016056.5159,75.0,802.0,77.0,446.961904928293,36.81
1603016056.5177,75.0,802.0,70.0,446.973180813163,36.81
1603016056.5198,75.0,802.0,63.0,446.98586946066854,36.81
1603016056.5217,75.0,802.0,68.0,446.99999999993605,36.81
1603016056.5237,75.0,802.0,60.0,446.99999999993605,36.81
1603016056.5257,75.0,802.0,55.0,446.99999999993605,36.81
1603016056.5278,75.0,802.0,77.0,446.99999999993605,36.81
1603016056.5298,75.0,802.0,89.0,446.99999999993605,36.81
1603016056.5318,75.0,802.0,60.0,446.99999999993605,36.81
1603016056.5338,75.0,802.0,46.0,446.99999999993605,36.81
1603016056.5358,75.0,802.0,65.0,446.99999999993605,36.81
1603016056.5378,75.0,802.0,72.0,446.99999999993605,36.81
1603016056.5398,75.0,802.0,63.0,446.99999999993605,36.81
1603016056.5418,75.0,802.0,70.0,446.99999999993605,36.81
