Time,ECG
1607090109.2507,-7
1607090109.2521,64
1607090109.2547,752
1607090109.2573,2318
1607090109.2593,3732
1607090109.2613,4419
1607090109.2632,5052
1607090109.2653,5764
1607090109.2673,6252
1607090109.2693,6656
1607090109.2712,7082
1607090109.2733,7430
1607090109.2752,7721
1607090109.2773,8019
1607090109.2793,8289
1607090109.2813,8520
1607090109.2833,8751
1607090109.2853,8967
1607090109.2872,9145
1607090109.2893,9301
1607090109.2913,9453
1607090109.2933,9592
1607090109.2953,9722
1607090109.2974,9845
1607090109.2993,9967
1607090109.3013,10085
1607090109.3033,10186
1607090109.3053,10268
1607090109.3072,10350
1607090109.3092,10427
1607090109.3113,10492
1607090109.3132,10638
1607090109.3152,10961
1607090109.3172,11355
1607090109.3192,11516
1607090109.3212,11187
1607090109.3232,10708
1607090109.3252,10696
1607090109.3272,10912
1607090109.3292,10874
1607090109.3312,10816
1607090109.3332,10893
1607090109.3352,10910
1607090109.3372,10891
1607090109.3392,10922
1607090109.3412,10927
1607090109.3432,10898
1607090109.3453,10898
1607090109.3471,10905
1607090109.3491,10891
1607090109.3513,10872
1607090109.3532,10855
1607090109.3552,10840
1607090109.3572,10826
1607090109.3591,10787
1607090109.3612,10746
1607090109.3631,10730
1607090109.3651,10708
1607090109.3671,10662
1607090109.3691,10619
1607090109.3712,10593
1607090109.3732,10561
1607090109.3751,10518
1607090109.3772,10480
1607090109.3791,10451
1607090109.3811,10415
1607090109.3831,10371
1607090109.3851,10328
1607090109.3871,10287
1607090109.3892,10232
1607090109.3911,10148
1607090109.3931,10068
1607090109.3951,9984
1607090109.7895,9874
1607090109.7904,9763
1607090109.7928,9672
1607090109.7955,9583
1607090109.7975,9494
1607090109.7995,9417
1607090109.8016,9349
1607090109.8035,9287
1607090109.8055,9210
1607090109.8075,9133
1607090109.8095,9078
1607090109.8115,9027
1607090109.8135,8936
1607090109.8155,8842
1607090109.8174,8787
1607090109.8194,8726
1607090109.8215,8652
1607090109.8234,8580
1607090109.8255,8510
1607090109.8274,8440
1607090109.8294,8371
1607090109.8315,8294
1607090109.8334,8229
1607090109.8354,8159
1607090109.8375,8082
1607090109.8394,8010
1607090109.8414,7943
1607090109.8434,7866
1607090109.8456,7789
1607090109.8474,7719
1607090109.8494,7652
1607090109.8514,7579
1607090109.8534,7500
1607090109.8556,7428
1607090109.8575,7361
1607090109.8595,7288
1607090109.8614,7214
1607090109.8634,7149
1607090109.8654,7082
1607090109.8674,7005
1607090109.8694,6932
1607090109.8715,6868
1607090109.8734,6803
1607090109.8754,6730
1607090109.8774,6661
1607090109.8794,6598
1607090109.8814,6526
1607090109.8834,6444
1607090109.8854,6379
1607090109.8874,6322
1607090109.8895,6245
1607090109.8914,6170
1607090109.8934,6110
1607090109.8954,6048
1607090109.8974,5985
1607090109.8994,5920
1607090109.9014,5855
1607090109.9034,5795
1607090109.9056,5733
1607090109.9074,5668
1607090109.9094,5605
1607090109.9114,5547
1607090109.9134,5487
1607090109.9154,5422
1607090109.9174,5365
1607090109.9194,5312
1607090109.9215,5252
1607090109.9234,5189
1607090109.9254,5131
1607090109.9274,5076
1607090109.9294,5018
1607090109.9314,4961
1607090109.9336,4908
1607090110.3300,4855
1607090110.3307,4799
1607090110.3331,4742
1607090110.3358,4691
1607090110.3378,4641
1607090110.3398,4588
1607090110.3421,4535
1607090110.3438,4487
1607090110.3457,4436
1607090110.3477,4371
1607090110.3497,4309
1607090110.3517,4266
1607090110.3538,4222
1607090110.3559,4167
1607090110.3577,4119
1607090110.3597,4076
1607090110.3617,4028
1607090110.3638,3975
1607090110.3658,3927
1607090110.3677,3881
1607090110.3697,3840
1607090110.3718,3809
1607090110.3737,3782
1607090110.3758,3741
1607090110.3778,3691
1607090110.3797,3638
1607090110.3817,3580
1607090110.3837,3535
1607090110.3857,3494
1607090110.3878,3453
1607090110.3898,3412
1607090110.3917,3371
1607090110.3937,3328
1607090110.3957,3287
1607090110.3977,3246
1607090110.3997,3191
1607090110.4017,3167
1607090110.4037,3275
1607090110.4058,3537
1607090110.4077,3789
1607090110.4097,3698
1607090110.4117,3164
1607090110.4137,2746
1607090110.4157,2820
1607090110.4177,2900
1607090110.4197,2758
1607090110.4218,2712
1607090110.4238,2739
1607090110.4258,2686
1607090110.4279,2640
1607090110.4297,2633
1607090110.4317,2611
1607090110.4337,2575
1607090110.4357,2549
1607090110.4378,2525
1607090110.4398,2496
1607090110.4417,2467
1607090110.4439,2443
1607090110.4458,2419
1607090110.4477,2395
1607090110.4497,2368
1607090110.4517,2344
1607090110.4537,2323
1607090110.4558,2303
1607090110.4577,2279
1607090110.4597,2260
1607090110.4617,2246
1607090110.4637,2229
1607090110.4658,2212
1607090110.4677,2202
1607090110.4697,2193
1607090110.4718,2188
1607090110.4737,2176
1607090110.8999,2161
1607090110.9009,2145
1607090110.9033,2125
1607090110.9061,2096
1607090110.9080,2053
1607090110.9099,1998
1607090110.9120,1928
1607090110.9139,1858
1607090110.9160,1813
1607090110.9179,1777
1607090110.9199,1738
1607090110.9220,1707
1607090110.9239,1683
1607090110.9259,1661
1607090110.9279,1644
1607090110.9299,1632
1607090110.9318,1618
1607090110.9338,1599
1607090110.9359,1577
1607090110.9379,1563
1607090110.9399,1553
1607090110.9418,1541
1607090110.9438,1527
1607090110.9459,1512
1607090110.9478,1498
1607090110.9498,1481
1607090110.9518,1466
1607090110.9539,1454
1607090110.9560,1442
1607090110.9578,1430
1607090110.9598,1411
1607090110.9618,1389
1607090110.9638,1370
1607090110.9659,1356
1607090110.9678,1337
1607090110.9700,1325
1607090110.9719,1310
1607090110.9739,1293
1607090110.9759,1276
1607090110.9779,1267
1607090110.9798,1255
1607090110.9818,1238
1607090110.9838,1221
1607090110.9859,1214
1607090110.9879,1202
1607090110.9899,1187
1607090110.9918,1173
1607090110.9938,1161
1607090110.9959,1149
1607090110.9978,1137
1607090110.9999,1127
1607090111.0018,1118
1607090111.0039,1106
1607090111.0060,1096
1607090111.0078,1084
1607090111.0098,1072
1607090111.0118,1058
1607090111.0138,1048
1607090111.0159,1041
1607090111.0178,1031
1607090111.0198,1019
1607090111.0219,1007
1607090111.0238,997
1607090111.0258,985
1607090111.0279,973
1607090111.0298,964
1607090111.0318,959
1607090111.0338,949
1607090111.0359,940
1607090111.0379,928
1607090111.0399,918
1607090111.0418,906
1607090111.0438,896
1607090111.4401,892
1607090111.4409,887
1607090111.4433,877
1607090111.4460,870
1607090111.4479,860
1607090111.4499,851
1607090111.4520,841
1607090111.4539,829
1607090111.4560,812
1607090111.4579,808
1607090111.4599,803
1607090111.4619,791
1607090111.4639,783
1607090111.4661,781
1607090111.4679,774
1607090111.4698,762
1607090111.4720,757
1607090111.4739,752
1607090111.4759,745
1607090111.4779,733
1607090111.4798,726
1607090111.4818,714
1607090111.4838,697
1607090111.4859,687
1607090111.4880,694
1607090111.4898,711
1607090111.4919,707
1607090111.4938,690
1607090111.4959,680
1607090111.4978,666
1607090111.4999,649
1607090111.5018,644
1607090111.5039,639
1607090111.5060,634
1607090111.5079,630
1607090111.5098,620
1607090111.5119,615
1607090111.5139,606
1607090111.5159,586
1607090111.5178,598
1607090111.5198,747
1607090111.5219,1060
1607090111.5239,1346
1607090111.5259,1240
1607090111.5279,678
1607090111.5299,300
1607090111.5318,461
1607090111.5338,584
1607090111.5359,464
1607090111.5380,454
1607090111.5399,509
1607090111.5418,480
1607090111.5438,464
1607090111.5459,488
1607090111.5479,483
1607090111.5498,471
1607090111.5519,478
1607090111.5539,480
1607090111.5560,476
1607090111.5578,478
1607090111.5599,485
1607090111.5619,485
1607090111.5638,483
1607090111.5659,483
1607090111.5680,483
1607090111.5699,483
1607090111.5720,488
1607090111.5738,492
1607090111.5759,497
1607090111.5779,500
1607090111.5798,507
1607090111.5818,517
1607090111.5839,529
1607090112.0094,543
1607090112.0103,553
1607090112.0114,565
1607090112.0134,574
1607090112.0154,574
1607090112.0173,560
1607090112.0193,553
1607090112.0214,533
1607090112.0234,490
1607090112.0254,442
1607090112.0273,401
1607090112.0293,365
1607090112.0313,339
1607090112.0333,319
1607090112.0353,300
1607090112.0373,286
1607090112.0393,276
1607090112.0413,276
1607090112.0432,281
1607090112.0453,286
1607090112.0473,286
1607090112.0493,288
1607090112.0512,290
1607090112.0533,293
1607090112.0555,295
1607090112.0572,300
1607090112.0592,303
1607090112.0613,305
1607090112.0633,307
1607090112.0653,310
1607090112.0673,312
1607090112.0692,307
1607090112.0713,305
1607090112.0733,305
1607090112.0753,307
1607090112.0772,305
1607090112.0793,300
1607090112.0812,295
1607090112.0832,295
1607090112.0853,293
1607090112.0873,290
1607090112.0893,288
1607090112.0914,290
1607090112.0933,288
1607090112.0953,286
1607090112.0972,281
1607090112.0993,278
1607090112.1013,278
1607090112.1032,278
1607090112.1054,278
1607090112.1072,276
1607090112.1092,276
1607090112.1113,274
1607090112.1133,276
1607090112.1153,276
1607090112.1172,274
1607090112.1192,276
1607090112.1213,276
1607090112.1233,276
1607090112.1254,274
1607090112.1272,271
1607090112.1293,271
1607090112.1313,271
1607090112.1333,266
1607090112.1353,264
1607090112.1373,266
1607090112.1394,266
1607090112.1412,264
1607090112.1432,264
1607090112.1453,264
1607090112.1472,262
1607090112.1493,262
1607090112.1513,262
1607090112.6102,262
1607090112.6111,259
1607090112.6136,257
1607090112.6163,252
1607090112.6182,250
1607090112.6203,240
1607090112.6224,228
1607090112.6243,228
1607090112.6262,226
1607090112.6281,218
1607090112.6301,216
1607090112.6321,216
1607090112.6342,214
1607090112.6362,214
1607090112.6382,214
1607090112.6402,214
1607090112.6422,214
1607090112.6441,214
1607090112.6462,211
1607090112.6481,209
1607090112.6503,206
1607090112.6522,204
1607090112.6542,202
1607090112.6562,206
1607090112.6581,223
1607090112.6601,238
1607090112.6621,238
1607090112.6642,233
1607090112.6662,223
1607090112.6681,209
1607090112.6702,202
1607090112.6722,204
1607090112.6741,204
1607090112.6762,199
1607090112.6781,197
1607090112.6801,197
1607090112.6821,194
1607090112.6841,177
1607090112.6862,163
1607090112.6882,223
1607090112.6902,444
1607090112.6977,779
1607090112.6991,976
1607090112.7012,714
1607090112.7031,156
1607090112.7052,-26
1607090112.7071,170
1607090112.7091,177
1607090112.7111,72
1607090112.7131,113
1607090112.7151,146
1607090112.7171,113
1607090112.7191,117
1607090112.7212,139
1607090112.7232,137
1607090112.7251,139
1607090112.7271,149
1607090112.7290,149
1607090112.7311,151
1607090112.7331,158
1607090112.7351,163
1607090112.7372,165
1607090112.7391,170
1607090112.7411,175
1607090112.7431,180
1607090112.7452,185
1607090112.7471,192
1607090112.7491,199
1607090112.7511,206
1607090112.7531,216
1607090112.7553,228
1607090112.7573,240
1607090112.7591,252
1607090113.1497,262
1607090113.1504,274
1607090113.1529,286
1607090113.1556,295
1607090113.1575,303
1607090113.1596,305
1607090113.1616,298
1607090113.1635,271
1607090113.1655,233
1607090113.1675,194
1607090113.1695,153
1607090113.1715,115
1607090113.1735,93
1607090113.1755,81
1607090113.1774,72
1607090113.1794,67
1607090113.1816,69
1607090113.1835,74
1607090113.1855,74
1607090113.1875,76
1607090113.1895,81
1607090113.1914,86
1607090113.1935,88
1607090113.1955,91
1607090113.1975,96
1607090113.1994,103
1607090113.2015,103
1607090113.2035,105
1607090113.2056,108
1607090113.2074,110
1607090113.2094,115
1607090113.2114,115
1607090113.2134,117
1607090113.2155,122
1607090113.2174,122
1607090113.2194,122
1607090113.2215,127
1607090113.2234,127
1607090113.2255,125
1607090113.2274,127
1607090113.2294,127
1607090113.2314,127
1607090113.2334,125
1607090113.2355,127
1607090113.2375,125
1607090113.2395,125
1607090113.2414,127
1607090113.2434,129
1607090113.2455,132
1607090113.2476,129
1607090113.2495,129
1607090113.2514,132
1607090113.2535,134
1607090113.2556,134
1607090113.2575,132
1607090113.2594,134
1607090113.2614,137
1607090113.2634,137
1607090113.2655,137
1607090113.2674,134
1607090113.2694,132
1607090113.2715,132
1607090113.2734,132
1607090113.2755,134
1607090113.2774,137
1607090113.2794,134
1607090113.2815,129
1607090113.2834,129
1607090113.2854,132
1607090113.2875,129
1607090113.2895,129
1607090113.2914,134
1607090113.2935,137
1607090113.7501,134
1607090113.7510,132
1607090113.7536,137
1607090113.7562,134
1607090113.7580,132
1607090113.7600,132
1607090113.7621,134
1607090113.7640,127
1607090113.7661,120
1607090113.7680,117
1607090113.7701,122
1607090113.7721,122
1607090113.7741,120
1607090113.7761,122
1607090113.7780,125
1607090113.7801,122
1607090113.7820,120
1607090113.7840,122
1607090113.7860,122
1607090113.7868,117
1607090113.7881,117
1607090113.7900,122
1607090113.7920,122
1607090113.7940,117
1607090113.7961,115
1607090113.7980,113
1607090113.8000,113
1607090113.8022,120
1607090113.8041,134
1607090113.8061,146
1607090113.8080,144
1607090113.8101,139
1607090113.8120,127
1607090113.8140,117
1607090113.8160,113
1607090113.8167,113
1607090113.8190,113
1607090113.8211,115
1607090113.8230,115
1607090113.8250,117
1607090113.8270,117
1607090113.8290,108
1607090113.8311,98
1607090113.8330,165
1607090113.8350,401
1607090113.8370,731
1607090113.8391,887
1607090113.8410,589
1607090113.8430,62
1607090113.8450,-60
1607090113.8470,120
1607090113.8477,101
1607090113.8490,12
1607090113.8510,64
1607090113.8530,84
1607090113.8551,50
1607090113.8570,67
1607090113.8590,86
1607090113.8610,76
1607090113.8630,76
1607090113.8650,88
1607090113.8670,91
1607090113.8690,93
1607090113.8711,101
1607090113.8730,105
1607090113.8750,108
1607090113.8770,113
1607090113.8777,117
1607090113.8790,125
1607090113.8810,132
1607090113.8830,137
1607090113.8850,144
1607090113.8870,156
1607090114.2597,165
1607090114.2604,175
1607090114.2628,187
1607090114.2655,204
1607090114.2675,218
1607090114.2696,230
1607090114.2716,240
1607090114.2735,250
1607090114.2741,257
1607090114.2755,254
1607090114.2774,242
1607090114.2794,218
1607090114.2815,182
1607090114.2835,134
1607090114.2855,96
1607090114.2874,72
1607090114.2895,50
1607090114.2914,33
1607090114.2935,24
1607090114.2955,21
1607090114.2974,21
1607090114.2994,21
1607090114.3014,24
1607090114.3021,28
1607090114.3034,31
1607090114.3055,33
1607090114.3075,38
1607090114.3094,43
1607090114.3114,48
1607090114.3134,50
1607090114.3154,55
1607090114.3174,62
1607090114.3194,67
1607090114.3215,67
1607090114.3234,72
1607090114.3254,74
1607090114.3274,76
1607090114.3294,79
1607090114.3314,81
1607090114.3321,79
1607090114.3334,76
1607090114.3354,76
1607090114.3375,76
1607090114.3395,76
1607090114.3414,76
1607090114.3434,76
1607090114.3455,79
1607090114.3474,81
1607090114.3494,79
1607090114.3514,79
1607090114.3534,84
1607090114.3555,79
1607090114.3574,74
1607090114.3594,79
1607090114.3614,84
1607090114.3620,86
1607090114.3636,86
1607090114.3655,91
1607090114.3674,96
1607090114.3694,98
1607090114.3715,101
1607090114.3734,101
1607090114.3755,105
1607090114.3775,108
1607090114.3796,108
1607090114.3815,108
1607090114.3835,108
1607090114.3855,110
1607090114.3874,113
1607090114.3895,115
1607090114.3914,117
1607090114.3921,117
1607090114.3934,115
1607090114.8301,113
1607090114.8310,108
1607090114.8335,108
1607090114.8361,115
1607090114.8381,117
1607090114.8401,113
1607090114.8421,105
1607090114.8441,98
1607090114.8461,101
1607090114.8480,103
1607090114.8500,101
1607090114.8520,101
1607090114.8541,105
1607090114.8561,105
1607090114.8567,103
1607090114.8580,105
1607090114.8600,108
1607090114.8621,108
1607090114.8640,105
1607090114.8661,110
1607090114.8680,113
1607090114.8701,110
1607090114.8721,103
1607090114.8740,98
1607090114.8760,101
1607090114.8781,110
1607090114.8800,127
1607090114.8820,139
1607090114.8840,137
1607090114.8860,129
1607090114.8867,115
1607090114.8881,103
1607090114.8900,96
1607090114.8920,96
1607090114.8942,93
1607090114.8961,88
1607090114.8980,93
1607090114.9000,98
1607090114.9020,93
1607090114.9041,79
1607090114.9061,88
1607090114.9080,218
1607090114.9100,519
1607090114.9120,829
1607090114.9140,793
1607090114.9160,259
1607090114.9166,-180
1607090114.9180,-45
1607090114.9200,127
1607090114.9221,16
1607090114.9240,-12
1607090114.9260,67
1607090114.9280,52
1607090114.9300,28
1607090114.9320,57
1607090114.9340,67
1607090114.9360,57
1607090114.9381,69
1607090114.9402,76
1607090114.9421,79
1607090114.9441,84
1607090114.9461,88
1607090114.9467,91
1607090114.9480,96
1607090114.9501,101
1607090114.9521,103
1607090114.9540,110
1607090114.9561,120
1607090114.9580,129
1607090114.9600,137
1607090114.9620,146
1607090114.9640,158
1607090114.9660,170
1607090115.3698,187
1607090115.3706,206
1607090115.3723,223
1607090115.3746,238
1607090115.3766,247
1607090115.3788,257
1607090115.3806,264
1607090115.3827,257
1607090115.3846,228
1607090115.3867,192
1607090115.3887,151
1607090115.3906,108
1607090115.3928,69
1607090115.3947,38
1607090115.3966,19
1607090115.3986,9
1607090115.4006,2
1607090115.4026,2
1607090115.4047,2
1607090115.4067,2
1607090115.4086,2
1607090115.4106,4
1607090115.4126,9
1607090115.4146,14
1607090115.4167,19
1607090115.4186,21
1607090115.4207,26
1607090115.4227,28
1607090115.4246,33
1607090115.4267,38
1607090115.4286,43
1607090115.4306,45
1607090115.4326,50
1607090115.4346,50
1607090115.4367,50
1607090115.4388,50
1607090115.4406,50
1607090115.4426,50
1607090115.4446,45
1607090115.4466,43
1607090115.4486,48
1607090115.4506,48
1607090115.4526,45
1607090115.4547,48
1607090115.4567,52
1607090115.4586,55
1607090115.4606,55
1607090115.4627,60
1607090115.4646,62
1607090115.4666,62
1607090115.4686,64
1607090115.4706,62
1607090115.4727,62
1607090115.4746,64
1607090115.4766,67
1607090115.4786,67
1607090115.4806,67
1607090115.4826,64
1607090115.4846,64
1607090115.4866,67
1607090115.4887,72
1607090115.4906,74
1607090115.4926,76
1607090115.4948,76
1607090115.4966,76
1607090115.4986,79
1607090115.5006,79
1607090115.5026,81
1607090115.5047,84
1607090115.5067,84
1607090115.5086,84
1607090115.5106,86
1607090115.5126,88
1607090115.9702,88
1607090115.9712,86
1607090115.9738,84
1607090115.9763,81
1607090115.9783,76
1607090115.9803,67
1607090115.9823,69
1607090115.9843,91
1607090115.9863,108
1607090115.9883,105
1607090115.9904,98
1607090115.9923,88
1607090115.9943,74
1607090115.9962,67
1607090115.9983,67
1607090116.0002,62
1607090116.0022,60
1607090116.0043,62
1607090116.0064,67
1607090116.0082,64
1607090116.0103,50
1607090116.0122,43
1607090116.0142,146
1607090116.0162,423
1607090116.0182,757
1607090116.0202,844
1607090116.0223,416
1607090116.0242,-122
1607090116.0263,-125
1607090116.0282,88
1607090116.0302,26
1607090116.0322,-45
1607090116.0342,26
1607090116.0362,33
1607090116.0383,0
1607090116.0403,19
1607090116.0422,33
1607090116.0442,24
1607090116.0463,31
1607090116.0482,40
1607090116.0502,36
1607090116.0524,40
1607090116.0543,48
1607090116.0563,52
1607090116.0582,55
1607090116.0603,57
1607090116.0622,62
1607090116.0642,67
1607090116.0663,69
1607090116.0682,79
1607090116.0701,88
1607090116.0723,98
1607090116.0742,108
1607090116.0762,125
1607090116.0782,139
1607090116.0802,153
1607090116.0822,168
1607090116.0842,182
1607090116.0864,199
1607090116.0883,209
1607090116.0902,214
1607090116.0922,211
1607090116.0942,194
1607090116.0962,161
1607090116.0982,117
1607090116.1002,81
1607090116.1022,50
1607090116.1043,26
1607090116.1063,7
1607090116.1082,-2
1607090116.1102,-4
1607090116.1122,-4
1607090116.1142,-2
1607090116.5100,-4
1607090116.5109,-2
1607090116.5134,0
1607090116.5160,7
1607090116.5181,14
1607090116.5201,16
1607090116.5223,16
1607090116.5241,16
1607090116.5261,21
1607090116.5280,24
1607090116.5300,21
1607090116.5320,21
1607090116.5340,28
1607090116.5360,31
1607090116.5381,28
1607090116.5401,31
1607090116.5420,36
1607090116.5440,36
1607090116.5460,36
1607090116.5482,38
1607090116.5500,40
1607090116.5520,40
1607090116.5540,38
1607090116.5561,36
1607090116.5580,38
1607090116.5600,38
1607090116.5619,38
1607090116.5639,40
1607090116.5659,45
1607090116.5679,43
1607090116.5700,45
1607090116.5720,50
1607090116.5740,50
1607090116.5760,50
1607090116.5779,52
1607090116.5799,55
1607090116.5819,57
1607090116.5839,60
1607090116.5860,57
1607090116.5880,55
1607090116.5900,57
1607090116.5919,60
1607090116.5939,60
1607090116.5960,60
1607090116.5979,62
1607090116.6000,62
1607090116.6019,64
1607090116.6040,67
1607090116.6062,69
1607090116.6079,67
1607090116.6099,67
1607090116.6119,72
1607090116.6139,74
1607090116.6159,74
1607090116.6180,74
1607090116.6201,74
1607090116.6220,74
1607090116.6239,74
1607090116.6259,74
1607090116.6279,76
1607090116.6299,76
1607090116.6319,76
1607090116.6339,76
1607090116.6359,76
1607090116.6380,76
1607090116.6399,79
1607090116.6419,79
1607090116.6439,79
1607090116.6459,79
1607090116.6479,76
1607090116.6502,74
1607090116.6520,72
1607090116.6541,69
1607090117.0801,69
1607090117.0809,74
1607090117.0834,84
1607090117.0860,101
1607090117.0880,113
1607090117.0900,110
1607090117.0921,101
1607090117.0939,81
1607090117.0960,67
1607090117.0979,67
1607090117.0999,69
1607090117.1019,67
1607090117.1040,64
1607090117.1061,64
1607090117.1079,64
1607090117.1099,60
1607090117.1119,48
1607090117.1139,40
1607090117.1159,113
1607090117.1179,351
1607090117.1199,682
1607090117.1220,841
1607090117.1239,526
1607090117.1260,-16
1607090117.1279,-129
1607090117.1299,64
1607090117.1319,38
1607090117.1339,-52
1607090117.1360,-2
1607090117.1380,16
1607090117.1399,-16
1607090117.1419,-2
1607090117.1439,21
1607090117.1459,16
1607090117.1479,19
1607090117.1499,28
1607090117.1519,33
1607090117.1539,33
1607090117.1560,40
1607090117.1580,45
1607090117.1599,50
1607090117.1619,55
1607090117.1639,60
1607090117.1659,62
1607090117.1679,69
1607090117.1699,79
1607090117.1720,84
1607090117.1739,93
1607090117.1762,105
1607090117.1780,115
1607090117.1799,127
1607090117.1819,141
1607090117.1839,158
1607090117.1859,170
1607090117.1880,182
1607090117.1899,192
1607090117.1919,199
1607090117.1939,199
1607090117.1960,187
1607090117.1979,165
1607090117.1999,132
1607090117.2019,88
1607090117.2039,50
1607090117.2060,24
1607090117.2079,7
1607090117.2099,-7
1607090117.2119,-16
1607090117.2139,-19
1607090117.2159,-16
1607090117.2179,-14
1607090117.2199,-12
1607090117.2220,-4
1607090117.2239,-2
1607090117.6198,0
1607090117.6207,2
1607090117.6233,7
1607090117.6258,14
1607090117.6279,16
1607090117.6297,19
1607090117.6318,24
1607090117.6338,24
1607090117.6358,16
1607090117.6378,9
1607090117.6398,16
1607090117.6417,24
1607090117.6438,24
1607090117.6458,26
1607090117.6477,31
1607090117.6497,33
1607090117.6517,31
1607090117.6537,33
1607090117.6558,36
1607090117.6577,36
1607090117.6597,36
1607090117.6617,36
1607090117.6637,38
1607090117.6657,43
1607090117.6677,40
1607090117.6697,40
1607090117.6720,43
1607090117.6738,45
1607090117.6757,43
1607090117.6777,43
1607090117.6797,45
1607090117.6817,45
1607090117.6837,45
1607090117.6857,48
1607090117.6878,52
1607090117.6897,50
1607090117.6917,50
1607090117.6937,52
1607090117.6958,55
1607090117.6977,55
1607090117.6997,55
1607090117.7017,55
1607090117.7038,57
1607090117.7058,55
1607090117.7077,55
1607090117.7097,60
1607090117.7117,60
1607090117.7137,60
1607090117.7157,57
1607090117.7177,57
1607090117.7197,60
1607090117.7218,62
1607090117.7237,62
1607090117.7257,60
1607090117.7277,57
1607090117.7297,60
1607090117.7317,60
1607090117.7337,60
1607090117.7357,62
1607090117.7378,62
1607090117.7398,62
1607090117.7417,64
1607090117.7437,67
1607090117.7457,69
1607090117.7477,69
1607090117.7497,72
1607090117.7517,72
1607090117.7538,69
1607090117.7559,69
1607090117.7577,72
1607090117.7597,72
1607090117.7617,67
1607090117.7637,67
1607090118.1894,62
1607090118.1901,57
1607090118.1926,55
1607090118.1953,60
1607090118.1974,60
1607090118.1993,52
1607090118.2012,40
1607090118.2032,38
1607090118.2053,45
1607090118.2073,45
1607090118.2092,55
1607090118.2112,72
1607090118.2132,84
1607090118.2153,81
1607090118.2172,74
1607090118.2192,64
1607090118.2213,52
1607090118.2232,45
1607090118.2253,48
1607090118.2272,48
1607090118.2292,48
1607090118.2312,48
1607090118.2332,48
1607090118.2353,45
1607090118.2373,33
1607090118.2393,26
1607090118.2412,105
1607090118.2432,353
1607090118.2452,682
1607090118.2471,817
1607090118.2492,476
1607090118.2511,-50
1607090118.2531,-132
1607090118.2553,57
1607090118.2572,19
1607090118.2591,-64
1607090118.2612,-9
1607090118.2631,7
1607090118.2652,-21
1607090118.2671,-4
1607090118.2691,14
1607090118.2712,4
1607090118.2732,9
1607090118.2752,19
1607090118.2771,16
1607090118.2791,16
1607090118.2811,26
1607090118.2831,28
1607090118.2852,31
1607090118.2872,36
1607090118.2892,43
1607090118.2911,48
1607090118.2931,55
1607090118.2952,60
1607090118.2971,67
1607090118.2993,76
1607090118.3012,86
1607090118.3031,98
1607090118.3053,110
1607090118.3071,125
1607090118.3091,139
1607090118.3111,151
1607090118.3131,165
1607090118.3152,177
1607090118.3172,182
1607090118.3191,182
1607090118.3212,173
1607090118.3232,149
1607090118.3253,117
1607090118.3272,84
1607090118.3291,48
1607090118.3311,19
1607090118.3331,0
1607090118.7300,-12
1607090118.7310,-19
1607090118.7326,-24
1607090118.7345,-26
1607090118.7364,-24
1607090118.7385,-19
1607090118.7405,-19
1607090118.7425,-26
1607090118.7445,-24
1607090118.7464,-16
1607090118.7485,-12
1607090118.7504,-9
1607090118.7524,-2
1607090118.7544,2
1607090118.7564,4
1607090118.7584,7
1607090118.7604,12
1607090118.7624,19
1607090118.7644,21
1607090118.7664,24
1607090118.7683,26
1607090118.7703,28
1607090118.7724,28
1607090118.7743,28
1607090118.7764,33
1607090118.7783,33
1607090118.7803,33
1607090118.7823,31
1607090118.7843,33
1607090118.7864,36
1607090118.7884,36
1607090118.7903,36
1607090118.7923,38
1607090118.7945,40
1607090118.7964,38
1607090118.7983,38
1607090118.8003,40
1607090118.8024,43
1607090118.8044,40
1607090118.8064,43
1607090118.8083,45
1607090118.8103,48
1607090118.8123,48
1607090118.8143,50
1607090118.8163,52
1607090118.8183,50
1607090118.8203,52
1607090118.8224,55
1607090118.8243,55
1607090118.8263,52
1607090118.8283,55
1607090118.8303,55
1607090118.8323,55
1607090118.8343,55
1607090118.8364,55
1607090118.8384,57
1607090118.8403,57
1607090118.8423,60
1607090118.8443,55
1607090118.8464,50
1607090118.8484,52
1607090118.8503,55
1607090118.8523,50
1607090118.8544,50
1607090118.8564,52
1607090118.8583,50
1607090118.8603,48
1607090118.8623,43
1607090118.8643,45
1607090118.8663,48
1607090118.8683,45
1607090118.8703,45
1607090118.8724,48
1607090119.3300,45
1607090119.3309,45
1607090119.3333,48
1607090119.3359,45
1607090119.3380,36
1607090119.3400,38
1607090119.3421,45
1607090119.3439,45
1607090119.3459,43
1607090119.3479,45
1607090119.3499,48
1607090119.3522,50
1607090119.3540,48
1607090119.3560,48
1607090119.3579,48
1607090119.3599,45
1607090119.3619,48
1607090119.3639,48
1607090119.3659,45
1607090119.3679,43
1607090119.3700,40
1607090119.3719,48
1607090119.3739,69
1607090119.3759,84
1607090119.3779,81
1607090119.3799,74
1607090119.3820,62
1607090119.3839,50
1607090119.3859,45
1607090119.3879,45
1607090119.3899,48
1607090119.3919,45
1607090119.3939,45
1607090119.3960,45
1607090119.3979,45
1607090119.3998,36
1607090119.4018,19
1607090119.4039,57
1607090119.4059,245
1607090119.4078,567
1607090119.4098,805
1607090119.4118,615
1607090119.4138,55
1607090119.4158,-202
1607090119.4178,-7
1607090119.4198,52
1607090119.4219,-64
1607090119.4238,-40
1607090119.4259,9
1607090119.4278,-21
1607090119.4298,-28
1607090119.4319,-7
1607090119.4338,-9
1607090119.4359,-7
1607090119.4379,7
1607090119.4399,7
1607090119.4418,7
1607090119.4438,14
1607090119.4459,19
1607090119.4478,21
1607090119.4499,28
1607090119.4518,36
1607090119.4541,40
1607090119.4559,45
1607090119.4578,55
1607090119.4598,64
1607090119.4619,74
1607090119.4638,84
1607090119.4658,93
1607090119.4678,105
1607090119.4698,120
1607090119.4719,139
1607090119.4738,158
1607090119.9000,170
1607090119.9009,180
1607090119.9034,187
1607090119.9060,192
1607090119.9080,189
1607090119.9100,173
1607090119.9120,139
1607090119.9140,98
1607090119.9160,57
1607090119.9180,19
1607090119.9200,-12
1607090119.9220,-28
1607090119.9240,-36
1607090119.9260,-43
1607090119.9279,-48
1607090119.9299,-43
1607090119.9320,-38
1607090119.9339,-40
1607090119.9359,-38
1607090119.9380,-28
1607090119.9400,-24
1607090119.9419,-16
1607090119.9439,-9
1607090119.9459,-2
1607090119.9479,0
1607090119.9500,0
1607090119.9519,4
1607090119.9539,9
1607090119.9559,14
1607090119.9579,14
1607090119.9600,19
1607090119.9620,21
1607090119.9639,21
1607090119.9660,21
1607090119.9681,24
1607090119.9699,26
1607090119.9720,28
1607090119.9739,33
1607090119.9759,36
1607090119.9779,36
1607090119.9800,38
1607090119.9820,38
1607090119.9839,38
1607090119.9859,40
1607090119.9880,38
1607090119.9899,33
1607090119.9919,36
1607090119.9939,40
1607090119.9959,43
1607090119.9979,40
1607090119.9999,36
1607090120.0019,38
1607090120.0039,40
1607090120.0059,43
1607090120.0079,43
1607090120.0099,45
1607090120.0119,43
1607090120.0139,45
1607090120.0159,48
1607090120.0179,50
1607090120.0199,50
1607090120.0220,50
1607090120.0240,52
1607090120.0259,52
1607090120.0279,50
1607090120.0298,52
1607090120.0319,52
1607090120.0338,48
1607090120.0359,48
1607090120.0379,48
1607090120.0399,48
1607090120.0419,45
1607090120.0439,45
1607090120.4399,48
1607090120.4408,50
1607090120.4432,48
1607090120.4459,45
1607090120.4478,48
1607090120.4498,48
1607090120.4519,43
1607090120.4538,40
1607090120.4559,40
1607090120.4579,40
1607090120.4598,33
1607090120.4618,28
1607090120.4638,31
1607090120.4658,31
1607090120.4678,28
1607090120.4698,31
1607090120.4704,33
1607090120.4718,26
1607090120.4740,19
1607090120.4758,16
1607090120.4778,16
1607090120.4798,26
1607090120.4818,43
1607090120.4838,55
1607090120.4858,52
1607090120.4878,48
1607090120.4898,38
1607090120.4917,26
1607090120.4937,24
1607090120.4957,26
1607090120.4977,26
1607090120.4997,28
1607090120.5004,33
1607090120.5017,36
1607090120.5038,38
1607090120.5058,31
1607090120.5077,14
1607090120.5097,62
1607090120.5117,278
1607090120.5137,622
1607090120.5157,822
1607090120.5177,548
1607090120.5197,-28
1607090120.5218,-206
1607090120.5237,12
1607090120.5258,33
1607090120.5277,-76
1607090120.5297,-36
1607090120.5303,2
1607090120.5317,-36
1607090120.5337,-28
1607090120.5358,-4
1607090120.5378,-7
1607090120.5398,-7
1607090120.5417,2
1607090120.5437,7
1607090120.5457,9
1607090120.5477,14
1607090120.5497,21
1607090120.5517,26
1607090120.5538,28
1607090120.5558,33
1607090120.5577,38
1607090120.5597,45
1607090120.5603,57
1607090120.5617,69
1607090120.5637,79
1607090120.5657,86
1607090120.5677,98
1607090120.5699,110
1607090120.5718,127
1607090120.5737,144
1607090120.5758,156
1607090120.9793,165
1607090120.9799,180
1607090120.9819,189
1607090120.9837,189
1607090120.9862,180
1607090120.9883,158
1607090120.9902,120
1607090120.9908,74
1607090120.9921,28
1607090120.9942,-2
1607090120.9961,-24
1607090120.9982,-40
1607090121.0002,-50
1607090121.0022,-50
1607090121.0043,-48
1607090121.0062,-48
1607090121.0082,-48
1607090121.0101,-45
1607090121.0122,-40
1607090121.0141,-38
1607090121.0162,-33
1607090121.0181,-26
1607090121.0202,-21
1607090121.0208,-16
1607090121.0222,-14
1607090121.0242,-9
1607090121.0262,-4
1607090121.0282,-2
1607090121.0301,-2
1607090121.0322,-2
1607090121.0342,-4
1607090121.0362,-9
1607090121.0383,-7
1607090121.0402,-2
1607090121.0421,0
1607090121.0441,-2
1607090121.0462,0
1607090121.0481,2
1607090121.0501,4
1607090121.0508,2
1607090121.0522,4
1607090121.0542,7
1607090121.0563,7
1607090121.0582,4
1607090121.0601,9
1607090121.0622,14
1607090121.0642,16
1607090121.0663,16
1607090121.0682,19
1607090121.0701,21
1607090121.0722,24
1607090121.0742,21
1607090121.0762,26
1607090121.0782,28
1607090121.0801,26
1607090121.0808,26
1607090121.0822,28
1607090121.0841,31
1607090121.0862,31
1607090121.0883,28
1607090121.0902,28
1607090121.0921,28
1607090121.0942,28
1607090121.0961,26
1607090121.0981,24
1607090121.1003,24
1607090121.1022,24
1607090121.1042,21
1607090121.1063,26
1607090121.1081,28
1607090121.1102,26
1607090121.1108,26
1607090121.1122,26
1607090121.5500,28
1607090121.5512,28
1607090121.5536,31
1607090121.5563,36
1607090121.5583,33
1607090121.5602,26
1607090121.5623,24
1607090121.5643,31
1607090121.5663,31
1607090121.5683,28
1607090121.5702,31
1607090121.5723,33
1607090121.5729,31
1607090121.5743,28
1607090121.5763,31
1607090121.5783,31
1607090121.5802,31
1607090121.5822,28
1607090121.5842,28
1607090121.5862,31
1607090121.5882,31
1607090121.5902,28
1607090121.5922,24
1607090121.5942,16
1607090121.5962,16
1607090121.5984,26
1607090121.6002,45
1607090121.6022,60
1607090121.6029,55
1607090121.6042,45
1607090121.6062,38
1607090121.6082,28
1607090121.6102,24
1607090121.6122,26
1607090121.6142,31
1607090121.6163,31
1607090121.6182,28
1607090121.6202,31
1607090121.6222,33
1607090121.6242,24
1607090121.6262,9
1607090121.6282,60
1607090121.6302,274
1607090121.6322,608
1607090121.6328,817
1607090121.6342,581
1607090121.6362,28
1607090121.6382,-173
1607090121.6402,16
1607090121.6422,38
1607090121.6442,-67
1607090121.6462,-31
1607090121.6481,7
1607090121.6502,-26
1607090121.6521,-24
1607090121.6541,-4
1607090121.6562,-7
1607090121.6583,-2
1607090121.6602,7
1607090121.6622,9
1607090121.6642,12
1607090121.6662,19
1607090121.6682,26
1607090121.6702,28
1607090121.6723,33
1607090121.6743,38
1607090121.6762,45
1607090121.6783,50
1607090121.6802,57
1607090121.6823,64
1607090121.6842,74
1607090121.6862,81
1607090121.6882,93
1607090122.1499,108
1607090122.1508,122
1607090122.1533,137
1607090122.1562,151
1607090122.1579,165
1607090122.1598,173
1607090122.1619,173
1607090122.1639,173
1607090122.1658,168
1607090122.1678,151
1607090122.1698,117
1607090122.1719,79
1607090122.1739,43
1607090122.1760,9
1607090122.1778,-16
1607090122.1798,-38
1607090122.1818,-52
1607090122.1838,-52
1607090122.1858,-50
1607090122.1878,-50
1607090122.1898,-45
1607090122.1918,-40
1607090122.1938,-40
1607090122.1958,-36
1607090122.1978,-28
1607090122.1998,-26
1607090122.2018,-21
1607090122.2038,-14
1607090122.2058,-9
1607090122.2078,-7
1607090122.2098,0
1607090122.2118,4
1607090122.2138,9
1607090122.2158,12
1607090122.2177,12
1607090122.2197,16
1607090122.2218,21
1607090122.2237,21
1607090122.2258,21
1607090122.2278,21
1607090122.2297,21
1607090122.2317,21
1607090122.2338,24
1607090122.2358,26
1607090122.2377,26
1607090122.2397,24
1607090122.2417,21
1607090122.2437,24
1607090122.2458,26
1607090122.2477,24
1607090122.2497,26
1607090122.2517,28
1607090122.2537,28
1607090122.2558,28
1607090122.2579,33
1607090122.2598,36
1607090122.2617,36
1607090122.2637,33
1607090122.2659,36
1607090122.2677,38
1607090122.2698,38
1607090122.2718,38
1607090122.2737,40
1607090122.2758,40
1607090122.2777,36
1607090122.2798,36
1607090122.2818,40
1607090122.2837,43
1607090122.2858,43
1607090122.2877,43
1607090122.2897,43
1607090122.2917,43
1607090122.2938,38
1607090122.6894,40
1607090122.6902,43
1607090122.6927,40
1607090122.6953,38
1607090122.6973,38
1607090122.6993,36
1607090122.7014,36
1607090122.7033,36
1607090122.7053,33
1607090122.7073,33
1607090122.7092,36
1607090122.7112,28
1607090122.7132,24
1607090122.7153,31
1607090122.7173,31
1607090122.7192,28
1607090122.7212,31
1607090122.7232,36
1607090122.7253,33
1607090122.7272,33
1607090122.7292,33
1607090122.7312,33
1607090122.7332,31
1607090122.7352,28
1607090122.7372,26
1607090122.7392,28
1607090122.7412,28
1607090122.7432,26
1607090122.7452,24
1607090122.7472,26
1607090122.7492,26
1607090122.7512,31
1607090122.7535,48
1607090122.7553,62
1607090122.7572,64
1607090122.7592,60
1607090122.7612,50
1607090122.7632,33
1607090122.7652,26
1607090122.7672,28
1607090122.7692,31
1607090122.7712,33
1607090122.7732,33
1607090122.7752,36
1607090122.7772,38
1607090122.7792,33
1607090122.7812,19
1607090122.7832,36
1607090122.7853,189
1607090122.7872,495
1607090122.7892,781
1607090122.7912,716
1607090122.7932,209
1607090122.7952,-173
1607090122.7972,-50
1607090122.7992,69
1607090122.8012,-36
1607090122.8032,-52
1607090122.8052,9
1607090122.8072,-7
1607090122.8092,-21
1607090122.8112,2
1607090122.8132,4
1607090122.8152,2
1607090122.8172,14
1607090122.8192,21
1607090122.8212,21
1607090122.8232,28
1607090122.8252,31
1607090122.8272,31
1607090122.8292,36
1607090122.8312,43
1607090122.8332,45
1607090123.2600,45
1607090123.2608,52
1607090123.2633,60
1607090123.2659,69
1607090123.2679,79
1607090123.2699,91
1607090123.2720,103
1607090123.2739,115
1607090123.2759,125
1607090123.2779,132
1607090123.2801,149
1607090123.2819,163
1607090123.2839,173
1607090123.2859,175
1607090123.2878,175
1607090123.2898,161
1607090123.2918,134
1607090123.2938,101
1607090123.2958,64
1607090123.2978,28
1607090123.2998,0
1607090123.3018,-21
1607090123.3038,-33
1607090123.3059,-38
1607090123.3078,-38
1607090123.3098,-36
1607090123.3118,-36
1607090123.3138,-36
1607090123.3158,-31
1607090123.3178,-24
1607090123.3198,-19
1607090123.3218,-16
1607090123.3238,-14
1607090123.3258,-9
1607090123.3278,-2
1607090123.3298,2
1607090123.3318,4
1607090123.3339,12
1607090123.3358,14
1607090123.3378,16
1607090123.3398,16
1607090123.3418,21
1607090123.3438,24
1607090123.3458,24
1607090123.3478,24
1607090123.3498,24
1607090123.3518,26
1607090123.3538,26
1607090123.3558,26
1607090123.3578,26
1607090123.3598,26
1607090123.3618,26
1607090123.3639,26
1607090123.3658,28
1607090123.3678,28
1607090123.3698,28
1607090123.3718,28
1607090123.3738,31
1607090123.3758,36
1607090123.3778,36
1607090123.3798,33
1607090123.3819,33
1607090123.3838,36
1607090123.3858,38
1607090123.3878,38
1607090123.3898,36
1607090123.3918,31
1607090123.3938,31
1607090123.3958,36
1607090123.3978,36
1607090123.3998,33
1607090123.4018,36
1607090123.4038,40
1607090123.7998,40
1607090123.8007,40
1607090123.8032,40
1607090123.8059,43
1607090123.8077,43
1607090123.8097,45
1607090123.8118,43
1607090123.8137,40
1607090123.8157,40
1607090123.8177,38
1607090123.8197,31
1607090123.8217,28
1607090123.8237,33
1607090123.8258,33
1607090123.8277,31
1607090123.8297,36
1607090123.8317,40
1607090123.8337,38
1607090123.8358,36
1607090123.8377,33
1607090123.8397,36
1607090123.8417,36
1607090123.8437,36
1607090123.8457,38
1607090123.8477,38
1607090123.8497,40
1607090123.8517,40
1607090123.8537,40
1607090123.8557,43
1607090123.8577,45
1607090123.8597,45
1607090123.8617,43
1607090123.8637,40
1607090123.8657,38
1607090123.8677,33
1607090123.8697,28
1607090123.8717,28
1607090123.8737,38
1607090123.8757,55
1607090123.8779,67
1607090123.8797,62
1607090123.8817,52
1607090123.8837,43
1607090123.8857,33
1607090123.8877,31
1607090123.8897,36
1607090123.8917,36
1607090123.8937,38
1607090123.8957,36
1607090123.8977,33
1607090123.8997,31
1607090123.9017,19
1607090123.9037,12
1607090123.9057,101
1607090123.9078,358
1607090123.9097,692
1607090123.9117,798
1607090123.9137,387
1607090123.9157,-168
1607090123.9177,-187
1607090123.9197,40
1607090123.9217,-9
1607090123.9237,-88
1607090123.9257,-19
1607090123.9277,-9
1607090123.9297,-43
1607090123.9317,-21
1607090123.9337,-4
1607090123.9357,-14
1607090123.9377,-4
1607090123.9397,7
1607090123.9417,7
1607090123.9438,9
1607090124.4000,19
1607090124.4009,24
1607090124.4034,28
1607090124.4061,33
1607090124.4080,40
1607090124.4100,45
1607090124.4120,45
1607090124.4140,43
1607090124.4159,50
1607090124.4179,62
1607090124.4199,69
1607090124.4219,76
1607090124.4239,91
1607090124.4259,110
1607090124.4279,127
1607090124.4299,144
1607090124.4319,161
1607090124.4341,173
1607090124.4360,180
1607090124.4379,180
1607090124.4399,173
1607090124.4419,151
1607090124.4439,113
1607090124.4459,69
1607090124.4479,31
1607090124.4499,0
1607090124.4519,-26
1607090124.4539,-40
1607090124.4559,-45
1607090124.4579,-50
1607090124.4599,-52
1607090124.4619,-52
1607090124.4639,-48
1607090124.4659,-43
1607090124.4679,-40
1607090124.4699,-36
1607090124.4719,-28
1607090124.4739,-24
1607090124.4759,-19
1607090124.4779,-12
1607090124.4799,-7
1607090124.4819,-4
1607090124.4839,-4
1607090124.4859,-2
1607090124.4879,0
1607090124.4899,4
1607090124.4919,9
1607090124.4939,12
1607090124.4959,14
1607090124.4979,14
1607090124.4999,12
1607090124.5019,9
1607090124.5039,12
1607090124.5059,12
1607090124.5079,12
1607090124.5099,14
1607090124.5118,19
1607090124.5139,16
1607090124.5158,16
1607090124.5179,19
1607090124.5199,21
1607090124.5219,21
1607090124.5239,21
1607090124.5259,24
1607090124.5279,26
1607090124.5299,26
1607090124.5319,26
1607090124.5339,28
1607090124.5360,31
1607090124.5379,31
1607090124.5399,31
1607090124.5419,36
1607090124.5439,36
1607090124.9092,33
1607090124.9100,33
1607090124.9124,33
1607090124.9151,33
1607090124.9170,33
1607090124.9190,33
1607090124.9211,38
1607090124.9230,38
1607090124.9251,31
1607090124.9270,26
1607090124.9290,31
1607090124.9310,28
1607090124.9330,19
1607090124.9350,19
1607090124.9369,26
1607090124.9389,24
1607090124.9409,24
1607090124.9429,28
1607090124.9450,31
1607090124.9469,28
1607090124.9489,28
1607090124.9510,31
1607090124.9529,33
1607090124.9551,33
1607090124.9570,33
1607090124.9589,36
1607090124.9610,38
1607090124.9630,38
1607090124.9650,36
1607090124.9671,38
1607090124.9691,38
1607090124.9711,36
1607090124.9730,31
1607090124.9750,24
1607090124.9769,21
1607090124.9789,19
1607090124.9809,19
1607090124.9829,33
1607090124.9850,52
1607090124.9869,60
1607090124.9889,55
1607090124.9909,48
1607090124.9929,36
1607090124.9950,26
1607090124.9970,19
1607090124.9989,19
1607090125.0011,21
1607090125.0031,21
1607090125.0050,21
1607090125.0069,26
1607090125.0089,24
1607090125.0109,7
1607090125.0129,7
1607090125.0150,103
1607090125.0170,363
1607090125.0189,690
1607090125.0209,798
1607090125.0229,418
1607090125.0250,-108
1607090125.0269,-153
1607090125.0289,40
1607090125.0309,-12
1607090125.0329,-91
1607090125.0350,-31
1607090125.0370,-24
1607090125.0389,-55
1607090125.0410,-38
1607090125.0429,-21
1607090125.0450,-26
1607090125.0470,-19
1607090125.0489,-7
1607090125.0509,-4
1607090125.0530,2
1607090125.4799,12
1607090125.4808,14
1607090125.4832,16
1607090125.4859,24
1607090125.4879,26
1607090125.4898,21
1607090125.4919,21
1607090125.4938,31
1607090125.4957,40
1607090125.4977,45
1607090125.4997,55
1607090125.5018,69
1607090125.5037,81
1607090125.5058,96
1607090125.5077,113
1607090125.5097,129
1607090125.5117,139
1607090125.5137,146
1607090125.5157,156
1607090125.5177,158
1607090125.5197,149
1607090125.5217,127
1607090125.5237,93
1607090125.5257,52
1607090125.5279,14
1607090125.5298,-14
1607090125.5317,-33
1607090125.5337,-48
1607090125.5358,-57
1607090125.5377,-60
1607090125.5397,-60
1607090125.5417,-55
1607090125.5438,-55
1607090125.5457,-52
1607090125.5477,-48
1607090125.5497,-40
1607090125.5517,-38
1607090125.5537,-38
1607090125.5557,-36
1607090125.5577,-31
1607090125.5597,-26
1607090125.5617,-21
1607090125.5637,-14
1607090125.5657,-9
1607090125.5677,-7
1607090125.5697,-4
1607090125.5717,-2
1607090125.5737,0
1607090125.5758,4
1607090125.5777,9
1607090125.5797,9
1607090125.5817,12
1607090125.5837,12
1607090125.5857,14
1607090125.5877,14
1607090125.5897,12
1607090125.5917,9
1607090125.5937,9
1607090125.5957,12
1607090125.5977,12
1607090125.5997,12
1607090125.6017,14
1607090125.6037,16
1607090125.6057,16
1607090125.6077,16
1607090125.6097,19
1607090125.6118,21
1607090125.6137,21
1607090125.6157,21
1607090125.6177,24
1607090125.6197,24
1607090125.6217,21
1607090125.6237,24
1607090126.0798,26
1607090126.0809,28
1607090126.0836,26
1607090126.0860,24
1607090126.0880,24
1607090126.0901,26
1607090126.0921,24
1607090126.0940,16
1607090126.0959,19
1607090126.0979,21
1607090126.0999,19
1607090126.1019,21
1607090126.1039,26
1607090126.1058,26
1607090126.1078,24
1607090126.1099,19
1607090126.1119,19
1607090126.1139,21
1607090126.1159,21
1607090126.1178,21
1607090126.1199,21
1607090126.1219,21
1607090126.1239,24
1607090126.1258,26
1607090126.1279,28
1607090126.1298,28
1607090126.1319,28
1607090126.1338,31
1607090126.1359,36
1607090126.1380,36
1607090126.1399,31
1607090126.1419,31
1607090126.1439,33
1607090126.1459,33
1607090126.1479,31
1607090126.1499,33
1607090126.1519,33
1607090126.1539,33
1607090126.1559,28
1607090126.1578,26
1607090126.1598,28
1607090126.1619,31
1607090126.1639,28
1607090126.1658,26
1607090126.1678,24
1607090126.1699,19
1607090126.1719,19
1607090126.1739,21
1607090126.1759,33
1607090126.1781,50
1607090126.1799,57
1607090126.1819,52
1607090126.1839,45
1607090126.1862,33
1607090126.1880,26
1607090126.1899,26
1607090126.1918,26
1607090126.1938,26
1607090126.1959,26
1607090126.1978,31
1607090126.1999,33
1607090126.2018,28
1607090126.2039,16
1607090126.2059,19
1607090126.2078,125
1607090126.2098,399
1607090126.2119,719
1607090126.2138,781
1607090126.2158,360
1607090126.2179,-127
1607090126.2199,-117
1607090126.2218,57
1607090126.2239,-16
1607090126.6201,-76
1607090126.6212,-16
1607090126.6236,-14
1607090126.6263,-38
1607090126.6283,-19
1607090126.6303,-7
1607090126.6324,-14
1607090126.6343,-9
1607090126.6363,-2
1607090126.6382,0
1607090126.6402,4
1607090126.6422,7
1607090126.6442,2
1607090126.6461,7
1607090126.6481,16
1607090126.6501,19
1607090126.6521,24
1607090126.6541,31
1607090126.6561,36
1607090126.6581,43
1607090126.6601,50
1607090126.6621,62
1607090126.6641,72
1607090126.6662,81
1607090126.6681,93
1607090126.6701,110
1607090126.6722,125
1607090126.6742,137
1607090126.6762,149
1607090126.6782,156
1607090126.6802,156
1607090126.6825,149
1607090126.6842,129
1607090126.6861,98
1607090126.6881,60
1607090126.6901,24
1607090126.6922,-4
1607090126.6942,-26
1607090126.6961,-45
1607090126.6982,-57
1607090126.7002,-57
1607090126.7009,-55
1607090126.7032,-55
1607090126.7052,-52
1607090126.7071,-48
1607090126.7091,-45
1607090126.7111,-40
1607090126.7131,-36
1607090126.7152,-31
1607090126.7172,-26
1607090126.7191,-21
1607090126.7211,-16
1607090126.7231,-12
1607090126.7252,-7
1607090126.7271,-4
1607090126.7292,-2
1607090126.7311,2
1607090126.7318,4
1607090126.7341,7
1607090126.7362,7
1607090126.7382,12
1607090126.7402,12
1607090126.7421,12
1607090126.7441,12
1607090126.7462,14
1607090126.7481,16
1607090126.7501,16
1607090126.7521,14
1607090126.7542,16
1607090126.7562,16
1607090126.7581,16
1607090126.7601,16
1607090126.7622,19
1607090127.1600,19
1607090127.1609,16
1607090127.1633,19
1607090127.1660,24
1607090127.1680,26
1607090127.1700,24
1607090127.1720,26
1607090127.1740,28
1607090127.1760,28
1607090127.1781,26
1607090127.1799,26
1607090127.1819,28
1607090127.1826,28
1607090127.1848,26
1607090127.1869,28
1607090127.1888,26
1607090127.1908,21
1607090127.1928,24
1607090127.1949,31
1607090127.1968,31
1607090127.1989,28
1607090127.2008,26
1607090127.2028,28
1607090127.2049,28
1607090127.2068,26
1607090127.2088,26
1607090127.2109,28
1607090127.2128,31
1607090127.2135,28
1607090127.2158,28
1607090127.2179,26
1607090127.2199,26
1607090127.2218,28
1607090127.2238,28
1607090127.2259,31
1607090127.2278,28
1607090127.2298,28
1607090127.2319,28
1607090127.2338,31
1607090127.2359,36
1607090127.2378,38
1607090127.2398,36
1607090127.2418,31
1607090127.2438,26
1607090127.2446,26
1607090127.2468,26
1607090127.2488,24
1607090127.2508,24
1607090127.2528,26
1607090127.2549,24
1607090127.2568,24
1607090127.2588,24
1607090127.2608,16
1607090127.2628,21
1607090127.2648,40
1607090127.2668,57
1607090127.2688,60
1607090127.2708,57
1607090127.2728,52
1607090127.2748,43
1607090127.2757,31
1607090127.2780,31
1607090127.2799,33
1607090127.2818,31
1607090127.2838,31
1607090127.2859,36
1607090127.2878,43
1607090127.2898,36
1607090127.2918,19
1607090127.2938,36
1607090127.2958,173
1607090127.2978,471
1607090127.2998,779
1607090127.7897,745
1607090127.7910,216
1607090127.7934,-214
1607090127.7947,-86
1607090127.7970,76
1607090127.7990,-33
1607090127.8010,-69
1607090127.8030,-4
1607090127.8050,-24
1607090127.8069,-43
1607090127.8089,-16
1607090127.8109,-9
1607090127.8129,-14
1607090127.8149,-2
1607090127.8168,4
1607090127.8188,7
1607090127.8208,14
1607090127.8228,21
1607090127.8248,28
1607090127.8256,36
1607090127.8279,38
1607090127.8298,38
1607090127.8318,45
1607090127.8338,50
1607090127.8359,52
1607090127.8379,64
1607090127.8398,76
1607090127.8418,88
1607090127.8438,103
1607090127.8458,117
1607090127.8478,132
1607090127.8499,149
1607090127.8518,168
1607090127.8538,182
1607090127.8559,194
1607090127.8566,202
1607090127.8588,199
1607090127.8609,187
1607090127.8630,161
1607090127.8649,122
1607090127.8668,76
1607090127.8688,33
1607090127.8708,0
1607090127.8728,-21
1607090127.8749,-33
1607090127.8768,-43
1607090127.8788,-45
1607090127.8808,-45
1607090127.8828,-48
1607090127.8848,-45
1607090127.8869,-40
1607090127.8876,-33
1607090127.8898,-28
1607090127.8918,-26
1607090127.8940,-24
1607090127.8958,-14
1607090127.8979,-7
1607090127.8999,-4
1607090127.9018,2
1607090127.9038,4
1607090127.9059,4
1607090127.9078,7
1607090127.9098,12
1607090127.9119,16
1607090127.9138,16
1607090127.9158,19
1607090127.9166,16
1607090127.9188,16
1607090127.9208,16
1607090127.9229,16
1607090127.9249,19
1607090127.9268,21
1607090127.9288,19
1607090128.2693,16
1607090128.2700,14
1607090128.2724,16
1607090128.2752,16
1607090128.2771,16
1607090128.2791,16
1607090128.2811,19
1607090128.2818,12
1607090128.2840,7
1607090128.2861,12
1607090128.2880,14
1607090128.2900,12
1607090128.2920,14
1607090128.2940,16
1607090128.2960,16
1607090128.2980,9
1607090128.3002,4
1607090128.3021,9
1607090128.3040,12
1607090128.3060,12
1607090128.3080,14
1607090128.3100,14
1607090128.3120,16
1607090128.3127,16
1607090128.3150,16
1607090128.3171,16
1607090128.3191,16
1607090128.3210,19
1607090128.3230,21
1607090128.3251,21
1607090128.3270,19
1607090128.3290,21
1607090128.3310,24
1607090128.3330,26
1607090128.3351,24
1607090128.3371,21
1607090128.3391,21
1607090128.3410,21
1607090128.3430,21
1607090128.3451,21
1607090128.3470,21
1607090128.3490,19
1607090128.3510,19
1607090128.3530,19
1607090128.3551,16
1607090128.3570,12
1607090128.3590,9
1607090128.3610,4
1607090128.3630,2
1607090128.3651,7
1607090128.3670,26
1607090128.3690,43
1607090128.3710,45
1607090128.3730,40
1607090128.3751,31
1607090128.3770,19
1607090128.3790,16
1607090128.3810,19
1607090128.3830,16
1607090128.3851,16
1607090128.3870,19
1607090128.3890,24
1607090128.3910,21
1607090128.3930,14
1607090128.3950,0
1607090128.3970,33
1607090128.3990,214
1607090128.4011,541
1607090128.4031,800
1607090128.4051,642
1607090128.4070,79
1607090128.4090,-223
1607090128.4110,-40
1607090128.8400,38
1607090128.8409,-81
1607090128.8433,-69
1607090128.8460,-19
1607090128.8480,-55
1607090128.8499,-64
1607090128.8520,-36
1607090128.8540,-33
1607090128.8560,-36
1607090128.8579,-24
1607090128.8600,-16
1607090128.8620,-14
1607090128.8640,-7
1607090128.8659,0
1607090128.8679,4
1607090128.8699,12
1607090128.8719,14
1607090128.8739,21
1607090128.8759,28
1607090128.8779,38
1607090128.8799,43
1607090128.8819,52
1607090128.8839,62
1607090128.8859,74
1607090128.8879,86
1607090128.8899,101
1607090128.8919,117
1607090128.8939,134
1607090128.8959,146
1607090128.8979,156
1607090128.8999,168
1607090128.9019,173
1607090128.9039,165
1607090128.9059,149
1607090128.9079,117
1607090128.9099,74
1607090128.9119,36
1607090128.9139,4
1607090128.9158,-19
1607090128.9179,-38
1607090128.9199,-50
1607090128.9219,-52
1607090128.9239,-52
1607090128.9259,-52
1607090128.9278,-50
1607090128.9300,-48
1607090128.9319,-45
1607090128.9338,-43
1607090128.9359,-38
1607090128.9378,-31
1607090128.9398,-28
1607090128.9418,-24
1607090128.9439,-21
1607090128.9459,-14
1607090128.9479,-12
1607090128.9498,-9
1607090128.9518,-7
1607090128.9539,-2
1607090128.9559,-2
1607090128.9578,-4
1607090128.9599,-2
1607090128.9618,2
1607090128.9638,4
1607090128.9658,2
1607090128.9678,2
1607090128.9699,4
1607090128.9719,4
1607090128.9738,2
1607090128.9759,4
1607090128.9778,7
1607090128.9799,7
1607090128.9818,9
1607090128.9839,12
1607090129.4399,12
1607090129.4407,14
1607090129.4432,12
1607090129.4458,12
1607090129.4479,14
1607090129.4498,14
1607090129.4518,7
1607090129.4538,7
1607090129.4559,12
1607090129.4578,12
1607090129.4598,9
1607090129.4618,12
1607090129.4638,14
1607090129.4658,12
1607090129.4678,12
1607090129.4698,14
1607090129.4718,14
1607090129.4737,14
1607090129.4758,14
1607090129.4778,19
1607090129.4797,19
1607090129.4817,16
1607090129.4837,19
1607090129.4860,21
1607090129.4878,21
1607090129.4897,19
1607090129.4917,14
1607090129.4937,14
1607090129.4959,16
1607090129.4977,14
1607090129.4997,16
1607090129.5017,19
1607090129.5037,21
1607090129.5058,24
1607090129.5077,26
1607090129.5097,28
1607090129.5117,31
1607090129.5137,31
1607090129.5158,31
1607090129.5177,31
1607090129.5197,31
1607090129.5217,33
1607090129.5237,36
1607090129.5257,36
1607090129.5277,36
1607090129.5297,33
1607090129.5317,33
1607090129.5337,36
1607090129.5358,31
1607090129.5377,28
1607090129.5397,28
1607090129.5417,21
1607090129.5437,12
1607090129.5457,9
1607090129.5477,16
1607090129.5497,31
1607090129.5517,43
1607090129.5538,48
1607090129.5558,45
1607090129.5577,36
1607090129.5597,21
1607090129.5617,14
1607090129.5637,16
1607090129.5658,16
1607090129.5677,16
1607090129.5697,19
1607090129.5717,21
1607090129.5737,21
1607090129.5757,16
1607090129.5777,2
1607090129.5797,14
1607090129.5817,144
1607090129.5837,430
1607090130.0093,735
1607090130.0105,745
1607090130.0127,283
1607090130.0153,-163
1607090130.0173,-101
1607090130.0193,52
1607090130.0214,-40
1607090130.0233,-79
1607090130.0254,-16
1607090130.0273,-21
1607090130.0293,-43
1607090130.0313,-28
1607090130.0333,-21
1607090130.0352,-21
1607090130.0373,-14
1607090130.0393,-7
1607090130.0413,-4
1607090130.0433,0
1607090130.0453,4
1607090130.0473,7
1607090130.0493,12
1607090130.0513,21
1607090130.0533,26
1607090130.0553,31
1607090130.0573,38
1607090130.0592,45
1607090130.0612,52
1607090130.0632,60
1607090130.0653,74
1607090130.0673,86
1607090130.0693,96
1607090130.0712,110
1607090130.0732,127
1607090130.0753,141
1607090130.0772,153
1607090130.0792,163
1607090130.0812,170
1607090130.0832,168
1607090130.0853,158
1607090130.0872,137
1607090130.0892,108
1607090130.0912,69
1607090130.0933,33
1607090130.0952,4
1607090130.0973,-19
1607090130.0992,-40
1607090130.1012,-50
1607090130.1032,-50
1607090130.1053,-52
1607090130.1072,-57
1607090130.1092,-55
1607090130.1112,-48
1607090130.1134,-43
1607090130.1153,-38
1607090130.1172,-33
1607090130.1192,-31
1607090130.1212,-26
1607090130.1232,-21
1607090130.1252,-16
1607090130.1272,-9
1607090130.1292,-4
1607090130.1312,-2
1607090130.1332,0
1607090130.1353,2
1607090130.1372,7
1607090130.1392,7
1607090130.1412,9
1607090130.1432,12
1607090130.1452,12
1607090130.1472,9
1607090130.1492,9
1607090130.1512,12
1607090130.1532,14
1607090130.6098,12
1607090130.6111,12
1607090130.6135,14
1607090130.6162,14
1607090130.6181,14
1607090130.6201,16
1607090130.6222,19
1607090130.6241,16
1607090130.6262,14
1607090130.6281,16
1607090130.6301,19
1607090130.6321,16
1607090130.6342,9
1607090130.6362,7
1607090130.6381,12
1607090130.6401,14
1607090130.6421,14
1607090130.6441,14
1607090130.6461,19
1607090130.6480,16
1607090130.6500,19
1607090130.6520,21
1607090130.6540,24
1607090130.6561,26
1607090130.6580,26
1607090130.6600,24
1607090130.6621,28
1607090130.6640,33
1607090130.6660,33
1607090130.6680,33
1607090130.6702,33
1607090130.6721,33
1607090130.6740,33
1607090130.6761,36
1607090130.6780,38
1607090130.6800,38
1607090130.6820,36
1607090130.6840,31
1607090130.6861,26
1607090130.6880,24
1607090130.6900,24
1607090130.6920,26
1607090130.6940,26
1607090130.6960,26
1607090130.6980,26
1607090130.7000,28
1607090130.7020,31
1607090130.7040,31
1607090130.7060,31
1607090130.7080,31
1607090130.7100,36
1607090130.7120,38
1607090130.7140,38
1607090130.7160,38
1607090130.7180,38
1607090130.7201,31
1607090130.7221,28
1607090130.7241,31
1607090130.7261,40
1607090130.7280,60
1607090130.7300,69
1607090130.7320,62
1607090130.7340,52
1607090130.7360,43
1607090130.7380,33
1607090130.7400,31
1607090130.7420,31
1607090130.7440,26
1607090130.7460,31
1607090130.7480,36
1607090130.7500,33
1607090130.7520,28
1607090130.7540,16
1607090131.0893,9
1607090131.0900,84
1607090131.0925,327
1607090131.0952,663
1607090131.0971,808
1607090131.0991,452
1607090131.1012,-108
1607090131.1031,-187
1607090131.1053,38
1607090131.1071,7
1607090131.1090,-91
1607090131.1110,-33
1607090131.1130,-14
1607090131.1151,-55
1607090131.1170,-43
1607090131.1190,-19
1607090131.1210,-24
1607090131.1230,-28
1607090131.1251,-19
1607090131.1270,-12
1607090131.1290,-12
1607090131.1310,-7
1607090131.1330,4
1607090131.1351,12
1607090131.1371,16
1607090131.1390,24
1607090131.1410,28
1607090131.1430,36
1607090131.1451,45
1607090131.1470,50
1607090131.1490,57
1607090131.1510,67
1607090131.1530,76
1607090131.1551,93
1607090131.1570,113
1607090131.1590,125
1607090131.1610,139
1607090131.1630,153
1607090131.1651,170
1607090131.1670,180
1607090131.1690,180
1607090131.1710,173
1607090131.1730,151
1607090131.1751,120
1607090131.1770,81
1607090131.1790,43
1607090131.1810,14
1607090131.1830,-12
1607090131.1851,-33
1607090131.1870,-43
1607090131.1890,-45
1607090131.1910,-45
1607090131.1930,-45
1607090131.1951,-43
1607090131.1970,-36
1607090131.1991,-33
1607090131.2010,-31
1607090131.2030,-28
1607090131.2051,-21
1607090131.2072,-16
1607090131.2091,-12
1607090131.2110,-9
1607090131.2130,-7
1607090131.2151,-2
1607090131.2170,0
1607090131.2190,2
1607090131.2210,2
1607090131.2230,4
1607090131.2251,4
1607090131.2270,7
1607090131.2290,12
1607090131.2310,12
1607090131.2330,12
1607090131.6599,12
1607090131.6609,14
1607090131.6633,14
1607090131.6660,14
1607090131.6680,14
1607090131.6700,14
1607090131.6720,9
1607090131.6740,2
1607090131.6760,4
1607090131.6780,9
1607090131.6799,7
1607090131.6820,7
1607090131.6840,12
1607090131.6860,16
1607090131.6879,16
1607090131.6899,19
1607090131.6919,21
1607090131.6939,21
1607090131.6959,24
1607090131.6979,26
1607090131.6999,26
1607090131.7019,26
1607090131.7039,24
1607090131.7059,24
1607090131.7080,21
1607090131.7099,19
1607090131.7119,19
1607090131.7139,21
1607090131.7159,24
1607090131.7179,26
1607090131.7199,26
1607090131.7219,28
1607090131.7239,31
1607090131.7259,31
1607090131.7279,28
1607090131.7299,26
1607090131.7319,26
1607090131.7340,28
1607090131.7360,31
1607090131.7379,33
1607090131.7399,31
1607090131.7419,28
1607090131.7439,28
1607090131.7459,28
1607090131.7479,31
1607090131.7499,31
1607090131.7519,31
1607090131.7539,33
1607090131.7559,33
1607090131.7579,28
1607090131.7599,24
1607090131.7619,24
1607090131.7639,26
1607090131.7659,26
1607090131.7679,36
1607090131.7699,52
1607090131.7719,60
1607090131.7739,57
1607090131.7759,50
1607090131.7779,40
1607090131.7799,28
1607090131.7819,26
1607090131.7839,31
1607090131.7859,31
1607090131.7879,26
1607090131.7899,21
1607090131.7919,21
1607090131.7939,16
1607090131.7959,0
1607090131.7979,12
1607090131.7999,151
1607090131.8019,459
1607090131.8039,767
1607090132.1997,733
1607090132.2004,211
1607090132.2028,-223
1607090132.2055,-110
1607090132.2075,48
1607090132.2094,-57
1607090132.2116,-84
1607090132.2134,-19
1607090132.2154,-43
1607090132.2174,-62
1607090132.2194,-33
1607090132.2213,-26
1607090132.2234,-33
1607090132.2254,-26
1607090132.2273,-19
1607090132.2295,-16
1607090132.2314,-16
1607090132.2334,-14
1607090132.2354,-9
1607090132.2374,-2
1607090132.2393,2
1607090132.2414,9
1607090132.2434,16
1607090132.2453,19
1607090132.2474,26
1607090132.2494,38
1607090132.2513,50
1607090132.2533,60
1607090132.2554,74
1607090132.2573,91
1607090132.2594,108
1607090132.2613,120
1607090132.2633,134
1607090132.2654,149
1607090132.2674,158
1607090132.2693,165
1607090132.2714,163
1607090132.2733,149
1607090132.2754,122
1607090132.2773,86
1607090132.2794,45
1607090132.2814,12
1607090132.2834,-16
1607090132.2854,-38
1607090132.2874,-50
1607090132.2893,-62
1607090132.2913,-67
1607090132.2933,-67
1607090132.2954,-62
1607090132.2973,-57
1607090132.2993,-55
1607090132.3014,-55
1607090132.3033,-50
1607090132.3054,-45
1607090132.3074,-38
1607090132.3093,-33
1607090132.3113,-31
1607090132.3133,-24
1607090132.3154,-24
1607090132.3174,-21
1607090132.3194,-16
1607090132.3214,-9
1607090132.3233,-9
1607090132.3254,-7
1607090132.3273,-4
1607090132.3293,-4
1607090132.3315,-4
1607090132.3334,-2
1607090132.3354,0
1607090132.3373,0
1607090132.3393,0
1607090132.3413,0
1607090132.3434,0
1607090132.7999,2
1607090132.8008,0
1607090132.8033,2
1607090132.8059,2
1607090132.8079,0
1607090132.8099,-9
1607090132.8120,-12
1607090132.8139,-4
1607090132.8159,-4
1607090132.8178,-9
1607090132.8198,-9
1607090132.8218,-4
1607090132.8238,-2
1607090132.8258,-2
1607090132.8277,-2
1607090132.8298,0
1607090132.8317,0
1607090132.8338,2
1607090132.8358,4
1607090132.8378,7
1607090132.8397,9
1607090132.8417,7
1607090132.8437,12
1607090132.8458,16
1607090132.8478,16
1607090132.8497,14
1607090132.8517,16
1607090132.8537,16
1607090132.8557,16
1607090132.8577,19
1607090132.8598,21
1607090132.8617,21
1607090132.8637,24
1607090132.8658,21
1607090132.8677,24
1607090132.8698,26
1607090132.8718,24
1607090132.8737,21
1607090132.8758,19
1607090132.8777,16
1607090132.8797,16
1607090132.8817,19
1607090132.8838,19
1607090132.8858,19
1607090132.8879,19
1607090132.8898,21
1607090132.8917,24
1607090132.8937,24
1607090132.8958,21
1607090132.8977,21
1607090132.8997,21
1607090132.9017,19
1607090132.9037,19
1607090132.9058,21
1607090132.9078,33
1607090132.9097,52
1607090132.9117,60
1607090132.9137,55
1607090132.9158,48
1607090132.9178,36
1607090132.9199,24
1607090132.9217,19
1607090132.9237,19
1607090132.9258,14
1607090132.9277,14
1607090132.9297,16
1607090132.9317,21
1607090132.9337,14
1607090132.9358,-4
1607090132.9378,4
1607090132.9398,139
1607090132.9418,432
1607090132.9437,735
1607090133.3397,738
1607090133.3404,266
1607090133.3429,-182
1607090133.3455,-117
1607090133.3475,38
1607090133.3495,-57
1607090133.3515,-93
1607090133.3535,-31
1607090133.3555,-40
1607090133.3574,-62
1607090133.3595,-43
1607090133.3614,-40
1607090133.3634,-40
1607090133.3655,-31
1607090133.3674,-26
1607090133.3694,-21
1607090133.3714,-12
1607090133.3734,-4
1607090133.3755,0
1607090133.3774,4
1607090133.3794,12
1607090133.3801,16
1607090133.3826,24
1607090133.3845,33
1607090133.3865,43
1607090133.3885,48
1607090133.3904,55
1607090133.3924,62
1607090133.3944,74
1607090133.3965,86
1607090133.3984,101
1607090133.4004,115
1607090133.4024,127
1607090133.4044,139
1607090133.4064,149
1607090133.4084,153
1607090133.4104,153
1607090133.4111,141
1607090133.4135,117
1607090133.4155,86
1607090133.4174,50
1607090133.4194,14
1607090133.4214,-14
1607090133.4234,-33
1607090133.4255,-45
1607090133.4274,-55
1607090133.4294,-57
1607090133.4314,-55
1607090133.4334,-52
1607090133.4355,-52
1607090133.4374,-50
1607090133.4395,-45
1607090133.4414,-40
1607090133.4421,-36
1607090133.4444,-33
1607090133.4464,-28
1607090133.4484,-24
1607090133.4504,-21
1607090133.4524,-16
1607090133.4544,-12
1607090133.4565,-12
1607090133.4584,-9
1607090133.4604,-7
1607090133.4624,-4
1607090133.4644,-2
1607090133.4664,0
1607090133.4684,0
1607090133.4704,-2
1607090133.4724,-7
1607090133.4731,-7
1607090133.4754,-2
1607090133.4774,0
1607090133.4794,-2
1607090133.9403,-2
1607090133.9416,-2
1607090133.9440,0
1607090133.9467,0
1607090133.9486,0
1607090133.9507,4
1607090133.9527,4
1607090133.9546,-2
1607090133.9565,-9
1607090133.9585,-4
1607090133.9605,2
1607090133.9613,2
1607090133.9635,2
1607090133.9655,4
1607090133.9675,7
1607090133.9695,7
1607090133.9715,9
1607090133.9735,12
1607090133.9755,9
1607090133.9775,7
1607090133.9795,12
1607090133.9815,14
1607090133.9835,14
1607090133.9855,14
1607090133.9875,16
1607090133.9895,19
1607090133.9915,19
1607090133.9922,19
1607090133.9945,21
1607090133.9965,26
1607090133.9985,24
1607090134.0006,21
1607090134.0025,24
1607090134.0045,28
1607090134.0065,28
1607090134.0085,26
1607090134.0105,26
1607090134.0125,28
1607090134.0145,28
1607090134.0166,28
1607090134.0185,28
1607090134.0205,33
1607090134.0212,31
1607090134.0235,24
1607090134.0255,24
1607090134.0275,26
1607090134.0295,24
1607090134.0315,26
1607090134.0335,31
1607090134.0355,33
1607090134.0375,31
1607090134.0396,28
1607090134.0416,26
1607090134.0435,21
1607090134.0455,21
1607090134.0475,24
1607090134.0495,33
1607090134.0515,50
1607090134.0522,62
1607090134.0535,60
1607090134.0555,48
1607090134.0576,31
1607090134.0595,21
1607090134.0615,24
1607090134.0635,24
1607090134.0656,21
1607090134.0675,16
1607090134.0695,19
1607090134.0715,19
1607090134.0735,12
1607090134.0755,0
1607090134.0775,4
1607090134.0795,113
1607090134.4497,382
1607090134.4504,704
1607090134.4528,762
1607090134.4555,324
1607090134.4574,-173
1607090134.4594,-144
1607090134.4615,48
1607090134.4634,-28
1607090134.4654,-88
1607090134.4673,-24
1607090134.4694,-28
1607090134.4714,-57
1607090134.4734,-40
1607090134.4754,-38
1607090134.4773,-43
1607090134.4781,-31
1607090134.4803,-21
1607090134.4823,-21
1607090134.4844,-14
1607090134.4864,-7
1607090134.4883,-4
1607090134.4903,2
1607090134.4923,12
1607090134.4943,16
1607090134.4963,21
1607090134.4983,31
1607090134.5003,40
1607090134.5023,50
1607090134.5043,57
1607090134.5065,72
1607090134.5084,84
1607090134.5090,96
1607090134.5103,110
1607090134.5123,129
1607090134.5143,144
1607090134.5163,158
1607090134.5183,168
1607090134.5203,175
1607090134.5223,180
1607090134.5243,173
1607090134.5264,149
1607090134.5283,108
1607090134.5304,64
1607090134.5324,28
1607090134.5344,2
1607090134.5364,-19
1607090134.5383,-33
1607090134.5391,-48
1607090134.5414,-57
1607090134.5433,-52
1607090134.5453,-45
1607090134.5473,-45
1607090134.5493,-48
1607090134.5514,-48
1607090134.5534,-48
1607090134.5554,-43
1607090134.5573,-33
1607090134.5593,-31
1607090134.5613,-28
1607090134.5633,-24
1607090134.5654,-16
1607090134.5673,-14
1607090134.5693,-12
1607090134.5700,-9
1607090134.5713,-4
1607090134.5733,0
1607090134.5754,0
1607090134.5773,0
1607090134.5793,4
1607090134.5814,7
1607090134.5833,7
1607090134.5854,4
1607090134.5873,4
1607090135.0209,7
1607090135.0218,4
1607090135.0231,2
1607090135.0251,4
1607090135.0257,4
1607090135.0280,2
1607090135.0300,-2
1607090135.0322,0
1607090135.0340,4
1607090135.0361,7
1607090135.0379,7
1607090135.0399,9
1607090135.0420,12
1607090135.0440,14
1607090135.0459,14
1607090135.0479,14
1607090135.0499,14
1607090135.0519,12
1607090135.0541,14
1607090135.0560,19
1607090135.0581,16
1607090135.0600,14
1607090135.0619,19
1607090135.0640,24
1607090135.0660,24
1607090135.0679,21
1607090135.0699,21
1607090135.0720,24
1607090135.0739,26
1607090135.0760,26
1607090135.0779,26
1607090135.0799,26
1607090135.0820,26
1607090135.0839,24
1607090135.0860,21
1607090135.0879,19
1607090135.0899,21
1607090135.0919,24
1607090135.0939,26
1607090135.0959,26
1607090135.0979,28
1607090135.0999,28
1607090135.1019,31
1607090135.1039,31
1607090135.1060,31
1607090135.1079,26
1607090135.1099,19
1607090135.1119,12
1607090135.1140,12
1607090135.1160,14
1607090135.1179,19
1607090135.1199,33
1607090135.1219,43
1607090135.1239,40
1607090135.1259,38
1607090135.1279,31
1607090135.1299,16
1607090135.1319,14
1607090135.1341,16
1607090135.1360,16
1607090135.1379,14
1607090135.1399,19
1607090135.1419,19
1607090135.1439,19
1607090135.1459,4
1607090135.1479,-7
1607090135.1499,79
1607090135.1519,341
1607090135.1539,678
1607090135.1560,791
1607090135.1579,394
1607090135.1599,-165
1607090135.1619,-209
1607090135.5600,16
1607090135.5609,-24
1607090135.5633,-105
1607090135.5660,-48
1607090135.5680,-33
1607090135.5700,-60
1607090135.5720,-45
1607090135.5740,-38
1607090135.5760,-48
1607090135.5780,-38
1607090135.5801,-28
1607090135.5820,-28
1607090135.5840,-24
1607090135.5860,-12
1607090135.5879,-9
1607090135.5899,-7
1607090135.5919,-2
1607090135.5939,7
1607090135.5959,12
1607090135.5979,19
1607090135.5999,31
1607090135.6019,38
1607090135.6039,43
1607090135.6060,52
1607090135.6081,64
1607090135.6100,74
1607090135.6119,91
1607090135.6139,105
1607090135.6160,125
1607090135.6180,141
1607090135.6199,151
1607090135.6219,158
1607090135.6239,161
1607090135.6259,151
1607090135.6279,127
1607090135.6299,93
1607090135.6321,55
1607090135.6339,16
1607090135.6361,-19
1607090135.6379,-45
1607090135.6399,-62
1607090135.6419,-69
1607090135.6439,-72
1607090135.6459,-74
1607090135.6479,-69
1607090135.6499,-67
1607090135.6519,-67
1607090135.6539,-64
1607090135.6559,-57
1607090135.6579,-50
1607090135.6599,-48
1607090135.6619,-43
1607090135.6639,-38
1607090135.6659,-33
1607090135.6679,-28
1607090135.6698,-26
1607090135.6719,-24
1607090135.6739,-21
1607090135.6759,-19
1607090135.6779,-14
1607090135.6799,-9
1607090135.6819,-9
1607090135.6839,-7
1607090135.6859,-7
1607090135.6879,-4
1607090135.6899,-7
1607090135.6919,-7
1607090135.6939,-2
1607090135.6959,0
1607090135.6979,-2
1607090135.6999,-4
1607090135.7019,0
1607090135.7039,0
1607090136.1599,0
1607090136.1607,2
1607090136.1631,4
1607090136.1659,2
1607090136.1678,-2
1607090136.1699,-4
1607090136.1719,2
1607090136.1738,4
1607090136.1760,2
1607090136.1778,2
1607090136.1798,4
1607090136.1819,7
1607090136.1838,7
1607090136.1858,9
1607090136.1879,12
1607090136.1898,7
1607090136.1917,4
1607090136.1937,7
1607090136.1959,9
1607090136.1977,12
1607090136.1997,14
1607090136.2017,14
1607090136.2037,14
1607090136.2057,16
1607090136.2077,16
1607090136.2097,19
1607090136.2117,21
1607090136.2137,21
1607090136.2158,21
1607090136.2177,24
1607090136.2198,26
1607090136.2217,24
1607090136.2237,21
1607090136.2258,21
1607090136.2277,24
1607090136.2297,19
1607090136.2317,19
1607090136.2337,24
1607090136.2358,26
1607090136.2377,24
1607090136.2397,24
1607090136.2417,26
1607090136.2437,24
1607090136.2457,24
1607090136.2477,24
1607090136.2497,26
1607090136.2517,24
1607090136.2537,21
1607090136.2557,19
1607090136.2577,19
1607090136.2597,16
1607090136.2617,14
1607090136.2637,24
1607090136.2657,45
1607090136.2677,57
1607090136.2698,52
1607090136.2717,48
1607090136.2737,38
1607090136.2757,28
1607090136.2777,24
1607090136.2797,24
1607090136.2817,24
1607090136.2837,26
1607090136.2857,26
1607090136.2877,26
1607090136.2898,26
1607090136.2917,14
1607090136.2937,-4
1607090136.2957,50
1607090136.2977,269
1607090136.2997,601
1607090136.3017,803
1607090136.3037,553
1607090136.7300,-4
1607090136.7308,-194
1607090136.7323,0
1607090136.7343,14
1607090136.7364,-91
1607090136.7383,-52
1607090136.7403,-19
1607090136.7425,-50
1607090136.7443,-48
1607090136.7463,-31
1607090136.7484,-40
1607090136.7503,-36
1607090136.7523,-19
1607090136.7544,-19
1607090136.7563,-16
1607090136.7583,-7
1607090136.7603,0
1607090136.7623,0
1607090136.7643,9
1607090136.7663,16
1607090136.7669,19
1607090136.7682,26
1607090136.7703,33
1607090136.7723,40
1607090136.7743,45
1607090136.7763,50
1607090136.7782,62
1607090136.7802,79
1607090136.7822,91
1607090136.7843,105
1607090136.7862,122
1607090136.7882,137
1607090136.7902,146
1607090136.7922,153
1607090136.7942,161
1607090136.7962,161
1607090136.7969,141
1607090136.7983,110
1607090136.8002,69
1607090136.8022,33
1607090136.8042,4
1607090136.8062,-21
1607090136.8082,-38
1607090136.8104,-45
1607090136.8124,-52
1607090136.8142,-55
1607090136.8162,-50
1607090136.8182,-48
1607090136.8203,-45
1607090136.8223,-40
1607090136.8242,-40
1607090136.8263,-36
1607090136.8269,-31
1607090136.8282,-24
1607090136.8302,-16
1607090136.8324,-14
1607090136.8342,-14
1607090136.8363,-9
1607090136.8384,-2
1607090136.8402,2
1607090136.8422,2
1607090136.8442,7
1607090136.8462,9
1607090136.8482,12
1607090136.8502,12
1607090136.8524,14
1607090136.8543,14
1607090136.8549,14
1607090136.8562,14
1607090136.8582,16
1607090136.8602,14
1607090136.8622,9
1607090136.8642,9
1607090137.2700,9
1607090137.2709,12
1607090137.2733,12
1607090137.2760,14
1607090137.2779,19
1607090137.2799,21
1607090137.2819,19
1607090137.2839,16
1607090137.2846,21
1607090137.2858,21
1607090137.2879,16
1607090137.2899,9
1607090137.2919,14
1607090137.2939,16
1607090137.2959,12
1607090137.2979,12
1607090137.2998,12
1607090137.3018,7
1607090137.3038,7
1607090137.3058,9
1607090137.3078,9
1607090137.3100,12
1607090137.3119,16
1607090137.3138,16
1607090137.3145,16
1607090137.3159,16
1607090137.3178,19
1607090137.3198,21
1607090137.3218,21
1607090137.3238,19
1607090137.3259,19
1607090137.3278,19
1607090137.3298,21
1607090137.3318,24
1607090137.3338,24
1607090137.3359,24
1607090137.3378,26
1607090137.3398,24
1607090137.3418,21
1607090137.3438,24
1607090137.3445,28
1607090137.3458,28
1607090137.3478,24
1607090137.3498,24
1607090137.3518,26
1607090137.3539,24
1607090137.3558,24
1607090137.3578,26
1607090137.3598,26
1607090137.3618,21
1607090137.3638,19
1607090137.3659,19
1607090137.3680,19
1607090137.3698,26
1607090137.3718,43
1607090137.3738,57
1607090137.3745,57
1607090137.3758,50
1607090137.3778,38
1607090137.3798,28
1607090137.3818,24
1607090137.3838,21
1607090137.3859,21
1607090137.3878,21
1607090137.3898,21
1607090137.3919,19
1607090137.3938,19
1607090137.3958,9
1607090137.3979,-7
1607090137.3998,28
1607090137.4018,211
1607090137.4039,533
1607090137.4047,781
1607090137.8099,620
1607090137.8108,79
1607090137.8132,-204
1607090137.8159,-38
1607090137.8179,24
1607090137.8199,-84
1607090137.8220,-67
1607090137.8239,-24
1607090137.8260,-60
1607090137.8278,-67
1607090137.8298,-40
1607090137.8318,-43
1607090137.8339,-45
1607090137.8359,-28
1607090137.8378,-21
1607090137.8385,-21
1607090137.8398,-14
1607090137.8418,-4
1607090137.8438,0
1607090137.8458,4
1607090137.8478,9
1607090137.8498,14
1607090137.8518,21
1607090137.8538,28
1607090137.8558,33
1607090137.8578,43
1607090137.8598,55
1607090137.8618,64
1607090137.8638,76
1607090137.8658,93
1607090137.8678,110
1607090137.8685,122
1607090137.8698,137
1607090137.8718,151
1607090137.8738,161
1607090137.8759,161
1607090137.8778,158
1607090137.8798,146
1607090137.8818,120
1607090137.8838,84
1607090137.8858,48
1607090137.8878,14
1607090137.8898,-12
1607090137.8918,-31
1607090137.8938,-43
1607090137.8958,-45
1607090137.8978,-45
1607090137.8985,-45
1607090137.8998,-45
1607090137.9018,-40
1607090137.9039,-33
1607090137.9059,-33
1607090137.9078,-31
1607090137.9098,-28
1607090137.9118,-24
1607090137.9138,-21
1607090137.9158,-16
1607090137.9178,-12
1607090137.9198,-9
1607090137.9218,-7
1607090137.9238,-2
1607090137.9258,2
1607090137.9278,7
1607090137.9284,9
1607090137.9298,12
1607090137.9318,12
1607090137.9338,9
1607090137.9358,9
1607090137.9378,14
1607090137.9398,14
1607090137.9418,14
1607090137.9438,14
1607090137.9458,16
1607090138.3799,19
1607090138.3807,19
1607090138.3822,19
1607090138.3829,14
1607090138.3852,9
1607090138.3872,2
1607090138.3892,0
1607090138.3912,9
1607090138.3932,9
1607090138.3951,9
1607090138.3971,12
1607090138.3991,12
1607090138.4011,12
1607090138.4032,14
1607090138.4052,19
1607090138.4071,21
1607090138.4091,21
1607090138.4111,19
1607090138.4131,19
1607090138.4138,21
1607090138.4151,21
1607090138.4171,19
1607090138.4191,21
1607090138.4211,24
1607090138.4231,26
1607090138.4251,28
1607090138.4271,28
1607090138.4291,28
1607090138.4312,31
1607090138.4331,28
1607090138.4351,24
1607090138.4371,28
1607090138.4391,31
1607090138.4411,31
1607090138.4431,28
1607090138.4438,28
1607090138.4451,31
1607090138.4471,33
1607090138.4491,36
1607090138.4511,36
1607090138.4531,31
1607090138.4551,33
1607090138.4571,38
1607090138.4591,33
1607090138.4611,19
1607090138.4631,14
1607090138.4651,19
1607090138.4671,24
1607090138.4691,36
1607090138.4711,52
1607090138.4731,60
1607090138.4738,57
1607090138.4751,48
1607090138.4771,36
1607090138.4791,28
1607090138.4811,28
1607090138.4831,28
1607090138.4851,28
1607090138.4871,26
1607090138.4891,26
1607090138.4911,28
1607090138.4931,21
1607090138.4951,7
1607090138.4971,28
1607090138.4991,185
1607090138.5011,497
1607090138.5031,786
1607090138.5037,678
1607090138.5052,101
1607090138.5071,-276
1607090138.5091,-91
1607090138.5111,48
1607090138.5131,-74
1607090138.9195,-81
1607090138.9205,-14
1607090138.9228,-36
1607090138.9246,-52
1607090138.9265,-31
1607090138.9285,-28
1607090138.9307,-36
1607090138.9325,-31
1607090138.9345,-26
1607090138.9365,-21
1607090138.9371,-14
1607090138.9384,-7
1607090138.9404,-2
1607090138.9426,0
1607090138.9444,2
1607090138.9464,7
1607090138.9484,16
1607090138.9504,28
1607090138.9524,38
1607090138.9544,45
1607090138.9564,55
1607090138.9584,67
1607090138.9604,81
1607090138.9625,98
1607090138.9644,117
1607090138.9651,132
1607090138.9664,146
1607090138.9684,158
1607090138.9704,168
1607090138.9724,175
1607090138.9744,173
1607090138.9764,158
1607090138.9784,127
1607090138.9804,81
1607090138.9824,38
1607090138.9844,2
1607090138.9864,-26
1607090138.9884,-45
1607090138.9904,-57
1607090138.9924,-60
1607090138.9944,-64
1607090138.9951,-64
1607090138.9964,-60
1607090138.9984,-55
1607090139.0004,-55
1607090139.0024,-52
1607090139.0045,-48
1607090139.0064,-40
1607090139.0084,-36
1607090139.0104,-31
1607090139.0125,-26
1607090139.0144,-21
1607090139.0164,-21
1607090139.0184,-19
1607090139.0204,-14
1607090139.0224,-9
1607090139.0244,-7
1607090139.0253,-2
1607090139.0265,-2
1607090139.0284,-7
1607090139.0304,-9
1607090139.0324,-12
1607090139.0344,-7
1607090139.0364,-2
1607090139.0384,-2
1607090139.0404,-4
1607090139.0424,-4
1607090139.0444,-7
1607090139.0464,-7
1607090139.0484,-7
1607090139.0504,-2
1607090139.0524,2
1607090139.0544,4
1607090139.5196,4
1607090139.5206,7
1607090139.5230,7
1607090139.5257,0
1607090139.5277,-7
1607090139.5297,-4
1607090139.5317,4
1607090139.5336,7
1607090139.5356,4
1607090139.5376,7
1607090139.5396,7
1607090139.5416,4
1607090139.5436,7
1607090139.5456,14
1607090139.5462,14
1607090139.5475,12
1607090139.5496,12
1607090139.5515,14
1607090139.5535,14
1607090139.5555,16
1607090139.5575,16
1607090139.5595,16
1607090139.5615,19
1607090139.5635,19
1607090139.5656,19
1607090139.5675,19
1607090139.5695,16
1607090139.5715,16
1607090139.5735,19
1607090139.5756,21
1607090139.5762,21
1607090139.5775,19
1607090139.5795,16
1607090139.5815,16
1607090139.5835,16
1607090139.5858,16
1607090139.5876,31
1607090139.5895,50
1607090139.5915,55
1607090139.5935,45
1607090139.5956,38
1607090139.5975,31
1607090139.5996,21
1607090139.6015,19
1607090139.6036,21
1607090139.6056,21
1607090139.6062,19
1607090139.6075,19
1607090139.6095,21
1607090139.6115,19
1607090139.6135,0
1607090139.6156,4
1607090139.6175,137
1607090139.6195,432
1607090139.6215,747
1607090139.6235,755
1607090139.6256,259
1607090139.6275,-214
1607090139.6295,-137
1607090139.6315,43
1607090139.6335,-52
1607090139.6356,-98
1607090139.6362,-31
1607090139.6375,-40
1607090139.6395,-64
1607090139.6415,-38
1607090139.6435,-31
1607090139.6456,-36
1607090139.6475,-28
1607090139.6495,-24
1607090139.6515,-24
1607090139.6536,-14
1607090139.6556,-4
1607090140.0892,-2
1607090140.0899,2
1607090140.0915,7
1607090140.0939,12
1607090140.0960,16
1607090140.0979,21
1607090140.0999,31
1607090140.1019,36
1607090140.1039,38
1607090140.1060,40
1607090140.1079,57
1607090140.1099,76
1607090140.1119,91
1607090140.1140,105
1607090140.1159,122
1607090140.1179,137
1607090140.1199,149
1607090140.1219,153
1607090140.1226,151
1607090140.1239,139
1607090140.1259,113
1607090140.1279,74
1607090140.1299,33
1607090140.1319,0
1607090140.1339,-28
1607090140.1359,-50
1607090140.1379,-64
1607090140.1399,-72
1607090140.1418,-69
1607090140.1439,-69
1607090140.1459,-64
1607090140.1479,-64
1607090140.1499,-64
1607090140.1518,-62
1607090140.1525,-55
1607090140.1539,-48
1607090140.1559,-40
1607090140.1579,-33
1607090140.1599,-31
1607090140.1619,-28
1607090140.1639,-24
1607090140.1659,-16
1607090140.1679,-9
1607090140.1699,-9
1607090140.1719,-9
1607090140.1739,-7
1607090140.1759,-7
1607090140.1779,-9
1607090140.1799,-9
1607090140.1819,-9
1607090140.1825,-9
1607090140.1839,-12
1607090140.1860,-9
1607090140.1879,-7
1607090140.1898,-4
1607090140.1918,-4
1607090140.1938,-4
1607090140.1959,-2
1607090140.1979,0
1607090140.1999,0
1607090140.2019,2
1607090140.2039,4
1607090140.2059,4
1607090140.2078,2
1607090140.2100,4
1607090140.2119,9
1607090140.2126,9
1607090140.2138,9
1607090140.2159,9
1607090140.2179,12
1607090140.2199,12
1607090140.2219,12
1607090140.2239,14
1607090140.6300,16
1607090140.6309,14
1607090140.6333,14
1607090140.6360,16
1607090140.6379,19
1607090140.6400,16
1607090140.6421,14
1607090140.6439,14
1607090140.6460,14
1607090140.6465,9
1607090140.6479,4
1607090140.6499,4
1607090140.6519,9
1607090140.6539,9
1607090140.6559,7
1607090140.6579,9
1607090140.6598,12
1607090140.6618,14
1607090140.6638,14
1607090140.6658,14
1607090140.6678,19
1607090140.6698,19
1607090140.6720,19
1607090140.6738,24
1607090140.6759,26
1607090140.6765,24
1607090140.6778,24
1607090140.6798,26
1607090140.6818,26
1607090140.6838,26
1607090140.6859,26
1607090140.6878,24
1607090140.6898,19
1607090140.6918,16
1607090140.6938,24
1607090140.6959,38
1607090140.6978,57
1607090140.6998,60
1607090140.7018,50
1607090140.7039,33
1607090140.7059,16
1607090140.7065,9
1607090140.7080,9
1607090140.7099,9
1607090140.7120,7
1607090140.7138,7
1607090140.7159,9
1607090140.7179,14
1607090140.7199,14
1607090140.7220,-2
1607090140.7238,-4
1607090140.7259,98
1607090140.7279,367
1607090140.7299,694
1607090140.7320,788
1607090140.7339,391
1607090140.7347,-129
1607090140.7370,-158
1607090140.7389,36
1607090140.7408,-26
1607090140.7429,-101
1607090140.7449,-36
1607090140.7469,-31
1607090140.7489,-62
1607090140.7508,-43
1607090140.7530,-31
1607090140.7549,-38
1607090140.7568,-31
1607090140.7588,-21
1607090140.7609,-21
1607090140.7628,-16
1607090140.7649,-12
1607090140.7656,-9
1607090141.2000,-7
1607090141.2012,0
1607090141.2036,7
1607090141.2053,12
1607090141.2073,19
1607090141.2093,26
1607090141.2113,33
1607090141.2133,33
1607090141.2153,38
1607090141.2173,52
1607090141.2193,72
1607090141.2213,84
1607090141.2219,98
1607090141.2233,115
1607090141.2253,129
1607090141.2273,137
1607090141.2292,144
1607090141.2312,149
1607090141.2332,139
1607090141.2352,120
1607090141.2374,91
1607090141.2392,55
1607090141.2412,19
1607090141.2432,-12
1607090141.2452,-33
1607090141.2471,-45
1607090141.2492,-55
1607090141.2512,-60
1607090141.2519,-60
1607090141.2533,-57
1607090141.2553,-57
1607090141.2572,-62
1607090141.2591,-60
1607090141.2612,-55
1607090141.2619,-52
1607090141.2634,-48
1607090141.2653,-40
1607090141.2672,-33
1607090141.2693,-31
1607090141.2713,-26
1607090141.2732,-21
1607090141.2752,-16
1607090141.2772,-14
1607090141.2792,-14
1607090141.2798,-12
1607090141.2811,-4
1607090141.2832,-4
1607090141.2852,-4
1607090141.2871,-2
1607090141.2892,-2
1607090141.2912,-2
1607090141.2932,0
1607090141.2952,0
1607090141.2972,2
1607090141.2992,0
1607090141.3011,0
1607090141.3031,4
1607090141.3052,4
1607090141.3071,4
1607090141.3091,7
1607090141.3098,9
1607090141.3112,12
1607090141.3131,14
1607090141.3134,16
1607090141.3139,14
1607090141.3162,12
1607090141.3181,9
1607090141.3202,7
1607090141.3221,7
1607090141.3242,9
1607090141.3262,9
1607090141.3283,12
1607090141.3302,9
1607090141.7398,9
1607090141.7407,12
1607090141.7431,16
1607090141.7459,19
1607090141.7478,19
1607090141.7498,19
1607090141.7518,21
1607090141.7538,19
1607090141.7558,9
1607090141.7578,7
1607090141.7598,9
1607090141.7618,12
1607090141.7638,9
1607090141.7658,9
1607090141.7677,9
1607090141.7698,9
1607090141.7703,9
1607090141.7717,14
1607090141.7737,21
1607090141.7757,21
1607090141.7777,24
1607090141.7797,26
1607090141.7817,24
1607090141.7837,19
1607090141.7857,19
1607090141.7877,19
1607090141.7897,19
1607090141.7917,16
1607090141.7937,16
1607090141.7957,19
1607090141.7978,19
1607090141.7998,19
1607090141.8080,19
1607090141.8097,21
1607090141.8117,16
1607090141.8137,12
1607090141.8157,14
1607090141.8177,28
1607090141.8197,48
1607090141.8217,57
1607090141.8237,52
1607090141.8257,40
1607090141.8277,26
1607090141.8297,16
1607090141.8317,14
1607090141.8337,19
1607090141.8357,19
1607090141.8363,16
1607090141.8376,19
1607090141.8398,21
1607090141.8417,21
1607090141.8437,7
1607090141.8457,7
1607090141.8478,113
1607090141.8497,382
1607090141.8517,702
1607090141.8537,771
1607090141.8548,346
1607090141.8562,-161
1607090141.8577,-153
1607090141.8596,36
1607090141.8603,-33
1607090141.8616,-96
1607090141.8637,-31
1607090141.8657,-33
1607090141.8677,-60
1607090141.8697,-38
1607090141.8717,-24
1607090141.8737,-28
1607090141.8757,-19
1607090141.8776,-9
1607090141.8797,-12
1607090141.8816,-9
1607090142.3099,0
1607090142.3108,7
1607090142.3125,9
1607090142.3149,14
1607090142.3169,16
1607090142.3189,16
1607090142.3208,14
1607090142.3229,21
1607090142.3250,33
1607090142.3268,38
1607090142.3288,48
1607090142.3308,64
1607090142.3329,76
1607090142.3349,88
1607090142.3368,103
1607090142.3388,120
1607090142.3408,132
1607090142.3428,137
1607090142.3435,139
1607090142.3449,141
1607090142.3468,141
1607090142.3488,120
1607090142.3508,86
1607090142.3528,50
1607090142.3549,14
1607090142.3568,-19
1607090142.3588,-43
1607090142.3609,-57
1607090142.3628,-64
1607090142.3648,-69
1607090142.3668,-67
1607090142.3688,-67
1607090142.3708,-67
1607090142.3728,-62
1607090142.3734,-55
1607090142.3748,-50
1607090142.3767,-50
1607090142.3788,-43
1607090142.3807,-33
1607090142.3829,-33
1607090142.3848,-33
1607090142.3868,-28
1607090142.3887,-19
1607090142.3907,-14
1607090142.3927,-16
1607090142.3948,-14
1607090142.3967,-12
1607090142.3987,-9
1607090142.4007,-7
1607090142.4027,-2
1607090142.4034,-2
1607090142.4048,-2
1607090142.4068,-4
1607090142.4087,-4
1607090142.4107,0
1607090142.4127,0
1607090142.4148,-2
1607090142.4167,0
1607090142.4188,2
1607090142.4208,4
1607090142.4227,4
1607090142.4248,7
1607090142.4267,9
1607090142.4287,9
1607090142.4308,9
1607090142.4327,12
1607090142.4334,16
1607090142.4348,16
1607090142.4367,16
1607090142.4387,14
1607090142.4407,12
1607090142.4428,14
1607090142.4448,16
1607090142.9099,21
1607090142.9109,24
1607090142.9133,21
1607090142.9160,19
1607090142.9180,19
1607090142.9202,19
1607090142.9220,14
1607090142.9240,9
1607090142.9259,12
1607090142.9266,12
1607090142.9279,4
1607090142.9299,0
1607090142.9320,4
1607090142.9339,7
1607090142.9360,4
1607090142.9379,7
1607090142.9399,12
1607090142.9419,12
1607090142.9439,12
1607090142.9459,12
1607090142.9479,14
1607090142.9499,14
1607090142.9519,19
1607090142.9539,24
1607090142.9559,26
1607090142.9565,24
1607090142.9579,19
1607090142.9599,19
1607090142.9619,24
1607090142.9639,26
1607090142.9659,24
1607090142.9678,21
1607090142.9699,19
1607090142.9718,19
1607090142.9738,26
1607090142.9759,43
1607090142.9778,50
1607090142.9798,43
1607090142.9819,38
1607090142.9838,31
1607090142.9859,21
1607090142.9864,14
1607090142.9878,16
1607090142.9898,16
1607090142.9918,14
1607090142.9939,14
1607090142.9960,14
1607090142.9978,14
1607090142.9998,7
1607090143.0018,0
1607090143.0038,81
1607090143.0058,341
1607090143.0078,680
1607090143.0098,795
1607090143.0118,387
1607090143.0138,-175
1607090143.0160,-202
1607090143.0165,31
1607090143.0179,-16
1607090143.0198,-101
1607090143.0218,-31
1607090143.0238,-21
1607090143.0258,-60
1607090143.0278,-38
1607090143.0298,-21
1607090143.0318,-31
1607090143.0338,-26
1607090143.0358,-14
1607090143.0378,-19
1607090143.0398,-26
1607090143.0418,-19
1607090143.0438,-9
1607090143.0459,-4
1607090143.4499,0
1607090143.4508,2
1607090143.4532,4
1607090143.4550,4
1607090143.4569,12
1607090143.4589,26
1607090143.4609,38
1607090143.4629,50
1607090143.4649,60
1607090143.4668,74
1607090143.4688,93
1607090143.4708,108
1607090143.4728,115
1607090143.4734,127
1607090143.4749,141
1607090143.4768,149
1607090143.4788,151
1607090143.4808,146
1607090143.4828,129
1607090143.4849,96
1607090143.4868,52
1607090143.4888,14
1607090143.4908,-16
1607090143.4928,-43
1607090143.4948,-62
1607090143.4968,-69
1607090143.4988,-74
1607090143.5008,-76
1607090143.5028,-79
1607090143.5034,-79
1607090143.5048,-74
1607090143.5068,-67
1607090143.5087,-62
1607090143.5108,-57
1607090143.5129,-50
1607090143.5149,-48
1607090143.5168,-43
1607090143.5188,-36
1607090143.5208,-36
1607090143.5228,-31
1607090143.5249,-24
1607090143.5267,-19
1607090143.5288,-16
1607090143.5308,-16
1607090143.5328,-12
1607090143.5334,-9
1607090143.5348,-9
1607090143.5367,-9
1607090143.5388,-7
1607090143.5408,-7
1607090143.5428,-9
1607090143.5448,-9
1607090143.5468,-7
1607090143.5488,-4
1607090143.5508,-4
1607090143.5528,-2
1607090143.5548,-4
1607090143.5568,-2
1607090143.5588,0
1607090143.5608,0
1607090143.5627,0
1607090143.5634,0
1607090143.5648,0
1607090143.5667,2
1607090143.5688,4
1607090143.5708,4
1607090143.5728,4
1607090143.5748,4
1607090143.5768,2
1607090143.5787,-4
1607090143.5808,-2
1607090143.5828,2
1607090143.5848,4
1607090143.9894,4
1607090143.9903,4
1607090143.9926,7
1607090143.9944,12
1607090143.9950,14
1607090143.9963,14
1607090143.9983,12
1607090144.0003,12
1607090144.0024,9
1607090144.0043,2
1607090144.0063,-2
1607090144.0083,0
1607090144.0105,0
1607090144.0123,0
1607090144.0144,0
1607090144.0163,2
1607090144.0183,2
1607090144.0203,7
1607090144.0223,4
1607090144.0243,0
1607090144.0248,0
1607090144.0262,4
1607090144.0283,7
1607090144.0302,9
1607090144.0322,7
1607090144.0342,0
1607090144.0363,0
1607090144.0382,2
1607090144.0403,0
1607090144.0422,0
1607090144.0442,16
1607090144.0462,38
1607090144.0483,45
1607090144.0502,43
1607090144.0522,40
1607090144.0542,28
1607090144.0549,19
1607090144.0562,14
1607090144.0582,14
1607090144.0602,16
1607090144.0622,14
1607090144.0642,14
1607090144.0663,19
1607090144.0682,16
1607090144.0702,0
1607090144.0722,-7
1607090144.0742,91
1607090144.0763,358
1607090144.0782,687
1607090144.0802,781
1607090144.0822,382
1607090144.0842,-149
1607090144.0849,-182
1607090144.0863,16
1607090144.0882,-40
1607090144.0902,-113
1607090144.0922,-45
1607090144.0942,-38
1607090144.0962,-67
1607090144.0982,-48
1607090144.1002,-38
1607090144.1022,-48
1607090144.1042,-45
1607090144.1064,-36
1607090144.1083,-31
1607090144.1102,-26
1607090144.1122,-21
1607090144.1142,-14
1607090144.1149,-9
1607090144.1162,0
1607090144.1182,9
1607090144.1202,14
1607090144.1222,21
1607090144.5597,26
1607090144.5609,36
1607090144.5633,43
1607090144.5649,55
1607090144.5670,69
1607090144.5689,81
1607090144.5710,86
1607090144.5730,98
1607090144.5750,117
1607090144.5756,129
1607090144.5770,134
1607090144.5790,141
1607090144.5810,146
1607090144.5830,137
1607090144.5850,117
1607090144.5870,88
1607090144.5890,50
1607090144.5910,12
1607090144.5930,-16
1607090144.5950,-40
1607090144.5969,-55
1607090144.5989,-62
1607090144.6009,-64
1607090144.6029,-67
1607090144.6050,-64
1607090144.6055,-57
1607090144.6069,-55
1607090144.6089,-50
1607090144.6109,-43
1607090144.6130,-38
1607090144.6149,-38
1607090144.6170,-33
1607090144.6190,-26
1607090144.6210,-26
1607090144.6230,-24
1607090144.6249,-16
1607090144.6270,-14
1607090144.6290,-14
1607090144.6309,-12
1607090144.6329,-7
1607090144.6349,-4
1607090144.6357,-7
1607090144.6369,-7
1607090144.6388,-7
1607090144.6408,-4
1607090144.6428,-7
1607090144.6449,-9
1607090144.6469,-7
1607090144.6488,-2
1607090144.6508,-4
1607090144.6528,-4
1607090144.6549,-2
1607090144.6569,0
1607090144.6589,-2
1607090144.6609,-4
1607090144.6628,-7
1607090144.6649,-4
1607090144.6655,-2
1607090144.6668,0
1607090144.6689,2
1607090144.6709,0
1607090144.6728,0
1607090144.6749,7
1607090144.6768,9
1607090144.6788,7
1607090144.6809,7
1607090144.6828,9
1607090144.6849,12
1607090144.6869,14
1607090144.6888,16
1607090144.6908,19
1607090144.6929,19
1607090144.6949,16
1607090145.0991,19
1607090145.0998,19
1607090145.1022,19
1607090145.1049,19
1607090145.1068,24
1607090145.1088,24
1607090145.1109,24
1607090145.1129,21
1607090145.1149,16
1607090145.1168,19
1607090145.1188,21
1607090145.1208,19
1607090145.1228,16
1607090145.1235,21
1607090145.1249,26
1607090145.1268,24
1607090145.1288,21
1607090145.1308,21
1607090145.1328,24
1607090145.1350,21
1607090145.1369,24
1607090145.1388,26
1607090145.1408,26
1607090145.1428,19
1607090145.1449,16
1607090145.1468,16
1607090145.1488,12
1607090145.1508,12
1607090145.1528,16
1607090145.1534,26
1607090145.1548,40
1607090145.1568,48
1607090145.1589,43
1607090145.1609,36
1607090145.1628,19
1607090145.1648,7
1607090145.1668,9
1607090145.1688,12
1607090145.1708,12
1607090145.1728,9
1607090145.1748,14
1607090145.1768,19
1607090145.1788,16
1607090145.1808,0
1607090145.1828,2
1607090145.1834,103
1607090145.1848,367
1607090145.1868,687
1607090145.1888,767
1607090145.1908,360
1607090145.1928,-149
1607090145.1948,-165
1607090145.1968,16
1607090145.1988,-48
1607090145.2008,-115
1607090145.2028,-52
1607090145.2048,-45
1607090145.2068,-74
1607090145.2088,-55
1607090145.2108,-43
1607090145.2128,-48
1607090145.2134,-40
1607090145.2148,-28
1607090145.2168,-28
1607090145.2188,-26
1607090145.2208,-24
1607090145.2228,-21
1607090145.2248,-12
1607090145.2268,-4
1607090145.2288,0
1607090145.2309,4
1607090145.2328,12
1607090145.2349,21
1607090145.6696,31
1607090145.6704,43
1607090145.6728,55
1607090145.6745,67
1607090145.6750,74
1607090145.6764,79
1607090145.6784,93
1607090145.6804,110
1607090145.6824,125
1607090145.6844,134
1607090145.6866,141
1607090145.6884,144
1607090145.6904,139
1607090145.6924,120
1607090145.6944,88
1607090145.6965,52
1607090145.6984,16
1607090145.7004,-12
1607090145.7024,-33
1607090145.7030,-48
1607090145.7044,-60
1607090145.7064,-67
1607090145.7084,-69
1607090145.7104,-69
1607090145.7124,-67
1607090145.7144,-60
1607090145.7164,-50
1607090145.7184,-48
1607090145.7204,-50
1607090145.7224,-43
1607090145.7244,-33
1607090145.7264,-28
1607090145.7284,-24
1607090145.7304,-21
1607090145.7324,-21
1607090145.7330,-19
1607090145.7344,-12
1607090145.7364,-7
1607090145.7384,-2
1607090145.7404,-2
1607090145.7424,-4
1607090145.7444,-7
1607090145.7464,-4
1607090145.7484,-2
1607090145.7504,-2
1607090145.7524,-2
1607090145.7544,-2
1607090145.7564,0
1607090145.7585,2
1607090145.7605,2
1607090145.7624,2
1607090145.7630,7
1607090145.7644,9
1607090145.7664,9
1607090145.7684,12
1607090145.7704,14
1607090145.7724,14
1607090145.7744,16
1607090145.7764,21
1607090145.7784,21
1607090145.7804,19
1607090145.7824,24
1607090145.7844,26
1607090145.7864,21
1607090145.7884,16
1607090145.7904,21
1607090145.7924,28
1607090145.7930,33
1607090145.7944,36
1607090145.7964,36
1607090145.7984,33
1607090145.8004,28
1607090145.8024,28
1607090146.2699,33
1607090146.2708,36
1607090146.2732,36
1607090146.2759,33
1607090146.2778,36
1607090146.2798,33
1607090146.2819,24
1607090146.2838,21
1607090146.2845,28
1607090146.2858,31
1607090146.2878,26
1607090146.2898,28
1607090146.2918,31
1607090146.2938,28
1607090146.2958,28
1607090146.2978,26
1607090146.2998,24
1607090146.3018,24
1607090146.3038,21
1607090146.3058,24
1607090146.3078,28
1607090146.3099,26
1607090146.3118,21
1607090146.3138,24
1607090146.3144,26
1607090146.3157,19
1607090146.3179,21
1607090146.3198,38
1607090146.3218,55
1607090146.3237,52
1607090146.3258,45
1607090146.3278,40
1607090146.3298,28
1607090146.3317,19
1607090146.3338,19
1607090146.3357,24
1607090146.3377,24
1607090146.3397,21
1607090146.3417,26
1607090146.3437,24
1607090146.3443,9
1607090146.3457,0
1607090146.3477,96
1607090146.3497,367
1607090146.3517,704
1607090146.3538,786
1607090146.3558,346
1607090146.3577,-202
1607090146.3597,-199
1607090146.3617,24
1607090146.3638,-40
1607090146.3658,-115
1607090146.3677,-43
1607090146.3697,-36
1607090146.3717,-67
1607090146.3737,-48
1607090146.3743,-31
1607090146.3757,-38
1607090146.3777,-31
1607090146.3797,-19
1607090146.3817,-19
1607090146.3837,-16
1607090146.3858,-9
1607090146.3877,-2
1607090146.3898,2
1607090146.3917,9
1607090146.3937,14
1607090146.3957,19
1607090146.3977,24
1607090146.3997,33
1607090146.4017,48
1607090146.4037,57
1607090146.4043,67
1607090146.8097,79
1607090146.8103,98
1607090146.8127,117
1607090146.8153,132
1607090146.8176,144
1607090146.8196,158
1607090146.8214,170
1607090146.8220,175
1607090146.8233,175
1607090146.8254,165
1607090146.8275,144
1607090146.8294,108
1607090146.8314,62
1607090146.8333,21
1607090146.8353,-9
1607090146.8373,-36
1607090146.8393,-52
1607090146.8413,-60
1607090146.8433,-62
1607090146.8453,-67
1607090146.8473,-67
1607090146.8493,-62
1607090146.8513,-60
1607090146.8519,-57
1607090146.8533,-52
1607090146.8553,-48
1607090146.8573,-50
1607090146.8593,-45
1607090146.8613,-36
1607090146.8633,-28
1607090146.8653,-26
1607090146.8673,-26
1607090146.8693,-21
1607090146.8713,-19
1607090146.8733,-16
1607090146.8753,-12
1607090146.8773,-9
1607090146.8793,-12
1607090146.8813,-12
1607090146.8819,-9
1607090146.8833,-7
1607090146.8853,-4
1607090146.8873,-7
1607090146.8893,-7
1607090146.8913,-4
1607090146.8933,-2
1607090146.8953,-4
1607090146.8973,-2
1607090146.8993,2
1607090146.9013,2
1607090146.9033,2
1607090146.9053,4
1607090146.9073,7
1607090146.9093,7
1607090146.9113,9
1607090146.9120,9
1607090146.9133,9
1607090146.9153,12
1607090146.9173,12
1607090146.9193,12
1607090146.9213,12
1607090146.9233,14
1607090146.9253,16
1607090146.9273,16
1607090146.9293,16
1607090146.9313,14
1607090146.9333,16
1607090146.9353,21
1607090146.9373,24
1607090146.9393,21
1607090146.9413,21
1607090146.9419,16
1607090146.9433,16
1607090147.3799,19
1607090147.3807,21
1607090147.3831,19
1607090147.3859,21
1607090147.3879,24
1607090147.3898,26
1607090147.3919,24
1607090147.3939,19
1607090147.3958,12
1607090147.3978,9
1607090147.3998,14
1607090147.4019,14
1607090147.4024,9
1607090147.4038,9
1607090147.4058,9
1607090147.4078,9
1607090147.4098,19
1607090147.4118,36
1607090147.4137,45
1607090147.4157,36
1607090147.4177,26
1607090147.4197,16
1607090147.4217,9
1607090147.4237,4
1607090147.4258,4
1607090147.4277,7
1607090147.4297,9
1607090147.4317,9
1607090147.4323,7
1607090147.4337,2
1607090147.4357,-16
1607090147.4377,-2
1607090147.4397,153
1607090147.4419,478
1607090147.4437,786
1607090147.4458,719
1607090147.4477,168
1607090147.4497,-245
1607090147.4517,-108
1607090147.4537,36
1607090147.4557,-76
1607090147.4577,-96
1607090147.4597,-26
1607090147.4617,-45
1607090147.4623,-67
1607090147.4637,-40
1607090147.4657,-36
1607090147.4677,-43
1607090147.4696,-33
1607090147.4717,-24
1607090147.4737,-26
1607090147.4757,-19
1607090147.4777,-12
1607090147.4797,-9
1607090147.4817,-4
1607090147.4837,0
1607090147.4857,4
1607090147.4877,12
1607090147.4897,14
1607090147.4917,21
1607090147.4923,31
1607090147.4937,38
1607090147.4957,45
1607090147.4977,57
1607090147.4997,72
1607090147.5017,86
1607090147.5037,101
1607090147.5057,115
1607090147.5077,125
1607090147.5097,137
1607090147.5117,141
1607090147.5137,139
1607090147.5157,125
1607090147.9195,101
1607090147.9203,64
1607090147.9228,26
1607090147.9239,-4
1607090147.9255,-36
1607090147.9274,-57
1607090147.9294,-72
1607090147.9315,-76
1607090147.9334,-79
1607090147.9354,-86
1607090147.9373,-91
1607090147.9395,-93
1607090147.9414,-96
1607090147.9434,-91
1607090147.9454,-81
1607090147.9473,-74
1607090147.9493,-69
1607090147.9513,-60
1607090147.9533,-50
1607090147.9540,-43
1607090147.9554,-43
1607090147.9573,-43
1607090147.9593,-33
1607090147.9613,-26
1607090147.9633,-26
1607090147.9654,-28
1607090147.9673,-24
1607090147.9693,-19
1607090147.9713,-14
1607090147.9733,-16
1607090147.9754,-16
1607090147.9773,-12
1607090147.9793,-9
1607090147.9813,-9
1607090147.9833,-7
1607090147.9840,-4
1607090147.9853,-4
1607090147.9873,-2
1607090147.9893,0
1607090147.9913,-4
1607090147.9919,-4
1607090147.9933,0
1607090147.9953,0
1607090147.9973,0
1607090147.9993,2
1607090148.0013,2
1607090148.0033,2
1607090148.0053,4
1607090148.0073,7
1607090148.0093,9
1607090148.0099,14
1607090148.0113,14
1607090148.0133,12
1607090148.0153,12
1607090148.0173,14
1607090148.0193,14
1607090148.0213,12
1607090148.0233,12
1607090148.0253,12
1607090148.0273,9
1607090148.0293,9
1607090148.0313,9
1607090148.0334,9
1607090148.0354,9
1607090148.0373,9
1607090148.0393,12
1607090148.0399,14
1607090148.0413,12
1607090148.0433,12
1607090148.0453,12
1607090148.0473,14
1607090148.0493,14
1607090148.0513,12
1607090148.4594,14
1607090148.4602,14
1607090148.4627,16
1607090148.4653,14
1607090148.4673,9
1607090148.4693,7
1607090148.4700,2
1607090148.4714,-2
1607090148.4733,0
1607090148.4753,4
1607090148.4772,2
1607090148.4792,-7
1607090148.4812,-9
1607090148.4833,-2
1607090148.4853,7
1607090148.4873,19
1607090148.4892,38
1607090148.4912,48
1607090148.4932,43
1607090148.4953,33
1607090148.4972,24
1607090148.4992,19
1607090148.4999,14
1607090148.5012,12
1607090148.5032,14
1607090148.5053,16
1607090148.5072,19
1607090148.5092,19
1607090148.5112,12
1607090148.5132,-4
1607090148.5153,2
1607090148.5172,127
1607090148.5192,420
1607090148.5212,738
1607090148.5232,757
1607090148.5253,295
1607090148.5272,-170
1607090148.5292,-122
1607090148.5298,38
1607090148.5313,-52
1607090148.5334,-98
1607090148.5353,-38
1607090148.5372,-48
1607090148.5392,-72
1607090148.5412,-52
1607090148.5433,-45
1607090148.5452,-50
1607090148.5472,-40
1607090148.5492,-31
1607090148.5513,-31
1607090148.5532,-28
1607090148.5553,-21
1607090148.5572,-14
1607090148.5592,-12
1607090148.5598,-4
1607090148.5612,2
1607090148.5632,7
1607090148.5652,12
1607090148.5672,21
1607090148.5692,28
1607090148.5712,38
1607090148.5732,52
1607090148.5752,67
1607090148.5772,84
1607090148.5792,98
1607090148.5812,110
1607090148.5832,125
1607090148.5852,139
1607090148.5872,151
1607090148.5892,153
1607090148.5898,151
1607090148.5912,141
1607090148.5932,127
1607090149.0299,96
1607090149.0307,57
1607090149.0322,19
1607090149.0341,-16
1607090149.0361,-45
1607090149.0381,-60
1607090149.0401,-64
1607090149.0421,-67
1607090149.0441,-69
1607090149.0461,-67
1607090149.0480,-64
1607090149.0487,-62
1607090149.0501,-57
1607090149.0521,-50
1607090149.0542,-45
1607090149.0560,-43
1607090149.0580,-38
1607090149.0600,-33
1607090149.0622,-28
1607090149.0641,-24
1607090149.0660,-16
1607090149.0680,-14
1607090149.0700,-14
1607090149.0720,-9
1607090149.0740,-7
1607090149.0761,-4
1607090149.0766,-2
1607090149.0780,-4
1607090149.0800,-4
1607090149.0820,-4
1607090149.0840,-4
1607090149.0861,-4
1607090149.0880,-7
1607090149.0900,-7
1607090149.0920,-9
1607090149.0940,-12
1607090149.0960,-12
1607090149.0980,-7
1607090149.1000,-7
1607090149.1020,-9
1607090149.1040,-7
1607090149.1060,-2
1607090149.1066,0
1607090149.1080,2
1607090149.1100,4
1607090149.1120,4
1607090149.1140,4
1607090149.1160,4
1607090149.1180,7
1607090149.1200,9
1607090149.1220,12
1607090149.1240,7
1607090149.1260,9
1607090149.1280,14
1607090149.1300,14
1607090149.1320,9
1607090149.1340,12
1607090149.1360,14
1607090149.1366,9
1607090149.1380,9
1607090149.1400,14
1607090149.1420,16
1607090149.1441,14
1607090149.1460,12
1607090149.1480,12
1607090149.1500,19
1607090149.1520,19
1607090149.1540,12
1607090149.1560,14
1607090149.1581,16
1607090149.1601,12
1607090149.1620,14
1607090149.1641,16
1607090149.6596,14
1607090149.6607,12
1607090149.6631,12
1607090149.6648,14
1607090149.6668,12
1607090149.6688,7
1607090149.6708,4
1607090149.6728,14
1607090149.6749,16
1607090149.6768,16
1607090149.6788,16
1607090149.6808,19
1607090149.6828,16
1607090149.6849,16
1607090149.6868,19
1607090149.6888,26
1607090149.6908,45
1607090149.6915,57
1607090149.6928,52
1607090149.6949,43
1607090149.6968,33
1607090149.6988,24
1607090149.7008,21
1607090149.7030,24
1607090149.7048,26
1607090149.7068,24
1607090149.7088,21
1607090149.7108,21
1607090149.7127,19
1607090149.7148,2
1607090149.7168,7
1607090149.7188,122
1607090149.7208,396
1607090149.7213,714
1607090149.7227,767
1607090149.7248,336
1607090149.7267,-149
1607090149.7287,-127
1607090149.7307,50
1607090149.7327,-31
1607090149.7348,-93
1607090149.7368,-28
1607090149.7387,-28
1607090149.7407,-57
1607090149.7427,-40
1607090149.7448,-28
1607090149.7467,-33
1607090149.7489,-24
1607090149.7508,-16
1607090149.7513,-14
1607090149.7528,-7
1607090149.7548,0
1607090149.7567,2
1607090149.7587,7
1607090149.7607,12
1607090149.7627,14
1607090149.7648,14
1607090149.7667,19
1607090149.7687,24
1607090149.7707,31
1607090149.7727,40
1607090149.7748,50
1607090149.7767,62
1607090149.7787,74
1607090149.7807,88
1607090149.7813,105
1607090149.7827,120
1607090149.7847,132
1607090149.7867,144
1607090149.7887,151
1607090149.7907,151
1607090149.7927,144
1607090149.7948,127
1607090150.1997,101
1607090150.2004,64
1607090150.2028,26
1607090150.2044,-4
1607090150.2051,-26
1607090150.2064,-40
1607090150.2084,-48
1607090150.2104,-55
1607090150.2124,-57
1607090150.2144,-52
1607090150.2164,-52
1607090150.2184,-55
1607090150.2204,-52
1607090150.2224,-48
1607090150.2244,-52
1607090150.2264,-55
1607090150.2284,-45
1607090150.2304,-45
1607090150.2324,-43
1607090150.2344,-33
1607090150.2350,-26
1607090150.2364,-24
1607090150.2384,-21
1607090150.2404,-19
1607090150.2424,-16
1607090150.2446,-16
1607090150.2464,-16
1607090150.2484,-14
1607090150.2504,-7
1607090150.2523,-2
1607090150.2544,2
1607090150.2564,4
1607090150.2584,4
1607090150.2604,2
1607090150.2623,4
1607090150.2644,4
1607090150.2650,7
1607090150.2664,9
1607090150.2684,9
1607090150.2704,9
1607090150.2723,12
1607090150.2744,9
1607090150.2764,12
1607090150.2784,14
1607090150.2803,19
1607090150.2824,21
1607090150.2844,21
1607090150.2864,21
1607090150.2884,19
1607090150.2904,14
1607090150.2924,12
1607090150.2944,16
1607090150.2950,21
1607090150.2964,24
1607090150.2984,26
1607090150.3004,28
1607090150.3024,28
1607090150.3044,26
1607090150.3064,31
1607090150.3083,36
1607090150.3103,36
1607090150.3124,31
1607090150.3144,31
1607090150.3164,31
1607090150.3184,31
1607090150.3204,31
1607090150.3224,36
1607090150.3244,38
1607090150.3250,36
1607090150.3263,28
1607090150.3284,31
1607090150.3304,31
1607090150.3324,31
1607090150.7398,28
1607090150.7407,31
1607090150.7431,28
1607090150.7461,31
1607090150.7478,38
1607090150.7497,38
1607090150.7518,31
1607090150.7538,26
1607090150.7557,21
1607090150.7577,21
1607090150.7597,21
1607090150.7603,21
1607090150.7617,28
1607090150.7637,45
1607090150.7657,48
1607090150.7677,38
1607090150.7697,28
1607090150.7717,19
1607090150.7737,9
1607090150.7757,12
1607090150.7776,14
1607090150.7797,16
1607090150.7816,19
1607090150.7837,24
1607090150.7857,24
1607090150.7877,14
1607090150.7897,2
1607090150.7903,50
1607090150.7917,254
1607090150.7937,598
1607090150.7957,824
1607090150.7976,565
1607090150.7997,-38
1607090150.8016,-250
1607090150.8036,-12
1607090150.8057,33
1607090150.8076,-88
1607090150.8097,-57
1607090150.8116,-12
1607090150.8136,-48
1607090150.8157,-50
1607090150.8176,-26
1607090150.8196,-36
1607090150.8203,-36
1607090150.8216,-21
1607090150.8237,-21
1607090150.8257,-24
1607090150.8276,-14
1607090150.8296,-4
1607090150.8316,-4
1607090150.8336,0
1607090150.8356,9
1607090150.8377,16
1607090150.8396,21
1607090150.8418,28
1607090150.8437,38
1607090150.8457,45
1607090150.8476,57
1607090150.8496,67
1607090150.8503,76
1607090150.8516,91
1607090150.8536,108
1607090150.8557,125
1607090150.8576,141
1607090150.8596,163
1607090150.8616,173
1607090150.8636,175
1607090150.8657,170
1607090150.8676,156
1607090150.8696,127
1607090150.8717,86
1607090150.8736,43
1607090150.8757,4
1607090151.2798,-24
1607090151.2807,-43
1607090151.2831,-52
1607090151.2848,-57
1607090151.2867,-62
1607090151.2887,-67
1607090151.2907,-64
1607090151.2927,-55
1607090151.2948,-57
1607090151.2967,-64
1607090151.2987,-57
1607090151.3007,-43
1607090151.3027,-40
1607090151.3048,-36
1607090151.3067,-28
1607090151.3087,-24
1607090151.3093,-19
1607090151.3107,-14
1607090151.3127,-14
1607090151.3147,-14
1607090151.3167,-14
1607090151.3187,-9
1607090151.3207,-7
1607090151.3227,-7
1607090151.3248,-9
1607090151.3267,-9
1607090151.3287,-4
1607090151.3307,-2
1607090151.3327,-2
1607090151.3347,-7
1607090151.3367,-7
1607090151.3387,-9
1607090151.3394,-12
1607090151.3407,-12
1607090151.3427,-12
1607090151.3447,-12
1607090151.3467,-14
1607090151.3487,-12
1607090151.3507,-7
1607090151.3527,-4
1607090151.3547,-9
1607090151.3566,-12
1607090151.3587,-4
1607090151.3607,-2
1607090151.3627,-7
1607090151.3647,-4
1607090151.3667,-4
1607090151.3687,-2
1607090151.3693,0
1607090151.3708,2
1607090151.3727,4
1607090151.3747,7
1607090151.3767,4
1607090151.3787,0
1607090151.3807,0
1607090151.3827,4
1607090151.3847,7
1607090151.3867,7
1607090151.3887,7
1607090151.3907,9
1607090151.3927,7
1607090151.3947,9
1607090151.3967,14
1607090151.3987,14
1607090151.3993,12
1607090151.4007,14
1607090151.4027,14
1607090151.4047,9
1607090151.4067,7
1607090151.4087,4
1607090151.4106,7
1607090151.4127,21
1607090151.4147,43
1607090151.8499,48
1607090151.8509,43
1607090151.8532,38
1607090151.8550,26
1607090151.8569,14
1607090151.8589,9
1607090151.8596,4
1607090151.8609,2
1607090151.8629,2
1607090151.8649,2
1607090151.8671,0
1607090151.8689,-2
1607090151.8709,-14
1607090151.8729,16
1607090151.8749,202
1607090151.8769,543
1607090151.8789,810
1607090151.8809,637
1607090151.8829,40
1607090151.8849,-269
1607090151.8869,-62
1607090151.8888,31
1607090151.8895,-96
1607090151.8908,-81
1607090151.8928,-21
1607090151.8949,-50
1607090151.8968,-62
1607090151.8989,-40
1607090151.9009,-45
1607090151.9029,-50
1607090151.9049,-40
1607090151.9069,-36
1607090151.9089,-33
1607090151.9109,-28
1607090151.9129,-24
1607090151.9150,-16
1607090151.9168,-9
1607090151.9188,-4
1607090151.9195,-2
1607090151.9208,4
1607090151.9228,12
1607090151.9249,19
1607090151.9268,26
1607090151.9288,36
1607090151.9308,50
1607090151.9328,64
1607090151.9349,79
1607090151.9368,96
1607090151.9388,113
1607090151.9408,127
1607090151.9428,144
1607090151.9448,153
1607090151.9468,158
1607090151.9488,153
1607090151.9494,139
1607090151.9508,105
1607090151.9529,64
1607090151.9549,26
1607090151.9568,-9
1607090151.9588,-40
1607090151.9609,-55
1607090151.9630,-64
1607090151.9649,-69
1607090151.9668,-74
1607090151.9688,-72
1607090151.9708,-69
1607090151.9728,-67
1607090151.9749,-62
1607090151.9768,-60
1607090151.9788,-57
1607090151.9794,-52
1607090151.9808,-45
1607090151.9828,-38
1607090152.4199,-31
1607090152.4208,-24
1607090152.4232,-21
1607090152.4259,-19
1607090152.4278,-19
1607090152.4299,-14
1607090152.4320,-9
1607090152.4338,-16
1607090152.4359,-24
1607090152.4378,-19
1607090152.4398,-19
1607090152.4404,-21
1607090152.4418,-19
1607090152.4438,-16
1607090152.4458,-21
1607090152.4478,-21
1607090152.4498,-14
1607090152.4518,-12
1607090152.4538,-9
1607090152.4558,-9
1607090152.4577,-9
1607090152.4598,-9
1607090152.4618,-12
1607090152.4638,-16
1607090152.4658,-12
1607090152.4678,-4
1607090152.4698,-7
1607090152.4704,-9
1607090152.4718,-9
1607090152.4737,-9
1607090152.4758,-9
1607090152.4777,-7
1607090152.4798,-4
1607090152.4817,-2
1607090152.4837,-2
1607090152.4858,-2
1607090152.4877,-2
1607090152.4897,0
1607090152.4917,2
1607090152.4939,0
1607090152.4958,2
1607090152.4977,7
1607090152.4997,9
1607090152.5004,9
1607090152.5017,9
1607090152.5037,7
1607090152.5058,7
1607090152.5077,12
1607090152.5097,16
1607090152.5117,16
1607090152.5137,14
1607090152.5158,16
1607090152.5177,16
1607090152.5197,16
1607090152.5217,16
1607090152.5237,19
1607090152.5258,24
1607090152.5278,26
1607090152.5284,24
1607090152.5298,28
1607090152.5317,31
1607090152.5337,26
1607090152.5358,26
1607090152.5378,26
1607090152.5397,19
1607090152.5417,16
1607090152.5438,21
1607090152.5458,31
1607090152.5477,48
1607090152.5497,60
1607090152.5517,57
1607090152.5537,50
1607090152.5558,43
1607090152.9895,33
1607090152.9904,28
1607090152.9929,28
1607090152.9956,24
1607090152.9975,19
1607090152.9995,21
1607090153.0022,26
1607090153.0035,21
1607090153.0055,2
1607090153.0074,-9
1607090153.0094,76
1607090153.0114,327
1607090153.0134,651
1607090153.0155,791
1607090153.0174,449
1607090153.0195,-98
1607090153.0215,-194
1607090153.0223,4
1607090153.0235,-28
1607090153.0255,-117
1607090153.0274,-62
1607090153.0294,-38
1607090153.0314,-67
1607090153.0334,-50
1607090153.0354,-33
1607090153.0374,-40
1607090153.0394,-38
1607090153.0414,-28
1607090153.0434,-31
1607090153.0455,-28
1607090153.0474,-21
1607090153.0494,-19
1607090153.0514,-16
1607090153.0520,-12
1607090153.0534,-4
1607090153.0554,0
1607090153.0574,2
1607090153.0594,7
1607090153.0614,16
1607090153.0634,21
1607090153.0654,31
1607090153.0674,45
1607090153.0694,60
1607090153.0714,74
1607090153.0734,91
1607090153.0754,110
1607090153.0774,122
1607090153.0794,134
1607090153.0814,141
1607090153.0820,149
1607090153.0834,146
1607090153.0854,129
1607090153.0874,98
1607090153.0894,62
1607090153.0913,26
1607090153.0934,-7
1607090153.0954,-31
1607090153.0974,-48
1607090153.0994,-57
1607090153.1014,-64
1607090153.1034,-67
1607090153.1054,-60
1607090153.1074,-55
1607090153.1094,-52
1607090153.1114,-48
1607090153.1120,-43
1607090153.1134,-40
1607090153.1154,-40
1607090153.1175,-38
1607090153.1195,-33
1607090153.1214,-24
1607090153.1234,-19
1607090153.1254,-16
1607090153.5594,-12
1607090153.5603,-9
1607090153.5627,-12
1607090153.5654,-9
1607090153.5674,-9
1607090153.5681,-14
1607090153.5694,-12
1607090153.5714,-9
1607090153.5734,-9
1607090153.5755,-14
1607090153.5774,-16
1607090153.5794,-14
1607090153.5814,-7
1607090153.5834,-7
1607090153.5854,-7
1607090153.5873,-2
1607090153.5893,0
1607090153.5913,-2
1607090153.5933,0
1607090153.5953,2
1607090153.5973,2
1607090153.5979,4
1607090153.5993,9
1607090153.6013,12
1607090153.6033,9
1607090153.6054,4
1607090153.6073,7
1607090153.6093,12
1607090153.6113,12
1607090153.6133,14
1607090153.6153,16
1607090153.6173,16
1607090153.6193,16
1607090153.6213,16
1607090153.6233,21
1607090153.6253,26
1607090153.6273,24
1607090153.6279,24
1607090153.6293,31
1607090153.6313,36
1607090153.6333,38
1607090153.6353,36
1607090153.6373,36
1607090153.6393,38
1607090153.6413,38
1607090153.6433,36
1607090153.6455,38
1607090153.6473,40
1607090153.6493,40
1607090153.6513,38
1607090153.6533,38
1607090153.6553,43
1607090153.6573,43
1607090153.6579,43
1607090153.6593,43
1607090153.6613,43
1607090153.6632,43
1607090153.6653,43
1607090153.6673,40
1607090153.6693,38
1607090153.6713,36
1607090153.6733,33
1607090153.6753,31
1607090153.6773,31
1607090153.6793,28
1607090153.6813,28
1607090153.6833,26
1607090153.6853,26
1607090153.6873,36
1607090153.6879,52
1607090153.6893,60
1607090153.6913,55
1607090153.6933,50
1607090154.0990,40
1607090154.0996,26
1607090154.1020,21
1607090154.1048,19
1607090154.1067,16
1607090154.1087,19
1607090154.1107,24
1607090154.1127,21
1607090154.1147,19
1607090154.1167,7
1607090154.1173,2
1607090154.1187,101
1607090154.1207,379
1607090154.1227,716
1607090154.1247,781
1607090154.1266,327
1607090154.1286,-202
1607090154.1306,-173
1607090154.1326,38
1607090154.1347,-38
1607090154.1366,-101
1607090154.1386,-28
1607090154.1406,-26
1607090154.1426,-57
1607090154.1449,-33
1607090154.1467,-21
1607090154.1473,-31
1607090154.1486,-28
1607090154.1506,-26
1607090154.1526,-28
1607090154.1547,-24
1607090154.1566,-16
1607090154.1586,-9
1607090154.1606,-2
1607090154.1626,2
1607090154.1647,4
1607090154.1666,9
1607090154.1686,19
1607090154.1707,28
1607090154.1726,40
1607090154.1747,52
1607090154.1766,62
1607090154.1773,72
1607090154.1786,84
1607090154.1806,103
1607090154.1826,122
1607090154.1847,137
1607090154.1866,149
1607090154.1886,163
1607090154.1906,173
1607090154.1926,173
1607090154.1947,163
1607090154.1966,146
1607090154.1986,113
1607090154.2006,67
1607090154.2026,24
1607090154.2047,-4
1607090154.2066,-26
1607090154.2073,-45
1607090154.2086,-60
1607090154.2106,-64
1607090154.2126,-67
1607090154.2147,-69
1607090154.2166,-69
1607090154.2186,-67
1607090154.2206,-62
1607090154.2226,-62
1607090154.2247,-55
1607090154.2266,-48
1607090154.2286,-48
1607090154.2306,-43
1607090154.2326,-36
1607090154.2346,-33
1607090154.6395,-33
1607090154.6404,-26
1607090154.6430,-24
1607090154.6447,-21
1607090154.6465,-16
1607090154.6485,-14
1607090154.6504,-12
1607090154.6525,-14
1607090154.6545,-21
1607090154.6564,-24
1607090154.6584,-21
1607090154.6604,-24
1607090154.6624,-24
1607090154.6645,-21
1607090154.6651,-16
1607090154.6664,-16
1607090154.6670,-16
1607090154.6684,-14
1607090154.6704,-12
1607090154.6724,-9
1607090154.6744,-7
1607090154.6764,-2
1607090154.6784,-2
1607090154.6804,-7
1607090154.6824,-4
1607090154.6844,4
1607090154.6864,9
1607090154.6884,4
1607090154.6904,2
1607090154.6924,4
1607090154.6944,7
1607090154.6964,7
1607090154.6970,14
1607090154.6983,16
1607090154.7004,14
1607090154.7023,12
1607090154.7044,14
1607090154.7063,16
1607090154.7083,16
1607090154.7103,14
1607090154.7124,14
1607090154.7144,16
1607090154.7163,14
1607090154.7183,12
1607090154.7203,12
1607090154.7223,14
1607090154.7244,14
1607090154.7263,14
1607090154.7270,14
1607090154.7283,16
1607090154.7303,19
1607090154.7323,16
1607090154.7344,14
1607090154.7365,16
1607090154.7384,16
1607090154.7403,14
1607090154.7423,7
1607090154.7443,4
1607090154.7463,4
1607090154.7483,12
1607090154.7503,31
1607090154.7523,43
1607090154.7544,40
1607090154.7563,33
1607090154.7570,24
1607090154.7583,14
1607090154.7604,9
1607090154.7623,9
1607090154.7643,9
1607090154.7663,12
1607090154.7683,14
1607090154.7703,19
1607090154.7724,14
1607090155.2394,-9
1607090155.2403,-16
1607090155.2427,91
1607090155.2455,375
1607090155.2461,711
1607090155.2474,788
1607090155.2494,343
1607090155.2515,-197
1607090155.2534,-192
1607090155.2555,19
1607090155.2574,-48
1607090155.2594,-115
1607090155.2614,-45
1607090155.2635,-40
1607090155.2655,-69
1607090155.2674,-45
1607090155.2694,-31
1607090155.2714,-40
1607090155.2734,-36
1607090155.2754,-26
1607090155.2760,-24
1607090155.2774,-21
1607090155.2793,-16
1607090155.2813,-14
1607090155.2834,-12
1607090155.2853,-9
1607090155.2873,-4
1607090155.2893,0
1607090155.2913,0
1607090155.2933,4
1607090155.2954,14
1607090155.2975,26
1607090155.2994,38
1607090155.3013,48
1607090155.3033,57
1607090155.3054,69
1607090155.3059,88
1607090155.3073,110
1607090155.3093,122
1607090155.3113,129
1607090155.3133,139
1607090155.3153,141
1607090155.3173,132
1607090155.3194,113
1607090155.3213,76
1607090155.3233,33
1607090155.3253,-4
1607090155.3274,-36
1607090155.3293,-62
1607090155.3313,-81
1607090155.3333,-86
1607090155.3353,-88
1607090155.3359,-91
1607090155.3373,-91
1607090155.3393,-86
1607090155.3413,-81
1607090155.3433,-79
1607090155.3453,-72
1607090155.3473,-64
1607090155.3493,-62
1607090155.3513,-57
1607090155.3533,-50
1607090155.3553,-43
1607090155.3573,-36
1607090155.3593,-28
1607090155.3613,-24
1607090155.3633,-24
1607090155.3654,-19
1607090155.3659,-16
1607090155.3673,-14
1607090155.3694,-9
1607090155.3713,-9
1607090155.3733,-9
1607090155.7497,-9
1607090155.7504,-9
1607090155.7529,-9
1607090155.7556,-7
1607090155.7575,-4
1607090155.7595,-7
1607090155.7615,-12
1607090155.7634,-19
1607090155.7655,-16
1607090155.7676,-14
1607090155.7696,-19
1607090155.7701,-21
1607090155.7715,-19
1607090155.7735,-14
1607090155.7755,-12
1607090155.7774,-9
1607090155.7794,-9
1607090155.7814,-7
1607090155.7834,-4
1607090155.7854,-4
1607090155.7874,-2
1607090155.7894,-2
1607090155.7914,-2
1607090155.7934,-2
1607090155.7955,-2
1607090155.7974,0
1607090155.7994,0
1607090155.8000,0
1607090155.8014,2
1607090155.8034,4
1607090155.8054,7
1607090155.8074,7
1607090155.8094,9
1607090155.8114,9
1607090155.8134,7
1607090155.8155,4
1607090155.8174,12
1607090155.8195,14
1607090155.8214,14
1607090155.8234,12
1607090155.8255,4
1607090155.8274,0
1607090155.8294,2
1607090155.8300,9
1607090155.8314,12
1607090155.8334,12
1607090155.8354,7
1607090155.8374,9
1607090155.8394,9
1607090155.8414,12
1607090155.8434,12
1607090155.8454,14
1607090155.8474,14
1607090155.8496,14
1607090155.8514,9
1607090155.8534,2
1607090155.8554,2
1607090155.8574,7
1607090155.8594,19
1607090155.8600,33
1607090155.8615,36
1607090155.8635,28
1607090155.8655,21
1607090155.8674,14
1607090155.8694,7
1607090155.8714,4
1607090155.8734,7
1607090155.8754,9
1607090155.8774,7
1607090155.8794,9
1607090155.8814,9
1607090155.8834,4
1607090155.8854,-12
1607090156.3499,16
1607090156.3507,199
1607090156.3531,526
1607090156.3559,791
1607090156.3578,651
1607090156.3598,105
1607090156.3619,-214
1607090156.3638,-60
1607090156.3658,16
1607090156.3678,-101
1607090156.3698,-91
1607090156.3718,-38
1607090156.3738,-67
1607090156.3758,-74
1607090156.3777,-48
1607090156.3798,-50
1607090156.3804,-57
1607090156.3818,-43
1607090156.3838,-36
1607090156.3857,-38
1607090156.3877,-33
1607090156.3897,-26
1607090156.3917,-21
1607090156.3937,-14
1607090156.3958,-7
1607090156.3978,-4
1607090156.3997,2
1607090156.4017,9
1607090156.4039,19
1607090156.4058,31
1607090156.4078,43
1607090156.4161,52
1607090156.4177,62
1607090156.4197,74
1607090156.4217,88
1607090156.4237,103
1607090156.4257,115
1607090156.4277,129
1607090156.4299,139
1607090156.4317,144
1607090156.4337,141
1607090156.4358,132
1607090156.4377,108
1607090156.4397,72
1607090156.4417,36
1607090156.4437,0
1607090156.4443,-26
1607090156.4456,-48
1607090156.4477,-60
1607090156.4497,-64
1607090156.4517,-69
1607090156.4537,-67
1607090156.4558,-60
1607090156.4577,-57
1607090156.4597,-55
1607090156.4617,-52
1607090156.4637,-48
1607090156.4657,-43
1607090156.4677,-43
1607090156.4697,-40
1607090156.4717,-33
1607090156.4737,-31
1607090156.4744,-31
1607090156.4757,-26
1607090156.4777,-16
1607090156.4797,-12
1607090156.4817,-9
1607090156.4837,-7
1607090156.4857,-4
