,hr,rr,ecg,gsr,temperature
1603018842.9682,78.0,784.0,1271.0,438.0,36.75
1603018842.9706,78.0,784.0,2652.0,438.0,36.75
1603018842.9732,78.0,784.0,3610.0,438.0,36.75
1603018842.9758,78.0,784.0,4249.0,438.00000000000006,36.75
1603018842.978,78.0,784.0,4974.0,438.00000000000006,36.75
1603018842.98,78.0,784.0,5610.0,438.00000000000006,36.75
1603018842.9821,78.0,784.0,6101.0,438.00000000000006,36.75
1603018842.9841,78.0,784.0,6583.0,438.00000000000006,36.75
1603018842.986,78.0,784.0,7021.0,438.00000000000006,36.75
1603018842.9876,78.0,784.0,7400.0,438.00000000000006,36.75
1603018842.9896,78.0,784.0,7787.0,438.0000000000001,36.75
1603018842.9916,78.0,784.0,8156.0,438.0000000000001,36.75
1603018842.9936,78.0,784.0,8450.0,438.0000000000001,36.75
1603018842.9956,78.0,784.0,8720.0,438.0000000000001,36.75
1603018842.9976,78.0,784.0,9011.0,438.0000000000001,36.75
1603018842.9996,78.0,784.0,9276.0,438.0000000000001,36.75
1603018843.0015,78.0,784.0,9483.0,438.0000000000001,36.75
1603018843.0036,78.0,784.0,9681.0,438.0000000000001,36.75
1603018843.0056,78.0,784.0,9885.0,438.00000000000017,36.75
1603018843.0076,78.0,784.0,10066.0,438.00000000000017,36.75
1603018843.0096,78.0,784.0,10223.0,438.00000000000017,36.75
1603018843.0116,78.0,784.0,10377.0,438.00000000000017,36.75
1603018843.0136,78.0,784.0,10541.0,438.00000000000017,36.75
1603018843.0156,78.0,784.0,10697.0,438.00000000000017,36.75
1603018843.0176,78.0,784.0,10818.0,438.00000000000017,36.75
1603018843.0196,78.0,784.0,10921.0,438.00000000000017,36.75
1603018843.0216,78.0,784.0,11083.0,438.00000000000017,36.75
1603018843.0236,78.0,784.0,11364.0,438.00000000000017,36.75
1603018843.0256,78.0,784.0,11637.0,438.00000000000017,36.75
1603018843.0276,78.0,784.0,11548.0,438.0000000000002,36.75
1603018843.0296,78.0,784.0,11148.0,438.0000000000002,36.75
1603018843.0315,78.0,784.0,11102.0,438.0000000000002,36.75
1603018843.0335,78.0,784.0,11461.0,438.0000000000002,36.75
1603018843.0356,78.0,784.0,11610.0,438.0000000000002,36.75
1603018843.0375,78.0,784.0,11576.0,438.0000000000002,36.75
1603018843.0395,78.0,784.0,11668.0,438.0000000000002,36.75
1603018843.0415,78.0,784.0,11745.0,438.0000000000002,36.75
1603018843.0435,78.0,784.0,11731.0,438.0000000000002,36.75
1603018843.0456,78.0,784.0,11757.0,438.0000000000002,36.75
1603018843.0475,78.0,784.0,11796.0,438.0000000000002,36.75
1603018843.0496,78.0,784.0,11796.0,438.0000000000002,36.75
1603018843.0515,78.0,784.0,11798.0,438.0000000000002,36.75
1603018843.0535,78.0,784.0,11813.0,438.0000000000002,36.75
1603018843.0555,78.0,784.0,11810.0,438.0000000000002,36.75
1603018843.0575,78.0,784.0,11803.0,438.0000000000002,36.75
1603018843.0595,78.0,784.0,11796.0,438.0000000000002,36.75
1603018843.0615,78.0,784.0,11779.0,438.0000000000002,36.75
1603018843.0635,78.0,784.0,11769.0,438.0000000000002,36.75
1603018843.0656,78.0,784.0,11760.0,438.0000000000002,36.75
1603018843.0675,78.0,784.0,11743.0,438.0000000000002,36.75
1603018843.0702,78.0,784.0,11733.0,437.99999999993736,36.75
1603018843.0715,78.0,784.0,11702.0,437.99999999993736,36.75
1603018843.0734,78.0,784.0,11637.0,437.99999999993736,36.75
1603018843.0755,78.0,784.0,11591.0,437.99999999993736,36.75
1603018843.0775,78.0,784.0,11572.0,437.99999999993736,36.75
1603018843.0795,78.0,784.0,11540.0,437.99999999993736,36.75
1603018843.0815,78.0,784.0,11495.0,437.99999999993736,36.75
1603018843.0835,78.0,784.0,11454.0,437.99999999993736,36.75
1603018843.0855,78.0,784.0,11413.0,437.99999999993736,36.75
1603018843.0874,78.0,784.0,11340.0,437.99999999993736,36.75
1603018843.0895,78.0,784.0,11268.0,437.99999999993736,36.75
1603018843.0914,78.0,784.0,11222.0,437.99999999993736,36.75
1603018843.0935,78.0,784.0,11167.0,437.99999999993736,36.75
1603018843.0955,78.0,784.0,11075.0,437.99999999993736,36.75
1603018843.0974,78.0,784.0,10989.0,437.99999999993736,36.75
1603018843.0994,78.0,784.0,10924.0,437.99999999993736,36.75
1603018843.1014,78.0,784.0,10842.0,437.99999999993736,36.75
1603018843.1034,78.0,784.0,10745.0,437.99999999993736,36.75
1603018843.1055,78.0,784.0,10663.0,437.99999999993736,36.75
1603018843.1074,78.0,784.0,10584.0,437.99999999993736,36.75
1603018843.1094,78.0,784.0,10497.0,437.99999999993736,36.75
1603018843.1114,78.0,784.0,10420.0,437.99999999993736,36.75
1603018843.1134,78.0,784.0,10346.0,437.99999999993736,36.75
1603018843.5358,78.0,784.0,10264.0,437.99999999993736,36.75
1603018843.5367,78.0,784.0,10189.0,437.99999999993736,36.75
1603018843.5392,78.0,784.0,10107.0,437.99999999993736,36.75
1603018843.5417,78.0,784.0,10008.0,437.99999999993736,36.75
1603018843.5437,78.0,784.0,9922.0,437.99999999993736,36.75
1603018843.5458,78.0,784.0,9859.0,437.99999999993736,36.75
1603018843.5479,78.0,784.0,9787.0,437.99999999993736,36.75
1603018843.5497,78.0,784.0,9719.0,437.99999999993736,36.75
1603018843.5517,78.0,784.0,9659.0,437.99999999993736,36.75
1603018843.5537,78.0,784.0,9567.0,437.99999999993736,36.75
1603018843.5558,78.0,784.0,9447.0,437.99999999993736,36.75
1603018843.5577,78.0,784.0,9363.0,437.99999999993736,36.75
1603018843.5598,78.0,784.0,9293.0,437.99999999993736,36.75
1603018843.5617,78.0,784.0,9206.0,437.99999999993736,36.75
1603018843.5638,78.0,784.0,9117.0,437.99999999993736,36.75
1603018843.5658,78.0,784.0,9035.0,437.99999999993736,36.75
1603018843.5677,78.0,784.0,8953.0,437.99999999993736,36.75
1603018843.5697,78.0,784.0,8869.0,437.99999999993736,36.75
1603018843.5718,78.0,784.0,8780.0,437.99999999993736,36.75
1603018843.5737,78.0,784.0,8695.0,437.99999999993736,36.75
1603018843.5757,78.0,784.0,8611.0,437.99999999993736,36.75
1603018843.5777,78.0,784.0,8520.0,437.99999999993736,36.75
1603018843.5797,78.0,784.0,8447.0,437.99999999993736,36.75
1603018843.5817,78.0,784.0,8375.0,437.99999999993736,36.75
1603018843.5837,78.0,784.0,8279.0,437.99999999993736,36.75
1603018843.5857,78.0,784.0,8204.0,437.99999999993736,36.75
1603018843.5877,78.0,784.0,8144.0,437.99999999993736,36.75
1603018843.5896,78.0,784.0,8052.0,437.99999999993736,36.75
1603018843.5918,78.0,784.0,7951.0,437.99999999993736,36.75
1603018843.5937,78.0,784.0,7864.0,437.99999999993736,36.75
1603018843.5957,78.0,784.0,7787.0,437.99999999993736,36.75
1603018843.5977,78.0,784.0,7720.0,437.99999999993736,36.75
1603018843.5997,78.0,784.0,7640.0,437.99999999993736,36.75
1603018843.6017,78.0,784.0,7539.0,437.99999999993736,36.75
1603018843.6036,78.0,784.0,7455.0,437.99999999993736,36.75
1603018843.6057,78.0,784.0,7402.0,437.99999999993736,36.75
1603018843.6076,78.0,784.0,7347.0,437.99999999993736,36.75
1603018843.6096,78.0,784.0,7267.0,437.99999999993736,36.75
1603018843.6116,78.0,784.0,7183.0,437.99999999993736,36.75
1603018843.6136,78.0,784.0,7106.0,437.99999999993736,36.75
1603018843.6157,78.0,784.0,7019.0,437.99999999993736,36.75
1603018843.6176,78.0,784.0,6925.0,437.99999999993736,36.75
1603018843.6196,78.0,784.0,6848.0,437.99999999993736,36.75
1603018843.6216,78.0,784.0,6788.0,437.99999999993736,36.75
1603018843.6236,78.0,784.0,6706.0,437.99999999993736,36.75
1603018843.6257,78.0,784.0,6617.0,437.99999999993736,36.75
1603018843.6276,78.0,784.0,6549.0,437.99999999993736,36.75
1603018843.6296,78.0,784.0,6482.0,437.99999999993736,36.75
1603018843.6317,78.0,784.0,6397.0,437.99999999993736,36.75
1603018843.6336,78.0,784.0,6308.0,437.99999999993736,36.75
1603018843.6357,78.0,784.0,6226.0,437.99999999993736,36.75
1603018843.6376,78.0,784.0,6217.0,437.99999999993736,36.75
1603018843.6396,78.0,784.0,6342.0,437.99999999993736,36.75
1603018843.6416,78.0,784.0,6446.0,437.99999999993736,36.75
1603018843.6436,78.0,784.0,6171.0,437.99999999993736,36.75
1603018843.6457,78.0,784.0,5619.0,437.99999999993736,36.75
1603018843.6476,78.0,784.0,5460.0,437.99999999993736,36.75
1603018843.6496,78.0,784.0,5704.0,437.99999999993736,36.75
1603018843.6517,78.0,784.0,5737.0,437.99999999993736,36.75
1603018843.6536,78.0,784.0,5590.0,437.99999999993736,36.75
1603018843.6557,78.0,784.0,5564.0,437.99999999993736,36.75
1603018843.6576,78.0,784.0,5545.0,437.99999999993736,36.75
1603018843.6596,78.0,784.0,5444.0,437.99999999993736,36.75
1603018843.6616,78.0,784.0,5374.0,437.99999999993736,36.75
1603018843.6636,78.0,784.0,5330.0,437.99999999993736,36.75
1603018843.6657,78.0,784.0,5258.0,437.99999999993736,36.75
1603018843.6677,78.0,784.0,5195.0,437.99999999993736,36.75
1603018843.6696,78.0,784.0,5154.0,437.99999999993736,36.75
1603018843.6716,78.0,784.0,5094.0,437.99999999993736,36.75
1603018843.6736,78.0,784.0,5024.0,437.99999999993736,36.75
1603018843.6757,78.0,784.0,4971.0,437.99999999993736,36.75
1603018843.6776,78.0,784.0,4923.0,437.99999999993736,36.75
1603018843.6796,78.0,784.0,4863.0,437.99999999993736,36.75
1603018844.0764,78.0,763.0,4798.0,437.99999999993736,36.75
1603018844.077,78.0,763.0,4738.0,437.99999999993736,36.75
1603018844.0794,78.0,763.0,4694.0,437.99999999993736,36.75
1603018844.082,78.0,763.0,4649.0,437.99999999993736,36.75
1603018844.084,78.0,763.0,4598.0,437.99999999993736,36.75
1603018844.0861,78.0,763.0,4555.0,437.99999999993736,36.75
1603018844.0882,78.0,763.0,4502.0,437.99999999993736,36.75
1603018844.0901,78.0,763.0,4449.0,437.99999999993736,36.75
1603018844.092,78.0,763.0,4413.0,437.99999999993736,36.75
1603018844.094,78.0,763.0,4376.0,437.99999999993736,36.75
1603018844.096,78.0,763.0,4311.0,437.99999999993736,36.75
1603018844.098,78.0,763.0,4239.0,437.99999999993736,36.75
1603018844.1,78.0,763.0,4186.0,437.99999999993736,36.75
1603018844.102,78.0,763.0,4128.0,437.99999999993736,36.75
1603018844.104,78.0,763.0,4063.0,437.99999999993736,36.75
1603018844.106,78.0,763.0,4008.0,437.99999999993736,36.75
1603018844.108,78.0,763.0,3950.0,437.99999999993736,36.75
1603018844.11,78.0,763.0,3887.0,437.99999999993736,36.75
1603018844.112,78.0,763.0,3825.0,437.99999999993736,36.75
1603018844.114,78.0,763.0,3760.0,437.99999999993736,36.75
1603018844.116,78.0,763.0,3702.0,437.99999999993736,36.75
1603018844.118,78.0,763.0,3654.0,437.99999999993736,36.75
1603018844.12,78.0,763.0,3586.0,437.99999999993736,36.75
1603018844.122,78.0,763.0,3514.0,437.99999999993736,36.75
1603018844.124,78.0,763.0,3463.0,437.99999999993736,36.75
1603018844.126,78.0,763.0,3432.0,437.99999999993736,36.75
1603018844.128,78.0,763.0,3396.0,437.99999999993736,36.75
1603018844.13,78.0,763.0,3360.0,437.99999999993736,36.75
1603018844.132,78.0,763.0,3321.0,437.99999999993736,36.75
1603018844.134,78.0,763.0,3273.0,437.99999999993736,36.75
1603018844.1361,78.0,763.0,3237.0,437.99999999993736,36.75
1603018844.138,78.0,763.0,3196.0,437.99999999993736,36.75
1603018844.14,78.0,763.0,3143.0,437.99999999993736,36.75
1603018844.142,78.0,763.0,3107.0,437.99999999993736,36.75
1603018844.144,78.0,763.0,3076.0,437.99999999993736,36.75
1603018844.1461,78.0,763.0,3032.0,437.99999999993736,36.75
1603018844.148,78.0,763.0,2991.0,437.99999999993736,36.75
1603018844.15,78.0,763.0,2953.0,437.99999999993736,36.75
1603018844.152,78.0,763.0,2912.0,437.99999999993736,36.75
1603018844.154,78.0,763.0,2876.0,437.99999999993736,36.75
1603018844.156,78.0,763.0,2835.0,437.99999999993736,36.75
1603018844.158,78.0,763.0,2787.0,437.99999999993736,36.75
1603018844.16,78.0,763.0,2746.0,437.99999999993736,36.75
1603018844.162,78.0,763.0,2724.0,437.99999999993736,36.75
1603018844.164,78.0,763.0,2709.0,437.99999999993736,36.75
1603018844.166,78.0,763.0,2671.0,437.99999999993736,36.75
1603018844.1687,78.0,763.0,2616.0,437.99999999993736,36.75
1603018844.17,78.0,763.0,2582.0,437.99999999993736,36.75
1603018844.172,78.0,763.0,2565.0,437.99999999993736,36.75
1603018844.174,78.0,763.0,2531.0,437.99999999993736,36.75
1603018844.176,78.0,763.0,2490.0,437.99999999993736,36.75
1603018844.178,78.0,763.0,2473.0,437.99999999993736,36.75
1603018844.18,78.0,763.0,2454.0,437.99999999993736,36.75
1603018844.182,78.0,763.0,2406.0,437.99999999993736,36.75
1603018844.184,78.0,763.0,2365.0,437.99999999993736,36.75
1603018844.186,78.0,763.0,2341.0,437.99999999993736,36.75
1603018844.188,78.0,763.0,2314.0,437.99999999993736,36.75
1603018844.1901,78.0,763.0,2290.0,437.99999999993736,36.75
1603018844.192,78.0,763.0,2261.0,437.99999999993736,36.75
1603018844.194,78.0,763.0,2225.0,437.99999999993736,36.75
1603018844.196,78.0,763.0,2199.0,437.99999999993736,36.75
1603018844.198,78.0,763.0,2189.0,437.99999999993736,36.75
1603018844.2,78.0,763.0,2177.0,437.99999999993736,36.75
1603018844.202,78.0,763.0,2158.0,437.99999999993736,36.75
1603018844.204,78.0,763.0,2119.0,437.99999999993736,36.75
1603018844.206,78.0,763.0,2078.0,437.99999999993736,36.75
1603018844.208,78.0,763.0,2057.0,437.99999999993736,36.75
1603018844.21,78.0,763.0,2028.0,437.99999999993736,36.75
1603018844.212,78.0,763.0,1982.0,437.99999999993736,36.75
1603018844.214,78.0,763.0,1953.0,437.99999999993736,36.75
1603018844.216,78.0,763.0,1939.0,437.99999999993736,36.75
1603018844.218,78.0,763.0,1917.0,437.99999999993736,36.75
1603018844.22,78.0,763.0,1895.0,437.99999999993736,36.75
1603018844.6462,78.0,763.0,1876.0,437.99999999993736,36.75
1603018844.6471,78.0,763.0,1850.0,437.99999999993736,36.75
1603018844.6495,78.0,763.0,1818.0,437.99999999993736,36.75
1603018844.6522,78.0,763.0,1886.0,437.99999999993736,36.75
1603018844.6542,78.0,763.0,2100.0,437.99999999993736,36.75
1603018844.6562,78.0,763.0,2177.0,437.99999999993736,36.75
1603018844.6583,78.0,763.0,1777.0,437.99999999993736,36.75
1603018844.6602,78.0,763.0,1298.0,437.99999999993736,36.75
1603018844.6622,78.0,763.0,1375.0,437.99999999993736,36.75
1603018844.6641,78.0,763.0,1662.0,437.99999999993736,36.75
1603018844.6662,78.0,763.0,1647.0,437.99999999993736,36.75
1603018844.6681,78.0,763.0,1589.0,437.99999999993736,36.75
1603018844.6701,78.0,763.0,1638.0,437.99999999993736,36.75
1603018844.6721,78.0,763.0,1616.0,437.99999999993736,36.75
1603018844.6741,78.0,763.0,1560.0,437.99999999993736,36.75
1603018844.6761,78.0,763.0,1556.0,437.99999999993736,36.75
1603018844.6781,78.0,763.0,1556.0,437.99999999993736,36.75
1603018844.6801,78.0,763.0,1541.0,437.99999999993736,36.75
1603018844.6821,78.0,763.0,1529.0,437.99999999993736,36.75
1603018844.6841,78.0,763.0,1507.0,437.99999999993736,36.75
1603018844.6861,78.0,763.0,1474.0,437.99999999993736,36.75
1603018844.688,78.0,763.0,1464.0,437.99999999993736,36.75
1603018844.69,78.0,763.0,1466.0,437.99999999993736,36.75
1603018844.692,78.0,763.0,1452.0,437.99999999993736,36.75
1603018844.6941,78.0,763.0,1426.0,437.99999999993736,36.75
1603018844.6961,78.0,763.0,1416.0,437.99999999993736,36.75
1603018844.698,78.0,763.0,1416.0,437.99999999993736,36.75
1603018844.7001,78.0,763.0,1413.0,437.99999999993736,36.75
1603018844.7021,78.0,763.0,1399.0,437.99999999993736,36.75
1603018844.7041,78.0,763.0,1382.0,437.99999999993736,36.75
1603018844.7061,78.0,763.0,1361.0,437.99999999993736,36.75
1603018844.708,78.0,763.0,1334.0,437.99999999993736,36.75
1603018844.71,78.0,763.0,1327.0,437.99999999993736,36.75
1603018844.712,78.0,763.0,1336.0,437.99999999993736,36.75
1603018844.714,78.0,763.0,1334.0,437.99999999993736,36.75
1603018844.7162,78.0,763.0,1312.0,437.99999999993736,36.75
1603018844.7182,78.0,763.0,1283.0,437.99999999993736,36.75
1603018844.7201,78.0,763.0,1264.0,437.99999999993736,36.75
1603018844.7221,78.0,763.0,1259.0,437.99999999993736,36.75
1603018844.724,78.0,763.0,1250.0,437.99999999993736,36.75
1603018844.7261,78.0,763.0,1228.0,437.99999999993736,36.75
1603018844.728,78.0,763.0,1194.0,437.99999999993736,36.75
1603018844.7301,78.0,763.0,1153.0,437.99999999993736,36.75
1603018844.7321,78.0,763.0,1124.0,437.99999999993736,36.75
1603018844.734,78.0,763.0,1103.0,437.99999999993736,36.75
1603018844.7361,78.0,763.0,1067.0,437.99999999993736,36.75
1603018844.738,78.0,763.0,1026.0,437.99999999993736,36.75
1603018844.74,78.0,763.0,1009.0,437.99999999993736,36.75
1603018844.742,78.0,763.0,1006.0,437.99999999993736,36.75
1603018844.744,78.0,763.0,994.0,437.99999999993736,36.75
1603018844.7461,78.0,763.0,980.0,437.99999999993736,36.75
1603018844.748,78.0,763.0,973.0,437.99999999993736,36.75
1603018844.7501,78.0,763.0,956.0,437.99999999993736,36.75
1603018844.752,78.0,763.0,934.0,437.99999999993736,36.75
1603018844.7541,78.0,763.0,932.0,437.99999999993736,36.75
1603018844.7561,78.0,763.0,937.0,437.99999999993736,36.75
1603018844.7581,78.0,763.0,932.0,437.99999999993736,36.75
1603018844.76,78.0,763.0,910.0,437.99999999993736,36.75
1603018844.7621,78.0,763.0,888.0,437.99999999993736,36.75
1603018844.7641,78.0,763.0,884.0,437.99999999993736,36.75
1603018844.7661,78.0,763.0,881.0,437.99999999993736,36.75
1603018844.768,78.0,763.0,864.0,437.99999999993736,36.75
1603018844.77,78.0,763.0,855.0,437.99999999993736,36.75
1603018844.7721,78.0,763.0,852.0,437.99999999993736,36.75
1603018844.7741,78.0,763.0,840.0,437.99999999993736,36.75
1603018844.7761,78.0,763.0,835.0,437.99999999993736,36.75
1603018844.7781,78.0,763.0,831.0,437.99999999993736,36.75
1603018844.78,78.0,763.0,814.0,437.99999999993736,36.75
1603018844.782,78.0,763.0,802.0,437.99999999993736,36.75
1603018844.784,78.0,763.0,792.0,437.99999999993736,36.75
1603018844.7861,78.0,763.0,780.0,437.99999999993736,36.75
1603018844.788,78.0,763.0,768.0,437.99999999993736,36.75
1603018844.7901,78.0,763.0,758.0,437.99999999993736,36.75
1603018845.1865,79.0,767.0,753.0,437.99999999993736,36.75
1603018845.1873,79.0,767.0,744.0,437.99999999993736,36.75
1603018845.1898,79.0,767.0,720.0,437.99999999993736,36.75
1603018845.1924,79.0,767.0,715.0,437.99999999993736,36.75
1603018845.1944,79.0,767.0,746.0,437.99999999993736,36.75
1603018845.1964,79.0,767.0,751.0,437.99999999993736,36.75
1603018845.1984,79.0,767.0,720.0,437.99999999993736,36.75
1603018845.2004,79.0,767.0,700.0,437.99999999993736,36.75
1603018845.2024,79.0,767.0,691.0,437.99999999993736,36.75
1603018845.2044,79.0,767.0,676.0,437.99999999993736,36.75
1603018845.2064,79.0,767.0,667.0,437.99999999993736,36.75
1603018845.2083,79.0,767.0,662.0,437.99999999993736,36.75
1603018845.2103,79.0,767.0,657.0,437.99999999993736,36.75
1603018845.2125,79.0,767.0,676.0,437.99999999993736,36.75
1603018845.2144,79.0,767.0,696.0,437.99999999993736,36.75
1603018845.2164,79.0,767.0,679.0,437.99999999993736,36.75
1603018845.2183,79.0,767.0,650.0,437.99999999993736,36.75
1603018845.2203,79.0,767.0,638.0,437.99999999993736,36.75
1603018845.2223,79.0,767.0,633.0,437.99999999993736,36.75
1603018845.2243,79.0,767.0,621.0,437.99999999993736,36.75
1603018845.2263,79.0,767.0,597.0,437.99999999993736,36.75
1603018845.2283,79.0,767.0,582.0,437.99999999993736,36.75
1603018845.2303,79.0,767.0,578.0,437.99999999993736,36.75
1603018845.2323,79.0,767.0,573.0,437.99999999993736,36.75
1603018845.2343,79.0,767.0,580.0,437.99999999993736,36.75
1603018845.2363,79.0,767.0,592.0,437.99999999993736,36.75
1603018845.2383,79.0,767.0,587.0,437.99999999993736,36.75
1603018845.2403,79.0,767.0,578.0,437.99999999993736,36.75
1603018845.2423,79.0,767.0,650.0,437.99999999993736,36.75
1603018845.2444,79.0,767.0,855.0,437.99999999993736,36.75
1603018845.2463,79.0,767.0,956.0,437.99999999993736,36.75
1603018845.2483,79.0,767.0,609.0,437.99999999993736,36.75
1603018845.2503,79.0,767.0,154.0,437.99999999993736,36.75
1603018845.2523,79.0,767.0,248.0,437.99999999993736,36.75
1603018845.2543,79.0,767.0,558.0,437.99999999993736,36.75
1603018845.2563,79.0,767.0,541.0,437.99999999993736,36.75
1603018845.2584,79.0,767.0,476.0,437.99999999993736,36.75
1603018845.2603,79.0,767.0,546.0,437.99999999993736,36.75
1603018845.2623,79.0,767.0,546.0,437.99999999993736,36.75
1603018845.2643,79.0,767.0,513.0,437.99999999993736,36.75
1603018845.2663,79.0,767.0,544.0,437.99999999993736,36.75
1603018845.2683,79.0,767.0,554.0,437.99999999993736,36.75
1603018845.2703,79.0,767.0,522.0,437.99999999993736,36.75
1603018845.2723,79.0,767.0,513.0,437.99999999993736,36.75
1603018845.2743,79.0,767.0,522.0,437.99999999993736,36.75
1603018845.2763,79.0,767.0,525.0,437.99999999993736,36.75
1603018845.2783,79.0,767.0,527.0,437.99999999993736,36.75
1603018845.2803,79.0,767.0,522.0,437.99999999993736,36.75
1603018845.2823,79.0,767.0,515.0,437.99999999993736,36.75
1603018845.2843,79.0,767.0,515.0,437.99999999993736,36.75
1603018845.2863,79.0,767.0,534.0,437.99999999993736,36.75
1603018845.2883,79.0,767.0,539.0,437.99999999993736,36.75
1603018845.2903,79.0,767.0,517.0,437.99999999993736,36.75
1603018845.2923,79.0,767.0,513.0,437.99999999993736,36.75
1603018845.2944,79.0,767.0,534.0,437.99999999993736,36.75
1603018845.2963,79.0,767.0,541.0,437.99999999993736,36.75
1603018845.2983,79.0,767.0,522.0,437.99999999993736,36.75
1603018845.3003,79.0,767.0,513.0,437.99999999993736,36.75
1603018845.3023,79.0,767.0,534.0,437.99999999993736,36.75
1603018845.3043,79.0,767.0,558.0,437.99999999993736,36.75
1603018845.3063,79.0,767.0,549.0,437.99999999993736,36.75
1603018845.3083,79.0,767.0,522.0,437.99999999993736,36.75
1603018845.3103,79.0,767.0,503.0,437.99999999993736,36.75
1603018845.3123,79.0,767.0,498.0,437.99999999993736,36.75
1603018845.3144,79.0,767.0,503.0,437.99999999993736,36.75
1603018845.3164,79.0,767.0,491.0,437.99999999993736,36.75
1603018845.3183,79.0,767.0,479.0,437.99999999993736,36.75
1603018845.3203,79.0,767.0,467.0,437.99999999993736,36.75
1603018845.3223,79.0,767.0,423.0,437.99999999993736,36.75
1603018845.3244,79.0,767.0,387.0,437.99999999993736,36.75
1603018845.3263,79.0,767.0,383.0,437.99999999993736,36.75
1603018845.3283,79.0,767.0,378.0,437.99999999993736,36.75
1603018845.3303,79.0,767.0,373.0,437.99999999993736,36.75
1603018845.7554,79.0,767.0,363.0,437.99999999993736,36.75
1603018845.756,79.0,767.0,337.0,437.99999999993736,36.75
1603018845.7584,79.0,767.0,322.0,437.99999999993736,36.75
1603018845.761,79.0,767.0,330.0,437.99999999993736,36.75
1603018845.763,79.0,767.0,327.0,437.99999999993736,36.75
1603018845.7651,79.0,767.0,317.0,437.99999999993736,36.75
1603018845.7671,79.0,767.0,322.0,437.99999999993736,36.75
1603018845.769,79.0,767.0,325.0,437.99999999993736,36.75
1603018845.771,79.0,767.0,327.0,437.99999999993736,36.75
1603018845.773,79.0,767.0,327.0,437.99999999993736,36.75
1603018845.775,79.0,767.0,313.0,437.99999999993736,36.75
1603018845.777,79.0,767.0,305.0,437.99999999993736,36.75
1603018845.779,79.0,767.0,310.0,437.99999999993736,36.75
1603018845.781,79.0,767.0,308.0,437.99999999993736,36.75
1603018845.783,79.0,767.0,301.0,437.99999999993736,36.75
1603018845.7849,79.0,767.0,298.0,437.99999999993736,36.75
1603018845.787,79.0,767.0,296.0,437.99999999993736,36.75
1603018845.789,79.0,767.0,296.0,437.99999999993736,36.75
1603018845.791,79.0,767.0,293.0,437.99999999993736,36.75
1603018845.793,79.0,767.0,293.0,437.99999999993736,36.75
1603018845.795,79.0,767.0,293.0,437.99999999993736,36.75
1603018845.797,79.0,767.0,291.0,437.99999999993736,36.75
1603018845.799,79.0,767.0,291.0,437.99999999993736,36.75
1603018845.801,79.0,767.0,291.0,437.99999999993736,36.75
1603018845.803,79.0,767.0,291.0,437.99999999993736,36.75
1603018845.805,79.0,767.0,284.0,437.99999999993736,36.75
1603018845.807,79.0,767.0,281.0,437.99999999993736,36.75
1603018845.809,79.0,767.0,279.0,437.99999999993736,36.75
1603018845.8111,79.0,767.0,279.0,437.99999999993736,36.75
1603018845.813,79.0,767.0,274.0,437.99999999993736,36.75
1603018845.815,79.0,767.0,269.0,437.99999999993736,36.75
1603018845.8169,79.0,767.0,286.0,437.99999999993736,36.75
1603018845.819,79.0,767.0,301.0,437.99999999993736,36.75
1603018845.821,79.0,767.0,296.0,437.99999999993736,36.75
1603018845.823,79.0,767.0,289.0,437.99999999993736,36.75
1603018845.825,79.0,767.0,277.0,437.99999999993736,36.75
1603018845.827,79.0,767.0,262.0,437.99999999993736,36.75
1603018845.829,79.0,767.0,277.0,437.99999999993736,36.75
1603018845.831,79.0,767.0,296.0,437.99999999993736,36.75
1603018845.833,79.0,767.0,298.0,437.99999999993736,36.75
1603018845.835,79.0,767.0,298.0,437.99999999993736,36.75
1603018845.837,79.0,767.0,293.0,437.99999999993736,36.75
1603018845.8392,79.0,767.0,274.0,437.99999999993736,36.75
1603018845.841,79.0,767.0,269.0,437.99999999993736,36.75
1603018845.8429,79.0,767.0,284.0,437.99999999993736,36.75
1603018845.845,79.0,767.0,277.0,437.99999999993736,36.75
1603018845.847,79.0,767.0,262.0,437.99999999993736,36.75
1603018845.849,79.0,767.0,267.0,437.99999999993736,36.75
1603018845.851,79.0,767.0,272.0,437.99999999993736,36.75
1603018845.853,79.0,767.0,262.0,437.99999999993736,36.75
1603018845.855,79.0,767.0,257.0,437.99999999993736,36.75
1603018845.857,79.0,767.0,248.0,437.99999999993736,36.75
1603018845.859,79.0,767.0,233.0,437.99999999993736,36.75
1603018845.861,79.0,767.0,293.0,437.99999999993736,36.75
1603018845.863,79.0,767.0,510.0,437.99999999993736,36.75
1603018845.865,79.0,767.0,698.0,437.99999999993736,36.75
1603018845.867,79.0,767.0,486.0,437.99999999993736,36.75
1603018845.869,79.0,767.0,-16.0,437.99999999993736,36.75
1603018845.871,79.0,767.0,-127.0,437.99999999993736,36.75
1603018845.873,79.0,767.0,190.0,437.99999999993736,36.75
1603018845.875,79.0,767.0,303.0,437.99999999993736,36.75
1603018845.877,79.0,767.0,221.0,437.99999999993736,36.75
1603018845.879,79.0,767.0,255.0,437.99999999993736,36.75
1603018845.881,79.0,767.0,284.0,437.99999999993736,36.75
1603018845.883,79.0,767.0,240.0,437.99999999993736,36.75
1603018845.885,79.0,767.0,250.0,437.99999999993736,36.75
1603018845.887,79.0,767.0,301.0,437.99999999993736,36.75
1603018845.889,79.0,767.0,293.0,437.99999999993736,36.75
1603018845.891,79.0,767.0,267.0,437.99999999993736,36.75
1603018845.893,79.0,767.0,272.0,437.99999999993736,36.75
1603018845.895,79.0,767.0,274.0,437.99999999993736,36.75
1603018845.897,79.0,767.0,267.0,437.99999999993736,36.75
1603018845.899,79.0,767.0,277.0,437.99999999993736,36.75
1603018846.3266,79.0,771.0,291.0,437.99999999993736,36.75
1603018846.3275,79.0,771.0,289.0,437.99999999993736,36.75
1603018846.3299,79.0,771.0,279.0,437.99999999993736,36.75
1603018846.3326,79.0,771.0,274.0,437.99999999993736,36.75
1603018846.3345,79.0,771.0,281.0,437.99999999993736,36.75
1603018846.3366,79.0,771.0,291.0,437.99999999993736,36.75
1603018846.3385,79.0,771.0,284.0,437.99999999993736,36.75
1603018846.3405,79.0,771.0,272.0,437.99999999993736,36.75
1603018846.3425,79.0,771.0,277.0,437.99999999993736,36.75
1603018846.3444,79.0,771.0,291.0,437.99999999993736,36.75
1603018846.3465,79.0,771.0,296.0,437.99999999993736,36.75
1603018846.3485,79.0,771.0,293.0,437.99999999993736,36.75
1603018846.3504,79.0,771.0,298.0,437.99999999993736,36.75
1603018846.3524,79.0,771.0,293.0,437.99999999993736,36.75
1603018846.3545,79.0,771.0,284.0,437.99999999993736,36.75
1603018846.3565,79.0,771.0,298.0,437.99999999993736,36.75
1603018846.3584,79.0,771.0,308.0,437.99999999993736,36.75
1603018846.3605,79.0,771.0,286.0,437.99999999993736,36.75
1603018846.3625,79.0,771.0,269.0,437.99999999993736,36.75
1603018846.3644,79.0,771.0,260.0,437.99999999993736,36.75
1603018846.3667,79.0,771.0,233.0,437.99999999993736,36.75
1603018846.3685,79.0,771.0,207.0,437.99999999993736,36.75
1603018846.3705,79.0,771.0,197.0,437.99999999993736,36.75
1603018846.3724,79.0,771.0,180.0,437.99999999993736,36.75
1603018846.3745,79.0,771.0,161.0,437.99999999993736,36.75
1603018846.3764,79.0,771.0,166.0,437.99999999993736,36.75
1603018846.3784,79.0,771.0,166.0,437.99999999993736,36.75
1603018846.3804,79.0,771.0,158.0,437.99999999993736,36.75
1603018846.3824,79.0,771.0,161.0,437.99999999993736,36.75
1603018846.3845,79.0,771.0,161.0,437.99999999993736,36.75
1603018846.3865,79.0,771.0,149.0,437.99999999993736,36.75
1603018846.3884,79.0,771.0,149.0,437.99999999993736,36.75
1603018846.3904,79.0,771.0,163.0,437.99999999993736,36.75
1603018846.3925,79.0,771.0,171.0,437.99999999993736,36.75
1603018846.3944,79.0,771.0,163.0,437.99999999993736,36.75
1603018846.3965,79.0,771.0,158.0,437.99999999993736,36.75
1603018846.3984,79.0,771.0,163.0,437.99999999993736,36.75
1603018846.4005,79.0,771.0,168.0,437.99999999993736,36.75
1603018846.4025,79.0,771.0,171.0,437.99999999993736,36.75
1603018846.4045,79.0,771.0,173.0,437.99999999993736,36.75
1603018846.4065,79.0,771.0,173.0,437.99999999993736,36.75
1603018846.4085,79.0,771.0,178.0,437.99999999993736,36.75
1603018846.4105,79.0,771.0,183.0,437.99999999993736,36.75
1603018846.4125,79.0,771.0,173.0,437.99999999993736,36.75
1603018846.4144,79.0,771.0,161.0,437.99999999993736,36.75
1603018846.4164,79.0,771.0,163.0,437.99999999993736,36.75
1603018846.4184,79.0,771.0,163.0,437.99999999993736,36.75
1603018846.4204,79.0,771.0,161.0,437.99999999993736,36.75
1603018846.4224,79.0,771.0,175.0,437.99999999993736,36.75
1603018846.4244,79.0,771.0,178.0,437.99999999993736,36.75
1603018846.4265,79.0,771.0,166.0,437.99999999993736,36.75
1603018846.4284,79.0,771.0,168.0,437.99999999993736,36.75
1603018846.4304,79.0,771.0,168.0,437.99999999993736,36.75
1603018846.4324,79.0,771.0,154.0,437.99999999993736,36.75
1603018846.4345,79.0,771.0,163.0,437.99999999993736,36.75
1603018846.4365,79.0,771.0,185.0,437.99999999993736,36.75
1603018846.4384,79.0,771.0,175.0,437.99999999993736,36.75
1603018846.4405,79.0,771.0,156.0,437.99999999993736,36.75
1603018846.4424,79.0,771.0,168.0,437.99999999993736,36.75
1603018846.4445,79.0,771.0,185.0,437.99999999993736,36.75
1603018846.4465,79.0,771.0,173.0,437.99999999993736,36.75
1603018846.4484,79.0,771.0,161.0,437.99999999993736,36.75
1603018846.4505,79.0,771.0,173.0,437.99999999993736,36.75
1603018846.4524,79.0,771.0,192.0,437.99999999993736,36.75
1603018846.4545,79.0,771.0,199.0,437.99999999993736,36.75
1603018846.4565,79.0,771.0,207.0,437.99999999993736,36.75
1603018846.4584,79.0,771.0,197.0,437.99999999993736,36.75
1603018846.4604,79.0,771.0,180.0,437.99999999993736,36.75
1603018846.4624,79.0,771.0,178.0,437.99999999993736,36.75
1603018846.4644,79.0,771.0,171.0,437.99999999993736,36.75
1603018846.4665,79.0,771.0,163.0,437.99999999993736,36.75
1603018846.4686,79.0,771.0,161.0,437.99999999993736,36.75
1603018846.4705,79.0,771.0,166.0,437.99999999993736,36.75
1603018846.896,79.0,769.0,163.0,437.99999999993736,36.75
1603018846.8966,79.0,769.0,158.0,437.99999999993736,36.75
1603018846.899,79.0,769.0,154.0,437.99999999993736,36.75
1603018846.9016,79.0,769.0,158.0,437.99999999993736,36.75
1603018846.9036,79.0,769.0,168.0,437.99999999993736,36.75
1603018846.9057,79.0,769.0,226.0,437.99999999993736,36.75
1603018846.9076,79.0,769.0,411.0,437.99999999993736,36.75
1603018846.9096,79.0,769.0,573.0,437.99999999993736,36.75
1603018846.9117,79.0,769.0,339.0,437.99999999993736,36.75
1603018846.9136,79.0,769.0,-156.0,437.99999999993736,36.75
1603018846.9156,79.0,769.0,-214.0,437.99999999993736,36.75
1603018846.9176,79.0,769.0,110.0,437.99999999993736,36.75
1603018846.9196,79.0,769.0,197.0,437.99999999993736,36.75
1603018846.9216,79.0,769.0,122.0,437.99999999993736,36.75
1603018846.9236,79.0,769.0,158.0,437.99999999993736,36.75
1603018846.9256,79.0,769.0,183.0,437.99999999993736,36.75
1603018846.9276,79.0,769.0,156.0,437.99999999993736,36.75
1603018846.9296,79.0,769.0,171.0,437.99999999993736,36.75
1603018846.9316,79.0,769.0,197.0,437.99999999993736,36.75
1603018846.9336,79.0,769.0,192.0,437.99999999993736,36.75
1603018846.9356,79.0,769.0,185.0,437.99999999993736,36.75
1603018846.9376,79.0,769.0,180.0,437.99999999993736,36.75
1603018846.9396,79.0,769.0,178.0,437.99999999993736,36.75
1603018846.9416,79.0,769.0,190.0,437.99999999993736,36.75
1603018846.9436,79.0,769.0,197.0,437.99999999993736,36.75
1603018846.9456,79.0,769.0,199.0,437.99999999993736,36.75
1603018846.9476,79.0,769.0,214.0,437.99999999993736,36.75
1603018846.9496,79.0,769.0,219.0,437.99999999993736,36.75
1603018846.9516,79.0,769.0,207.0,437.99999999993736,36.75
1603018846.9536,79.0,769.0,214.0,437.99999999993736,36.75
1603018846.9556,79.0,769.0,233.0,437.99999999993736,36.75
1603018846.9576,79.0,769.0,231.0,437.99999999993736,36.75
1603018846.9596,79.0,769.0,226.0,437.99999999993736,36.75
1603018846.9616,79.0,769.0,238.0,437.99999999993736,36.75
1603018846.9636,79.0,769.0,252.0,437.99999999993736,36.75
1603018846.9656,79.0,769.0,252.0,437.99999999993736,36.75
1603018846.9676,79.0,769.0,250.0,437.99999999993736,36.75
1603018846.9696,79.0,769.0,248.0,437.99999999993736,36.75
1603018846.9716,79.0,769.0,248.0,437.99999999993736,36.75
1603018846.9736,79.0,769.0,255.0,437.99999999993736,36.75
1603018846.9756,79.0,769.0,260.0,437.99999999993736,36.75
1603018846.9776,79.0,769.0,252.0,437.99999999993736,36.75
1603018846.9796,79.0,769.0,238.0,437.99999999993736,36.75
1603018846.9816,79.0,769.0,226.0,437.99999999993736,36.75
1603018846.9836,79.0,769.0,204.0,437.99999999993736,36.75
1603018846.9856,79.0,769.0,178.0,437.99999999993736,36.75
1603018846.9876,79.0,769.0,166.0,437.99999999993736,36.75
1603018846.9896,79.0,769.0,151.0,437.99999999993736,36.75
1603018846.9916,79.0,769.0,130.0,437.99999999993736,36.75
1603018846.9937,79.0,769.0,115.0,437.99999999993736,36.75
1603018846.9956,79.0,769.0,115.0,437.99999999993736,36.75
1603018846.9976,79.0,769.0,113.0,437.99999999993736,36.75
1603018846.9996,79.0,769.0,105.0,437.99999999993736,36.75
1603018847.0015,79.0,769.0,108.0,437.99999999993736,36.75
1603018847.0036,79.0,769.0,110.0,437.99999999993736,36.75
1603018847.0056,79.0,769.0,110.0,437.99999999993736,36.75
1603018847.0075,79.0,769.0,115.0,437.99999999993736,36.75
1603018847.0096,79.0,769.0,110.0,437.99999999993736,36.75
1603018847.0116,79.0,769.0,108.0,437.99999999993736,36.75
1603018847.0136,79.0,769.0,115.0,437.99999999993736,36.75
1603018847.0156,79.0,769.0,120.0,437.99999999993736,36.75
1603018847.0176,79.0,769.0,125.0,437.99999999993736,36.75
1603018847.0196,79.0,769.0,120.0,437.99999999993736,36.75
1603018847.0216,79.0,769.0,108.0,437.99999999993736,36.75
1603018847.0236,79.0,769.0,105.0,437.99999999993736,36.75
1603018847.0256,79.0,769.0,110.0,437.99999999993736,36.75
1603018847.0277,79.0,769.0,110.0,437.99999999993736,36.75
1603018847.0296,79.0,769.0,108.0,437.99999999993736,36.75
1603018847.0315,79.0,769.0,110.0,437.99999999993736,36.75
1603018847.0335,79.0,769.0,118.0,437.99999999993736,36.75
1603018847.0357,79.0,769.0,118.0,437.99999999993736,36.75
1603018847.0376,79.0,769.0,118.0,437.99999999993736,36.75
1603018847.0396,79.0,769.0,110.0,437.99999999993736,36.75
1603018847.4661,79.0,769.0,101.0,437.99999999993736,36.75
1603018847.4669,79.0,769.0,103.0,437.99999999993736,36.75
1603018847.4694,79.0,769.0,122.0,437.99999999993736,36.75
1603018847.4721,79.0,769.0,139.0,437.99999999993736,36.75
1603018847.474,79.0,769.0,130.0,437.99999999993736,36.75
1603018847.476,79.0,769.0,108.0,437.99999999993736,36.75
1603018847.4779,79.0,769.0,105.0,437.99999999993736,36.75
1603018847.4799,79.0,769.0,122.0,437.99999999993736,36.75
1603018847.4821,79.0,769.0,127.0,437.99999999993736,36.75
1603018847.484,79.0,769.0,110.0,437.99999999993736,36.75
1603018847.4859,79.0,769.0,91.0,437.99999999993736,36.75
1603018847.4879,79.0,769.0,98.0,437.99999999993736,36.75
1603018847.4899,79.0,769.0,108.0,437.99999999993736,36.75
1603018847.4919,79.0,769.0,98.0,437.99999999993736,36.75
1603018847.494,79.0,769.0,98.0,437.99999999993736,36.75
1603018847.4959,79.0,769.0,118.0,437.99999999993736,36.75
1603018847.4979,79.0,769.0,132.0,437.99999999993736,36.75
1603018847.4999,79.0,769.0,146.0,437.99999999993736,36.75
1603018847.5019,79.0,769.0,149.0,437.99999999993736,36.75
1603018847.5026,79.0,769.0,132.0,437.99999999993736,36.75
1603018847.5039,79.0,769.0,132.0,437.99999999993736,36.75
1603018847.5059,79.0,769.0,134.0,437.99999999993736,36.75
1603018847.5079,79.0,769.0,118.0,437.99999999993736,36.75
1603018847.5099,79.0,769.0,105.0,437.99999999993736,36.75
1603018847.5119,79.0,769.0,115.0,437.99999999993736,36.75
1603018847.5139,79.0,769.0,115.0,437.99999999993736,36.75
1603018847.5159,79.0,769.0,113.0,437.99999999993736,36.75
1603018847.518,79.0,769.0,130.0,437.99999999993736,36.75
1603018847.5199,79.0,769.0,142.0,437.99999999993736,36.75
1603018847.5219,79.0,769.0,130.0,437.99999999993736,36.75
1603018847.5239,79.0,769.0,130.0,437.99999999993736,36.75
1603018847.5259,79.0,769.0,252.0,437.99999999993736,36.75
1603018847.5279,79.0,769.0,484.0,437.99999999993736,36.75
1603018847.5299,79.0,769.0,484.0,437.99999999993736,36.75
1603018847.5319,79.0,769.0,38.0,437.99999999993736,36.75
1603018847.5326,79.0,769.0,-293.0,437.99999999993736,36.75
1603018847.5339,79.0,769.0,-65.0,437.99999999993736,36.75
1603018847.536,79.0,769.0,185.0,437.99999999993736,36.75
1603018847.5379,79.0,769.0,130.0,437.99999999993736,36.75
1603018847.5399,79.0,769.0,103.0,437.99999999993736,36.75
1603018847.5419,79.0,769.0,161.0,437.99999999993736,36.75
1603018847.5439,79.0,769.0,149.0,437.99999999993736,36.75
1603018847.5459,79.0,769.0,137.0,437.99999999993736,36.75
1603018847.5479,79.0,769.0,171.0,437.99999999993736,36.75
1603018847.5499,79.0,769.0,173.0,437.99999999993736,36.75
1603018847.5519,79.0,769.0,149.0,437.99999999993736,36.75
1603018847.5539,79.0,769.0,146.0,437.99999999993736,36.75
1603018847.5559,79.0,769.0,158.0,437.99999999993736,36.75
1603018847.5579,79.0,769.0,158.0,437.99999999993736,36.75
1603018847.5599,79.0,769.0,158.0,437.99999999993736,36.75
1603018847.5606,79.0,769.0,171.0,437.99999999993736,36.75
1603018847.5619,79.0,769.0,173.0,437.99999999993736,36.75
1603018847.5639,79.0,769.0,161.0,437.99999999993736,36.75
1603018847.5659,79.0,769.0,171.0,437.99999999993736,36.75
1603018847.5679,79.0,769.0,199.0,437.99999999993736,36.75
1603018847.5699,79.0,769.0,209.0,437.99999999993736,36.75
1603018847.5719,79.0,769.0,195.0,437.99999999993736,36.75
1603018847.5739,79.0,769.0,190.0,437.99999999993736,36.75
1603018847.5759,79.0,769.0,199.0,437.99999999993736,36.75
1603018847.5779,79.0,769.0,209.0,437.99999999993736,36.75
1603018847.5799,79.0,769.0,219.0,437.99999999993736,36.75
1603018847.5819,79.0,769.0,228.0,437.99999999993736,36.75
1603018847.5839,79.0,769.0,228.0,437.99999999993736,36.75
1603018847.5859,79.0,769.0,231.0,437.99999999993736,36.75
1603018847.5879,79.0,769.0,224.0,437.99999999993736,36.75
1603018847.5899,79.0,769.0,209.0,437.99999999993736,36.75
1603018847.5906,79.0,769.0,199.0,437.99999999993736,36.75
1603018847.5919,79.0,769.0,202.0,437.99999999993736,36.75
1603018847.5939,79.0,769.0,197.0,437.99999999993736,36.75
1603018847.5959,79.0,769.0,178.0,437.99999999993736,36.75
1603018847.5979,79.0,769.0,154.0,437.99999999993736,36.75
1603018847.5999,79.0,769.0,130.0,437.99999999993736,36.75
1603018847.6019,79.0,769.0,118.0,437.99999999993736,36.75
1603018848.0057,79.0,774.0,113.0,437.99999999993736,36.75
1603018848.0063,79.0,774.0,105.0,437.99999999993736,36.75
1603018848.0087,79.0,774.0,96.0,437.99999999993736,36.75
1603018848.0113,79.0,774.0,86.0,437.99999999993736,36.75
1603018848.0133,79.0,774.0,77.0,437.99999999993736,36.75
1603018848.0156,79.0,774.0,72.0,437.99999999993736,36.75
1603018848.0174,79.0,774.0,69.0,437.99999999993736,36.75
1603018848.018,79.0,774.0,74.0,437.99999999993736,36.75
1603018848.0203,79.0,774.0,86.0,437.99999999993736,36.75
1603018848.0224,79.0,774.0,81.0,437.99999999993736,36.75
1603018848.0243,79.0,774.0,65.0,437.99999999993736,36.75
1603018848.0263,79.0,774.0,60.0,437.99999999993736,36.75
1603018848.0283,79.0,774.0,60.0,437.99999999993736,36.75
1603018848.0303,79.0,774.0,57.0,437.99999999993736,36.75
1603018848.0323,79.0,774.0,67.0,437.99999999993736,36.75
1603018848.0343,79.0,774.0,79.0,437.99999999993736,36.75
1603018848.0363,79.0,774.0,81.0,437.99999999993736,36.75
1603018848.0383,79.0,774.0,84.0,437.99999999993736,36.75
1603018848.0403,79.0,774.0,89.0,437.99999999993736,36.75
1603018848.0423,79.0,774.0,89.0,437.99999999993736,36.75
1603018848.0443,79.0,774.0,89.0,437.99999999993736,36.75
1603018848.0463,79.0,774.0,91.0,437.99999999993736,36.75
1603018848.0483,79.0,774.0,89.0,437.99999999993736,36.75
1603018848.049,79.0,774.0,89.0,437.99999999993736,36.75
1603018848.0503,79.0,774.0,91.0,437.99999999993736,36.75
1603018848.0523,79.0,774.0,84.0,437.99999999993736,36.75
1603018848.0543,79.0,774.0,81.0,437.99999999993736,36.75
1603018848.0563,79.0,774.0,81.0,437.99999999993736,36.75
1603018848.0583,79.0,774.0,79.0,437.99999999993736,36.75
1603018848.0603,79.0,774.0,91.0,437.99999999993736,36.75
1603018848.0623,79.0,774.0,105.0,437.99999999993736,36.75
1603018848.0643,79.0,774.0,98.0,437.99999999993736,36.75
1603018848.0663,79.0,774.0,89.0,437.99999999993736,36.75
1603018848.0683,79.0,774.0,86.0,437.99999999993736,36.75
1603018848.0703,79.0,774.0,89.0,437.99999999993736,36.75
1603018848.0723,79.0,774.0,93.0,437.99999999993736,36.75
1603018848.0743,79.0,774.0,103.0,437.99999999993736,36.75
1603018848.0763,79.0,774.0,105.0,437.99999999993736,36.75
1603018848.0783,79.0,774.0,96.0,437.99999999993736,36.75
1603018848.079,79.0,774.0,91.0,437.99999999993736,36.75
1603018848.0803,79.0,774.0,98.0,437.99999999993736,36.75
1603018848.0823,79.0,774.0,115.0,437.99999999993736,36.75
1603018848.0843,79.0,774.0,118.0,437.99999999993736,36.75
1603018848.0863,79.0,774.0,115.0,437.99999999993736,36.75
1603018848.0883,79.0,774.0,122.0,437.99999999993736,36.75
1603018848.0903,79.0,774.0,122.0,437.99999999993736,36.75
1603018848.0923,79.0,774.0,118.0,437.99999999993736,36.75
1603018848.0943,79.0,774.0,110.0,437.99999999993736,36.75
1603018848.0963,79.0,774.0,98.0,437.99999999993736,36.75
1603018848.0983,79.0,774.0,86.0,437.99999999993736,36.75
1603018848.1003,79.0,774.0,84.0,437.99999999993736,36.75
1603018848.1023,79.0,774.0,86.0,437.99999999993736,36.75
1603018848.1043,79.0,774.0,86.0,437.99999999993736,36.75
1603018848.1063,79.0,774.0,96.0,437.99999999993736,36.75
1603018848.1083,79.0,774.0,98.0,437.99999999993736,36.75
1603018848.109,79.0,774.0,86.0,437.99999999993736,36.75
1603018848.1104,79.0,774.0,142.0,437.99999999993736,36.75
1603018848.1123,79.0,774.0,346.0,437.99999999993736,36.75
1603018848.1143,79.0,774.0,525.0,437.99999999993736,36.75
1603018848.1163,79.0,774.0,293.0,437.99999999993736,36.75
1603018848.1183,79.0,774.0,-211.0,437.99999999993736,36.75
1603018848.1203,79.0,774.0,-281.0,437.99999999993736,36.75
1603018848.1223,79.0,774.0,57.0,437.99999999993736,36.75
1603018848.1243,79.0,774.0,154.0,437.99999999993736,36.75
1603018848.1263,79.0,774.0,65.0,437.99999999993736,36.75
1603018848.1283,79.0,774.0,110.0,437.99999999993736,36.75
1603018848.1303,79.0,774.0,151.0,437.99999999993736,36.75
1603018848.1323,79.0,774.0,118.0,437.99999999993736,36.75
1603018848.1343,79.0,774.0,122.0,437.99999999993736,36.75
1603018848.1363,79.0,774.0,149.0,437.99999999993736,36.75
1603018848.1383,79.0,774.0,142.0,437.99999999993736,36.75
1603018848.139,79.0,774.0,127.0,437.99999999993736,36.75
1603018848.1403,79.0,774.0,130.0,437.99999999993736,36.75
1603018848.5463,79.0,774.0,137.0,437.99999999993736,36.75
1603018848.5472,79.0,774.0,139.0,437.99999999993736,36.75
1603018848.5496,79.0,774.0,139.0,437.99999999993736,36.75
1603018848.5522,79.0,774.0,151.0,437.99999999993736,36.75
1603018848.5542,79.0,774.0,161.0,437.99999999993736,36.75
1603018848.5562,79.0,774.0,154.0,437.99999999993736,36.75
1603018848.5582,79.0,774.0,146.0,437.99999999993736,36.75
1603018848.5602,79.0,774.0,154.0,437.99999999993736,36.75
1603018848.5622,79.0,774.0,166.0,437.99999999993736,36.75
1603018848.5642,79.0,774.0,175.0,437.99999999993736,36.75
1603018848.5662,79.0,774.0,180.0,437.99999999993736,36.75
1603018848.5681,79.0,774.0,187.0,437.99999999993736,36.75
1603018848.5701,79.0,774.0,197.0,437.99999999993736,36.75
1603018848.5708,79.0,774.0,202.0,437.99999999993736,36.75
1603018848.5731,79.0,774.0,204.0,437.99999999993736,36.75
1603018848.5752,79.0,774.0,202.0,437.99999999993736,36.75
1603018848.5772,79.0,774.0,192.0,437.99999999993736,36.75
1603018848.5792,79.0,774.0,192.0,437.99999999993736,36.75
1603018848.5811,79.0,774.0,197.0,437.99999999993736,36.75
1603018848.5831,79.0,774.0,183.0,437.99999999993736,36.75
1603018848.5852,79.0,774.0,166.0,437.99999999993736,36.75
1603018848.5871,79.0,774.0,173.0,437.99999999993736,36.75
1603018848.5891,79.0,774.0,175.0,437.99999999993736,36.75
1603018848.5911,79.0,774.0,146.0,437.98586946066985,36.75
1603018848.5931,79.0,774.0,125.0,437.9731808131643,36.75
1603018848.5952,79.0,774.0,113.0,437.9619049282942,36.75
1603018848.5971,79.0,774.0,93.0,437.9520126769331,36.75
1603018848.5991,79.0,774.0,79.0,437.9434749299546,36.75
1603018848.5998,79.0,774.0,72.0,437.936262558232,36.75
1603018848.6011,79.0,774.0,65.0,437.9303464326389,36.75
1603018848.6031,79.0,774.0,52.0,437.9256974240486,36.75
1603018848.6052,79.0,774.0,45.0,437.92228640333497,36.75
1603018848.6071,79.0,774.0,50.0,437.9200842413712,36.75
1603018848.6091,79.0,774.0,52.0,437.91906180903084,36.75
1603018848.6113,79.0,774.0,50.0,437.91918997718744,36.75
1603018848.6131,79.0,774.0,48.0,437.9204396167146,36.75
1603018848.6151,79.0,774.0,57.0,437.9227815984856,36.75
1603018848.6171,79.0,774.0,67.0,437.926186793374,36.75
1603018848.6191,79.0,774.0,65.0,437.9306260722533,36.75
1603018848.6211,79.0,774.0,62.0,437.9360703059971,36.75
1603018848.6231,79.0,774.0,67.0,437.94249036547876,36.75
1603018848.6251,79.0,774.0,65.0,437.94985712157177,36.75
1603018848.6271,79.0,774.0,69.0,437.95814144514986,36.75
1603018848.6291,79.0,774.0,79.0,437.96731420708625,36.75
1603018848.6298,79.0,774.0,79.0,437.97734627825446,36.75
1603018848.6311,79.0,774.0,72.0,437.98820852952815,36.75
1603018848.6331,79.0,774.0,72.0,437.99987183178075,36.75
1603018848.6352,79.0,774.0,79.0,438.0123070558857,36.75
1603018848.6371,79.0,774.0,81.0,438.0254850727165,36.75
1603018848.6391,79.0,774.0,72.0,438.0393767531466,36.75
1603018848.6411,79.0,774.0,55.0,438.05395296804966,36.75
1603018848.6432,79.0,774.0,40.0,438.0691845882991,36.75
1603018848.6452,79.0,774.0,45.0,438.08504248476834,36.75
1603018848.6471,79.0,774.0,89.0,438.1014975283309,36.75
1603018848.6491,79.0,774.0,113.0,438.1185205898604,36.75
1603018848.6511,79.0,774.0,93.0,438.1360825402302,36.75
1603018848.6531,79.0,774.0,84.0,438.1541542503138,36.75
1603018848.6552,79.0,774.0,103.0,438.1727065909847,36.75
1603018848.6571,79.0,774.0,105.0,438.19171043311655,36.75
1603018848.6591,79.0,774.0,89.0,438.21113664758263,36.75
1603018848.6598,79.0,774.0,86.0,438.2309561052566,36.75
1603018848.6612,79.0,774.0,84.0,438.2511396770118,36.75
1603018848.6631,79.0,774.0,74.0,438.27165823372184,36.75
1603018848.6652,79.0,774.0,69.0,438.29248264626017,36.75
1603018848.6671,79.0,774.0,77.0,438.3135837855003,36.75
1603018848.6691,79.0,774.0,74.0,438.33493252231574,36.75
1603018848.6711,79.0,774.0,74.0,438.35649972757994,36.75
1603018848.6731,79.0,774.0,86.0,438.3782562721665,36.75
1603018848.6752,79.0,774.0,98.0,438.40017302694866,36.75
1603018848.6771,79.0,774.0,103.0,438.42222086280026,36.75
1603018848.6791,79.0,774.0,98.0,438.4443706505946,36.75
1603018848.6812,79.0,774.0,96.0,438.46659326120516,36.75
1603018848.6831,79.0,774.0,101.0,438.48885956550544,36.75
1603018849.116,79.0,771.0,108.0,438.511140434369,36.75
1603018849.1167,79.0,771.0,110.0,438.5334067386693,36.75
1603018849.1191,79.0,771.0,110.0,438.55562934927985,36.75
1603018849.1217,79.0,771.0,98.0,438.5777791370742,36.75
1603018849.1238,79.0,771.0,74.0,438.5998269729257,36.75
1603018849.1258,79.0,771.0,60.0,438.621743727708,36.75
1603018849.1278,79.0,771.0,74.0,438.6435002722945,36.75
1603018849.1297,79.0,771.0,108.0,438.6650674775587,36.75
1603018849.1317,79.0,771.0,207.0,438.6864162143741,36.75
1603018849.1337,79.0,771.0,419.0,438.7075173536142,36.75
1603018849.1357,79.0,771.0,479.0,438.72834176615254,36.75
1603018849.1377,79.0,771.0,67.0,438.7488603228626,36.75
1603018849.1399,79.0,771.0,-337.0,438.7690438946178,36.75
1603018849.1417,79.0,771.0,-149.0,438.78886335229174,36.75
1603018849.1438,79.0,771.0,149.0,438.8082895667579,36.75
1603018849.1457,79.0,771.0,79.0,438.82729340888966,36.75
1603018849.1477,79.0,771.0,0.0,438.8458457495606,36.75
1603018849.1496,79.0,771.0,89.0,438.86391745964426,36.75
1603018849.1516,79.0,771.0,132.0,438.88147941001404,36.75
1603018849.1536,79.0,771.0,108.0,438.89850247154345,36.75
1603018849.1557,79.0,771.0,115.0,438.9149575151061,36.75
1603018849.1577,79.0,771.0,120.0,438.93081541157534,36.75
1603018849.1596,79.0,771.0,103.0,438.9460470318247,36.75
1603018849.1616,79.0,771.0,98.0,438.9606232467278,36.75
1603018849.1636,79.0,771.0,113.0,438.97451492715794,36.75
1603018849.1657,79.0,771.0,130.0,438.98769294398875,36.75
1603018849.1676,79.0,771.0,134.0,439.0001281680937,36.75
1603018849.1696,79.0,771.0,130.0,439.0117914703462,36.75
1603018849.1716,79.0,771.0,118.0,439.0226537216199,36.75
1603018849.1736,79.0,771.0,120.0,439.0326857927882,36.75
1603018849.1757,79.0,771.0,142.0,439.04185855472457,36.75
1603018849.1776,79.0,771.0,144.0,439.05014287830255,36.75
1603018849.1796,79.0,771.0,139.0,439.0575096343957,36.75
1603018849.1816,79.0,771.0,156.0,439.0639296938773,36.75
1603018849.1836,79.0,771.0,158.0,439.0693739276211,36.75
1603018849.1857,79.0,771.0,146.0,439.0738132065004,36.75
1603018849.1877,79.0,771.0,163.0,439.07721840138885,36.75
1603018849.1896,79.0,771.0,180.0,439.07956038315984,36.75
1603018849.1916,79.0,771.0,180.0,439.08081002268693,36.75
1603018849.1937,79.0,771.0,185.0,439.08093819084354,36.75
1603018849.1957,79.0,771.0,173.0,439.0799157585032,36.75
1603018849.1977,79.0,771.0,154.0,439.0777135965394,36.75
1603018849.1997,79.0,771.0,171.0,439.0743025758257,36.75
1603018849.2016,79.0,771.0,183.0,439.06965356723555,36.75
1603018849.2036,79.0,771.0,156.0,439.0637374416424,36.75
1603018849.2057,79.0,771.0,146.0,439.0565250699198,36.75
1603018849.2076,79.0,771.0,163.0,439.0479873229412,36.75
1603018849.2096,79.0,771.0,146.0,439.03809507158013,36.75
1603018849.2117,79.0,771.0,115.0,439.0268191867101,36.75
1603018849.2137,79.0,771.0,115.0,439.0141305392046,36.75
1603018849.2157,79.0,771.0,103.0,438.9999999999371,36.75
1603018849.2176,79.0,771.0,62.0,438.9999999999371,36.75
1603018849.2198,79.0,771.0,43.0,438.9999999999371,36.75
1603018849.2217,79.0,771.0,33.0,438.9999999999371,36.75
1603018849.2236,79.0,771.0,24.0,438.9999999999371,36.75
1603018849.2257,79.0,771.0,36.0,438.9999999999371,36.75
1603018849.2276,79.0,771.0,36.0,438.9999999999371,36.75
1603018849.2296,79.0,771.0,24.0,438.9999999999371,36.75
1603018849.2316,79.0,771.0,48.0,438.9999999999371,36.75
1603018849.2336,79.0,771.0,67.0,438.9999999999371,36.75
1603018849.2357,79.0,771.0,55.0,438.9999999999371,36.75
1603018849.2376,79.0,771.0,55.0,438.9999999999371,36.75
1603018849.2397,79.0,771.0,62.0,438.9999999999371,36.75
1603018849.2418,79.0,771.0,36.0,438.9999999999371,36.75
1603018849.2437,79.0,771.0,-2.0,438.9999999999371,36.75
1603018849.2457,79.0,771.0,7.0,438.9999999999371,36.75
1603018849.2477,79.0,771.0,79.0,438.9999999999371,36.75
1603018849.2496,79.0,771.0,156.0,438.9999999999371,36.75
1603018849.2516,79.0,771.0,166.0,438.9999999999371,36.75
1603018849.2536,79.0,771.0,125.0,438.9999999999371,36.75
1603018849.2557,79.0,771.0,105.0,438.9999999999371,36.75
1603018849.2577,79.0,771.0,86.0,438.9999999999371,36.75
1603018849.2596,79.0,771.0,65.0,438.9999999999371,36.75
1603018849.7164,79.0,771.0,84.0,438.9999999999371,36.75
1603018849.7172,79.0,771.0,98.0,438.9999999999371,36.75
1603018849.7197,79.0,771.0,57.0,438.9999999999371,36.75
1603018849.7223,79.0,771.0,21.0,438.9999999999371,36.75
1603018849.7243,79.0,771.0,38.0,438.9999999999371,36.75
1603018849.7264,79.0,771.0,77.0,438.9999999999371,36.75
1603018849.7283,79.0,771.0,89.0,438.9999999999371,36.75
1603018849.7303,79.0,771.0,98.0,438.9999999999371,36.75
1603018849.7323,79.0,771.0,118.0,438.9999999999371,36.75
1603018849.7343,79.0,771.0,103.0,438.9999999999371,36.75
1603018849.7364,79.0,771.0,57.0,438.9999999999371,36.75
1603018849.7383,79.0,771.0,31.0,438.9999999999371,36.75
1603018849.7403,79.0,771.0,19.0,438.9999999999371,36.75
1603018849.7424,79.0,771.0,16.0,438.9999999999371,36.75
1603018849.7443,79.0,771.0,40.0,438.9999999999371,36.75
1603018849.7464,79.0,771.0,72.0,438.9999999999371,36.75
1603018849.7483,79.0,771.0,110.0,438.9999999999371,36.75
1603018849.7503,79.0,771.0,142.0,438.9999999999371,36.75
1603018849.7523,79.0,771.0,130.0,438.9999999999371,36.75
1603018849.7543,79.0,771.0,108.0,438.9999999999371,36.75
1603018849.7563,79.0,771.0,101.0,438.9999999999371,36.75
1603018849.7582,79.0,771.0,91.0,438.9999999999371,36.75
1603018849.7602,79.0,771.0,57.0,438.9999999999371,36.75
1603018849.7622,79.0,771.0,45.0,438.9999999999371,36.75
1603018849.7643,79.0,771.0,93.0,438.9999999999371,36.75
1603018849.7662,79.0,771.0,115.0,438.9999999999371,36.75
1603018849.7682,79.0,771.0,86.0,438.9999999999371,36.75
1603018849.7702,79.0,771.0,103.0,438.9999999999371,36.75
1603018849.7722,79.0,771.0,132.0,438.9999999999371,36.75
1603018849.7742,79.0,771.0,103.0,438.9999999999371,36.75
1603018849.7762,79.0,771.0,84.0,438.9999999999371,36.75
1603018849.7782,79.0,771.0,79.0,438.9999999999371,36.75
1603018849.7803,79.0,771.0,108.0,438.9999999999371,36.75
1603018849.7822,79.0,771.0,303.0,438.9999999999371,36.75
1603018849.7842,79.0,771.0,505.0,438.9999999999371,36.75
1603018849.7863,79.0,771.0,286.0,438.9999999999371,36.75
1603018849.7882,79.0,771.0,-175.0,438.9999999999371,36.75
1603018849.7902,79.0,771.0,-202.0,438.9999999999371,36.75
1603018849.7922,79.0,771.0,81.0,438.9999999999371,36.75
1603018849.7942,79.0,771.0,93.0,438.9999999999371,36.75
1603018849.7962,79.0,771.0,-2.0,438.9999999999371,36.75
1603018849.7984,79.0,771.0,79.0,438.9999999999371,36.75
1603018849.8003,79.0,771.0,166.0,438.9999999999371,36.75
1603018849.8022,79.0,771.0,139.0,438.9999999999371,36.75
1603018849.8042,79.0,771.0,122.0,438.9999999999371,36.75
1603018849.8063,79.0,771.0,122.0,438.9999999999371,36.75
1603018849.8082,79.0,771.0,93.0,438.9999999999371,36.75
1603018849.8102,79.0,771.0,89.0,438.9999999999371,36.75
1603018849.8122,79.0,771.0,166.0,438.9999999999371,36.75
1603018849.8142,79.0,771.0,211.0,438.9999999999371,36.75
1603018849.8163,79.0,771.0,158.0,438.9999999999371,36.75
1603018849.8182,79.0,771.0,115.0,438.9999999999371,36.75
1603018849.8202,79.0,771.0,125.0,438.9999999999371,36.75
1603018849.8222,79.0,771.0,125.0,438.9999999999371,36.75
1603018849.8242,79.0,771.0,127.0,438.9999999999371,36.75
1603018849.8263,79.0,771.0,158.0,438.9999999999371,36.75
1603018849.8282,79.0,771.0,171.0,438.9999999999371,36.75
1603018849.8302,79.0,771.0,139.0,438.9999999999371,36.75
1603018849.8322,79.0,771.0,113.0,438.9999999999371,36.75
1603018849.8342,79.0,771.0,144.0,438.9999999999371,36.75
1603018849.8362,79.0,771.0,207.0,438.9999999999371,36.75
1603018849.8383,79.0,771.0,245.0,438.9999999999371,36.75
1603018849.8402,79.0,771.0,250.0,438.9999999999371,36.75
1603018849.8422,79.0,771.0,233.0,438.9999999999371,36.75
1603018849.8442,79.0,771.0,199.0,438.9999999999371,36.75
1603018849.8462,79.0,771.0,171.0,438.9999999999371,36.75
1603018849.8482,79.0,771.0,168.0,438.9999999999371,36.75
1603018849.8502,79.0,771.0,192.0,438.9999999999371,36.75
1603018849.8522,79.0,771.0,216.0,438.9999999999371,36.75
1603018849.8542,79.0,771.0,199.0,438.9999999999371,36.75
1603018849.8563,79.0,771.0,151.0,438.9999999999371,36.75
1603018849.8583,79.0,771.0,103.0,438.9999999999371,36.75
1603018849.8603,79.0,771.0,105.0,438.9999999999371,36.75
1603018850.2562,79.0,775.0,149.0,438.9999999999371,36.75
1603018850.2573,79.0,775.0,146.0,438.9999999999371,36.75
1603018850.2598,79.0,775.0,89.0,438.9999999999371,36.75
1603018850.2624,79.0,775.0,52.0,438.9999999999371,36.75
1603018850.2644,79.0,775.0,52.0,438.9999999999371,36.75
1603018850.2664,79.0,775.0,62.0,438.9999999999371,36.75
1603018850.2685,79.0,775.0,57.0,438.9999999999371,36.75
1603018850.2704,79.0,775.0,45.0,438.9999999999371,36.75
1603018850.2724,79.0,775.0,48.0,438.9999999999371,36.75
1603018850.2744,79.0,775.0,79.0,438.9999999999371,36.75
1603018850.2764,79.0,775.0,108.0,438.9999999999371,36.75
1603018850.2784,79.0,775.0,89.0,438.9999999999371,36.75
1603018850.2804,79.0,775.0,60.0,438.9999999999371,36.75
1603018850.2824,79.0,775.0,33.0,438.9999999999371,36.75
1603018850.2844,79.0,775.0,2.0,438.9999999999371,36.75
1603018850.2864,79.0,775.0,24.0,438.9999999999371,36.75
1603018850.2883,79.0,775.0,84.0,438.9999999999371,36.75
1603018850.2903,79.0,775.0,74.0,438.9999999999371,36.75
1603018850.2923,79.0,775.0,36.0,438.9999999999371,36.75
1603018850.2946,79.0,775.0,77.0,438.9999999999371,36.75
1603018850.2964,79.0,775.0,120.0,438.9999999999371,36.75
1603018850.2984,79.0,775.0,84.0,438.9999999999371,36.75
1603018850.3003,79.0,775.0,55.0,438.9999999999371,36.75
1603018850.3023,79.0,775.0,84.0,438.98586946066956,36.75
1603018850.3043,79.0,775.0,113.0,438.97318081316405,36.75
1603018850.3063,79.0,775.0,103.0,438.961904928294,36.75
1603018850.3083,79.0,775.0,65.0,438.95201267693295,36.75
1603018850.3103,79.0,775.0,33.0,438.94347492995433,36.75
1603018850.3124,79.0,775.0,14.0,438.93626255823176,36.75
1603018850.3143,79.0,775.0,28.0,438.9303464326386,36.75
1603018850.3163,79.0,775.0,60.0,438.92569742404845,36.75
1603018850.3183,79.0,775.0,57.0,438.92228640333474,36.75
1603018850.3203,79.0,775.0,74.0,438.92008424137094,36.75
1603018850.3223,79.0,775.0,139.0,438.9190618090306,36.75
1603018850.3243,79.0,775.0,130.0,438.9191899771873,36.75
1603018850.3263,79.0,775.0,55.0,438.9204396167143,36.75
1603018850.3283,79.0,775.0,62.0,438.9227815984853,36.75
1603018850.3303,79.0,775.0,110.0,438.9261867933737,36.75
1603018850.3323,79.0,775.0,93.0,438.93062607225306,36.75
1603018850.3344,79.0,775.0,67.0,438.9360703059968,36.75
1603018850.3363,79.0,775.0,74.0,438.9424903654785,36.75
1603018850.3383,79.0,775.0,86.0,438.9498571215716,36.75
1603018850.3403,79.0,775.0,77.0,438.9581414451496,36.75
1603018850.3424,79.0,775.0,57.0,438.96731420708596,36.75
1603018850.3443,79.0,775.0,93.0,438.97734627825423,36.75
1603018850.3463,79.0,775.0,144.0,438.9882085295279,36.75
1603018850.3483,79.0,775.0,127.0,438.99987183178047,36.75
1603018850.3503,79.0,775.0,91.0,439.0123070558854,36.75
1603018850.3523,79.0,775.0,84.0,439.0254850727162,36.75
1603018850.3543,79.0,775.0,72.0,439.03937675314637,36.75
1603018850.3563,79.0,775.0,65.0,439.05395296804943,36.75
1603018850.3583,79.0,775.0,115.0,439.0691845882988,36.75
1603018850.3603,79.0,775.0,154.0,439.0850424847681,36.75
1603018850.3623,79.0,775.0,103.0,439.1014975283307,36.75
1603018850.3643,79.0,775.0,67.0,439.11852058986017,36.75
1603018850.3663,79.0,775.0,86.0,439.13608254022995,36.75
1603018850.3683,79.0,775.0,108.0,439.1541542503135,36.75
1603018850.3703,79.0,775.0,171.0,439.1727065909845,36.75
1603018850.3723,79.0,775.0,325.0,439.19171043311627,36.75
1603018850.3743,79.0,775.0,462.0,439.21113664758235,36.75
1603018850.3763,79.0,775.0,298.0,439.23095610525627,36.75
1603018850.3783,79.0,775.0,-108.0,439.2511396770115,36.75
1603018850.3803,79.0,775.0,-209.0,439.27165823372155,36.75
1603018850.3823,79.0,775.0,28.0,439.2924826462599,36.75
1603018850.3843,79.0,775.0,105.0,439.31358378550004,36.75
1603018850.3863,79.0,775.0,72.0,439.33493252231546,36.75
1603018850.3883,79.0,775.0,142.0,439.3564997275797,36.75
1603018850.3903,79.0,775.0,142.0,439.37825627216625,36.75
1603018850.3924,79.0,775.0,55.0,439.4001730269485,36.75
1603018850.3943,79.0,775.0,55.0,439.42222086280003,36.75
1603018850.3964,79.0,775.0,118.0,439.44437065059435,36.75
1603018850.3983,79.0,775.0,139.0,439.46659326120493,36.75
1603018850.4003,79.0,775.0,134.0,439.48885956550527,36.75
1603018850.8263,79.0,768.0,139.0,439.5111404343689,36.75
1603018850.8271,79.0,768.0,161.0,439.5334067386692,36.75
1603018850.8295,79.0,768.0,175.0,439.5556293492798,36.75
1603018850.8322,79.0,768.0,156.0,439.5777791370741,36.75
1603018850.8342,79.0,768.0,113.0,439.59982697292565,36.75
1603018850.8362,79.0,768.0,89.0,439.6217437277079,36.75
1603018850.8382,79.0,768.0,89.0,439.6435002722944,36.75
1603018850.8401,79.0,768.0,151.0,439.6650674775586,36.75
1603018850.8421,79.0,768.0,209.0,439.68641621437405,36.75
1603018850.8441,79.0,768.0,161.0,439.7075173536142,36.75
1603018850.8462,79.0,768.0,110.0,439.7283417661526,36.75
1603018850.8481,79.0,768.0,132.0,439.7488603228626,36.75
1603018850.8501,79.0,768.0,127.0,439.7690438946178,36.75
1603018850.8521,79.0,768.0,125.0,439.78886335229174,36.75
1603018850.8541,79.0,768.0,214.0,439.8082895667578,36.75
1603018850.8562,79.0,768.0,272.0,439.8272934088896,36.75
1603018850.8581,79.0,768.0,211.0,439.84584574956057,36.75
1603018850.8601,79.0,768.0,146.0,439.8639174596442,36.75
1603018850.8621,79.0,768.0,137.0,439.881479410014,36.75
1603018850.8641,79.0,768.0,154.0,439.89850247154345,36.75
1603018850.8661,79.0,768.0,173.0,439.91495751510604,36.75
1603018850.8681,79.0,768.0,171.0,439.9308154115753,36.75
1603018850.8701,79.0,768.0,168.0,439.9460470318247,36.75
1603018850.8721,79.0,768.0,192.0,439.9606232467277,36.75
1603018850.8741,79.0,768.0,192.0,439.9745149271579,36.75
1603018850.8761,79.0,768.0,134.0,439.9876929439887,36.75
1603018850.8781,79.0,768.0,67.0,440.0001281680936,36.75
1603018850.8801,79.0,768.0,40.0,440.0117914703462,36.75
1603018850.8821,79.0,768.0,28.0,440.02265372161986,36.75
1603018850.8841,79.0,768.0,-7.0,440.03268579278813,36.75
1603018850.8861,79.0,768.0,-50.0,440.04185855472457,36.75
1603018850.8881,79.0,768.0,-31.0,440.05014287830255,36.75
1603018850.8901,79.0,768.0,74.0,440.0575096343956,36.75
1603018850.8921,79.0,768.0,130.0,440.0639296938773,36.75
1603018850.8941,79.0,768.0,89.0,440.06937392762103,36.75
1603018850.8961,79.0,768.0,57.0,440.0738132065004,36.75
1603018850.8981,79.0,768.0,52.0,440.0772184013888,36.75
1603018850.9001,79.0,768.0,19.0,440.0795603831598,36.75
1603018850.9021,79.0,768.0,21.0,440.0808100226869,36.75
1603018850.9041,79.0,768.0,103.0,440.0809381908435,36.75
1603018850.9061,79.0,768.0,132.0,440.07991575850315,36.75
1603018850.9081,79.0,768.0,69.0,440.0777135965394,36.75
1603018850.9101,79.0,768.0,28.0,440.07430257582564,36.75
1603018850.9121,79.0,768.0,45.0,440.0696535672355,36.75
1603018850.9141,79.0,768.0,81.0,440.06373744164233,36.75
1603018850.9161,79.0,768.0,105.0,440.05652506991976,36.75
1603018850.9181,79.0,768.0,108.0,440.04798732294114,36.75
1603018850.9201,79.0,768.0,77.0,440.03809507158013,36.75
1603018850.9222,79.0,768.0,19.0,440.02681918671004,36.75
1603018850.9241,79.0,768.0,12.0,440.01413053920453,36.75
1603018850.9261,79.0,768.0,72.0,439.999999999937,36.75
1603018850.928,79.0,768.0,105.0,439.999999999937,36.75
1603018850.9301,79.0,768.0,103.0,439.999999999937,36.75
1603018850.932,79.0,768.0,105.0,439.999999999937,36.75
1603018850.9341,79.0,768.0,84.0,439.999999999937,36.75
1603018850.9362,79.0,768.0,65.0,439.999999999937,36.75
1603018850.9381,79.0,768.0,86.0,439.999999999937,36.75
1603018850.9401,79.0,768.0,98.0,439.999999999937,36.75
1603018850.9421,79.0,768.0,62.0,439.999999999937,36.75
1603018850.9441,79.0,768.0,33.0,439.999999999937,36.75
1603018850.9461,79.0,768.0,33.0,439.999999999937,36.75
1603018850.9481,79.0,768.0,55.0,439.999999999937,36.75
1603018850.9501,79.0,768.0,84.0,439.999999999937,36.75
1603018850.9521,79.0,768.0,77.0,439.999999999937,36.75
1603018850.954,79.0,768.0,60.0,439.999999999937,36.75
1603018850.9561,79.0,768.0,77.0,439.999999999937,36.75
1603018850.9581,79.0,768.0,86.0,439.999999999937,36.75
1603018850.9601,79.0,768.0,86.0,439.999999999937,36.75
1603018850.9621,79.0,768.0,115.0,439.999999999937,36.75
1603018850.9641,79.0,768.0,146.0,439.999999999937,36.75
1603018850.9661,79.0,768.0,134.0,439.999999999937,36.75
1603018850.9681,79.0,768.0,86.0,439.999999999937,36.75
1603018850.9701,79.0,768.0,33.0,439.999999999937,36.75
1603018851.3659,79.0,768.0,-40.0,439.999999999937,36.75
1603018851.3665,79.0,768.0,-45.0,439.999999999937,36.75
1603018851.369,79.0,768.0,98.0,439.999999999937,36.75
1603018851.3716,79.0,768.0,199.0,439.999999999937,36.75
1603018851.3736,79.0,768.0,163.0,439.999999999937,36.75
1603018851.3756,79.0,768.0,108.0,439.999999999937,36.75
1603018851.3777,79.0,768.0,96.0,439.999999999937,36.75
1603018851.3796,79.0,768.0,103.0,439.999999999937,36.75
1603018851.3817,79.0,768.0,98.0,439.999999999937,36.75
1603018851.3836,79.0,768.0,89.0,439.999999999937,36.75
1603018851.3856,79.0,768.0,199.0,439.999999999937,36.75
1603018851.3876,79.0,768.0,445.0,439.999999999937,36.75
1603018851.3896,79.0,768.0,431.0,439.999999999937,36.75
1603018851.3916,79.0,768.0,-45.0,439.999999999937,36.75
1603018851.3936,79.0,768.0,-361.0,439.999999999937,36.75
1603018851.3956,79.0,768.0,-110.0,439.999999999937,36.75
1603018851.3975,79.0,768.0,110.0,439.999999999937,36.75
1603018851.3996,79.0,768.0,33.0,439.999999999937,36.75
1603018851.4016,79.0,768.0,21.0,439.999999999937,36.75
1603018851.4035,79.0,768.0,101.0,439.999999999937,36.75
1603018851.4056,79.0,768.0,103.0,439.999999999937,36.75
1603018851.4075,79.0,768.0,72.0,439.999999999937,36.75
1603018851.4095,79.0,768.0,91.0,439.999999999937,36.75
1603018851.4115,79.0,768.0,144.0,439.999999999937,36.75
1603018851.4136,79.0,768.0,158.0,439.999999999937,36.75
1603018851.4156,79.0,768.0,105.0,439.999999999937,36.75
1603018851.4177,79.0,768.0,67.0,439.999999999937,36.75
1603018851.4196,79.0,768.0,84.0,439.999999999937,36.75
1603018851.4215,79.0,768.0,125.0,439.999999999937,36.75
1603018851.4235,79.0,768.0,154.0,439.999999999937,36.75
1603018851.4256,79.0,768.0,118.0,439.999999999937,36.75
1603018851.4275,79.0,768.0,101.0,439.999999999937,36.75
1603018851.4295,79.0,768.0,180.0,439.999999999937,36.75
1603018851.4316,79.0,768.0,211.0,439.999999999937,36.75
1603018851.4335,79.0,768.0,154.0,439.999999999937,36.75
1603018851.4356,79.0,768.0,130.0,439.999999999937,36.75
1603018851.4375,79.0,768.0,154.0,439.999999999937,36.75
1603018851.4395,79.0,768.0,187.0,439.999999999937,36.75
1603018851.4415,79.0,768.0,202.0,439.999999999937,36.75
1603018851.4435,79.0,768.0,195.0,439.999999999937,36.75
1603018851.4456,79.0,768.0,185.0,439.999999999937,36.75
1603018851.4476,79.0,768.0,187.0,439.999999999937,36.75
1603018851.4496,79.0,768.0,190.0,439.999999999937,36.75
1603018851.4515,79.0,768.0,185.0,439.999999999937,36.75
1603018851.4536,79.0,768.0,192.0,439.999999999937,36.75
1603018851.4556,79.0,768.0,197.0,439.999999999937,36.75
1603018851.4575,79.0,768.0,175.0,439.999999999937,36.75
1603018851.4595,79.0,768.0,146.0,439.999999999937,36.75
1603018851.4616,79.0,768.0,134.0,439.999999999937,36.75
1603018851.4635,79.0,768.0,139.0,439.999999999937,36.75
1603018851.4656,79.0,768.0,134.0,439.999999999937,36.75
1603018851.4675,79.0,768.0,103.0,439.999999999937,36.75
1603018851.4695,79.0,768.0,62.0,439.999999999937,36.75
1603018851.4715,79.0,768.0,28.0,439.999999999937,36.75
1603018851.4735,79.0,768.0,26.0,439.999999999937,36.75
1603018851.4756,79.0,768.0,45.0,439.999999999937,36.75
1603018851.4776,79.0,768.0,38.0,439.999999999937,36.75
1603018851.4795,79.0,768.0,24.0,439.999999999937,36.75
1603018851.4816,79.0,768.0,45.0,439.999999999937,36.75
1603018851.4835,79.0,768.0,72.0,439.999999999937,36.75
1603018851.4856,79.0,768.0,77.0,439.999999999937,36.75
1603018851.4876,79.0,768.0,55.0,439.999999999937,36.75
1603018851.4895,79.0,768.0,33.0,439.999999999937,36.75
1603018851.4915,79.0,768.0,26.0,439.999999999937,36.75
1603018851.4935,79.0,768.0,40.0,439.999999999937,36.75
1603018851.4956,79.0,768.0,84.0,439.999999999937,36.75
1603018851.4976,79.0,768.0,101.0,439.999999999937,36.75
1603018851.4995,79.0,768.0,55.0,439.999999999937,36.75
1603018851.5015,79.0,768.0,21.0,439.999999999937,36.75
1603018851.5035,79.0,768.0,36.0,439.999999999937,36.75
1603018851.5056,79.0,768.0,67.0,439.999999999937,36.75
1603018851.5075,79.0,768.0,79.0,439.999999999937,36.75
1603018851.5095,79.0,768.0,93.0,439.999999999937,36.75
1603018851.9359,79.0,767.0,93.0,439.999999999937,36.75
1603018851.9367,79.0,767.0,48.0,439.999999999937,36.75
1603018851.9392,79.0,767.0,24.0,439.999999999937,36.75
1603018851.9418,79.0,767.0,45.0,439.999999999937,36.75
1603018851.9441,79.0,767.0,60.0,439.999999999937,36.75
1603018851.9458,79.0,767.0,55.0,439.999999999937,36.75
1603018851.9479,79.0,767.0,57.0,439.999999999937,36.75
1603018851.9498,79.0,767.0,74.0,439.999999999937,36.75
1603018851.9518,79.0,767.0,84.0,439.999999999937,36.75
1603018851.9537,79.0,767.0,52.0,439.999999999937,36.75
1603018851.9558,79.0,767.0,28.0,439.999999999937,36.75
1603018851.9577,79.0,767.0,60.0,439.999999999937,36.75
1603018851.9598,79.0,767.0,84.0,439.999999999937,36.75
1603018851.9617,79.0,767.0,52.0,439.999999999937,36.75
1603018851.9637,79.0,767.0,26.0,439.999999999937,36.75
1603018851.9658,79.0,767.0,31.0,439.999999999937,36.75
1603018851.9677,79.0,767.0,40.0,439.999999999937,36.75
1603018851.9698,79.0,767.0,60.0,439.999999999937,36.75
1603018851.9717,79.0,767.0,79.0,439.999999999937,36.75
1603018851.9737,79.0,767.0,86.0,439.999999999937,36.75
1603018851.9757,79.0,767.0,105.0,439.999999999937,36.75
1603018851.9777,79.0,767.0,125.0,439.999999999937,36.75
1603018851.9797,79.0,767.0,130.0,439.999999999937,36.75
1603018851.9817,79.0,767.0,125.0,439.999999999937,36.75
1603018851.9838,79.0,767.0,108.0,439.999999999937,36.75
1603018851.9858,79.0,767.0,69.0,439.999999999937,36.75
1603018851.9877,79.0,767.0,52.0,439.999999999937,36.75
1603018851.9897,79.0,767.0,62.0,439.999999999937,36.75
1603018851.9918,79.0,767.0,72.0,439.999999999937,36.75
1603018851.9937,79.0,767.0,69.0,439.999999999937,36.75
1603018851.9958,79.0,767.0,52.0,439.999999999937,36.75
1603018851.9977,79.0,767.0,50.0,439.999999999937,36.75
1603018851.9997,79.0,767.0,84.0,439.999999999937,36.75
1603018852.0017,79.0,767.0,137.0,439.999999999937,36.75
1603018852.0037,79.0,767.0,267.0,439.999999999937,36.75
1603018852.0057,79.0,767.0,481.0,439.999999999937,36.75
1603018852.0077,79.0,767.0,450.0,439.999999999937,36.75
1603018852.0097,79.0,767.0,-19.0,439.999999999937,36.75
1603018852.0117,79.0,767.0,-317.0,439.999999999937,36.75
1603018852.0137,79.0,767.0,-69.0,439.999999999937,36.75
1603018852.0157,79.0,767.0,118.0,439.999999999937,36.75
1603018852.0177,79.0,767.0,12.0,439.999999999937,36.75
1603018852.0197,79.0,767.0,16.0,439.999999999937,36.75
1603018852.0217,79.0,767.0,142.0,439.999999999937,36.75
1603018852.0237,79.0,767.0,175.0,439.999999999937,36.75
1603018852.0257,79.0,767.0,132.0,439.999999999937,36.75
1603018852.0277,79.0,767.0,101.0,439.999999999937,36.75
1603018852.0297,79.0,767.0,96.0,439.999999999937,36.75
1603018852.0317,79.0,767.0,108.0,439.999999999937,36.75
1603018852.0337,79.0,767.0,120.0,439.999999999937,36.75
1603018852.0357,79.0,767.0,120.0,439.999999999937,36.75
1603018852.0377,79.0,767.0,130.0,439.999999999937,36.75
1603018852.0397,79.0,767.0,142.0,439.999999999937,36.75
1603018852.0417,79.0,767.0,127.0,439.999999999937,36.75
1603018852.0437,79.0,767.0,110.0,439.999999999937,36.75
1603018852.0459,79.0,767.0,101.0,439.999999999937,36.75
1603018852.0477,79.0,767.0,113.0,439.999999999937,36.75
1603018852.0497,79.0,767.0,158.0,439.999999999937,36.75
1603018852.0517,79.0,767.0,183.0,439.999999999937,36.75
1603018852.0538,79.0,767.0,192.0,439.999999999937,36.75
1603018852.0558,79.0,767.0,183.0,439.999999999937,36.75
1603018852.0577,79.0,767.0,122.0,439.999999999937,36.75
1603018852.0597,79.0,767.0,137.0,439.999999999937,36.75
1603018852.0617,79.0,767.0,243.0,439.999999999937,36.75
1603018852.0637,79.0,767.0,255.0,439.999999999937,36.75
1603018852.0658,79.0,767.0,185.0,439.999999999937,36.75
1603018852.0677,79.0,767.0,195.0,439.999999999937,36.75
1603018852.0697,79.0,767.0,250.0,439.999999999937,36.75
1603018852.0717,79.0,767.0,192.0,439.999999999937,36.75
1603018852.0738,79.0,767.0,113.0,439.999999999937,36.75
1603018852.0758,79.0,767.0,139.0,439.999999999937,36.75
1603018852.0777,79.0,767.0,175.0,439.999999999937,36.75
1603018852.0798,79.0,767.0,142.0,439.999999999937,36.75
1603018852.4756,79.0,767.0,81.0,439.999999999937,36.75
1603018852.4762,79.0,767.0,57.0,439.999999999937,36.75
1603018852.4786,79.0,767.0,101.0,439.999999999937,36.75
1603018852.4813,79.0,767.0,134.0,439.999999999937,36.75
1603018852.4833,79.0,767.0,110.0,439.999999999937,36.75
1603018852.4853,79.0,767.0,89.0,439.999999999937,36.75
1603018852.4873,79.0,767.0,74.0,439.999999999937,36.75
1603018852.4893,79.0,767.0,57.0,439.999999999937,36.75
1603018852.4913,79.0,767.0,57.0,439.999999999937,36.75
1603018852.4933,79.0,767.0,48.0,439.999999999937,36.75
1603018852.4954,79.0,767.0,-26.0,439.999999999937,36.75
1603018852.4972,79.0,767.0,-81.0,439.999999999937,36.75
1603018852.4994,79.0,767.0,-16.0,439.999999999937,36.75
1603018852.5012,79.0,767.0,38.0,439.999999999937,36.75
1603018852.5032,79.0,767.0,0.0,439.999999999937,36.75
1603018852.5053,79.0,767.0,2.0,439.999999999937,36.75
1603018852.5072,79.0,767.0,69.0,439.999999999937,36.75
1603018852.5092,79.0,767.0,105.0,439.999999999937,36.75
1603018852.5112,79.0,767.0,91.0,439.999999999937,36.75
1603018852.5132,79.0,767.0,105.0,439.999999999937,36.75
1603018852.5152,79.0,767.0,132.0,439.999999999937,36.75
1603018852.5172,79.0,767.0,72.0,439.999999999937,36.75
1603018852.5192,79.0,767.0,-4.0,439.999999999937,36.75
1603018852.5212,79.0,767.0,4.0,439.999999999937,36.75
1603018852.5232,79.0,767.0,36.0,439.999999999937,36.75
1603018852.5253,79.0,767.0,9.0,439.999999999937,36.75
1603018852.5272,79.0,767.0,14.0,439.999999999937,36.75
1603018852.5292,79.0,767.0,81.0,439.999999999937,36.75
1603018852.5312,79.0,767.0,118.0,439.999999999937,36.75
1603018852.5332,79.0,767.0,122.0,439.999999999937,36.75
1603018852.5353,79.0,767.0,113.0,439.999999999937,36.75
1603018852.5372,79.0,767.0,45.0,439.999999999937,36.75
1603018852.5393,79.0,767.0,7.0,439.999999999937,36.75
1603018852.5414,79.0,767.0,69.0,439.999999999937,36.75
1603018852.5433,79.0,767.0,144.0,439.999999999937,36.75
1603018852.5453,79.0,767.0,158.0,439.999999999937,36.75
1603018852.5472,79.0,767.0,132.0,439.999999999937,36.75
1603018852.5492,79.0,767.0,98.0,439.999999999937,36.75
1603018852.5512,79.0,767.0,77.0,439.999999999937,36.75
1603018852.5532,79.0,767.0,55.0,439.999999999937,36.75
1603018852.5553,79.0,767.0,50.0,439.999999999937,36.75
1603018852.5572,79.0,767.0,79.0,439.999999999937,36.75
1603018852.5592,79.0,767.0,113.0,439.999999999937,36.75
1603018852.5613,79.0,767.0,72.0,439.999999999937,36.75
1603018852.5632,79.0,767.0,-12.0,439.999999999937,36.75
1603018852.5652,79.0,767.0,16.0,439.999999999937,36.75
1603018852.5672,79.0,767.0,144.0,439.999999999937,36.75
1603018852.5692,79.0,767.0,180.0,439.999999999937,36.75
1603018852.5712,79.0,767.0,122.0,439.999999999937,36.75
1603018852.5732,79.0,767.0,101.0,439.999999999937,36.75
1603018852.5753,79.0,767.0,89.0,439.999999999937,36.75
1603018852.5772,79.0,767.0,40.0,439.999999999937,36.75
1603018852.5792,79.0,767.0,43.0,439.999999999937,36.75
1603018852.5812,79.0,767.0,113.0,439.999999999937,36.75
1603018852.5832,79.0,767.0,125.0,439.999999999937,36.75
1603018852.5853,79.0,767.0,62.0,439.999999999937,36.75
1603018852.5872,79.0,767.0,62.0,439.999999999937,36.75
1603018852.5892,79.0,767.0,175.0,439.999999999937,36.75
1603018852.5912,79.0,767.0,361.0,439.999999999937,36.75
1603018852.5932,79.0,767.0,472.0,439.999999999937,36.75
1603018852.5953,79.0,767.0,207.0,439.999999999937,36.75
1603018852.5972,79.0,767.0,-236.0,439.999999999937,36.75
1603018852.5992,79.0,767.0,-192.0,439.999999999937,36.75
1603018852.6012,79.0,767.0,151.0,439.999999999937,36.75
1603018852.6032,79.0,767.0,161.0,439.999999999937,36.75
1603018852.6052,79.0,767.0,38.0,439.999999999937,36.75
1603018852.6072,79.0,767.0,77.0,439.999999999937,36.75
1603018852.6092,79.0,767.0,86.0,439.999999999937,36.75
1603018852.6113,79.0,767.0,21.0,439.999999999937,36.75
1603018852.6132,79.0,767.0,28.0,439.999999999937,36.75
1603018852.6152,79.0,767.0,55.0,439.999999999937,36.75
1603018852.6172,79.0,767.0,65.0,439.999999999937,36.75
1603018852.6192,79.0,767.0,122.0,439.999999999937,36.75
1603018853.0764,79.0,772.0,161.0,439.999999999937,36.75
1603018853.0772,79.0,772.0,139.0,439.999999999937,36.75
1603018853.0797,79.0,772.0,130.0,439.999999999937,36.75
1603018853.0823,79.0,772.0,144.0,439.999999999937,36.75
1603018853.0843,79.0,772.0,127.0,439.999999999937,36.75
1603018853.0863,79.0,772.0,115.0,439.999999999937,36.75
1603018853.0882,79.0,772.0,158.0,439.999999999937,36.75
1603018853.0902,79.0,772.0,180.0,439.999999999937,36.75
1603018853.0922,79.0,772.0,151.0,439.999999999937,36.75
1603018853.0942,79.0,772.0,122.0,439.999999999937,36.75
1603018853.0963,79.0,772.0,86.0,439.999999999937,36.75
1603018853.0984,79.0,772.0,62.0,439.999999999937,36.75
1603018853.1003,79.0,772.0,101.0,439.999999999937,36.75
1603018853.1024,79.0,772.0,168.0,439.999999999937,36.75
1603018853.1043,79.0,772.0,180.0,439.999999999937,36.75
1603018853.1063,79.0,772.0,132.0,439.999999999937,36.75
1603018853.1083,79.0,772.0,125.0,439.999999999937,36.75
1603018853.1102,79.0,772.0,154.0,439.999999999937,36.75
1603018853.1122,79.0,772.0,204.0,439.999999999937,36.75
1603018853.1142,79.0,772.0,277.0,439.999999999937,36.75
1603018853.1162,79.0,772.0,260.0,439.999999999937,36.75
1603018853.1182,79.0,772.0,211.0,439.999999999937,36.75
1603018853.1202,79.0,772.0,202.0,439.999999999937,36.75
1603018853.1222,79.0,772.0,168.0,439.999999999937,36.75
1603018853.1242,79.0,772.0,142.0,439.999999999937,36.75
1603018853.1262,79.0,772.0,127.0,439.999999999937,36.75
1603018853.1282,79.0,772.0,67.0,439.999999999937,36.75
1603018853.1302,79.0,772.0,19.0,439.999999999937,36.75
1603018853.1322,79.0,772.0,26.0,439.999999999937,36.75
1603018853.1342,79.0,772.0,31.0,439.999999999937,36.75
1603018853.1362,79.0,772.0,24.0,439.999999999937,36.75
1603018853.1382,79.0,772.0,28.0,439.999999999937,36.75
1603018853.1402,79.0,772.0,24.0,439.999999999937,36.75
1603018853.1422,79.0,772.0,-21.0,439.999999999937,36.75
1603018853.1442,79.0,772.0,-65.0,439.999999999937,36.75
1603018853.1462,79.0,772.0,-33.0,439.999999999937,36.75
1603018853.1482,79.0,772.0,72.0,439.999999999937,36.75
1603018853.1502,79.0,772.0,132.0,439.999999999937,36.75
1603018853.1522,79.0,772.0,101.0,439.999999999937,36.75
1603018853.1542,79.0,772.0,86.0,439.999999999937,36.75
1603018853.1562,79.0,772.0,89.0,439.999999999937,36.75
1603018853.1582,79.0,772.0,43.0,439.999999999937,36.75
1603018853.1602,79.0,772.0,4.0,439.999999999937,36.75
1603018853.1622,79.0,772.0,24.0,439.999999999937,36.75
1603018853.1642,79.0,772.0,31.0,439.999999999937,36.75
1603018853.1662,79.0,772.0,9.0,439.999999999937,36.75
1603018853.1682,79.0,772.0,38.0,439.999999999937,36.75
1603018853.1702,79.0,772.0,103.0,439.999999999937,36.75
1603018853.1722,79.0,772.0,113.0,439.999999999937,36.75
1603018853.1742,79.0,772.0,69.0,439.999999999937,36.75
1603018853.1762,79.0,772.0,60.0,439.999999999937,36.75
1603018853.1782,79.0,772.0,84.0,439.999999999937,36.75
1603018853.1803,79.0,772.0,55.0,439.999999999937,36.75
1603018853.1822,79.0,772.0,2.0,439.999999999937,36.75
1603018853.1842,79.0,772.0,19.0,439.999999999937,36.75
1603018853.1862,79.0,772.0,77.0,439.999999999937,36.75
1603018853.1882,79.0,772.0,89.0,439.999999999937,36.75
1603018853.1902,79.0,772.0,74.0,439.999999999937,36.75
1603018853.1922,79.0,772.0,74.0,439.999999999937,36.75
1603018853.1942,79.0,772.0,52.0,439.999999999937,36.75
1603018853.1962,79.0,772.0,45.0,439.999999999937,36.75
1603018853.1982,79.0,772.0,84.0,439.999999999937,36.75
1603018853.2003,79.0,772.0,79.0,439.999999999937,36.75
1603018853.2022,79.0,772.0,45.0,439.999999999937,36.75
1603018853.2042,79.0,772.0,55.0,439.999999999937,36.75
1603018853.2062,79.0,772.0,81.0,439.999999999937,36.75
1603018853.2082,79.0,772.0,98.0,439.999999999937,36.75
1603018853.2102,79.0,772.0,81.0,439.999999999937,36.75
1603018853.2122,79.0,772.0,55.0,439.999999999937,36.75
1603018853.2142,79.0,772.0,62.0,439.999999999937,36.75
1603018853.2162,79.0,772.0,67.0,439.999999999937,36.75
1603018853.2182,79.0,772.0,60.0,439.999999999937,36.75
1603018853.2202,79.0,772.0,81.0,439.999999999937,36.75
1603018853.6162,79.0,772.0,101.0,439.999999999937,36.75
1603018853.617,79.0,772.0,91.0,439.999999999937,36.75
1603018853.6194,79.0,772.0,93.0,439.999999999937,36.75
1603018853.6221,79.0,772.0,101.0,439.999999999937,36.75
1603018853.6241,79.0,772.0,91.0,439.999999999937,36.75
1603018853.626,79.0,772.0,69.0,439.999999999937,36.75
1603018853.6281,79.0,772.0,33.0,439.999999999937,36.75
1603018853.63,79.0,772.0,40.0,439.999999999937,36.75
1603018853.632,79.0,772.0,67.0,439.999999999937,36.75
1603018853.634,79.0,772.0,57.0,439.999999999937,36.75
1603018853.6361,79.0,772.0,118.0,439.999999999937,36.75
1603018853.638,79.0,772.0,354.0,439.999999999937,36.75
1603018853.6401,79.0,772.0,505.0,439.999999999937,36.75
1603018853.642,79.0,772.0,183.0,439.999999999937,36.75
1603018853.644,79.0,772.0,-267.0,439.999999999937,36.75
1603018853.6461,79.0,772.0,-187.0,439.999999999937,36.75
1603018853.648,79.0,772.0,103.0,439.999999999937,36.75
1603018853.65,79.0,772.0,96.0,439.999999999937,36.75
1603018853.652,79.0,772.0,31.0,439.999999999937,36.75
1603018853.654,79.0,772.0,67.0,439.999999999937,36.75
1603018853.656,79.0,772.0,84.0,439.999999999937,36.75
1603018853.658,79.0,772.0,96.0,439.999999999937,36.75
1603018853.66,79.0,772.0,108.0,439.999999999937,36.75
1603018853.662,79.0,772.0,98.0,440.01413053920453,36.75
1603018853.664,79.0,772.0,96.0,440.02681918671004,36.75
1603018853.666,79.0,772.0,105.0,440.03809507158013,36.75
1603018853.668,79.0,772.0,110.0,440.04798732294114,36.75
1603018853.67,79.0,772.0,103.0,440.05652506991976,36.75
1603018853.672,79.0,772.0,98.0,440.06373744164233,36.75
1603018853.674,79.0,772.0,110.0,440.0696535672355,36.75
1603018853.676,79.0,772.0,130.0,440.07430257582564,36.75
1603018853.678,79.0,772.0,132.0,440.0777135965394,36.75
1603018853.68,79.0,772.0,103.0,440.07991575850315,36.75
1603018853.682,79.0,772.0,103.0,440.0809381908435,36.75
1603018853.684,79.0,772.0,161.0,440.0808100226869,36.75
1603018853.686,79.0,772.0,183.0,440.0795603831598,36.75
1603018853.688,79.0,772.0,161.0,440.0772184013888,36.75
1603018853.69,79.0,772.0,161.0,440.0738132065004,36.75
1603018853.692,79.0,772.0,173.0,440.06937392762103,36.75
1603018853.694,79.0,772.0,180.0,440.0639296938773,36.75
1603018853.6962,79.0,772.0,180.0,440.0575096343956,36.75
1603018853.698,79.0,772.0,180.0,440.05014287830255,36.75
1603018853.7,79.0,772.0,185.0,440.04185855472457,36.75
1603018853.702,79.0,772.0,175.0,440.03268579278813,36.75
1603018853.704,79.0,772.0,175.0,440.02265372161986,36.75
1603018853.706,79.0,772.0,185.0,440.0117914703462,36.75
1603018853.7081,79.0,772.0,173.0,440.0001281680936,36.75
1603018853.71,79.0,772.0,180.0,439.9876929439887,36.75
1603018853.712,79.0,772.0,185.0,439.9745149271579,36.75
1603018853.714,79.0,772.0,137.0,439.9606232467277,36.75
1603018853.7161,79.0,772.0,91.0,439.9460470318247,36.75
1603018853.718,79.0,772.0,86.0,439.9308154115753,36.75
1603018853.72,79.0,772.0,81.0,439.91495751510604,36.75
1603018853.722,79.0,772.0,62.0,439.89850247154345,36.75
1603018853.724,79.0,772.0,50.0,439.881479410014,36.75
1603018853.7261,79.0,772.0,43.0,439.8639174596442,36.75
1603018853.7267,79.0,772.0,33.0,439.84584574956057,36.75
1603018853.7281,79.0,772.0,31.0,439.8272934088896,36.75
1603018853.73,79.0,772.0,31.0,439.8082895667578,36.75
1603018853.732,79.0,772.0,31.0,439.78886335229174,36.75
1603018853.734,79.0,772.0,26.0,439.7690438946178,36.75
1603018853.736,79.0,772.0,36.0,439.7488603228626,36.75
1603018853.738,79.0,772.0,60.0,439.7283417661526,36.75
1603018853.74,79.0,772.0,72.0,439.7075173536142,36.75
1603018853.742,79.0,772.0,62.0,439.68641621437405,36.75
1603018853.744,79.0,772.0,43.0,439.6650674775586,36.75
1603018853.746,79.0,772.0,28.0,439.6435002722944,36.75
1603018853.748,79.0,772.0,52.0,439.6217437277079,36.75
1603018853.75,79.0,772.0,81.0,439.59982697292565,36.75
1603018853.752,79.0,772.0,67.0,439.5777791370741,36.75
1603018853.754,79.0,772.0,55.0,439.5556293492798,36.75
1603018853.7561,79.0,772.0,65.0,439.5334067386692,36.75
1603018853.7567,79.0,772.0,77.0,439.5111404343689,36.75
1603018854.1862,79.0,763.0,74.0,439.48885956550527,36.75
1603018854.1871,79.0,763.0,62.0,439.46659326120493,36.75
1603018854.1895,79.0,763.0,62.0,439.44437065059435,36.75
1603018854.1921,79.0,763.0,65.0,439.42222086280003,36.75
1603018854.1943,79.0,763.0,62.0,439.4001730269485,36.75
1603018854.1962,79.0,763.0,60.0,439.37825627216625,36.75
1603018854.1981,79.0,763.0,55.0,439.3564997275797,36.75
1603018854.2001,79.0,763.0,43.0,439.33493252231546,36.75
1603018854.2021,79.0,763.0,38.0,439.31358378550004,36.75
1603018854.2041,79.0,763.0,45.0,439.2924826462599,36.75
1603018854.2061,79.0,763.0,50.0,439.27165823372155,36.75
1603018854.2081,79.0,763.0,48.0,439.2511396770115,36.75
1603018854.2088,79.0,763.0,45.0,439.23095610525627,36.75
1603018854.21,79.0,763.0,43.0,439.21113664758235,36.75
1603018854.2121,79.0,763.0,50.0,439.19171043311627,36.75
1603018854.214,79.0,763.0,60.0,439.1727065909845,36.75
1603018854.216,79.0,763.0,62.0,439.1541542503135,36.75
1603018854.218,79.0,763.0,60.0,439.13608254022995,36.75
1603018854.2202,79.0,763.0,38.0,439.11852058986017,36.75
1603018854.2221,79.0,763.0,2.0,439.1014975283307,36.75
1603018854.2241,79.0,763.0,38.0,439.0850424847681,36.75
1603018854.2261,79.0,763.0,134.0,439.0691845882988,36.75
1603018854.2281,79.0,763.0,151.0,439.05395296804943,36.75
1603018854.23,79.0,763.0,108.0,439.03937675314637,36.75
1603018854.232,79.0,763.0,93.0,439.0254850727162,36.75
1603018854.234,79.0,763.0,84.0,439.0123070558854,36.75
1603018854.2361,79.0,763.0,72.0,438.99987183178047,36.75
1603018854.2381,79.0,763.0,86.0,438.9882085295279,36.75
1603018854.2387,79.0,763.0,91.0,438.97734627825423,36.75
1603018854.2401,79.0,763.0,74.0,438.96731420708596,36.75
1603018854.2421,79.0,763.0,67.0,438.9581414451496,36.75
1603018854.2441,79.0,763.0,67.0,438.9498571215716,36.75
1603018854.2461,79.0,763.0,72.0,438.9424903654785,36.75
1603018854.2481,79.0,763.0,77.0,438.9360703059968,36.75
1603018854.2501,79.0,763.0,69.0,438.93062607225306,36.75
1603018854.2521,79.0,763.0,60.0,438.9261867933737,36.75
1603018854.2541,79.0,763.0,43.0,438.9227815984853,36.75
1603018854.2561,79.0,763.0,79.0,438.9204396167143,36.75
1603018854.2581,79.0,763.0,279.0,438.9191899771873,36.75
1603018854.2601,79.0,763.0,467.0,438.9190618090306,36.75
1603018854.2621,79.0,763.0,228.0,438.92008424137094,36.75
1603018854.264,79.0,763.0,-252.0,438.92228640333474,36.75
1603018854.2661,79.0,763.0,-262.0,438.92569742404845,36.75
1603018854.2681,79.0,763.0,86.0,438.9303464326386,36.75
1603018854.2687,79.0,763.0,154.0,438.93626255823176,36.75
1603018854.27,79.0,763.0,60.0,438.94347492995433,36.75
1603018854.2721,79.0,763.0,93.0,438.95201267693295,36.75
1603018854.274,79.0,763.0,118.0,438.961904928294,36.75
1603018854.2761,79.0,763.0,86.0,438.97318081316405,36.75
1603018854.2781,79.0,763.0,91.0,438.98586946066956,36.75
1603018854.2801,79.0,763.0,103.0,438.9999999999371,36.75
1603018854.2821,79.0,763.0,91.0,438.9999999999371,36.75
1603018854.284,79.0,763.0,98.0,438.9999999999371,36.75
1603018854.2861,79.0,763.0,115.0,438.9999999999371,36.75
1603018854.288,79.0,763.0,108.0,438.9999999999371,36.75
1603018854.2901,79.0,763.0,98.0,438.9999999999371,36.75
1603018854.2921,79.0,763.0,103.0,438.9999999999371,36.75
1603018854.2941,79.0,763.0,110.0,438.9999999999371,36.75
1603018854.2961,79.0,763.0,127.0,438.9999999999371,36.75
1603018854.2981,79.0,763.0,158.0,438.9999999999371,36.75
1603018854.2987,79.0,763.0,171.0,438.9999999999371,36.75
1603018854.3001,79.0,763.0,156.0,438.9999999999371,36.75
1603018854.3021,79.0,763.0,149.0,438.9999999999371,36.75
1603018854.3041,79.0,763.0,154.0,438.9999999999371,36.75
1603018854.3061,79.0,763.0,156.0,438.9999999999371,36.75
1603018854.3081,79.0,763.0,166.0,438.9999999999371,36.75
1603018854.3101,79.0,763.0,183.0,438.9999999999371,36.75
1603018854.312,79.0,763.0,195.0,438.9999999999371,36.75
1603018854.314,79.0,763.0,199.0,438.9999999999371,36.75
1603018854.3162,79.0,763.0,197.0,438.9999999999371,36.75
1603018854.3181,79.0,763.0,197.0,438.9999999999371,36.75
1603018854.3201,79.0,763.0,197.0,438.9999999999371,36.75
1603018854.322,79.0,763.0,192.0,438.9999999999371,36.75
1603018854.7263,79.0,763.0,183.0,438.9999999999371,36.75
1603018854.7275,79.0,763.0,171.0,438.9999999999371,36.75
1603018854.7292,79.0,763.0,158.0,438.9999999999371,36.75
1603018854.7316,79.0,763.0,142.0,438.9999999999371,36.75
1603018854.7335,79.0,763.0,115.0,438.9999999999371,36.75
1603018854.7356,79.0,763.0,84.0,438.9999999999371,36.75
1603018854.7375,79.0,763.0,60.0,438.9999999999371,36.75
1603018854.7396,79.0,763.0,43.0,438.9999999999371,36.75
1603018854.7415,79.0,763.0,19.0,438.9999999999371,36.75
1603018854.7435,79.0,763.0,7.0,438.9999999999371,36.75
1603018854.7456,79.0,763.0,33.0,438.9999999999371,36.75
1603018854.7475,79.0,763.0,60.0,438.9999999999371,36.75
1603018854.7495,79.0,763.0,43.0,438.9999999999371,36.75
1603018854.7515,79.0,763.0,21.0,438.9999999999371,36.75
1603018854.7535,79.0,763.0,21.0,438.9999999999371,36.75
1603018854.7555,79.0,763.0,21.0,438.9999999999371,36.75
1603018854.7574,79.0,763.0,19.0,438.9999999999371,36.75
1603018854.7595,79.0,763.0,24.0,438.9999999999371,36.75
1603018854.7601,79.0,763.0,26.0,438.9999999999371,36.75
1603018854.7614,79.0,763.0,24.0,438.9999999999371,36.75
1603018854.7635,79.0,763.0,26.0,438.9999999999371,36.75
1603018854.7655,79.0,763.0,33.0,438.9999999999371,36.75
1603018854.7675,79.0,763.0,43.0,438.9999999999371,36.75
1603018854.7694,79.0,763.0,48.0,438.9999999999371,36.75
1603018854.7715,79.0,763.0,48.0,438.9999999999371,36.75
1603018854.7735,79.0,763.0,40.0,438.9999999999371,36.75
1603018854.7755,79.0,763.0,43.0,438.9999999999371,36.75
1603018854.7775,79.0,763.0,52.0,438.9999999999371,36.75
1603018854.7795,79.0,763.0,52.0,438.9999999999371,36.75
1603018854.7815,79.0,763.0,45.0,438.9999999999371,36.75
1603018854.7835,79.0,763.0,50.0,438.9999999999371,36.75
1603018854.7855,79.0,763.0,52.0,438.9999999999371,36.75
1603018854.7874,79.0,763.0,50.0,438.9999999999371,36.75
1603018854.7895,79.0,763.0,48.0,438.9999999999371,36.75
1603018854.7901,79.0,763.0,50.0,438.9999999999371,36.75
1603018854.7915,79.0,763.0,50.0,438.9999999999371,36.75
1603018854.7934,79.0,763.0,52.0,438.9999999999371,36.75
1603018854.7955,79.0,763.0,57.0,438.9999999999371,36.75
1603018854.7975,79.0,763.0,60.0,438.9999999999371,36.75
1603018854.7995,79.0,763.0,50.0,438.9999999999371,36.75
1603018854.8015,79.0,763.0,38.0,438.9999999999371,36.75
1603018854.8034,79.0,763.0,38.0,438.9999999999371,36.75
1603018854.8055,79.0,763.0,43.0,438.9999999999371,36.75
1603018854.8075,79.0,763.0,57.0,438.9999999999371,36.75
1603018854.8095,79.0,763.0,67.0,438.9999999999371,36.75
1603018854.8114,79.0,763.0,67.0,438.9999999999371,36.75
1603018854.8135,79.0,763.0,79.0,438.9999999999371,36.75
1603018854.8156,79.0,763.0,98.0,438.9999999999371,36.75
1603018854.8175,79.0,763.0,101.0,438.9999999999371,36.75
1603018854.8194,79.0,763.0,96.0,438.9999999999371,36.75
1603018854.8201,79.0,763.0,93.0,438.9999999999371,36.75
1603018854.8214,79.0,763.0,86.0,438.9999999999371,36.75
1603018854.8235,79.0,763.0,77.0,438.9999999999371,36.75
1603018854.8255,79.0,763.0,74.0,438.9999999999371,36.75
1603018854.8274,79.0,763.0,67.0,438.9999999999371,36.75
1603018854.8295,79.0,763.0,62.0,438.9999999999371,36.75
1603018854.8314,79.0,763.0,69.0,438.9999999999371,36.75
1603018854.8334,79.0,763.0,74.0,438.9999999999371,36.75
1603018854.8355,79.0,763.0,74.0,438.9999999999371,36.75
1603018854.8375,79.0,763.0,79.0,438.9999999999371,36.75
1603018854.8395,79.0,763.0,79.0,438.9999999999371,36.75
1603018854.8414,79.0,763.0,67.0,438.9999999999371,36.75
1603018854.8434,79.0,763.0,137.0,438.9999999999371,36.75
1603018854.8455,79.0,763.0,366.0,438.9999999999371,36.75
1603018854.8474,79.0,763.0,501.0,438.9999999999371,36.75
1603018854.8494,79.0,763.0,178.0,438.9999999999371,36.75
1603018854.8501,79.0,763.0,-293.0,438.9999999999371,36.75
1603018854.8515,79.0,763.0,-224.0,438.9999999999371,36.75
1603018854.8535,79.0,763.0,110.0,438.9999999999371,36.75
1603018854.8555,79.0,763.0,115.0,438.9999999999371,36.75
1603018854.8575,79.0,763.0,38.0,438.9999999999371,36.75
1603018854.8595,79.0,763.0,105.0,438.9999999999371,36.75
1603018854.8615,79.0,763.0,120.0,438.9999999999371,36.75
1603018855.2961,79.0,759.0,84.0,438.9999999999371,36.75
1603018855.2969,79.0,759.0,93.0,438.9999999999371,36.75
1603018855.2993,79.0,759.0,98.0,438.9999999999371,36.75
1603018855.302,79.0,759.0,98.0,438.9999999999371,36.75
1603018855.304,79.0,759.0,110.0,438.9999999999371,36.75
1603018855.3059,79.0,759.0,98.0,438.9999999999371,36.75
1603018855.3081,79.0,759.0,84.0,438.9999999999371,36.75
1603018855.3086,79.0,759.0,105.0,438.9999999999371,36.75
1603018855.3099,79.0,759.0,125.0,438.9999999999371,36.75
1603018855.312,79.0,759.0,122.0,438.9999999999371,36.75
1603018855.314,79.0,759.0,110.0,438.9999999999371,36.75
1603018855.3159,79.0,759.0,108.0,438.9999999999371,36.75
1603018855.3179,79.0,759.0,120.0,438.9999999999371,36.75
1603018855.3199,79.0,759.0,144.0,438.9999999999371,36.75
1603018855.3219,79.0,759.0,161.0,438.9999999999371,36.75
1603018855.3239,79.0,759.0,158.0,438.9999999999371,36.75
1603018855.3259,79.0,759.0,146.0,438.9999999999371,36.75
1603018855.3278,79.0,759.0,146.0,438.9999999999371,36.75
1603018855.3299,79.0,759.0,158.0,438.9999999999371,36.75
1603018855.3319,79.0,759.0,171.0,438.9999999999371,36.75
1603018855.3339,79.0,759.0,183.0,438.9999999999371,36.75
1603018855.3359,79.0,759.0,192.0,438.9999999999371,36.75
1603018855.3379,79.0,759.0,183.0,438.9999999999371,36.75
1603018855.3386,79.0,759.0,168.0,438.9999999999371,36.75
1603018855.3399,79.0,759.0,166.0,438.9999999999371,36.75
1603018855.3421,79.0,759.0,171.0,438.9999999999371,36.75
1603018855.344,79.0,759.0,166.0,438.9999999999371,36.75
1603018855.3459,79.0,759.0,151.0,438.9999999999371,36.75
1603018855.3479,79.0,759.0,132.0,438.9999999999371,36.75
1603018855.3499,79.0,759.0,108.0,438.9999999999371,36.75
1603018855.3519,79.0,759.0,81.0,438.9999999999371,36.75
1603018855.3539,79.0,759.0,62.0,438.9999999999371,36.75
1603018855.3559,79.0,759.0,45.0,438.9999999999371,36.75
1603018855.3579,79.0,759.0,43.0,438.9999999999371,36.75
1603018855.3599,79.0,759.0,48.0,438.9999999999371,36.75
1603018855.3619,79.0,759.0,33.0,438.9999999999371,36.75
1603018855.3639,79.0,759.0,16.0,438.9999999999371,36.75
1603018855.3659,79.0,759.0,16.0,438.9999999999371,36.75
1603018855.3679,79.0,759.0,16.0,438.9999999999371,36.75
1603018855.3686,79.0,759.0,9.0,438.9999999999371,36.75
1603018855.3699,79.0,759.0,21.0,438.9999999999371,36.75
1603018855.3719,79.0,759.0,50.0,438.9999999999371,36.75
1603018855.374,79.0,759.0,52.0,438.9999999999371,36.75
1603018855.3759,79.0,759.0,28.0,438.9999999999371,36.75
1603018855.3779,79.0,759.0,31.0,438.9999999999371,36.75
1603018855.3799,79.0,759.0,55.0,438.9999999999371,36.75
1603018855.3819,79.0,759.0,55.0,438.9999999999371,36.75
1603018855.3839,79.0,759.0,45.0,438.9999999999371,36.75
1603018855.3859,79.0,759.0,57.0,438.9999999999371,36.75
1603018855.3879,79.0,759.0,60.0,438.9999999999371,36.75
1603018855.3899,79.0,759.0,52.0,438.9999999999371,36.75
1603018855.3919,79.0,759.0,57.0,438.9999999999371,36.75
1603018855.3939,79.0,759.0,62.0,438.9999999999371,36.75
1603018855.3959,79.0,759.0,55.0,438.9999999999371,36.75
1603018855.3979,79.0,759.0,50.0,438.9999999999371,36.75
1603018855.3999,79.0,759.0,60.0,438.9999999999371,36.75
1603018855.4019,79.0,759.0,65.0,438.9999999999371,36.75
1603018855.4039,79.0,759.0,60.0,438.9999999999371,36.75
1603018855.4059,79.0,759.0,60.0,438.9999999999371,36.75
1603018855.4079,79.0,759.0,55.0,438.9999999999371,36.75
1603018855.4099,79.0,759.0,36.0,438.9999999999371,36.75
1603018855.4119,79.0,759.0,26.0,438.9999999999371,36.75
1603018855.4139,79.0,759.0,43.0,438.9999999999371,36.75
1603018855.4159,79.0,759.0,69.0,438.9999999999371,36.75
1603018855.4179,79.0,759.0,81.0,438.9999999999371,36.75
1603018855.4199,79.0,759.0,62.0,438.9999999999371,36.75
1603018855.4219,79.0,759.0,50.0,438.9999999999371,36.75
1603018855.4239,79.0,759.0,65.0,438.9999999999371,36.75
1603018855.4259,79.0,759.0,84.0,438.9999999999371,36.75
1603018855.4279,79.0,759.0,67.0,438.9999999999371,36.75
1603018855.4299,79.0,759.0,33.0,438.9999999999371,36.75
1603018855.4319,79.0,759.0,67.0,438.9999999999371,36.75
1603018855.4339,79.0,759.0,127.0,438.9999999999371,36.75
1603018855.836,80.0,779.0,122.0,438.9999999999371,36.75
1603018855.8366,80.0,779.0,84.0,438.9999999999371,36.75
1603018855.839,80.0,779.0,93.0,438.9999999999371,36.75
1603018855.8418,80.0,779.0,120.0,438.9999999999371,36.75
1603018855.8436,80.0,779.0,93.0,438.9999999999371,36.75
1603018855.8457,80.0,779.0,62.0,438.9999999999371,36.75
1603018855.8477,80.0,779.0,67.0,438.9999999999371,36.75
1603018855.8496,80.0,779.0,65.0,438.9999999999371,36.75
1603018855.8516,80.0,779.0,50.0,438.9999999999371,36.75
1603018855.8536,80.0,779.0,55.0,438.9999999999371,36.75
1603018855.8557,80.0,779.0,62.0,438.9999999999371,36.75
1603018855.8576,80.0,779.0,65.0,438.9999999999371,36.75
1603018855.8596,80.0,779.0,52.0,438.9999999999371,36.75
1603018855.8617,80.0,779.0,28.0,438.9999999999371,36.75
1603018855.8636,80.0,779.0,91.0,438.9999999999371,36.75
1603018855.8656,80.0,779.0,327.0,438.9999999999371,36.75
1603018855.8676,80.0,779.0,481.0,438.9999999999371,36.75
1603018855.8696,80.0,779.0,175.0,438.9999999999371,36.75
1603018855.8716,80.0,779.0,-293.0,438.9999999999371,36.75
1603018855.8736,80.0,779.0,-243.0,438.9999999999371,36.75
1603018855.8756,80.0,779.0,98.0,438.9999999999371,36.75
1603018855.8776,80.0,779.0,118.0,438.9999999999371,36.75
1603018855.8797,80.0,779.0,9.0,438.9999999999371,36.75
1603018855.8817,80.0,779.0,52.0,439.0141305392046,36.75
1603018855.8836,80.0,779.0,98.0,439.0268191867101,36.75
1603018855.8857,80.0,779.0,91.0,439.03809507158013,36.75
1603018855.8876,80.0,779.0,98.0,439.0479873229412,36.75
1603018855.8896,80.0,779.0,93.0,439.0565250699198,36.75
1603018855.8916,80.0,779.0,77.0,439.0637374416424,36.75
1603018855.8936,80.0,779.0,96.0,439.06965356723555,36.75
1603018855.8956,80.0,779.0,101.0,439.0743025758257,36.75
1603018855.8976,80.0,779.0,89.0,439.0777135965394,36.75
1603018855.8996,80.0,779.0,110.0,439.0799157585032,36.75
1603018855.9016,80.0,779.0,132.0,439.08093819084354,36.75
1603018855.9036,80.0,779.0,113.0,439.08081002268693,36.75
1603018855.9056,80.0,779.0,93.0,439.07956038315984,36.75
1603018855.9076,80.0,779.0,98.0,439.07721840138885,36.75
1603018855.9096,80.0,779.0,139.0,439.0738132065004,36.75
1603018855.9116,80.0,779.0,185.0,439.0693739276211,36.75
1603018855.9136,80.0,779.0,171.0,439.0639296938773,36.75
1603018855.9156,80.0,779.0,132.0,439.0575096343957,36.75
1603018855.9176,80.0,779.0,154.0,439.05014287830255,36.75
1603018855.9197,80.0,779.0,187.0,439.04185855472457,36.75
1603018855.9272,80.0,779.0,178.0,439.0326857927882,36.75
1603018855.9286,80.0,779.0,178.0,439.0226537216199,36.75
1603018855.9307,80.0,779.0,202.0,439.0117914703462,36.75
1603018855.9326,80.0,779.0,195.0,439.0001281680937,36.75
1603018855.9346,80.0,779.0,161.0,438.98769294398875,36.75
1603018855.9366,80.0,779.0,158.0,438.97451492715794,36.75
1603018855.9386,80.0,779.0,173.0,438.9606232467278,36.75
1603018855.9406,80.0,779.0,187.0,438.9460470318247,36.75
1603018855.9426,80.0,779.0,185.0,438.93081541157534,36.75
1603018855.9446,80.0,779.0,151.0,438.9149575151061,36.75
1603018855.9466,80.0,779.0,125.0,438.89850247154345,36.75
1603018855.9488,80.0,779.0,108.0,438.88147941001404,36.75
1603018855.9506,80.0,779.0,79.0,438.86391745964426,36.75
1603018855.9526,80.0,779.0,69.0,438.8458457495606,36.75
1603018855.9546,80.0,779.0,74.0,438.82729340888966,36.75
1603018855.9566,80.0,779.0,55.0,438.8082895667579,36.75
1603018855.9585,80.0,779.0,43.0,438.78886335229174,36.75
1603018855.9606,80.0,779.0,24.0,438.7690438946178,36.75
1603018855.9626,80.0,779.0,-7.0,438.7488603228626,36.75
1603018855.9646,80.0,779.0,-9.0,438.72834176615254,36.75
1603018855.9666,80.0,779.0,19.0,438.7075173536142,36.75
1603018855.9686,80.0,779.0,43.0,438.6864162143741,36.75
1603018855.9706,80.0,779.0,55.0,438.6650674775587,36.75
1603018855.9726,80.0,779.0,52.0,438.6435002722945,36.75
1603018855.9746,80.0,779.0,38.0,438.621743727708,36.75
1603018855.9766,80.0,779.0,36.0,438.5998269729257,36.75
1603018855.9786,80.0,779.0,48.0,438.5777791370742,36.75
1603018855.9807,80.0,779.0,28.0,438.55562934927985,36.75
1603018855.9826,80.0,779.0,16.0,438.5334067386693,36.75
1603018855.9846,80.0,779.0,55.0,438.511140434369,36.75
1603018856.4361,80.0,779.0,79.0,438.48885956550544,36.75
1603018856.4369,80.0,779.0,69.0,438.46659326120516,36.75
1603018856.4386,80.0,779.0,62.0,438.4443706505946,36.75
1603018856.4406,80.0,779.0,43.0,438.42222086280026,36.75
1603018856.4426,80.0,779.0,36.0,438.40017302694866,36.75
1603018856.4446,80.0,779.0,50.0,438.3782562721665,36.75
1603018856.4466,80.0,779.0,43.0,438.35649972757994,36.75
1603018856.4486,80.0,779.0,19.0,438.33493252231574,36.75
1603018856.4506,80.0,779.0,9.0,438.3135837855003,36.75
1603018856.4526,80.0,779.0,36.0,438.29248264626017,36.75
1603018856.4546,80.0,779.0,69.0,438.27165823372184,36.75
1603018856.4565,80.0,779.0,55.0,438.2511396770118,36.75
1603018856.4586,80.0,779.0,36.0,438.2309561052566,36.75
1603018856.4606,80.0,779.0,52.0,438.21113664758263,36.75
1603018856.4625,80.0,779.0,60.0,438.19171043311655,36.75
1603018856.4645,80.0,779.0,43.0,438.1727065909847,36.75
1603018856.4665,80.0,779.0,38.0,438.1541542503138,36.75
1603018856.4685,80.0,779.0,38.0,438.1360825402302,36.75
1603018856.4705,80.0,779.0,48.0,438.1185205898604,36.75
1603018856.4726,80.0,779.0,67.0,438.1014975283309,36.75
1603018856.4745,80.0,779.0,69.0,438.08504248476834,36.75
1603018856.4765,80.0,779.0,60.0,438.0691845882991,36.75
1603018856.4785,80.0,779.0,65.0,438.05395296804966,36.75
1603018856.4805,80.0,779.0,89.0,438.0393767531466,36.75
1603018856.4825,80.0,779.0,101.0,438.0254850727165,36.75
1603018856.4845,80.0,779.0,86.0,438.0123070558857,36.75
1603018856.4866,80.0,779.0,79.0,437.99987183178075,36.75
1603018856.4885,80.0,779.0,79.0,437.98820852952815,36.75
1603018856.4905,80.0,779.0,79.0,437.97734627825446,36.75
1603018856.4925,80.0,779.0,89.0,437.96731420708625,36.75
1603018856.4945,80.0,779.0,84.0,437.95814144514986,36.75
1603018856.4965,80.0,779.0,55.0,437.94985712157177,36.75
1603018856.4987,80.0,779.0,43.0,437.94249036547876,36.75
1603018856.5005,80.0,779.0,69.0,437.9360703059971,36.75
1603018856.5025,80.0,779.0,81.0,437.9306260722533,36.75
1603018856.5045,80.0,779.0,79.0,437.926186793374,36.75
1603018856.5065,80.0,779.0,96.0,437.9227815984856,36.75
1603018856.5085,80.0,779.0,96.0,437.9204396167146,36.75
1603018856.5105,80.0,779.0,69.0,437.91918997718744,36.75
1603018856.5125,80.0,779.0,132.0,437.91906180903084,36.75
1603018856.5145,80.0,779.0,351.0,437.9200842413712,36.75
1603018856.5165,80.0,779.0,479.0,437.92228640333497,36.75
1603018856.5185,80.0,779.0,173.0,437.9256974240486,36.75
1603018856.5205,80.0,779.0,-245.0,437.9303464326389,36.75
1603018856.5225,80.0,779.0,-173.0,437.936262558232,36.75
1603018856.5245,80.0,779.0,108.0,437.9434749299546,36.75
1603018856.5265,80.0,779.0,93.0,437.9520126769331,36.75
1603018856.5285,80.0,779.0,26.0,437.9619049282942,36.75
1603018856.5305,80.0,779.0,96.0,437.9731808131643,36.75
1603018856.5325,80.0,779.0,132.0,437.98586946066985,36.75
1603018856.5345,80.0,779.0,105.0,437.99999999993736,36.75
1603018856.5365,80.0,779.0,93.0,437.99999999993736,36.75
1603018856.5385,80.0,779.0,96.0,437.99999999993736,36.75
1603018856.5405,80.0,779.0,98.0,437.99999999993736,36.75
1603018856.5425,80.0,779.0,110.0,437.99999999993736,36.75
1603018856.5445,80.0,779.0,120.0,437.99999999993736,36.75
1603018856.5465,80.0,779.0,118.0,437.99999999993736,36.75
1603018856.5485,80.0,779.0,115.0,437.99999999993736,36.75
1603018856.5505,80.0,779.0,120.0,437.99999999993736,36.75
1603018856.5525,80.0,779.0,132.0,437.99999999993736,36.75
1603018856.5545,80.0,779.0,127.0,437.99999999993736,36.75
1603018856.5565,80.0,779.0,120.0,437.99999999993736,36.75
1603018856.5585,80.0,779.0,132.0,437.99999999993736,36.75
1603018856.5605,80.0,779.0,149.0,437.99999999993736,36.75
1603018856.5625,80.0,779.0,158.0,437.99999999993736,36.75
1603018856.5645,80.0,779.0,166.0,437.99999999993736,36.75
1603018856.5665,80.0,779.0,166.0,437.99999999993736,36.75
1603018856.5685,80.0,779.0,163.0,437.99999999993736,36.75
1603018856.5705,80.0,779.0,161.0,437.99999999993736,36.75
1603018856.5725,80.0,779.0,161.0,437.99999999993736,36.75
1603018856.5745,80.0,779.0,178.0,437.99999999993736,36.75
1603018856.5765,80.0,779.0,185.0,437.99999999993736,36.75
1603018856.5785,80.0,779.0,180.0,437.99999999993736,36.75
1603018857.0056,79.0,770.0,187.0,437.99999999993736,36.75
1603018857.0062,79.0,770.0,171.0,437.99999999993736,36.75
1603018857.0087,79.0,770.0,137.0,437.99999999993736,36.75
1603018857.0114,79.0,770.0,142.0,437.99999999993736,36.75
1603018857.0133,79.0,770.0,151.0,437.99999999993736,36.75
1603018857.0152,79.0,770.0,139.0,437.99999999993736,36.75
1603018857.0173,79.0,770.0,118.0,437.99999999993736,36.75
1603018857.0193,79.0,770.0,77.0,437.99999999993736,36.75
1603018857.0213,79.0,770.0,40.0,437.99999999993736,36.75
1603018857.0233,79.0,770.0,40.0,437.99999999993736,36.75
1603018857.0255,79.0,770.0,48.0,437.99999999993736,36.75
1603018857.0273,79.0,770.0,16.0,437.99999999993736,36.75
1603018857.0293,79.0,770.0,-19.0,437.99999999993736,36.75
1603018857.0313,79.0,770.0,-7.0,437.99999999993736,36.75
1603018857.0333,79.0,770.0,31.0,437.99999999993736,36.75
1603018857.0353,79.0,770.0,43.0,437.99999999993736,36.75
1603018857.0372,79.0,770.0,33.0,437.99999999993736,36.75
1603018857.0392,79.0,770.0,28.0,437.99999999993736,36.75
1603018857.0413,79.0,770.0,7.0,437.99999999993736,36.75
1603018857.0432,79.0,770.0,-12.0,437.99999999993736,36.75
1603018857.0453,79.0,770.0,12.0,437.99999999993736,36.75
1603018857.0472,79.0,770.0,12.0,437.99999999993736,36.75
1603018857.0492,79.0,770.0,-7.0,437.99999999993736,36.75
1603018857.0512,79.0,770.0,33.0,437.99999999993736,36.75
1603018857.0533,79.0,770.0,81.0,437.99999999993736,36.75
1603018857.0552,79.0,770.0,72.0,437.99999999993736,36.75
1603018857.0572,79.0,770.0,45.0,437.99999999993736,36.75
1603018857.0593,79.0,770.0,48.0,437.99999999993736,36.75
1603018857.0612,79.0,770.0,65.0,437.99999999993736,36.75
1603018857.0632,79.0,770.0,69.0,437.99999999993736,36.75
1603018857.0652,79.0,770.0,65.0,437.99999999993736,36.75
1603018857.0672,79.0,770.0,62.0,437.99999999993736,36.75
1603018857.0692,79.0,770.0,50.0,437.99999999993736,36.75
1603018857.0712,79.0,770.0,55.0,437.99999999993736,36.75
1603018857.0733,79.0,770.0,74.0,437.99999999993736,36.75
1603018857.0753,79.0,770.0,69.0,437.99999999993736,36.75
1603018857.0772,79.0,770.0,50.0,437.99999999993736,36.75
1603018857.0792,79.0,770.0,36.0,437.99999999993736,36.75
1603018857.0812,79.0,770.0,36.0,437.99999999993736,36.75
1603018857.0832,79.0,770.0,62.0,437.99999999993736,36.75
1603018857.0853,79.0,770.0,67.0,437.99999999993736,36.75
1603018857.0872,79.0,770.0,48.0,437.99999999993736,36.75
1603018857.0892,79.0,770.0,77.0,437.99999999993736,36.75
1603018857.0912,79.0,770.0,103.0,437.99999999993736,36.75
1603018857.0932,79.0,770.0,62.0,437.99999999993736,36.75
1603018857.0953,79.0,770.0,36.0,437.99999999993736,36.75
1603018857.0973,79.0,770.0,50.0,437.99999999993736,36.75
1603018857.0992,79.0,770.0,74.0,437.99999999993736,36.75
1603018857.1013,79.0,770.0,105.0,437.99999999993736,36.75
1603018857.1032,79.0,770.0,110.0,437.99999999993736,36.75
1603018857.1053,79.0,770.0,96.0,437.99999999993736,36.75
1603018857.1072,79.0,770.0,105.0,437.99999999993736,36.75
1603018857.1092,79.0,770.0,108.0,437.99999999993736,36.75
1603018857.1112,79.0,770.0,81.0,437.99999999993736,36.75
1603018857.1132,79.0,770.0,65.0,437.99999999993736,36.75
1603018857.1152,79.0,770.0,74.0,437.99999999993736,36.75
1603018857.1172,79.0,770.0,74.0,437.99999999993736,36.75
1603018857.1192,79.0,770.0,65.0,437.99999999993736,36.75
1603018857.1212,79.0,770.0,81.0,437.99999999993736,36.75
1603018857.1232,79.0,770.0,98.0,437.99999999993736,36.75
1603018857.1253,79.0,770.0,72.0,437.99999999993736,36.75
1603018857.1274,79.0,770.0,55.0,437.99999999993736,36.75
1603018857.1292,79.0,770.0,69.0,437.99999999993736,36.75
1603018857.1312,79.0,770.0,101.0,437.99999999993736,36.75
1603018857.1332,79.0,770.0,238.0,437.99999999993736,36.75
1603018857.1353,79.0,770.0,455.0,437.99999999993736,36.75
1603018857.1372,79.0,770.0,363.0,437.99999999993736,36.75
1603018857.1392,79.0,770.0,-103.0,437.99999999993736,36.75
1603018857.1412,79.0,770.0,-272.0,437.99999999993736,36.75
1603018857.1432,79.0,770.0,4.0,437.99999999993736,36.75
1603018857.1453,79.0,770.0,125.0,437.99999999993736,36.75
1603018857.1472,79.0,770.0,55.0,437.99999999993736,36.75
1603018857.1492,79.0,770.0,81.0,437.99999999993736,36.75
1603018857.5458,79.0,770.0,120.0,437.99999999993736,36.75
1603018857.5464,79.0,770.0,96.0,437.99999999993736,36.75
1603018857.5489,79.0,770.0,91.0,437.99999999993736,36.75
1603018857.5515,79.0,770.0,115.0,437.99999999993736,36.75
1603018857.5535,79.0,770.0,127.0,437.99999999993736,36.75
1603018857.5555,79.0,770.0,113.0,437.99999999993736,36.75
1603018857.5575,79.0,770.0,103.0,437.99999999993736,36.75
1603018857.5595,79.0,770.0,113.0,437.99999999993736,36.75
1603018857.5615,79.0,770.0,115.0,437.99999999993736,36.75
1603018857.5635,79.0,770.0,118.0,437.99999999993736,36.75
1603018857.5654,79.0,770.0,113.0,437.99999999993736,36.75
1603018857.5674,79.0,770.0,96.0,437.99999999993736,36.75
1603018857.5694,79.0,770.0,89.0,437.99999999993736,36.75
1603018857.5714,79.0,770.0,118.0,437.99999999993736,36.75
1603018857.5734,79.0,770.0,151.0,437.99999999993736,36.75
1603018857.5755,79.0,770.0,146.0,437.99999999993736,36.75
1603018857.5774,79.0,770.0,132.0,437.99999999993736,36.75
1603018857.5794,79.0,770.0,142.0,437.99999999993736,36.75
1603018857.5814,79.0,770.0,151.0,437.99999999993736,36.75
1603018857.5834,79.0,770.0,149.0,437.99999999993736,36.75
1603018857.5854,79.0,770.0,161.0,437.99999999993736,36.75
1603018857.5874,79.0,770.0,180.0,437.99999999993736,36.75
1603018857.5894,79.0,770.0,192.0,437.99999999993736,36.75
1603018857.5914,79.0,770.0,190.0,437.99999999993736,36.75
1603018857.5934,79.0,770.0,178.0,437.99999999993736,36.75
1603018857.5954,79.0,770.0,180.0,437.99999999993736,36.75
1603018857.5974,79.0,770.0,185.0,437.99999999993736,36.75
1603018857.5994,79.0,770.0,161.0,437.99999999993736,36.75
1603018857.6014,79.0,770.0,139.0,437.99999999993736,36.75
1603018857.6034,79.0,770.0,134.0,437.99999999993736,36.75
1603018857.6055,79.0,770.0,108.0,437.99999999993736,36.75
1603018857.6074,79.0,770.0,79.0,437.99999999993736,36.75
1603018857.6094,79.0,770.0,91.0,437.99999999993736,36.75
1603018857.6115,79.0,770.0,81.0,437.99999999993736,36.75
1603018857.6134,79.0,770.0,40.0,437.99999999993736,36.75
1603018857.6154,79.0,770.0,28.0,437.99999999993736,36.75
1603018857.6174,79.0,770.0,38.0,437.99999999993736,36.75
1603018857.6194,79.0,770.0,31.0,437.99999999993736,36.75
1603018857.6215,79.0,770.0,16.0,437.99999999993736,36.75
1603018857.6236,79.0,770.0,9.0,437.99999999993736,36.75
1603018857.6255,79.0,770.0,14.0,437.99999999993736,36.75
1603018857.6274,79.0,770.0,21.0,437.99999999993736,36.75
1603018857.6294,79.0,770.0,19.0,437.99999999993736,36.75
1603018857.6314,79.0,770.0,24.0,437.99999999993736,36.75
1603018857.6334,79.0,770.0,40.0,437.99999999993736,36.75
1603018857.6355,79.0,770.0,65.0,437.99999999993736,36.75
1603018857.6374,79.0,770.0,72.0,437.99999999993736,36.75
1603018857.6395,79.0,770.0,52.0,437.99999999993736,36.75
1603018857.6415,79.0,770.0,40.0,437.99999999993736,36.75
1603018857.6435,79.0,770.0,43.0,437.99999999993736,36.75
1603018857.6455,79.0,770.0,62.0,437.99999999993736,36.75
1603018857.6474,79.0,770.0,93.0,437.99999999993736,36.75
1603018857.6495,79.0,770.0,79.0,437.99999999993736,36.75
1603018857.6514,79.0,770.0,43.0,437.99999999993736,36.75
1603018857.6535,79.0,770.0,38.0,437.99999999993736,36.75
1603018857.6555,79.0,770.0,31.0,437.99999999993736,36.75
1603018857.6574,79.0,770.0,24.0,437.99999999993736,36.75
1603018857.6594,79.0,770.0,36.0,437.99999999993736,36.75
1603018857.6614,79.0,770.0,40.0,437.99999999993736,36.75
1603018857.6634,79.0,770.0,43.0,437.99999999993736,36.75
1603018857.6654,79.0,770.0,55.0,437.99999999993736,36.75
1603018857.6674,79.0,770.0,60.0,437.99999999993736,36.75
1603018857.6694,79.0,770.0,50.0,437.99999999993736,36.75
1603018857.6714,79.0,770.0,50.0,437.99999999993736,36.75
1603018857.6734,79.0,770.0,67.0,437.99999999993736,36.75
1603018857.6755,79.0,770.0,65.0,437.99999999993736,36.75
1603018857.6774,79.0,770.0,43.0,437.99999999993736,36.75
1603018857.6794,79.0,770.0,55.0,437.99999999993736,36.75
1603018857.6814,79.0,770.0,74.0,437.99999999993736,36.75
1603018857.6834,79.0,770.0,43.0,437.99999999993736,36.75
1603018857.6855,79.0,770.0,9.0,437.99999999993736,36.75
1603018857.6874,79.0,770.0,31.0,437.99999999993736,36.75
1603018857.6894,79.0,770.0,65.0,437.99999999993736,36.75
1603018858.1158,79.0,772.0,74.0,437.99999999993736,36.75
1603018858.1165,79.0,772.0,81.0,437.99999999993736,36.75
1603018858.1184,79.0,772.0,93.0,437.99999999993736,36.75
1603018858.1204,79.0,772.0,98.0,437.99999999993736,36.75
1603018858.1224,79.0,772.0,86.0,437.99999999993736,36.75
1603018858.1244,79.0,772.0,69.0,437.99999999993736,36.75
1603018858.1264,79.0,772.0,57.0,437.99999999993736,36.75
1603018858.1284,79.0,772.0,40.0,437.99999999993736,36.75
1603018858.1305,79.0,772.0,36.0,437.99999999993736,36.75
1603018858.1324,79.0,772.0,40.0,437.99999999993736,36.75
1603018858.1344,79.0,772.0,48.0,437.99999999993736,36.75
1603018858.1364,79.0,772.0,55.0,437.99999999993736,36.75
1603018858.1383,79.0,772.0,52.0,437.99999999993736,36.75
1603018858.1403,79.0,772.0,33.0,437.99999999993736,36.75
1603018858.1423,79.0,772.0,31.0,437.99999999993736,36.75
1603018858.1443,79.0,772.0,175.0,437.99999999993736,36.75
1603018858.1463,79.0,772.0,416.0,437.99999999993736,36.75
1603018858.1485,79.0,772.0,380.0,437.99999999993736,36.75
1603018858.1504,79.0,772.0,-67.0,437.99999999993736,36.75
1603018858.1523,79.0,772.0,-332.0,437.99999999993736,36.75
1603018858.1543,79.0,772.0,-79.0,437.99999999993736,36.75
1603018858.1563,79.0,772.0,125.0,437.99999999993736,36.75
1603018858.1583,79.0,772.0,43.0,437.99999999993736,36.75
1603018858.1603,79.0,772.0,28.0,437.99999999993736,36.75
1603018858.1623,79.0,772.0,89.0,437.99999999993736,36.75
1603018858.1643,79.0,772.0,72.0,437.99999999993736,36.75
1603018858.1663,79.0,772.0,48.0,437.99999999993736,36.75
1603018858.1683,79.0,772.0,74.0,437.99999999993736,36.75
1603018858.1703,79.0,772.0,101.0,437.99999999993736,36.75
1603018858.1723,79.0,772.0,113.0,437.99999999993736,36.75
1603018858.1743,79.0,772.0,98.0,437.99999999993736,36.75
1603018858.1763,79.0,772.0,67.0,437.99999999993736,36.75
1603018858.1783,79.0,772.0,72.0,437.99999999993736,36.75
1603018858.1803,79.0,772.0,91.0,437.99999999993736,36.75
1603018858.1823,79.0,772.0,86.0,437.99999999993736,36.75
1603018858.1843,79.0,772.0,84.0,437.99999999993736,36.75
1603018858.1863,79.0,772.0,98.0,437.99999999993736,36.75
1603018858.1883,79.0,772.0,110.0,437.99999999993736,36.75
1603018858.1903,79.0,772.0,108.0,437.99999999993736,36.75
1603018858.1923,79.0,772.0,108.0,437.99999999993736,36.75
1603018858.1943,79.0,772.0,122.0,437.99999999993736,36.75
1603018858.1963,79.0,772.0,137.0,437.99999999993736,36.75
1603018858.1983,79.0,772.0,132.0,437.99999999993736,36.75
1603018858.2003,79.0,772.0,132.0,437.99999999993736,36.75
1603018858.2023,79.0,772.0,166.0,437.99999999993736,36.75
1603018858.2043,79.0,772.0,197.0,437.99999999993736,36.75
1603018858.2064,79.0,772.0,204.0,437.99999999993736,36.75
1603018858.2083,79.0,772.0,202.0,437.99999999993736,36.75
1603018858.2103,79.0,772.0,178.0,437.99999999993736,36.75
1603018858.2123,79.0,772.0,149.0,437.99999999993736,36.75
1603018858.2143,79.0,772.0,139.0,437.99999999993736,36.75
1603018858.2163,79.0,772.0,146.0,437.99999999993736,36.75
1603018858.2183,79.0,772.0,142.0,437.99999999993736,36.75
1603018858.2203,79.0,772.0,108.0,437.99999999993736,36.75
1603018858.2223,79.0,772.0,84.0,437.99999999993736,36.75
1603018858.2243,79.0,772.0,74.0,437.99999999993736,36.75
1603018858.2264,79.0,772.0,40.0,437.99999999993736,36.75
1603018858.2283,79.0,772.0,4.0,437.99999999993736,36.75
1603018858.2303,79.0,772.0,9.0,437.99999999993736,36.75
1603018858.2323,79.0,772.0,48.0,437.99999999993736,36.75
1603018858.2343,79.0,772.0,40.0,437.99999999993736,36.75
1603018858.2363,79.0,772.0,0.0,437.99999999993736,36.75
1603018858.2383,79.0,772.0,0.0,437.99999999993736,36.75
1603018858.2403,79.0,772.0,24.0,437.99999999993736,36.75
1603018858.2423,79.0,772.0,14.0,437.99999999993736,36.75
1603018858.2443,79.0,772.0,-4.0,437.99999999993736,36.75
1603018858.2464,79.0,772.0,16.0,437.99999999993736,36.75
1603018858.2483,79.0,772.0,36.0,437.99999999993736,36.75
1603018858.2505,79.0,772.0,7.0,437.99999999993736,36.75
1603018858.2524,79.0,772.0,-4.0,437.99999999993736,36.75
1603018858.2543,79.0,772.0,24.0,437.99999999993736,36.75
1603018858.2564,79.0,772.0,38.0,437.99999999993736,36.75
1603018858.2583,79.0,772.0,24.0,437.99999999993736,36.75
1603018858.656,79.0,772.0,9.0,437.99999999993736,36.75
1603018858.6568,79.0,772.0,14.0,437.99999999993736,36.75
1603018858.6592,79.0,772.0,21.0,437.99999999993736,36.75
1603018858.6619,79.0,772.0,33.0,437.99999999993736,36.75
1603018858.6638,79.0,772.0,52.0,437.99999999993736,36.75
1603018858.6658,79.0,772.0,60.0,437.99999999993736,36.75
1603018858.6678,79.0,772.0,40.0,437.99999999993736,36.75
1603018858.6698,79.0,772.0,28.0,437.99999999993736,36.75
1603018858.6718,79.0,772.0,31.0,437.99999999993736,36.75
1603018858.6739,79.0,772.0,24.0,437.99999999993736,36.75
1603018858.6758,79.0,772.0,12.0,437.99999999993736,36.75
1603018858.6778,79.0,772.0,19.0,437.99999999993736,36.75
1603018858.6798,79.0,772.0,21.0,437.99999999993736,36.75
1603018858.6818,79.0,772.0,4.0,437.99999999993736,36.75
1603018858.6838,79.0,772.0,14.0,437.99999999993736,36.75
1603018858.6858,79.0,772.0,43.0,437.99999999993736,36.75
1603018858.6877,79.0,772.0,40.0,437.99999999993736,36.75
1603018858.6897,79.0,772.0,21.0,437.99999999993736,36.75
1603018858.6917,79.0,772.0,16.0,437.99999999993736,36.75
1603018858.6938,79.0,772.0,40.0,437.99999999993736,36.75
1603018858.6957,79.0,772.0,67.0,437.99999999993736,36.75
1603018858.6977,79.0,772.0,62.0,437.99999999993736,36.75
1603018858.6997,79.0,772.0,62.0,437.99999999993736,36.75
1603018858.7017,79.0,772.0,79.0,437.99999999993736,36.75
1603018858.7037,79.0,772.0,74.0,437.99999999993736,36.75
1603018858.7057,79.0,772.0,48.0,437.99999999993736,36.75
1603018858.7077,79.0,772.0,48.0,437.99999999993736,36.75
1603018858.7097,79.0,772.0,52.0,437.99999999993736,36.75
1603018858.7117,79.0,772.0,45.0,437.99999999993736,36.75
1603018858.7138,79.0,772.0,45.0,437.99999999993736,36.75
1603018858.7157,79.0,772.0,52.0,437.99999999993736,36.75
1603018858.7178,79.0,772.0,38.0,437.99999999993736,36.75
1603018858.7197,79.0,772.0,31.0,437.99999999993736,36.75
1603018858.7217,79.0,772.0,57.0,437.99999999993736,36.75
1603018858.7238,79.0,772.0,67.0,437.99999999993736,36.75
1603018858.7258,79.0,772.0,38.0,437.99999999993736,36.75
1603018858.7278,79.0,772.0,86.0,437.99999999993736,36.75
1603018858.7297,79.0,772.0,293.0,437.99999999993736,36.75
1603018858.7317,79.0,772.0,462.0,437.99999999993736,36.75
1603018858.7338,79.0,772.0,231.0,437.99999999993736,36.75
1603018858.7358,79.0,772.0,-226.0,437.99999999993736,36.75
1603018858.7378,79.0,772.0,-248.0,437.99999999993736,36.75
1603018858.7398,79.0,772.0,60.0,437.99999999993736,36.75
1603018858.7417,79.0,772.0,96.0,437.99999999993736,36.75
1603018858.7438,79.0,772.0,4.0,437.99999999993736,36.75
1603018858.7458,79.0,772.0,65.0,437.99999999993736,36.75
1603018858.7479,79.0,772.0,89.0,437.99999999993736,36.75
1603018858.7498,79.0,772.0,45.0,437.99999999993736,36.75
1603018858.7518,79.0,772.0,65.0,437.99999999993736,36.75
1603018858.7538,79.0,772.0,98.0,437.99999999993736,36.75
1603018858.7558,79.0,772.0,89.0,437.99999999993736,36.75
1603018858.7577,79.0,772.0,84.0,437.99999999993736,36.75
1603018858.7598,79.0,772.0,79.0,437.99999999993736,36.75
1603018858.7617,79.0,772.0,74.0,437.99999999993736,36.75
1603018858.7637,79.0,772.0,81.0,437.99999999993736,36.75
1603018858.7658,79.0,772.0,86.0,437.99999999993736,36.75
1603018858.7678,79.0,772.0,96.0,437.99999999993736,36.75
1603018858.7698,79.0,772.0,120.0,437.99999999993736,36.75
1603018858.7718,79.0,772.0,122.0,437.99999999993736,36.75
1603018858.7738,79.0,772.0,120.0,437.99999999993736,36.75
