Time,ECG
1606923975.4633,3983
1606923975.4649,4567
1606923975.4660,5287
1606923975.4679,5840
1606923975.4700,6235
1606923975.4720,6658
1606923975.4740,7036
1606923975.4761,7326
1606923975.4780,7613
1606923975.4800,7883
1606923975.4821,8101
1606923975.4840,8307
1606923975.4860,8505
1606923975.4881,8675
1606923975.4900,8838
1606923975.4920,8993
1606923975.4940,9132
1606923975.4961,9261
1606923975.4980,9381
1606923975.5000,9486
1606923975.5020,9601
1606923975.5040,9706
1606923975.5060,9783
1606923975.5081,9857
1606923975.5100,9943
1606923975.5119,10015
1606923975.5139,10067
1606923975.5159,10122
1606923975.5179,10180
1606923975.5199,10230
1606923975.5220,10268
1606923975.5240,10304
1606923975.5260,10338
1606923975.5279,10364
1606923975.5299,10388
1606923975.5362,10407
1606923975.5383,10410
1606923975.5401,10412
1606923975.5418,10424
1606923975.5438,10424
1606923975.5458,10419
1606923975.5478,10410
1606923975.5498,10398
1606923975.5520,10398
1606923975.5538,10395
1606923975.5558,10362
1606923975.5578,10323
1606923975.5598,10309
1606923975.5618,10290
1606923975.5638,10252
1606923975.5660,10213
1606923975.5678,10187
1606923975.5691,10154
1606923975.5708,10103
1606923975.5747,10060
1606923975.5776,10027
1606923975.5805,9989
1606923975.5829,9929
1606923975.5849,9876
1606923975.5868,9847
1606923975.5888,9821
1606923975.5908,9790
1606923975.5928,9756
1606923975.5947,9704
1606923975.5968,9622
1606923975.5988,9524
1606923975.6009,9441
1606923975.6028,9383
1606923975.6048,9326
1606923975.6068,9259
1606923975.6088,9192
1606923975.6108,9134
1606923975.6128,9070
1606923975.9437,9015
1606923975.9445,8984
1606923975.9458,9060
1606923975.9479,9493
1606923975.9498,10151
1606923975.9518,10283
1606923975.9537,9223
1606923975.9558,7617
1606923975.9578,7235
1606923975.9597,8060
1606923975.9617,8402
1606923975.9639,8153
1606923975.9657,8139
1606923975.9677,8218
1606923975.9698,8103
1606923975.9718,7991
1606923975.9737,7962
1606923975.9757,7912
1606923975.9777,7850
1606923975.9798,7790
1606923975.9818,7725
1606923975.9837,7663
1606923975.9857,7613
1606923975.9877,7562
1606923975.9897,7515
1606923975.9917,7476
1606923975.9937,7440
1606923975.9958,7393
1606923975.9979,7347
1606923975.9998,7314
1606923976.0018,7285
1606923976.0037,7247
1606923976.0057,7218
1606923976.0077,7184
1606923976.0097,7125
1606923976.0117,7050
1606923976.0138,6960
1606923976.0157,6852
1606923976.0177,6727
1606923976.0197,6574
1606923976.0218,6397
1606923976.0238,6218
1606923976.0257,6055
1606923976.0277,5912
1606923976.0298,5792
1606923976.0317,5694
1606923976.0337,5612
1606923976.0357,5543
1606923976.0377,5495
1606923976.0397,5455
1606923976.0417,5402
1606923976.0437,5347
1606923976.0459,5299
1606923976.0478,5251
1606923976.0497,5201
1606923976.0517,5153
1606923976.0538,5105
1606923976.0557,5050
1606923976.0577,4988
1606923976.0597,4928
1606923976.0618,4883
1606923976.0638,4837
1606923976.0657,4782
1606923976.0678,4722
1606923976.0697,4667
1606923976.0717,4612
1606923976.0738,4560
1606923976.0758,4510
1606923976.0779,4452
1606923976.0798,4395
1606923976.0817,4354
1606923976.0837,4316
1606923976.0857,4263
1606923976.5142,4206
1606923976.5152,4160
1606923976.5176,4120
1606923976.5203,4072
1606923976.5223,4024
1606923976.5244,3983
1606923976.5266,3938
1606923976.5283,3895
1606923976.5302,3849
1606923976.5322,3797
1606923976.5342,3751
1606923976.5362,3718
1606923976.5382,3677
1606923976.5403,3624
1606923976.5423,3586
1606923976.5443,3557
1606923976.5462,3519
1606923976.5482,3474
1606923976.5502,3435
1606923976.5522,3399
1606923976.5542,3363
1606923976.5563,3318
1606923976.5582,3273
1606923976.5602,3244
1606923976.5622,3213
1606923976.5642,3174
1606923976.5662,3134
1606923976.5682,3095
1606923976.5702,3060
1606923976.5722,3019
1606923976.5743,2981
1606923976.5762,2966
1606923976.5782,2952
1606923976.5802,2935
1606923976.5822,2926
1606923976.5842,2904
1606923976.5862,2856
1606923976.5881,2796
1606923976.5903,2732
1606923976.5922,2682
1606923976.5943,2653
1606923976.5962,2634
1606923976.5982,2605
1606923976.6002,2564
1606923976.6022,2531
1606923976.6042,2516
1606923976.6063,2524
1606923976.6082,2581
1606923976.6111,2887
1606923976.6122,3557
1606923976.6142,4074
1606923976.6162,3509
1606923976.6182,1866
1606923976.6202,880
1606923976.6223,1478
1606923976.6242,2179
1606923976.6261,2141
1606923976.6284,2105
1606923976.6302,2237
1606923976.6322,2210
1606923976.6342,2143
1606923976.6362,2165
1606923976.6383,2160
1606923976.6402,2124
1606923976.6422,2117
1606923976.6442,2112
1606923976.6462,2100
1606923976.6482,2093
1606923976.6502,2088
1606923976.6522,2086
1606923976.6542,2091
1606923976.6563,2093
1606923976.6582,2095
1606923977.0537,2107
1606923977.0547,2124
1606923977.0574,2141
1606923977.0598,2155
1606923977.0618,2167
1606923977.0638,2172
1606923977.0659,2170
1606923977.0678,2146
1606923977.0699,2110
1606923977.0719,2048
1606923977.0737,1959
1606923977.0758,1859
1606923977.0778,1734
1606923977.0797,1591
1606923977.0817,1471
1606923977.0837,1380
1606923977.0859,1301
1606923977.0877,1244
1606923977.0897,1210
1606923977.0918,1196
1606923977.0937,1186
1606923977.0957,1179
1606923977.0977,1179
1606923977.0997,1174
1606923977.1019,1167
1606923977.1037,1165
1606923977.1057,1167
1606923977.1077,1167
1606923977.1097,1155
1606923977.1117,1136
1606923977.1137,1129
1606923977.1157,1129
1606923977.1178,1117
1606923977.1198,1107
1606923977.1218,1100
1606923977.1239,1088
1606923977.1258,1067
1606923977.1277,1055
1606923977.1297,1047
1606923977.1317,1031
1606923977.1337,1014
1606923977.1358,1007
1606923977.1377,1002
1606923977.1397,988
1606923977.1417,976
1606923977.1437,971
1606923977.1457,966
1606923977.1477,957
1606923977.1497,942
1606923977.1518,935
1606923977.1537,930
1606923977.1557,921
1606923977.1577,904
1606923977.1597,897
1606923977.1617,897
1606923977.1637,892
1606923977.1657,882
1606923977.1678,873
1606923977.1697,863
1606923977.1717,858
1606923977.1737,854
1606923977.1757,846
1606923977.1777,837
1606923977.1797,832
1606923977.1817,825
1606923977.1838,818
1606923977.1858,813
1606923977.1877,806
1606923977.1897,794
1606923977.1917,784
1606923977.1937,784
1606923977.1957,782
1606923977.1977,772
1606923977.6240,763
1606923977.6250,753
1606923977.6275,739
1606923977.6301,727
1606923977.6320,724
1606923977.6340,734
1606923977.6361,756
1606923977.6380,775
1606923977.6400,772
1606923977.6421,751
1606923977.6441,715
1606923977.6461,674
1606923977.6481,653
1606923977.6502,657
1606923977.6520,657
1606923977.6539,643
1606923977.6559,631
1606923977.6579,631
1606923977.6600,641
1606923977.6621,662
1606923977.6641,763
1606923977.6660,1179
1606923977.6679,1906
1606923977.6700,2282
1606923977.6720,1524
1606923977.6740,-66
1606923977.6759,-736
1606923977.6780,69
1606923977.6801,674
1606923977.6820,502
1606923977.6840,492
1606923977.6859,667
1606923977.6881,626
1606923977.6899,576
1606923977.6921,626
1606923977.6939,631
1606923977.6961,617
1606923977.6980,636
1606923977.6999,643
1606923977.7020,648
1606923977.7039,667
1606923977.7059,677
1606923977.7080,684
1606923977.7099,710
1606923977.7121,741
1606923977.7140,758
1606923977.7159,777
1606923977.7179,813
1606923977.7200,856
1606923977.7220,885
1606923977.7239,909
1606923977.7259,933
1606923977.7280,940
1606923977.7300,928
1606923977.7320,902
1606923977.7340,863
1606923977.7359,796
1606923977.7379,696
1606923977.7399,581
1606923977.7420,473
1606923977.7441,373
1606923977.7460,284
1606923977.7480,227
1606923977.7499,198
1606923977.7522,181
1606923977.7540,174
1606923977.7560,179
1606923977.7579,191
1606923977.7599,203
1606923977.7620,212
1606923977.7639,217
1606923977.7660,224
1606923977.7680,232
1606923978.1635,239
1606923978.1645,246
1606923978.1662,248
1606923978.1679,248
1606923978.1699,253
1606923978.1720,256
1606923978.1740,256
1606923978.1759,256
1606923978.1780,246
1606923978.1798,241
1606923978.1819,246
1606923978.1838,241
1606923978.1858,234
1606923978.1879,239
1606923978.1899,239
1606923978.1919,236
1606923978.1938,234
1606923978.1958,236
1606923978.1978,241
1606923978.1998,241
1606923978.2019,239
1606923978.2038,236
1606923978.2058,241
1606923978.2079,246
1606923978.2098,248
1606923978.2118,248
1606923978.2138,248
1606923978.2158,248
1606923978.2178,251
1606923978.2198,256
1606923978.2219,256
1606923978.2239,253
1606923978.2258,251
1606923978.2278,248
1606923978.2298,251
1606923978.2318,248
1606923978.2338,248
1606923978.2358,256
1606923978.2378,260
1606923978.2399,251
1606923978.2419,248
1606923978.2438,258
1606923978.2460,258
1606923978.2479,253
1606923978.2498,258
1606923978.2519,258
1606923978.2538,248
1606923978.2558,251
1606923978.2579,258
1606923978.2598,256
1606923978.2618,248
1606923978.2638,244
1606923978.2658,244
1606923978.2679,244
1606923978.2698,256
1606923978.2719,282
1606923978.2739,313
1606923978.2758,332
1606923978.2778,330
1606923978.2798,306
1606923978.2818,272
1606923978.2838,244
1606923978.2858,229
1606923978.2878,227
1606923978.2899,229
1606923978.2919,229
1606923978.2938,227
1606923978.2958,227
1606923978.2978,241
1606923978.2999,279
1606923978.3019,452
1606923978.3038,988
1606923978.3059,1665
1606923978.7638,1720
1606923978.7648,631
1606923978.7672,-815
1606923978.7700,-945
1606923978.7718,-16
1606923978.7738,299
1606923978.7760,95
1606923978.7779,200
1606923978.7799,325
1606923978.7818,244
1606923978.7838,241
1606923978.7858,306
1606923978.7878,296
1606923978.7898,289
1606923978.7918,318
1606923978.7937,330
1606923978.7957,332
1606923978.7977,351
1606923978.7998,375
1606923978.8018,394
1606923978.8039,418
1606923978.8058,445
1606923978.8078,468
1606923978.8097,497
1606923978.8117,535
1606923978.8137,571
1606923978.8158,602
1606923978.8178,634
1606923978.8197,657
1606923978.8218,662
1606923978.8239,653
1606923978.8257,631
1606923978.8278,586
1606923978.8298,514
1606923978.8317,418
1606923978.8338,306
1606923978.8358,189
1606923978.8377,90
1606923978.8397,23
1606923978.8418,-21
1606923978.8437,-50
1606923978.8457,-64
1606923978.8478,-62
1606923978.8498,-45
1606923978.8518,-31
1606923978.8538,-21
1606923978.8557,-9
1606923978.8577,4
1606923978.8598,16
1606923978.8617,26
1606923978.8638,38
1606923978.8657,45
1606923978.8678,45
1606923978.8698,52
1606923978.8717,62
1606923978.8737,55
1606923978.8757,45
1606923978.8778,52
1606923978.8798,62
1606923978.8817,64
1606923978.8838,59
1606923978.8857,55
1606923978.8878,59
1606923978.8897,62
1606923978.8918,59
1606923978.8937,59
1606923978.8957,64
1606923978.8977,71
1606923978.8998,78
1606923978.9018,71
1606923978.9037,66
1606923978.9059,74
1606923978.9078,81
1606923979.3035,83
1606923979.3045,88
1606923979.3070,90
1606923979.3096,88
1606923979.3115,93
1606923979.3136,100
1606923979.3156,100
1606923979.3175,102
1606923979.3195,105
1606923979.3216,100
1606923979.3235,93
1606923979.3255,98
1606923979.3275,107
1606923979.3295,102
1606923979.3315,98
1606923979.3334,105
1606923979.3354,110
1606923979.3374,107
1606923979.3395,107
1606923979.3415,114
1606923979.3435,117
1606923979.3455,114
1606923979.3475,107
1606923979.3495,105
1606923979.3515,105
1606923979.3535,98
1606923979.3555,83
1606923979.3575,93
1606923979.3595,102
1606923979.3615,81
1606923979.3635,107
1606923979.3655,212
1606923979.3674,267
1606923979.3694,227
1606923979.3715,193
1606923979.3734,181
1606923979.3755,145
1606923979.3775,117
1606923979.3795,122
1606923979.3814,131
1606923979.3834,126
1606923979.3855,122
1606923979.3875,131
1606923979.3894,145
1606923979.3915,174
1606923979.3935,258
1606923979.3956,602
1606923979.3975,1301
1606923979.3995,1804
1606923979.4017,1205
1606923979.4035,-411
1606923979.4054,-1301
1606923979.4075,-641
1606923979.4095,69
1606923979.4115,59
1606923979.4135,62
1606923979.4155,217
1606923979.4175,224
1606923979.4195,193
1606923979.4215,234
1606923979.4235,244
1606923979.4255,229
1606923979.4275,251
1606923979.4295,272
1606923979.4315,275
1606923979.4334,284
1606923979.4355,301
1606923979.4375,313
1606923979.4394,349
1606923979.4415,397
1606923979.4435,411
1606923979.4455,425
1606923979.4474,464
1606923979.8745,497
1606923979.8758,540
1606923979.8783,600
1606923979.8810,626
1606923979.8829,619
1606923979.8849,624
1606923979.8869,612
1606923979.8889,559
1606923979.8909,500
1606923979.8928,411
1606923979.8948,284
1606923979.8969,169
1606923979.8988,76
1606923979.9008,-26
1606923979.9028,-98
1606923979.9048,-122
1606923979.9069,-138
1606923979.9089,-157
1606923979.9109,-160
1606923979.9128,-138
1606923979.9148,-119
1606923979.9168,-117
1606923979.9188,-110
1606923979.9209,-81
1606923979.9228,-59
1606923979.9248,-55
1606923979.9268,-43
1606923979.9290,-31
1606923979.9308,-26
1606923979.9328,-23
1606923979.9348,-19
1606923979.9355,-23
1606923979.9378,-31
1606923979.9399,-33
1606923979.9418,-19
1606923979.9438,-4
1606923979.9458,-11
1606923979.9478,-16
1606923979.9498,-7
1606923979.9518,-2
1606923979.9538,-4
1606923979.9559,-11
1606923979.9578,-19
1606923979.9598,-19
1606923979.9618,-9
1606923979.9638,-4
1606923979.9658,-2
1606923979.9665,9
1606923979.9688,16
1606923979.9709,16
1606923979.9730,19
1606923979.9748,31
1606923979.9767,35
1606923979.9788,38
1606923979.9808,40
1606923979.9828,38
1606923979.9848,35
1606923979.9868,38
1606923979.9888,35
1606923979.9908,43
1606923979.9928,66
1606923979.9948,76
1606923979.9968,57
1606923979.9975,52
1606923979.9988,76
1606923980.0008,83
1606923980.0028,66
1606923980.0048,66
1606923980.0068,78
1606923980.0088,74
1606923980.0108,69
1606923980.0128,69
1606923980.0148,64
1606923980.4136,76
1606923980.4142,98
1606923980.4161,117
1606923980.4182,148
1606923980.4201,174
1606923980.4223,162
1606923980.4241,129
1606923980.4261,100
1606923980.4268,76
1606923980.4291,64
1606923980.4312,69
1606923980.4331,74
1606923980.4352,83
1606923980.4372,83
1606923980.4391,66
1606923980.4411,76
1606923980.4431,131
1606923980.4451,299
1606923980.4471,835
1606923980.4491,1593
1606923980.4513,1713
1606923980.4531,497
1606923980.4551,-1083
1606923980.4571,-1189
1606923980.4578,-224
1606923980.4601,122
1606923980.4621,-21
1606923980.4641,81
1606923980.4661,193
1606923980.4682,148
1606923980.4701,155
1606923980.4722,198
1606923980.4740,191
1606923980.4761,196
1606923980.4781,220
1606923980.4801,222
1606923980.4821,220
1606923980.4842,246
1606923980.4861,270
1606923980.4881,275
1606923980.4888,299
1606923980.4912,349
1606923980.4931,378
1606923980.4951,394
1606923980.4971,433
1606923980.4991,478
1606923980.5012,514
1606923980.5031,545
1606923980.5051,564
1606923980.5071,559
1606923980.5091,543
1606923980.5111,526
1606923980.5131,492
1606923980.5151,409
1606923980.5172,291
1606923980.5191,177
1606923980.5200,62
1606923980.5222,-31
1606923980.5241,-83
1606923980.5261,-124
1606923980.5282,-172
1606923980.5301,-189
1606923980.5322,-167
1606923980.5342,-143
1606923980.5361,-141
1606923980.5381,-138
1606923980.5401,-124
1606923980.5422,-102
1606923980.5441,-86
1606923980.5461,-71
1606923980.5483,-62
1606923980.5488,-55
1606923980.5502,-52
1606923980.9837,-47
1606923980.9846,-28
1606923980.9871,-16
1606923980.9897,-21
1606923980.9918,-28
1606923980.9937,-35
1606923980.9958,-40
1606923980.9977,-31
1606923980.9997,-21
1606923981.0017,-21
1606923981.0036,-21
1606923981.0043,-26
1606923981.0066,-33
1606923981.0086,-26
1606923981.0106,-11
1606923981.0127,-14
1606923981.0146,-23
1606923981.0166,-14
1606923981.0186,-2
1606923981.0206,-4
1606923981.0226,-2
1606923981.0246,4
1606923981.0266,4
1606923981.0288,7
1606923981.0306,19
1606923981.0326,21
1606923981.0346,11
1606923981.0353,4
1606923981.0376,11
1606923981.0396,23
1606923981.0416,33
1606923981.0436,31
1606923981.0457,23
1606923981.0476,26
1606923981.0499,33
1606923981.0517,43
1606923981.0536,52
1606923981.0556,50
1606923981.0576,35
1606923981.0596,35
1606923981.0617,45
1606923981.0636,47
1606923981.0656,57
1606923981.0663,69
1606923981.0686,57
1606923981.0706,50
1606923981.0727,62
1606923981.0746,66
1606923981.0766,71
1606923981.0787,74
1606923981.0806,52
1606923981.0826,40
1606923981.0846,59
1606923981.0867,74
1606923981.0886,86
1606923981.0906,117
1606923981.0927,153
1606923981.0947,165
1606923981.0967,138
1606923981.0973,102
1606923981.0986,74
1606923981.1006,59
1606923981.1026,69
1606923981.1046,81
1606923981.1067,71
1606923981.1087,66
1606923981.1107,78
1606923981.1127,88
1606923981.1146,112
1606923981.1167,265
1606923981.1186,775
1606923981.1206,1483
1606923981.1226,1641
1606923981.5243,619
1606923981.5257,-892
1606923981.5275,-1155
1606923981.5298,-232
1606923981.5317,174
1606923981.5337,-21
1606923981.5363,47
1606923981.5377,184
1606923981.5398,117
1606923981.5417,102
1606923981.5436,165
1606923981.5456,165
1606923981.5478,155
1606923981.5497,184
1606923981.5517,198
1606923981.5536,200
1606923981.5557,212
1606923981.5577,234
1606923981.5596,270
1606923981.5616,299
1606923981.5636,313
1606923981.5656,332
1606923981.5676,363
1606923981.5696,397
1606923981.5717,437
1606923981.5737,483
1606923981.5756,509
1606923981.5776,531
1606923981.5796,557
1606923981.5816,555
1606923981.5836,514
1606923981.5856,473
1606923981.5876,425
1606923981.5897,322
1606923981.5917,186
1606923981.5936,76
1606923981.5956,-2
1606923981.5976,-81
1606923981.5996,-150
1606923981.6016,-179
1606923981.6036,-177
1606923981.6057,-174
1606923981.6076,-177
1606923981.6096,-162
1606923981.6117,-145
1606923981.6136,-138
1606923981.6156,-122
1606923981.6176,-98
1606923981.6196,-90
1606923981.6217,-81
1606923981.6236,-64
1606923981.6256,-62
1606923981.6276,-62
1606923981.6296,-47
1606923981.6316,-33
1606923981.6336,-31
1606923981.6356,-28
1606923981.6377,-28
1606923981.6397,-40
1606923981.6417,-45
1606923981.6436,-33
1606923981.6456,-21
1606923981.6476,-21
1606923981.6498,-26
1606923981.6517,-33
1606923981.6536,-31
1606923981.6557,-21
1606923981.6576,-11
1606923981.6596,-11
1606923981.6616,-11
1606923981.6636,-11
1606923981.6657,-9
1606923981.6676,-2
1606923982.1241,-7
1606923982.1253,-4
1606923982.1266,4
1606923982.1286,7
1606923982.1306,-4
1606923982.1326,-2
1606923982.1346,14
1606923982.1366,19
1606923982.1386,9
1606923982.1406,9
1606923982.1426,21
1606923982.1447,28
1606923982.1466,31
1606923982.1487,21
1606923982.1507,4
1606923982.1526,11
1606923982.1545,35
1606923982.1565,28
1606923982.1585,21
1606923982.1605,35
1606923982.1625,40
1606923982.1645,38
1606923982.1666,45
1606923982.1686,47
1606923982.1705,45
1606923982.1725,50
1606923982.1745,47
1606923982.1765,43
1606923982.1785,45
1606923982.1805,52
1606923982.1826,55
1606923982.1846,55
1606923982.1865,59
1606923982.1885,62
1606923982.1905,59
1606923982.1925,59
1606923982.1946,57
1606923982.1965,55
1606923982.1986,57
1606923982.2006,52
1606923982.2025,50
1606923982.2047,64
1606923982.2065,81
1606923982.2085,100
1606923982.2105,126
1606923982.2125,148
1606923982.2145,150
1606923982.2166,117
1606923982.2185,74
1606923982.2205,55
1606923982.2225,50
1606923982.2245,50
1606923982.2265,66
1606923982.2285,76
1606923982.2305,66
1606923982.2326,69
1606923982.2345,86
1606923982.2365,112
1606923982.2385,277
1606923982.2405,825
1606923982.2425,1547
1606923982.2445,1641
1606923982.2465,478
1606923982.2485,-1047
1606923982.2506,-1146
1606923982.2525,-210
1606923982.2545,86
1606923982.2565,-71
1606923982.2585,43
1606923982.2605,155
1606923982.2625,100
1606923982.2646,110
1606923982.2665,148
1606923982.6948,145
1606923982.6958,157
1606923982.6983,172
1606923982.7010,169
1606923982.7029,186
1606923982.7049,224
1606923982.7070,239
1606923982.7089,241
1606923982.7111,260
1606923982.7130,289
1606923982.7150,320
1606923982.7169,349
1606923982.7246,385
1606923982.7260,430
1606923982.7280,471
1606923982.7299,507
1606923982.7320,531
1606923982.7339,540
1606923982.7360,538
1606923982.7381,516
1606923982.7399,473
1606923982.7418,413
1606923982.7440,325
1606923982.7459,200
1606923982.7479,74
1606923982.7498,-26
1606923982.7519,-98
1606923982.7539,-150
1606923982.7558,-191
1606923982.7578,-212
1606923982.7600,-210
1606923982.7619,-203
1606923982.7638,-189
1606923982.7658,-169
1606923982.7678,-155
1606923982.7698,-138
1606923982.7718,-124
1606923982.7739,-117
1606923982.7759,-102
1606923982.7781,-88
1606923982.7798,-81
1606923982.7818,-81
1606923982.7839,-81
1606923982.7858,-69
1606923982.7878,-57
1606923982.7898,-55
1606923982.7919,-55
1606923982.7939,-55
1606923982.7958,-55
1606923982.7978,-50
1606923982.7998,-50
1606923982.8018,-50
1606923982.8038,-52
1606923982.8058,-50
1606923982.8078,-45
1606923982.8100,-43
1606923982.8118,-40
1606923982.8138,-40
1606923982.8158,-40
1606923982.8178,-38
1606923982.8198,-31
1606923982.8218,-28
1606923982.8238,-26
1606923982.8259,-21
1606923982.8280,-14
1606923982.8298,-7
1606923982.8318,-4
1606923982.8339,-4
1606923982.8358,-2
1606923982.8378,2
1606923982.8400,0
1606923982.8419,4
1606923982.8439,7
1606923983.2336,4
1606923983.2346,7
1606923983.2370,9
1606923983.2398,14
1606923983.2418,19
1606923983.2437,21
1606923983.2458,19
1606923983.2477,21
1606923983.2496,26
1606923983.2516,26
1606923983.2536,21
1606923983.2557,16
1606923983.2576,21
1606923983.2596,28
1606923983.2616,28
1606923983.2636,28
1606923983.2656,26
1606923983.2676,23
1606923983.2696,31
1606923983.2717,45
1606923983.2736,57
1606923983.2755,81
1606923983.2775,110
1606923983.2795,114
1606923983.2816,105
1606923983.2835,74
1606923983.2857,35
1606923983.2877,19
1606923983.2896,28
1606923983.2917,38
1606923983.2936,38
1606923983.2955,40
1606923983.2975,50
1606923983.2995,57
1606923983.3015,81
1606923983.3036,174
1606923983.3057,574
1606923983.3075,1339
1606923983.3095,1815
1606923983.3115,1071
1606923983.3135,-629
1606923983.3155,-1392
1606923983.3175,-586
1606923983.3195,78
1606923983.3216,-33
1606923983.3235,-31
1606923983.3255,143
1606923983.3275,119
1606923983.3297,74
1606923983.3317,119
1606923983.3335,133
1606923983.3356,133
1606923983.3376,160
1606923983.3395,174
1606923983.3416,179
1606923983.3435,198
1606923983.3455,215
1606923983.3475,234
1606923983.3495,263
1606923983.3516,291
1606923983.3537,318
1606923983.3556,351
1606923983.3575,389
1606923983.3595,428
1606923983.3615,464
1606923983.3635,492
1606923983.3655,512
1606923983.3675,528
1606923983.3696,528
1606923983.3717,504
1606923983.3735,464
1606923983.3755,399
1606923983.3776,308
1606923983.8035,193
1606923983.8045,78
1606923983.8069,-19
1606923983.8096,-95
1606923983.8115,-155
1606923983.8135,-193
1606923983.8156,-210
1606923983.8176,-220
1606923983.8195,-217
1606923983.8215,-203
1606923983.8235,-189
1606923983.8255,-172
1606923983.8275,-153
1606923983.8295,-136
1606923983.8315,-124
1606923983.8335,-117
1606923983.8354,-110
1606923983.8374,-93
1606923983.8395,-86
1606923983.8415,-78
1606923983.8434,-66
1606923983.8454,-62
1606923983.8474,-62
1606923983.8495,-59
1606923983.8515,-55
1606923983.8534,-55
1606923983.8556,-52
1606923983.8575,-55
1606923983.8595,-47
1606923983.8614,-40
1606923983.8634,-47
1606923983.8655,-57
1606923983.8675,-50
1606923983.8694,-40
1606923983.8715,-40
1606923983.8736,-35
1606923983.8754,-31
1606923983.8774,-28
1606923983.8794,-26
1606923983.8815,-26
1606923983.8835,-21
1606923983.8854,-14
1606923983.8874,-14
1606923983.8894,-14
1606923983.8915,-9
1606923983.8934,-7
1606923983.8954,-7
1606923983.8975,-4
1606923983.8995,2
1606923983.9015,4
1606923983.9034,7
1606923983.9054,9
1606923983.9074,16
1606923983.9095,21
1606923983.9115,16
1606923983.9134,16
1606923983.9155,33
1606923983.9174,33
1606923983.9194,14
1606923983.9215,14
1606923983.9234,26
1606923983.9254,28
1606923983.9274,26
1606923983.9294,33
1606923983.9316,38
1606923983.9334,38
1606923983.9354,33
1606923983.9374,33
1606923983.9394,38
1606923983.9415,38
1606923983.9434,31
1606923983.9454,26
1606923983.9476,40
1606923984.3440,62
1606923984.3451,86
1606923984.3476,110
1606923984.3502,126
1606923984.3525,119
1606923984.3542,86
1606923984.3563,50
1606923984.3582,38
1606923984.3602,38
1606923984.3622,35
1606923984.3641,31
1606923984.3661,33
1606923984.3681,33
1606923984.3701,38
1606923984.3721,64
1606923984.3741,143
1606923984.3761,492
1606923984.3781,1193
1606923984.3801,1674
1606923984.3821,1143
1606923984.3840,-339
1606923984.3860,-1260
1606923984.3880,-662
1606923984.3900,81
1606923984.3921,11
1606923984.3942,-59
1606923984.3960,126
1606923984.3981,129
1606923984.4001,62
1606923984.4021,110
1606923984.4040,136
1606923984.4060,119
1606923984.4080,141
1606923984.4102,165
1606923984.4120,172
1606923984.4140,186
1606923984.4161,210
1606923984.4180,227
1606923984.4200,251
1606923984.4220,279
1606923984.4240,308
1606923984.4262,342
1606923984.4281,378
1606923984.4301,416
1606923984.4320,454
1606923984.4340,492
1606923984.4360,519
1606923984.4381,533
1606923984.4400,531
1606923984.4422,516
1606923984.4443,480
1606923984.4462,416
1606923984.4482,327
1606923984.4501,220
1606923984.4520,102
1606923984.4552,-2
1606923984.4572,-83
1606923984.4593,-138
1606923984.4612,-177
1606923984.4632,-198
1606923984.4651,-203
1606923984.4671,-200
1606923984.4690,-193
1606923984.4711,-177
1606923984.4730,-160
1606923984.4751,-148
1606923984.4771,-136
1606923984.4791,-122
1606923984.4811,-112
1606923984.4831,-102
1606923984.4851,-93
1606923984.4871,-88
1606923984.4891,-83
1606923984.8835,-76
1606923984.8845,-71
1606923984.8870,-66
1606923984.8896,-64
1606923984.8917,-62
1606923984.8936,-69
1606923984.8958,-76
1606923984.8976,-74
1606923984.8996,-66
1606923984.9016,-66
1606923984.9035,-74
1606923984.9056,-71
1606923984.9075,-64
1606923984.9095,-59
1606923984.9115,-57
1606923984.9135,-52
1606923984.9155,-50
1606923984.9175,-45
1606923984.9195,-40
1606923984.9216,-35
1606923984.9235,-33
1606923984.9255,-33
1606923984.9275,-28
1606923984.9295,-23
1606923984.9316,-21
1606923984.9335,-21
1606923984.9355,-16
1606923984.9376,-11
1606923984.9395,-11
1606923984.9416,-7
1606923984.9435,-4
1606923984.9455,-2
1606923984.9475,2
1606923984.9497,7
1606923984.9516,4
1606923984.9535,9
1606923984.9556,14
1606923984.9575,11
1606923984.9595,14
1606923984.9615,19
1606923984.9635,21
1606923984.9655,19
1606923984.9675,21
1606923984.9695,28
1606923984.9716,23
1606923984.9735,4
1606923984.9755,0
1606923984.9775,19
1606923984.9795,40
1606923984.9816,64
1606923984.9835,95
1606923984.9855,107
1606923984.9876,90
1606923984.9896,59
1606923984.9915,31
1606923984.9935,14
1606923984.9955,16
1606923984.9975,23
1606923984.9995,16
1606923985.0015,14
1606923985.0036,21
1606923985.0055,35
1606923985.0075,64
1606923985.0095,157
1606923985.0115,512
1606923985.0135,1203
1606923985.0155,1679
1606923985.0175,1100
1606923985.0195,-466
1606923985.0216,-1349
1606923985.0235,-684
1606923985.0255,26
1606923985.0275,-33
1606923985.4836,-55
1606923985.4846,119
1606923985.4871,110
1606923985.4898,50
1606923985.4918,100
1606923985.4937,129
1606923985.4958,117
1606923985.4977,133
1606923985.4997,155
1606923985.5017,165
1606923985.5036,179
1606923985.5058,200
1606923985.5077,220
1606923985.5096,244
1606923985.5116,272
1606923985.5136,296
1606923985.5157,327
1606923985.5177,373
1606923985.5196,411
1606923985.5216,445
1606923985.5236,485
1606923985.5256,521
1606923985.5276,535
1606923985.5296,540
1606923985.5317,528
1606923985.5336,490
1606923985.5356,425
1606923985.5376,337
1606923985.5396,224
1606923985.5416,95
1606923985.5436,-16
1606923985.5456,-98
1606923985.5477,-165
1606923985.5497,-210
1606923985.5517,-224
1606923985.5536,-222
1606923985.5556,-215
1606923985.5576,-208
1606923985.5596,-200
1606923985.5616,-186
1606923985.5636,-167
1606923985.5657,-150
1606923985.5676,-141
1606923985.5696,-131
1606923985.5716,-124
1606923985.5736,-122
1606923985.5756,-117
1606923985.5776,-105
1606923985.5796,-93
1606923985.5817,-93
1606923985.5836,-95
1606923985.5856,-90
1606923985.5876,-83
1606923985.5896,-83
1606923985.5916,-81
1606923985.5936,-81
1606923985.5956,-81
1606923985.5977,-81
1606923985.5996,-76
1606923985.6017,-71
1606923985.6036,-66
1606923985.6056,-62
1606923985.6078,-62
1606923985.6096,-57
1606923985.6116,-52
1606923985.6137,-50
1606923985.6157,-43
1606923985.6176,-38
1606923985.6196,-38
1606923985.6216,-38
1606923985.6236,-33
1606923985.6256,-28
1606923985.6276,-26
1606923986.0537,-26
1606923986.0547,-21
1606923986.0572,-16
1606923986.0599,-16
1606923986.0618,-19
1606923986.0637,-16
1606923986.0658,-9
1606923986.0678,-11
1606923986.0697,-19
1606923986.0717,-21
1606923986.0737,-14
1606923986.0758,-19
1606923986.0778,-19
1606923986.0797,2
1606923986.0817,26
1606923986.0837,43
1606923986.0857,64
1606923986.0877,86
1606923986.0897,83
1606923986.0917,45
1606923986.0937,0
1606923986.0956,-9
1606923986.0976,4
1606923986.0996,9
1606923986.1017,7
1606923986.1038,9
1606923986.1059,16
1606923986.1078,23
1606923986.1097,52
1606923986.1117,131
1606923986.1137,454
1606923986.1158,1155
1606923986.1176,1727
1606923986.1196,1244
1606923986.1217,-358
1606923986.1236,-1416
1606923986.1258,-832
1606923986.1277,-33
1606923986.1297,-33
1606923986.1318,-83
1606923986.1338,88
1606923986.1357,107
1606923986.1377,55
1606923986.1396,98
1606923986.1418,124
1606923986.1437,112
1606923986.1457,129
1606923986.1477,150
1606923986.1497,157
1606923986.1517,174
1606923986.1537,198
1606923986.1557,215
1606923986.1578,234
1606923986.1598,260
1606923986.1617,287
1606923986.1637,315
1606923986.1644,351
1606923986.1657,392
1606923986.1677,430
1606923986.1697,461
1606923986.1717,488
1606923986.1738,502
1606923986.1757,497
1606923986.1777,473
1606923986.1797,435
1606923986.1818,375
1606923986.1837,284
1606923986.1857,167
1606923986.1877,50
1606923986.1897,-45
1606923986.1918,-122
1606923986.1937,-177
1606923986.1944,-210
1606923986.6235,-224
1606923986.6244,-227
1606923986.6262,-217
1606923986.6283,-205
1606923986.6302,-189
1606923986.6321,-172
1606923986.6342,-160
1606923986.6361,-145
1606923986.6382,-131
1606923986.6401,-129
1606923986.6421,-129
1606923986.6441,-117
1606923986.6461,-105
1606923986.6481,-102
1606923986.6488,-98
1606923986.6511,-90
1606923986.6531,-83
1606923986.6551,-83
1606923986.6573,-83
1606923986.6593,-81
1606923986.6611,-78
1606923986.6632,-78
1606923986.6651,-81
1606923986.6671,-81
1606923986.6691,-76
1606923986.6712,-71
1606923986.6731,-69
1606923986.6751,-64
1606923986.6771,-64
1606923986.6791,-66
1606923986.6798,-64
1606923986.6821,-55
1606923986.6841,-50
1606923986.6861,-47
1606923986.6881,-43
1606923986.6901,-35
1606923986.6921,-33
1606923986.6940,-33
1606923986.6961,-26
1606923986.6981,-21
1606923986.7001,-19
1606923986.7021,-16
1606923986.7041,-14
1606923986.7061,-14
1606923986.7081,-7
1606923986.7101,-4
1606923986.7109,-7
1606923986.7121,-2
1606923986.7141,2
1606923986.7160,2
1606923986.7181,7
1606923986.7202,9
1606923986.7221,11
1606923986.7241,11
1606923986.7261,14
1606923986.7281,16
1606923986.7301,19
1606923986.7321,11
1606923986.7341,0
1606923986.7361,2
1606923986.7381,21
1606923986.7401,47
1606923986.7409,83
1606923986.7431,105
1606923986.7450,107
1606923986.7471,88
1606923986.7491,50
1606923986.7511,19
1606923986.7531,16
1606923986.7552,28
1606923986.7571,28
1606923986.7591,26
1606923986.7612,28
1606923987.1935,35
1606923987.1945,52
1606923987.1963,95
1606923987.1987,296
1606923987.2007,880
1606923987.2026,1550
1606923987.2046,1516
1606923987.2066,334
1606923987.2085,-1064
1606923987.2106,-1071
1606923987.2125,-150
1606923987.2147,88
1606923987.2166,-107
1606923987.2185,16
1606923987.2206,129
1606923987.2225,47
1606923987.2245,52
1606923987.2252,110
1606923987.2265,95
1606923987.2285,93
1606923987.2306,124
1606923987.2326,138
1606923987.2345,150
1606923987.2365,174
1606923987.2385,193
1606923987.2405,215
1606923987.2425,241
1606923987.2445,270
1606923987.2465,301
1606923987.2486,332
1606923987.2505,368
1606923987.2525,401
1606923987.2545,435
1606923987.2552,464
1606923987.2575,480
1606923987.2595,485
1606923987.2615,476
1606923987.2636,447
1606923987.2656,399
1606923987.2675,332
1606923987.2695,236
1606923987.2716,119
1606923987.2735,9
1606923987.2755,-76
1606923987.2775,-141
1606923987.2796,-186
1606923987.2816,-212
1606923987.2837,-222
1606923987.2856,-222
1606923987.2862,-212
1606923987.2886,-198
1606923987.2906,-181
1606923987.2925,-169
1606923987.2945,-155
1606923987.2966,-141
1606923987.2985,-129
1606923987.3005,-122
1606923987.3025,-117
1606923987.3045,-110
1606923987.3065,-100
1606923987.3085,-95
1606923987.3105,-93
1606923987.3125,-90
1606923987.3146,-88
1606923987.3165,-86
1606923987.3172,-83
1606923987.3195,-83
1606923987.3216,-81
1606923987.3235,-76
1606923987.3255,-76
1606923987.3277,-78
1606923987.3296,-74
1606923987.3316,-66
1606923987.7032,-66
1606923987.7040,-66
1606923987.7064,-59
1606923987.7091,-55
1606923987.7112,-55
1606923987.7130,-52
1606923987.7151,-45
1606923987.7158,-40
1606923987.7181,-40
1606923987.7200,-43
1606923987.7221,-38
1606923987.7240,-38
1606923987.7261,-40
1606923987.7280,-35
1606923987.7300,-28
1606923987.7320,-28
1606923987.7340,-26
1606923987.7360,-19
1606923987.7380,-16
1606923987.7400,-16
1606923987.7421,-9
1606923987.7441,-4
1606923987.7460,-7
1606923987.7467,-2
1606923987.7490,0
1606923987.7512,-2
1606923987.7531,2
1606923987.7550,9
1606923987.7570,7
1606923987.7591,9
1606923987.7612,16
1606923987.7630,19
1606923987.7650,16
1606923987.7669,19
1606923987.7690,21
1606923987.7710,21
1606923987.7730,23
1606923987.7751,28
1606923987.7770,31
1606923987.7790,26
1606923987.7811,14
1606923987.7830,16
1606923987.7850,35
1606923987.7870,57
1606923987.7890,88
1606923987.7911,114
1606923987.7931,117
1606923987.7950,93
1606923987.7970,57
1606923987.7990,33
1606923987.8010,26
1606923987.8030,28
1606923987.8050,33
1606923987.8070,35
1606923987.8091,33
1606923987.8110,33
1606923987.8130,50
1606923987.8150,98
1606923987.8170,296
1606923987.8190,851
1606923987.8210,1497
1606923987.8230,1481
1606923987.8251,354
1606923987.8270,-1019
1606923987.8290,-1055
1606923987.8310,-145
1606923987.8330,107
1606923987.8350,-90
1606923987.8370,28
1606923987.8390,145
1606923987.8411,62
1606923987.8430,62
1606923987.8450,119
1606923988.2741,107
1606923988.2754,100
1606923988.2779,129
1606923988.2808,143
1606923988.2825,143
1606923988.2845,155
1606923988.2866,174
1606923988.2886,196
1606923988.2905,222
1606923988.2925,246
1606923988.2945,275
1606923988.2965,308
1606923988.2985,344
1606923988.3005,375
1606923988.3026,406
1606923988.3045,433
1606923988.3064,449
1606923988.3084,454
1606923988.3104,442
1606923988.3125,418
1606923988.3144,378
1606923988.3164,318
1606923988.3184,239
1606923988.3205,136
1606923988.3224,26
1606923988.3244,-62
1606923988.3264,-129
1606923988.3284,-177
1606923988.3304,-203
1606923988.3324,-208
1606923988.3344,-205
1606923988.3365,-198
1606923988.3384,-184
1606923988.3404,-172
1606923988.3424,-162
1606923988.3444,-148
1606923988.3464,-131
1606923988.3484,-129
1606923988.3504,-124
1606923988.3525,-114
1606923988.3544,-105
1606923988.3564,-100
1606923988.3584,-93
1606923988.3604,-88
1606923988.3626,-88
1606923988.3644,-88
1606923988.3664,-86
1606923988.3685,-86
1606923988.3706,-83
1606923988.3725,-78
1606923988.3744,-76
1606923988.3764,-76
1606923988.3784,-74
1606923988.3804,-69
1606923988.3826,-74
1606923988.3845,-76
1606923988.3865,-64
1606923988.3884,-55
1606923988.3904,-55
1606923988.3924,-52
1606923988.3944,-47
1606923988.3964,-45
1606923988.3984,-40
1606923988.4004,-33
1606923988.4025,-31
1606923988.4044,-33
1606923988.4064,-38
1606923988.4084,-35
1606923988.4104,-33
1606923988.4124,-33
1606923988.4144,-26
1606923988.4164,-14
1606923988.4185,-16
1606923988.8738,-21
1606923988.8748,-16
1606923988.8772,-9
1606923988.8799,-7
1606923988.8819,-2
1606923988.8839,-2
1606923988.8859,-9
1606923988.8879,-9
1606923988.8899,-4
1606923988.8919,-4
1606923988.8939,0
1606923988.8959,7
1606923988.8980,7
1606923988.9000,7
1606923988.9019,9
1606923988.9038,14
1606923988.9058,11
1606923988.9078,4
1606923988.9098,4
1606923988.9119,19
1606923988.9139,35
1606923988.9159,50
1606923988.9178,74
1606923988.9198,102
1606923988.9218,107
1606923988.9238,74
1606923988.9258,33
1606923988.9278,14
1606923988.9299,11
1606923988.9319,16
1606923988.9338,23
1606923988.9358,23
1606923988.9380,26
1606923988.9399,31
1606923988.9418,47
1606923988.9438,102
1606923988.9459,318
1606923988.9479,890
1606923988.9498,1574
1606923988.9518,1540
1606923988.9538,260
1606923988.9558,-1169
1606923988.9578,-1098
1606923988.9598,-200
1606923988.9619,21
1606923988.9639,-90
1606923988.9658,52
1606923988.9678,136
1606923988.9698,69
1606923988.9718,86
1606923988.9738,138
1606923988.9758,131
1606923988.9778,136
1606923988.9799,160
1606923988.9818,162
1606923988.9838,169
1606923988.9858,196
1606923988.9878,208
1606923988.9898,217
1606923988.9918,241
1606923988.9938,272
1606923988.9959,294
1606923988.9979,318
1606923988.9998,356
1606923989.0018,399
1606923989.0038,430
1606923989.0058,459
1606923989.0078,478
1606923989.0098,483
1606923989.0119,473
1606923989.0139,447
1606923989.0159,401
1606923989.0178,334
1606923989.4438,241
1606923989.4448,129
1606923989.4473,19
1606923989.4499,-69
1606923989.4520,-133
1606923989.4539,-184
1606923989.4560,-212
1606923989.4581,-222
1606923989.4600,-220
1606923989.4619,-208
1606923989.4641,-193
1606923989.4659,-186
1606923989.4678,-184
1606923989.4698,-172
1606923989.4719,-162
1606923989.4739,-155
1606923989.4760,-143
1606923989.4779,-133
1606923989.4800,-129
1606923989.4819,-126
1606923989.4838,-122
1606923989.4858,-112
1606923989.4878,-110
1606923989.4900,-114
1606923989.4919,-110
1606923989.4938,-102
1606923989.4958,-105
1606923989.4978,-102
1606923989.4998,-98
1606923989.5018,-95
1606923989.5038,-90
1606923989.5058,-86
1606923989.5079,-81
1606923989.5098,-76
1606923989.5118,-74
1606923989.5138,-71
1606923989.5158,-66
1606923989.5178,-62
1606923989.5198,-62
1606923989.5218,-55
1606923989.5239,-43
1606923989.5260,-47
1606923989.5278,-50
1606923989.5298,-38
1606923989.5319,-31
1606923989.5338,-33
1606923989.5358,-35
1606923989.5378,-28
1606923989.5398,-23
1606923989.5418,-23
1606923989.5438,-26
1606923989.5458,-23
1606923989.5478,-16
1606923989.5498,-14
1606923989.5518,-19
1606923989.5538,-19
1606923989.5558,-11
1606923989.5578,-9
1606923989.5598,-4
1606923989.5618,0
1606923989.5638,-2
1606923989.5660,-14
1606923989.5678,-14
1606923989.5698,4
1606923989.5718,28
1606923989.5738,59
1606923989.5758,88
1606923989.5778,100
1606923989.5798,81
1606923989.5818,43
1606923989.5838,16
1606923989.5858,9
1606923989.5878,14
1606923989.9534,16
1606923989.9542,16
1606923989.9560,21
1606923989.9580,21
1606923989.9600,31
1606923989.9619,71
1606923989.9640,234
1606923989.9659,760
1606923989.9681,1485
1606923989.9699,1629
1606923989.9719,562
1606923989.9739,-976
1606923989.9759,-1229
1606923989.9779,-311
1606923989.9799,78
1606923989.9819,-107
1606923989.9839,-23
1606923989.9859,117
1606923989.9880,55
1606923989.9899,40
1606923989.9919,100
1606923989.9939,100
1606923989.9959,93
1606923989.9979,119
1606923989.9999,133
1606923990.0019,138
1606923990.0039,157
1606923990.0059,181
1606923990.0079,203
1606923990.0100,224
1606923990.0119,246
1606923990.0139,275
1606923990.0159,311
1606923990.0179,344
1606923990.0199,380
1606923990.0219,413
1606923990.0239,433
1606923990.0259,447
1606923990.0279,452
1606923990.0300,440
1606923990.0320,406
1606923990.0339,366
1606923990.0359,306
1606923990.0379,215
1606923990.0399,105
1606923990.0419,0
1606923990.0439,-86
1606923990.0459,-150
1606923990.0480,-193
1606923990.0499,-215
1606923990.0519,-220
1606923990.0539,-217
1606923990.0559,-208
1606923990.0579,-193
1606923990.0599,-177
1606923990.0619,-162
1606923990.0639,-150
1606923990.0659,-138
1606923990.0679,-126
1606923990.0699,-117
1606923990.0719,-114
1606923990.0739,-112
1606923990.0759,-102
1606923990.0779,-93
1606923990.0799,-93
1606923990.0820,-90
1606923990.0839,-86
1606923990.0859,-83
1606923990.0879,-81
1606923990.0899,-86
1606923990.0919,-90
1606923990.0939,-88
1606923990.0959,-81
1606923990.5236,-76
1606923990.5246,-76
1606923990.5267,-74
1606923990.5285,-69
1606923990.5305,-64
1606923990.5326,-66
1606923990.5345,-69
1606923990.5365,-69
1606923990.5385,-62
1606923990.5406,-55
1606923990.5425,-55
1606923990.5445,-52
1606923990.5465,-45
1606923990.5485,-43
1606923990.5505,-40
1606923990.5524,-38
1606923990.5544,-31
1606923990.5566,-23
1606923990.5585,-23
1606923990.5604,-21
1606923990.5624,-19
1606923990.5644,-16
1606923990.5664,-11
1606923990.5684,-9
1606923990.5704,-9
1606923990.5724,-7
1606923990.5744,-2
1606923990.5764,0
1606923990.5784,0
1606923990.5804,-2
1606923990.5824,-4
1606923990.5844,2
1606923990.5864,7
1606923990.5884,0
1606923990.5904,-4
1606923990.5924,4
1606923990.5944,19
1606923990.5964,38
1606923990.5984,71
1606923990.6004,95
1606923990.6024,95
1606923990.6044,74
1606923990.6064,33
1606923990.6084,7
1606923990.6104,7
1606923990.6124,11
1606923990.6144,14
1606923990.6164,19
1606923990.6184,19
1606923990.6204,23
1606923990.6224,43
1606923990.6244,98
1606923990.6264,339
1606923990.6284,937
1606923990.6304,1538
1606923990.6324,1382
1606923990.6344,133
1606923990.6364,-1150
1606923990.6384,-980
1606923990.6404,-76
1606923990.6424,66
1606923990.6444,-105
1606923990.6464,45
1606923990.6484,126
1606923990.6504,45
1606923990.6524,66
1606923990.6544,119
1606923990.6564,107
1606923990.6586,110
1606923990.6605,136
1606923990.6624,145
1606923990.6644,150
1606923990.6664,169
1606923991.0635,193
1606923991.0645,217
1606923991.0664,244
1606923991.0681,267
1606923991.0701,289
1606923991.0722,322
1606923991.0740,361
1606923991.0760,387
1606923991.0781,411
1606923991.0801,437
1606923991.0820,452
1606923991.0840,449
1606923991.0860,435
1606923991.0881,409
1606923991.0900,363
1606923991.0920,296
1606923991.0940,203
1606923991.0961,93
1606923991.0980,-11
1606923991.1000,-95
1606923991.1021,-150
1606923991.1040,-186
1606923991.1060,-212
1606923991.1081,-220
1606923991.1100,-210
1606923991.1121,-196
1606923991.1140,-179
1606923991.1160,-165
1606923991.1180,-155
1606923991.1200,-150
1606923991.1221,-145
1606923991.1241,-133
1606923991.1260,-124
1606923991.1280,-119
1606923991.1300,-117
1606923991.1320,-110
1606923991.1340,-105
1606923991.1360,-102
1606923991.1380,-95
1606923991.1400,-93
1606923991.1420,-93
1606923991.1440,-95
1606923991.1460,-95
1606923991.1480,-88
1606923991.1500,-83
1606923991.1521,-83
1606923991.1541,-83
1606923991.1560,-81
1606923991.1580,-81
1606923991.1600,-74
1606923991.1620,-62
1606923991.1640,-64
1606923991.1660,-69
1606923991.1680,-64
1606923991.1700,-59
1606923991.1720,-50
1606923991.1740,-45
1606923991.1760,-43
1606923991.1780,-35
1606923991.1800,-28
1606923991.1821,-33
1606923991.1840,-35
1606923991.1860,-31
1606923991.1880,-23
1606923991.1900,-21
1606923991.1920,-14
1606923991.1940,-7
1606923991.1960,-4
1606923991.1980,-4
1606923991.2000,-7
1606923991.2020,-2
1606923991.2040,2
1606923991.2060,7
1606923991.6338,7
1606923991.6351,0
1606923991.6376,-2
1606923991.6402,7
1606923991.6422,7
1606923991.6442,0
1606923991.6463,-4
1606923991.6483,-4
1606923991.6502,-2
1606923991.6521,-7
1606923991.6541,-2
1606923991.6561,23
1606923991.6581,57
1606923991.6602,81
1606923991.6621,95
1606923991.6641,95
1606923991.6661,64
1606923991.6681,23
1606923991.6701,4
1606923991.6720,9
1606923991.6741,21
1606923991.6760,23
1606923991.6781,9
1606923991.6801,0
1606923991.6823,19
1606923991.6841,52
1606923991.6861,143
1606923991.6881,545
1606923991.6901,1272
1606923991.6920,1686
1606923991.6941,990
1606923991.6961,-576
1606923991.6981,-1291
1606923991.7001,-533
1606923991.7020,76
1606923991.7041,-69
1606923991.7061,-76
1606923991.7081,98
1606923991.7101,76
1606923991.7121,45
1606923991.7141,110
1606923991.7161,122
1606923991.7181,95
1606923991.7202,105
1606923991.7221,136
1606923991.7241,160
1606923991.7261,162
1606923991.7281,172
1606923991.7301,205
1606923991.7321,224
1606923991.7341,241
1606923991.7361,277
1606923991.7381,306
1606923991.7401,330
1606923991.7421,366
1606923991.7441,425
1606923991.7462,461
1606923991.7481,456
1606923991.7502,459
1606923991.7522,454
1606923991.7541,421
1606923991.7561,387
1606923991.7581,344
1606923991.7601,267
1606923991.7621,172
1606923991.7640,55
1606923991.7661,-52
1606923991.7681,-114
1606923991.7701,-153
1606923991.7721,-191
1606923991.7740,-217
1606923991.7761,-222
1606923991.7781,-205
1606923992.2334,-184
1606923992.2346,-169
1606923992.2374,-160
1606923992.2397,-148
1606923992.2418,-138
1606923992.2437,-138
1606923992.2457,-138
1606923992.2477,-133
1606923992.2497,-126
1606923992.2517,-114
1606923992.2536,-110
1606923992.2557,-112
1606923992.2578,-107
1606923992.2597,-98
1606923992.2616,-100
1606923992.2636,-110
1606923992.2656,-112
1606923992.2676,-105
1606923992.2696,-98
1606923992.2716,-95
1606923992.2736,-95
1606923992.2756,-88
1606923992.2776,-86
1606923992.2796,-88
1606923992.2816,-81
1606923992.2836,-69
1606923992.2856,-66
1606923992.2876,-66
1606923992.2896,-66
1606923992.2916,-62
1606923992.2936,-50
1606923992.2956,-45
1606923992.2976,-47
1606923992.2996,-45
1606923992.3016,-43
1606923992.3036,-38
1606923992.3056,-31
1606923992.3076,-26
1606923992.3096,-23
1606923992.3116,-23
1606923992.3137,-23
1606923992.3156,-16
1606923992.3176,-11
1606923992.3196,-16
1606923992.3216,-14
1606923992.3236,-9
1606923992.3256,-4
1606923992.3276,-2
1606923992.3296,-9
1606923992.3317,-14
1606923992.3336,2
1606923992.3356,23
1606923992.3376,38
1606923992.3398,62
1606923992.3416,86
1606923992.3436,88
1606923992.3456,64
1606923992.3476,28
1606923992.3496,4
1606923992.3516,2
1606923992.3536,9
1606923992.3556,9
1606923992.3576,9
1606923992.3596,14
1606923992.3616,21
1606923992.3637,45
1606923992.3656,122
1606923992.3676,387
1606923992.3696,1012
1606923992.3716,1665
1606923992.3736,1437
1606923992.3756,-31
1606923992.3776,-1323
1606923992.7740,-1009
1606923992.7749,-153
1606923992.7774,-19
1606923992.7801,-81
1606923992.7821,71
1606923992.7840,122
1606923992.7847,66
1606923992.7870,95
1606923992.7890,129
1606923992.7910,117
1606923992.7929,122
1606923992.7949,136
1606923992.7969,143
1606923992.7989,157
1606923992.8010,174
1606923992.8029,196
1606923992.8049,220
1606923992.8070,239
1606923992.8089,260
1606923992.8110,299
1606923992.8129,334
1606923992.8149,361
1606923992.8156,394
1606923992.8179,428
1606923992.8199,449
1606923992.8221,456
1606923992.8241,452
1606923992.8259,433
1606923992.8279,399
1606923992.8299,344
1606923992.8320,263
1606923992.8341,165
1606923992.8359,57
1606923992.8380,-40
1606923992.8399,-122
1606923992.8419,-177
1606923992.8439,-208
1606923992.8459,-227
1606923992.8466,-232
1606923992.8489,-224
1606923992.8510,-210
1606923992.8529,-198
1606923992.8549,-181
1606923992.8570,-167
1606923992.8589,-157
1606923992.8610,-143
1606923992.8629,-131
1606923992.8649,-126
1606923992.8669,-119
1606923992.8689,-112
1606923992.8710,-110
1606923992.8729,-105
1606923992.8749,-95
1606923992.8769,-93
1606923992.8777,-93
1606923992.8790,-95
1606923992.8810,-95
1606923992.8829,-95
1606923992.8849,-95
1606923992.8869,-88
1606923992.8889,-83
1606923992.8910,-86
1606923992.8929,-86
1606923992.8949,-81
1606923992.8969,-74
1606923992.8989,-71
1606923992.9010,-69
1606923992.9029,-57
1606923992.9049,-50
1606923992.9056,-52
1606923992.9079,-55
1606923992.9099,-47
1606923992.9119,-40
1606923993.3436,-38
1606923993.3445,-43
1606923993.3469,-45
1606923993.3496,-40
1606923993.3516,-33
1606923993.3535,-28
1606923993.3555,-26
1606923993.3575,-31
1606923993.3595,-33
1606923993.3604,-28
1606923993.3626,-23
1606923993.3645,-23
1606923993.3665,-23
1606923993.3685,-19
1606923993.3705,-19
1606923993.3725,-33
1606923993.3745,-38
1606923993.3765,-21
1606923993.3785,2
1606923993.3805,31
1606923993.3825,64
1606923993.3845,88
1606923993.3865,81
1606923993.3885,45
1606923993.3905,9
1606923993.3912,-2
1606923993.3925,2
1606923993.3945,0
1606923993.3965,-2
1606923993.3985,4
1606923993.4005,11
1606923993.4025,19
1606923993.4045,50
1606923993.4065,174
1606923993.4085,617
1606923993.4105,1335
1606923993.4125,1648
1606923993.4145,849
1606923993.4164,-701
1606923993.4185,-1299
1606923993.4205,-466
1606923993.4212,119
1606923993.4225,-59
1606923993.4245,-52
1606923993.4265,129
1606923993.4285,83
1606923993.4305,38
1606923993.4325,102
1606923993.4345,114
1606923993.4365,98
1606923993.4385,122
1606923993.4405,141
1606923993.4425,145
1606923993.4445,167
1606923993.4465,191
1606923993.4485,205
1606923993.4505,227
1606923993.4512,256
1606923993.4525,284
1606923993.4545,313
1606923993.4566,346
1606923993.4586,382
1606923993.4605,418
1606923993.4625,445
1606923993.4645,464
1606923993.4665,471
1606923993.4685,464
1606923993.4705,428
1606923993.4725,378
1606923993.4745,320
1606923993.4765,232
1606923993.4785,119
1606923993.4805,11
1606923993.8839,-76
1606923993.8849,-145
1606923993.8873,-193
1606923993.8900,-220
1606923993.8919,-227
1606923993.8939,-229
1606923993.8959,-229
1606923993.8979,-212
1606923993.8999,-193
1606923993.9019,-189
1606923993.9039,-181
1606923993.9059,-165
1606923993.9079,-153
1606923993.9099,-148
1606923993.9119,-138
1606923993.9140,-124
1606923993.9147,-119
1606923993.9169,-119
1606923993.9189,-110
1606923993.9209,-105
1606923993.9229,-110
1606923993.9249,-105
1606923993.9269,-95
1606923993.9289,-100
1606923993.9309,-100
1606923993.9329,-93
1606923993.9349,-90
1606923993.9369,-88
1606923993.9389,-86
1606923993.9409,-83
1606923993.9429,-81
1606923993.9449,-76
1606923993.9455,-71
1606923993.9469,-66
1606923993.9489,-62
1606923993.9509,-59
1606923993.9529,-57
1606923993.9549,-55
1606923993.9570,-52
1606923993.9589,-55
1606923993.9610,-47
1606923993.9629,-40
1606923993.9649,-40
1606923993.9669,-38
1606923993.9689,-31
1606923993.9709,-26
1606923993.9729,-23
1606923993.9737,-21
1606923993.9759,-21
1606923993.9779,-19
1606923993.9800,-11
1606923993.9819,-9
1606923993.9839,-9
1606923993.9858,-9
1606923993.9878,-7
1606923993.9898,-4
1606923993.9918,0
1606923993.9938,2
1606923993.9958,4
1606923993.9978,7
1606923993.9998,7
1606923994.0019,4
1606923994.0038,7
1606923994.0058,9
1606923994.0078,7
1606923994.0099,9
1606923994.0118,11
1606923994.0139,7
1606923994.0158,0
1606923994.0178,2
1606923994.0199,14
1606923994.0219,33
1606923994.0238,64
1606923994.4541,95
1606923994.4550,102
1606923994.4575,86
1606923994.4601,50
1606923994.4621,19
1606923994.4641,9
1606923994.4662,9
1606923994.4681,2
1606923994.4701,4
1606923994.4721,9
1606923994.4741,14
1606923994.4761,23
1606923994.4781,57
1606923994.4801,212
1606923994.4822,708
1606923994.4841,1373
1606923994.4863,1497
1606923994.4883,533
1606923994.4901,-902
1606923994.4922,-1165
1606923994.4940,-277
1606923994.4961,114
1606923994.4980,-81
1606923994.5001,-9
1606923994.5021,138
1606923994.5041,69
1606923994.5060,52
1606923994.5081,119
1606923994.5100,117
1606923994.5121,102
1606923994.5141,129
1606923994.5161,143
1606923994.5181,150
1606923994.5201,172
1606923994.5221,193
1606923994.5240,210
1606923994.5260,236
1606923994.5280,263
1606923994.5300,289
1606923994.5321,320
1606923994.5340,354
1606923994.5360,385
1606923994.5381,411
1606923994.5400,440
1606923994.5421,459
1606923994.5440,464
1606923994.5460,452
1606923994.5482,430
1606923994.5501,392
1606923994.5521,330
1606923994.5540,241
1606923994.5560,136
1606923994.5580,31
1606923994.5600,-59
1606923994.5621,-129
1606923994.5640,-174
1606923994.5660,-203
1606923994.5680,-220
1606923994.5700,-217
1606923994.5721,-200
1606923994.5741,-189
1606923994.5760,-184
1606923994.5780,-172
1606923994.5800,-153
1606923994.5821,-145
1606923994.5840,-143
1606923994.5860,-131
1606923994.5882,-117
1606923994.5901,-110
1606923994.5921,-105
1606923994.5940,-102
1606923994.5961,-102
1606923994.5980,-102
1606923994.9939,-98
1606923994.9945,-93
1606923994.9969,-88
1606923994.9996,-93
1606923995.0016,-98
1606923995.0036,-93
1606923995.0057,-93
1606923995.0076,-95
1606923995.0096,-95
1606923995.0117,-86
1606923995.0136,-83
1606923995.0156,-88
1606923995.0176,-83
1606923995.0196,-69
1606923995.0216,-62
1606923995.0236,-69
1606923995.0256,-69
1606923995.0276,-59
1606923995.0296,-52
1606923995.0317,-52
1606923995.0335,-50
1606923995.0355,-43
1606923995.0375,-38
1606923995.0396,-43
1606923995.0416,-40
1606923995.0435,-28
1606923995.0455,-23
1606923995.0475,-31
1606923995.0496,-33
1606923995.0516,-21
1606923995.0535,-16
1606923995.0556,-16
1606923995.0575,-14
1606923995.0595,-7
1606923995.0616,-2
1606923995.0635,0
1606923995.0655,2
1606923995.0675,0
1606923995.0695,0
1606923995.0716,7
1606923995.0735,11
1606923995.0755,9
1606923995.0775,11
1606923995.0796,9
1606923995.0816,9
1606923995.0837,14
1606923995.0856,9
1606923995.0875,2
1606923995.0895,16
1606923995.0916,38
1606923995.0936,62
1606923995.0955,88
1606923995.0975,95
1606923995.0996,78
1606923995.1016,45
1606923995.1035,9
1606923995.1055,-2
1606923995.1075,11
1606923995.1096,21
1606923995.1116,16
1606923995.1135,16
1606923995.1155,19
1606923995.1175,26
1606923995.1195,59
1606923995.1216,181
1606923995.1236,600
1606923995.1255,1311
1606923995.1275,1658
1606923995.1295,815
1606923995.1316,-791
1606923995.1335,-1323
1606923995.1355,-485
1606923995.1376,40
1606923995.5935,-69
1606923995.5944,-11
1606923995.5968,136
1606923995.5995,98
1606923995.6016,64
1606923995.6035,107
1606923995.6056,112
1606923995.6075,112
1606923995.6095,133
1606923995.6115,145
1606923995.6134,155
1606923995.6154,172
1606923995.6174,186
1606923995.6194,210
1606923995.6215,234
1606923995.6234,256
1606923995.6254,282
1606923995.6274,315
1606923995.6295,351
1606923995.6315,387
1606923995.6335,418
1606923995.6354,447
1606923995.6374,466
1606923995.6396,471
1606923995.6415,466
1606923995.6434,445
1606923995.6454,406
1606923995.6474,342
1606923995.6494,251
1606923995.6514,141
1606923995.6534,33
1606923995.6554,-59
1606923995.6574,-133
1606923995.6594,-184
1606923995.6614,-217
1606923995.6634,-234
1606923995.6654,-232
1606923995.6674,-220
1606923995.6694,-208
1606923995.6715,-198
1606923995.6734,-191
1606923995.6754,-177
1606923995.6774,-162
1606923995.6794,-155
1606923995.6814,-150
1606923995.6834,-141
1606923995.6854,-126
1606923995.6874,-122
1606923995.6894,-117
1606923995.6914,-112
1606923995.6934,-110
1606923995.6954,-107
1606923995.6974,-102
1606923995.6994,-102
1606923995.7014,-105
1606923995.7034,-100
1606923995.7054,-98
1606923995.7074,-95
1606923995.7094,-93
1606923995.7114,-90
1606923995.7134,-90
1606923995.7155,-86
1606923995.7174,-81
1606923995.7194,-76
1606923995.7214,-74
1606923995.7234,-69
1606923995.7254,-64
1606923995.7274,-62
1606923995.7294,-62
1606923995.7314,-57
1606923995.7334,-47
1606923995.7354,-45
1606923995.7374,-47
1606923996.1335,-40
1606923996.1347,-33
1606923996.1369,-35
1606923996.1395,-35
1606923996.1414,-33
1606923996.1435,-31
1606923996.1455,-26
1606923996.1475,-21
1606923996.1495,-23
1606923996.1515,-28
1606923996.1534,-26
1606923996.1554,-21
1606923996.1574,-21
1606923996.1594,-21
1606923996.1614,-16
1606923996.1634,-11
1606923996.1654,-11
1606923996.1674,-11
1606923996.1694,-7
1606923996.1714,-2
1606923996.1735,-4
1606923996.1754,-16
1606923996.1774,-19
1606923996.1794,0
1606923996.1815,21
1606923996.1834,47
1606923996.1854,78
1606923996.1874,95
1606923996.1894,81
1606923996.1914,50
1606923996.1934,14
1606923996.1954,0
1606923996.1974,2
1606923996.1994,2
1606923996.2014,0
1606923996.2034,0
1606923996.2054,2
1606923996.2074,11
1606923996.2094,40
1606923996.2114,145
1606923996.2134,555
1606923996.2154,1275
1606923996.2175,1646
1606923996.2195,882
1606923996.2215,-698
1606923996.2234,-1354
1606923996.2254,-533
1606923996.2274,93
1606923996.2294,-52
1606923996.2314,-50
1606923996.2334,126
1606923996.2353,83
1606923996.2376,40
1606923996.2394,107
1606923996.2415,119
1606923996.2434,102
1606923996.2454,129
1606923996.2474,148
1606923996.2494,150
1606923996.2514,169
1606923996.2534,196
1606923996.2554,210
1606923996.2574,227
1606923996.2594,253
1606923996.2614,282
1606923996.2634,315
1606923996.2654,349
1606923996.2674,380
1606923996.2694,411
1606923996.2714,435
1606923996.2734,459
1606923996.2754,468
1606923996.2774,461
1606923996.7035,435
1606923996.7044,392
1606923996.7069,330
1606923996.7095,246
1606923996.7115,136
1606923996.7135,21
1606923996.7156,-71
1606923996.7175,-150
1606923996.7195,-205
1606923996.7215,-229
1606923996.7234,-241
1606923996.7254,-241
1606923996.7274,-232
1606923996.7295,-220
1606923996.7315,-203
1606923996.7334,-186
1606923996.7354,-172
1606923996.7374,-157
1606923996.7394,-145
1606923996.7414,-138
1606923996.7434,-126
1606923996.7454,-112
1606923996.7474,-107
1606923996.7494,-105
1606923996.7514,-102
1606923996.7534,-105
1606923996.7554,-105
1606923996.7574,-102
1606923996.7594,-98
1606923996.7614,-98
1606923996.7635,-98
1606923996.7654,-98
1606923996.7674,-93
1606923996.7694,-90
1606923996.7714,-93
1606923996.7734,-86
1606923996.7754,-78
1606923996.7775,-78
1606923996.7794,-76
1606923996.7814,-71
1606923996.7834,-64
1606923996.7854,-59
1606923996.7874,-57
1606923996.7894,-57
1606923996.7914,-50
1606923996.7934,-43
1606923996.7954,-38
1606923996.7974,-35
1606923996.7994,-35
1606923996.8014,-38
1606923996.8035,-31
1606923996.8054,-23
1606923996.8074,-21
1606923996.8094,-19
1606923996.8115,-21
1606923996.8134,-19
1606923996.8154,-9
1606923996.8174,-7
1606923996.8194,-11
1606923996.8214,-11
1606923996.8234,-4
1606923996.8254,-2
1606923996.8274,-2
1606923996.8294,0
1606923996.8314,4
1606923996.8334,7
1606923996.8354,4
1606923996.8374,4
1606923996.8394,9
1606923996.8414,11
1606923996.8435,14
1606923996.8454,14
1606923996.8474,16
1606923997.2440,19
1606923997.2449,19
1606923997.2474,16
1606923997.2500,9
1606923997.2520,2
1606923997.2540,14
1606923997.2561,38
1606923997.2580,62
1606923997.2603,83
1606923997.2622,95
1606923997.2640,95
1606923997.2660,64
1606923997.2680,19
1606923997.2699,-2
1606923997.2720,7
1606923997.2739,16
1606923997.2759,9
1606923997.2779,4
1606923997.2799,2
1606923997.2820,9
1606923997.2839,33
1606923997.2859,102
1606923997.2879,409
1606923997.2899,1062
1606923997.2919,1562
1606923997.2939,1136
1606923997.2960,-289
1606923997.2980,-1308
1606923997.2999,-777
1606923997.3020,33
1606923997.3040,0
1606923997.3059,-100
1606923997.3079,83
1606923997.3099,102
1606923997.3120,33
1606923997.3140,81
1606923997.3160,114
1606923997.3179,95
1606923997.3199,112
1606923997.3220,138
1606923997.3239,143
1606923997.3259,157
1606923997.3279,179
1606923997.3299,196
1606923997.3320,217
1606923997.3339,246
1606923997.3359,270
1606923997.3379,303
1606923997.3399,339
1606923997.3420,370
1606923997.3439,401
1606923997.3459,433
1606923997.3479,456
1606923997.3499,471
1606923997.3519,471
1606923997.3539,454
1606923997.3559,418
1606923997.3580,366
1606923997.3600,291
1606923997.3622,196
1606923997.3640,76
1606923997.3659,-28
1606923997.3679,-100
1606923997.3699,-157
1606923997.3719,-200
1606923997.3740,-217
1606923997.3759,-222
1606923997.3779,-220
1606923997.3799,-205
1606923997.3819,-186
1606923997.3839,-177
1606923997.3859,-169
1606923997.3879,-157
1606923997.8141,-141
1606923997.8154,-131
1606923997.8179,-122
1606923997.8205,-107
1606923997.8224,-102
1606923997.8244,-112
1606923997.8265,-112
1606923997.8284,-105
1606923997.8304,-102
1606923997.8324,-102
1606923997.8343,-100
1606923997.8364,-105
1606923997.8383,-107
1606923997.8403,-107
1606923997.8423,-107
1606923997.8443,-102
1606923997.8463,-95
1606923997.8483,-93
1606923997.8503,-93
1606923997.8523,-88
1606923997.8543,-83
1606923997.8563,-78
1606923997.8583,-74
1606923997.8603,-71
1606923997.8623,-69
1606923997.8643,-62
1606923997.8663,-57
1606923997.8683,-55
1606923997.8703,-50
1606923997.8723,-50
1606923997.8743,-50
1606923997.8763,-43
1606923997.8783,-38
1606923997.8803,-38
1606923997.8823,-31
1606923997.8843,-23
1606923997.8864,-28
1606923997.8940,-31
1606923997.8953,-21
1606923997.8974,-16
1606923997.8993,-21
1606923997.9013,-21
1606923997.9033,-16
1606923997.9053,-14
1606923997.9073,-11
1606923997.9093,-9
1606923997.9113,-4
1606923997.9133,-7
1606923997.9153,-7
1606923997.9173,-2
1606923997.9193,2
1606923997.9214,2
1606923997.9233,4
1606923997.9252,7
1606923997.9273,9
1606923997.9293,11
1606923997.9313,9
1606923997.9333,9
1606923997.9353,14
1606923997.9373,14
1606923997.9393,4
1606923997.9413,2
1606923997.9433,11
1606923997.9454,26
1606923997.9473,50
1606923997.9493,81
1606923997.9513,100
1606923997.9533,93
1606923997.9553,66
1606923997.9573,33
1606923997.9593,9
1606923997.9613,9
1606923997.9633,14
1606923998.4139,11
1606923998.4149,9
1606923998.4174,16
1606923998.4200,16
1606923998.4220,26
1606923998.4239,83
1606923998.4259,344
1606923998.4279,961
1606923998.4299,1540
1606923998.4319,1280
1606923998.4339,-74
1606923998.4359,-1263
1606923998.4379,-916
1606923998.4399,-40
1606923998.4420,21
1606923998.4440,-107
1606923998.4459,64
1606923998.4479,110
1606923998.4499,26
1606923998.4519,62
1606923998.4539,112
1606923998.4559,100
1606923998.4579,110
1606923998.4598,131
1606923998.4620,141
1606923998.4639,155
1606923998.4659,179
1606923998.4679,198
1606923998.4699,220
1606923998.4719,246
1606923998.4739,267
1606923998.4759,296
1606923998.4780,332
1606923998.4799,368
1606923998.4819,399
1606923998.4839,437
1606923998.4859,473
1606923998.4879,490
1606923998.4899,488
1606923998.4919,473
1606923998.4939,449
1606923998.4959,404
1606923998.4979,325
1606923998.4999,220
1606923998.5019,105
1606923998.5039,0
1606923998.5058,-86
1606923998.5079,-150
1606923998.5099,-196
1606923998.5120,-224
1606923998.5139,-236
1606923998.5159,-227
1606923998.5179,-208
1606923998.5199,-193
1606923998.5219,-189
1606923998.5239,-177
1606923998.5259,-157
1606923998.5279,-145
1606923998.5299,-138
1606923998.5319,-126
1606923998.5339,-117
1606923998.5359,-112
1606923998.5379,-112
1606923998.5399,-110
1606923998.5419,-98
1606923998.5439,-90
1606923998.5460,-95
1606923998.5480,-100
1606923998.5499,-98
1606923998.5519,-95
1606923998.5539,-98
1606923998.5559,-95
1606923998.5579,-86
1606923998.9533,-81
1606923998.9541,-86
1606923998.9555,-86
1606923998.9574,-83
1606923998.9595,-90
1606923998.9615,-93
1606923998.9634,-74
1606923998.9654,-74
1606923998.9674,-88
1606923998.9694,-83
1606923998.9714,-66
1606923998.9733,-69
1606923998.9755,-76
1606923998.9774,-71
1606923998.9782,-62
1606923998.9804,-62
1606923998.9824,-59
1606923998.9845,-52
1606923998.9864,-45
1606923998.9884,-40
1606923998.9903,-40
1606923998.9924,-43
1606923998.9944,-35
1606923998.9964,-33
1606923998.9984,-33
1606923999.0004,-26
1606923999.0024,-23
1606923999.0044,-23
1606923999.0063,-19
1606923999.0071,-14
1606923999.0094,-11
1606923999.0114,-9
1606923999.0134,-9
1606923999.0153,-11
1606923999.0173,-11
1606923999.0193,-4
1606923999.0214,7
1606923999.0233,28
1606923999.0253,50
1606923999.0274,64
1606923999.0294,81
1606923999.0314,83
1606923999.0334,47
1606923999.0354,2
1606923999.0375,-11
1606923999.0382,2
1606923999.0394,7
1606923999.0414,-2
1606923999.0434,0
1606923999.0454,14
1606923999.0474,21
1606923999.0494,50
1606923999.0514,155
1606923999.0534,502
1606923999.0554,1186
1606923999.0573,1689
1606923999.0594,1093
1606923999.0614,-526
1606923999.0633,-1421
1606923999.0654,-770
1606923999.0674,-62
1606923999.0681,-62
1606923999.0703,-57
1606923999.0723,88
1606923999.0744,86
1606923999.0764,50
1606923999.0784,93
1606923999.0804,117
1606923999.0824,110
1606923999.0844,126
1606923999.0864,145
1606923999.0884,153
1606923999.0904,167
1606923999.5235,191
1606923999.5245,210
1606923999.5269,229
1606923999.5296,248
1606923999.5303,277
1606923999.5325,313
1606923999.5345,349
1606923999.5365,380
1606923999.5385,413
1606923999.5405,440
1606923999.5425,456
1606923999.5445,466
1606923999.5465,461
1606923999.5485,437
1606923999.5505,397
1606923999.5525,337
1606923999.5545,256
1606923999.5565,148
1606923999.5585,33
1606923999.5605,-64
1606923999.5612,-138
1606923999.5635,-193
1606923999.5657,-224
1606923999.5675,-236
1606923999.5695,-236
1606923999.5715,-229
1606923999.5735,-215
1606923999.5755,-198
1606923999.5775,-186
1606923999.5795,-174
1606923999.5815,-157
1606923999.5835,-143
1606923999.5855,-136
1606923999.5875,-129
1606923999.5895,-119
1606923999.5915,-110
1606923999.5922,-102
1606923999.5946,-100
1606923999.5965,-98
1606923999.5985,-93
1606923999.6005,-93
1606923999.6025,-93
1606923999.6045,-90
1606923999.6065,-93
1606923999.6085,-93
1606923999.6105,-90
1606923999.6125,-90
1606923999.6145,-86
1606923999.6165,-83
1606923999.6185,-81
1606923999.6205,-78
1606923999.6225,-74
1606923999.6232,-74
1606923999.6254,-69
1606923999.6275,-59
1606923999.6295,-55
1606923999.6315,-62
1606923999.6335,-59
1606923999.6355,-52
1606923999.6375,-50
1606923999.6395,-47
1606923999.6415,-43
1606923999.6435,-40
1606923999.6455,-38
1606923999.6475,-31
1606923999.6495,-26
1606923999.6515,-28
1606923999.6535,-26
1606923999.6542,-23
1606923999.6565,-19
1606923999.6585,-16
1606923999.6606,-11
1606923999.6625,-7
1606924000.0639,-7
1606924000.0649,-7
1606924000.0665,-7
1606924000.0683,-9
1606924000.0702,-4
1606924000.0721,0
1606924000.0741,0
1606924000.0748,-4
1606924000.0771,-14
1606924000.0790,-16
1606924000.0812,-9
1606924000.0833,9
1606924000.0851,45
1606924000.0871,78
1606924000.0891,86
1606924000.0911,71
1606924000.0931,40
1606924000.0951,4
1606924000.0971,-9
1606924000.0991,-4
1606924000.1013,-2
1606924000.1031,0
1606924000.1051,4
1606924000.1058,9
1606924000.1081,19
1606924000.1101,47
1606924000.1122,174
1606924000.1141,634
1606924000.1160,1349
1606924000.1181,1624
1606924000.1201,770
1606924000.1221,-770
1606924000.1241,-1284
1606924000.1261,-433
1606924000.1281,107
1606924000.1301,-76
1606924000.1321,-57
1606924000.1341,112
1606924000.1360,59
1606924000.1367,26
1606924000.1381,93
1606924000.1401,98
1606924000.1421,86
1606924000.1440,114
1606924000.1461,131
1606924000.1481,136
1606924000.1501,157
1606924000.1521,181
1606924000.1541,196
1606924000.1561,212
1606924000.1581,241
1606924000.1602,272
1606924000.1622,303
1606924000.1641,342
1606924000.1661,385
1606924000.1668,421
1606924000.1690,445
1606924000.1711,468
1606924000.1731,480
1606924000.1751,471
1606924000.1770,445
1606924000.1791,404
1606924000.1811,339
1606924000.1831,251
1606924000.1851,141
1606924000.1871,26
1606924000.1891,-69
1606924000.1911,-143
1606924000.1931,-196
1606924000.1951,-220
1606924000.1970,-227
1606924000.1978,-227
1606924000.2002,-222
1606924000.6336,-205
1606924000.6344,-184
1606924000.6369,-172
1606924000.6395,-169
1606924000.6416,-157
1606924000.6435,-138
1606924000.6457,-131
1606924000.6476,-129
1606924000.6495,-122
1606924000.6515,-114
1606924000.6534,-110
1606924000.6554,-107
1606924000.6576,-100
1606924000.6595,-95
1606924000.6614,-93
1606924000.6634,-95
1606924000.6654,-93
1606924000.6674,-88
1606924000.6695,-88
1606924000.6715,-90
1606924000.6735,-86
1606924000.6755,-81
1606924000.6775,-78
1606924000.6794,-76
1606924000.6814,-69
1606924000.6835,-62
1606924000.6855,-64
1606924000.6875,-66
1606924000.6894,-62
1606924000.6917,-55
1606924000.6935,-50
1606924000.6955,-50
1606924000.6974,-47
1606924000.6994,-43
1606924000.7015,-40
1606924000.7034,-35
1606924000.7054,-31
1606924000.7074,-33
1606924000.7094,-31
1606924000.7114,-23
1606924000.7134,-26
1606924000.7154,-31
1606924000.7174,-26
1606924000.7194,-21
1606924000.7214,-19
1606924000.7234,-14
1606924000.7254,-11
1606924000.7274,-11
1606924000.7294,-11
1606924000.7314,-9
1606924000.7334,-4
1606924000.7354,0
1606924000.7374,0
1606924000.7394,2
1606924000.7414,4
1606924000.7434,4
1606924000.7455,4
1606924000.7474,9
1606924000.7494,14
1606924000.7514,9
1606924000.7534,4
1606924000.7554,7
1606924000.7574,4
1606924000.7594,-2
1606924000.7614,2
1606924000.7634,21
1606924000.7654,52
1606924000.7674,86
1606924000.7694,102
1606924000.7714,98
1606924000.7734,76
1606924000.7754,35
1606924000.7774,4
1606924001.1744,4
1606924001.1753,14
1606924001.1777,16
1606924001.1804,14
1606924001.1824,14
1606924001.1844,19
1606924001.1865,43
1606924001.1886,102
1606924001.1904,389
1606924001.1923,1031
1606924001.1944,1569
1606924001.1964,1227
1606924001.1984,-143
1606924001.2004,-1253
1606924001.2023,-842
1606924001.2043,4
1606924001.2063,23
1606924001.2083,-112
1606924001.2103,59
1606924001.2123,100
1606924001.2143,21
1606924001.2163,62
1606924001.2183,102
1606924001.2203,86
1606924001.2223,93
1606924001.2243,119
1606924001.2263,129
1606924001.2283,145
1606924001.2303,169
1606924001.2323,184
1606924001.2343,208
1606924001.2363,236
1606924001.2383,258
1606924001.2403,282
1606924001.2423,315
1606924001.2444,354
1606924001.2463,387
1606924001.2483,421
1606924001.2503,447
1606924001.2523,456
1606924001.2543,454
1606924001.2563,440
1606924001.2584,411
1606924001.2603,361
1606924001.2623,287
1606924001.2643,191
1606924001.2663,78
1606924001.2684,-26
1606924001.2703,-107
1606924001.2723,-162
1606924001.2742,-200
1606924001.2763,-227
1606924001.2782,-236
1606924001.2803,-224
1606924001.2823,-210
1606924001.2843,-200
1606924001.2863,-191
1606924001.2883,-172
1606924001.2904,-155
1606924001.2923,-148
1606924001.2943,-141
1606924001.2962,-131
1606924001.2982,-122
1606924001.3003,-117
1606924001.3023,-112
1606924001.3042,-105
1606924001.3063,-100
1606924001.3083,-98
1606924001.3102,-95
1606924001.3123,-90
1606924001.3142,-90
1606924001.3163,-95
1606924001.3183,-95
1606924001.7439,-86
1606924001.7449,-83
1606924001.7474,-83
1606924001.7500,-83
1606924001.7520,-81
1606924001.7539,-81
1606924001.7560,-83
1606924001.7579,-83
1606924001.7599,-78
1606924001.7619,-76
1606924001.7639,-78
1606924001.7659,-74
1606924001.7679,-64
1606924001.7699,-59
1606924001.7719,-57
1606924001.7739,-52
1606924001.7759,-50
1606924001.7779,-47
1606924001.7799,-43
1606924001.7819,-38
1606924001.7839,-33
1606924001.7859,-35
1606924001.7879,-35
1606924001.7899,-31
1606924001.7919,-26
1606924001.7939,-31
1606924001.7959,-33
1606924001.7979,-23
1606924001.7999,-21
1606924001.8019,-23
1606924001.8039,-19
1606924001.8059,-11
1606924001.8078,-11
1606924001.8099,-14
1606924001.8119,-9
1606924001.8139,-2
1606924001.8162,0
1606924001.8179,0
1606924001.8198,0
1606924001.8219,0
1606924001.8238,0
1606924001.8258,4
1606924001.8279,7
1606924001.8299,4
1606924001.8319,9
1606924001.8339,11
1606924001.8359,7
1606924001.8378,7
1606924001.8399,4
1606924001.8419,-4
1606924001.8439,4
1606924001.8458,28
1606924001.8479,55
1606924001.8498,81
1606924001.8519,100
1606924001.8538,102
1606924001.8558,71
1606924001.8578,26
1606924001.8598,4
1606924001.8618,4
1606924001.8639,11
1606924001.8660,14
1606924001.8679,16
1606924001.8699,19
1606924001.8719,21
1606924001.8739,38
1606924001.8758,90
1606924001.8779,349
1606924001.8799,978
1606924001.8819,1569
1606924001.8839,1325
1606924001.8859,-19
1606924001.8866,-1227
1606924002.3136,-916
1606924002.3146,-55
1606924002.3170,26
1606924002.3186,-105
1606924002.3206,55
1606924002.3226,107
1606924002.3247,33
1606924002.3266,57
1606924002.3286,93
1606924002.3306,81
1606924002.3328,95
1606924002.3346,119
1606924002.3366,129
1606924002.3375,143
1606924002.3389,167
1606924002.3407,181
1606924002.3426,198
1606924002.3446,222
1606924002.3466,244
1606924002.3486,270
1606924002.3506,308
1606924002.3525,349
1606924002.3545,385
1606924002.3565,416
1606924002.3585,445
1606924002.3606,459
1606924002.3625,459
1606924002.3645,449
1606924002.3665,423
1606924002.3671,378
1606924002.3685,308
1606924002.3706,208
1606924002.3725,95
1606924002.3746,-7
1606924002.3765,-93
1606924002.3785,-157
1606924002.3806,-203
1606924002.3826,-222
1606924002.3846,-227
1606924002.3865,-227
1606924002.3885,-220
1606924002.3906,-200
1606924002.3925,-186
1606924002.3945,-172
1606924002.3965,-157
1606924002.3971,-148
1606924002.3985,-143
1606924002.4006,-133
1606924002.4026,-122
1606924002.4046,-114
1606924002.4065,-112
1606924002.4085,-107
1606924002.4106,-100
1606924002.4125,-98
1606924002.4145,-100
1606924002.4165,-95
1606924002.4185,-93
1606924002.4206,-93
1606924002.4225,-90
1606924002.4245,-86
1606924002.4265,-88
1606924002.4272,-90
1606924002.4285,-83
1606924002.4306,-76
1606924002.4325,-81
1606924002.4347,-88
1606924002.4366,-81
1606924002.4385,-69
1606924002.4406,-62
1606924002.4425,-62
1606924002.4445,-64
1606924002.4465,-62
1606924002.4485,-50
1606924002.8841,-47
1606924002.8850,-45
1606924002.8874,-38
1606924002.8901,-35
1606924002.8908,-40
1606924002.8921,-38
1606924002.8941,-31
1606924002.8961,-33
1606924002.8981,-40
1606924002.9001,-40
1606924002.9021,-40
1606924002.9040,-35
1606924002.9060,-28
1606924002.9080,-26
1606924002.9101,-31
1606924002.9121,-28
1606924002.9140,-21
1606924002.9160,-16
1606924002.9181,-14
1606924002.9202,-11
1606924002.9207,-9
1606924002.9220,-9
1606924002.9240,-7
1606924002.9260,-4
1606924002.9279,-2
1606924002.9300,-2
1606924002.9320,-4
1606924002.9340,-4
1606924002.9360,0
1606924002.9380,2
1606924002.9400,-9
1606924002.9420,-11
1606924002.9440,7
1606924002.9460,28
1606924002.9480,50
1606924002.9500,76
1606924002.9507,90
1606924002.9520,76
1606924002.9540,38
1606924002.9560,4
1606924002.9580,-2
1606924002.9600,7
1606924002.9620,9
1606924002.9642,4
1606924002.9661,7
1606924002.9680,9
1606924002.9700,19
1606924002.9721,57
1606924002.9740,186
1606924002.9760,631
1606924002.9780,1358
1606924002.9800,1662
1606924002.9807,744
1606924002.9820,-863
1606924002.9840,-1318
1606924002.9860,-459
1606924002.9880,26
1606924002.9900,-95
1606924002.9920,-28
1606924002.9941,112
1606924002.9960,66
1606924002.9980,47
1606924003.0000,102
1606924003.0020,107
1606924003.0041,102
1606924003.0061,126
1606924003.0080,141
1606924003.0087,145
1606924003.0100,167
1606924003.0120,191
1606924003.0140,210
1606924003.0160,227
1606924003.0180,251
1606924003.4536,275
1606924003.4545,308
1606924003.4569,342
1606924003.4596,370
1606924003.4616,401
1606924003.4636,430
1606924003.4659,445
1606924003.4676,449
1606924003.4683,442
1606924003.4696,411
1606924003.4717,363
1606924003.4736,306
1606924003.4756,222
1606924003.4776,114
1606924003.4796,7
1606924003.4816,-78
1606924003.4835,-141
1606924003.4855,-189
1606924003.4875,-222
1606924003.4896,-234
1606924003.4916,-232
1606924003.4937,-224
1606924003.4956,-210
1606924003.4975,-193
1606924003.4982,-181
1606924003.4995,-172
1606924003.5015,-157
1606924003.5035,-143
1606924003.5055,-131
1606924003.5075,-119
1606924003.5095,-114
1606924003.5115,-114
1606924003.5136,-110
1606924003.5155,-100
1606924003.5175,-93
1606924003.5195,-90
1606924003.5215,-90
1606924003.5235,-93
1606924003.5255,-93
1606924003.5275,-90
1606924003.5282,-88
1606924003.5295,-86
1606924003.5316,-86
1606924003.5335,-86
1606924003.5355,-81
1606924003.5375,-78
1606924003.5395,-78
1606924003.5415,-74
1606924003.5435,-74
1606924003.5456,-74
1606924003.5476,-66
1606924003.5496,-59
1606924003.5516,-59
1606924003.5535,-55
1606924003.5555,-47
1606924003.5575,-47
1606924003.5582,-45
1606924003.5595,-40
1606924003.5615,-40
1606924003.5635,-38
1606924003.5655,-31
1606924003.5675,-33
1606924003.5695,-33
1606924003.5716,-26
1606924003.5735,-23
1606924003.5755,-23
1606924003.5775,-19
1606924003.5795,-14
1606924003.5815,-14
1606924003.5835,-16
1606924003.5855,-16
1606924003.5875,-14
1606924003.5883,-14
1606924003.9935,-11
1606924003.9944,-7
1606924003.9968,-2
1606924003.9995,-7
1606924004.0015,-11
1606924004.0034,-11
1606924004.0055,-14
1606924004.0074,-21
1606924004.0094,-16
1606924004.0113,-14
1606924004.0134,-19
1606924004.0154,-23
1606924004.0174,-16
1606924004.0181,-11
1606924004.0194,-21
1606924004.0214,-31
1606924004.0234,-23
1606924004.0254,-2
1606924004.0274,23
1606924004.0294,52
1606924004.0314,69
1606924004.0333,76
1606924004.0354,59
1606924004.0374,16
1606924004.0394,-11
1606924004.0414,-14
1606924004.0434,-4
1606924004.0454,-2
1606924004.0475,-2
1606924004.0481,-2
1606924004.0493,2
1606924004.0514,21
1606924004.0534,66
1606924004.0554,282
1606924004.0574,868
1606924004.0594,1524
1606924004.0613,1464
1606924004.0634,263
1606924004.0654,-1100
1606924004.0674,-1040
1606924004.0694,-122
1606924004.0714,76
1606924004.0734,-114
1606924004.0754,19
1606924004.0774,117
1606924004.0780,38
1606924004.0794,55
1606924004.0814,112
1606924004.0834,100
1606924004.0854,102
1606924004.0875,126
1606924004.0894,133
1606924004.0914,148
1606924004.0934,169
1606924004.0954,186
1606924004.0974,210
1606924004.0993,236
1606924004.1014,258
1606924004.1034,287
1606924004.1054,322
1606924004.1074,358
1606924004.1080,389
1606924004.1094,418
1606924004.1113,447
1606924004.1134,466
1606924004.1154,471
1606924004.1174,454
1606924004.1194,428
1606924004.1214,385
1606924004.1234,318
1606924004.1254,224
1606924004.1274,117
1606924004.1294,9
1606924004.5336,-78
1606924004.5344,-141
1606924004.5369,-191
1606924004.5380,-217
1606924004.5395,-220
1606924004.5416,-215
1606924004.5435,-212
1606924004.5456,-203
1606924004.5475,-191
1606924004.5495,-179
1606924004.5515,-167
1606924004.5534,-155
1606924004.5555,-143
1606924004.5575,-129
1606924004.5595,-124
1606924004.5614,-122
1606924004.5634,-110
1606924004.5654,-100
1606924004.5675,-102
1606924004.5682,-102
1606924004.5704,-93
1606924004.5724,-88
1606924004.5744,-88
1606924004.5764,-88
1606924004.5784,-90
1606924004.5804,-88
1606924004.5825,-86
1606924004.5844,-86
1606924004.5866,-83
1606924004.5885,-81
1606924004.5904,-83
1606924004.5924,-78
1606924004.5944,-69
1606924004.5964,-66
1606924004.5984,-69
1606924004.5991,-62
1606924004.6004,-55
1606924004.6024,-52
1606924004.6044,-50
1606924004.6064,-45
1606924004.6084,-40
1606924004.6105,-40
1606924004.6124,-43
1606924004.6144,-38
1606924004.6164,-28
1606924004.6184,-23
1606924004.6204,-23
1606924004.6224,-21
1606924004.6244,-16
1606924004.6264,-19
1606924004.6284,-16
1606924004.6291,-9
1606924004.6304,-4
1606924004.6324,-9
1606924004.6344,-16
1606924004.6364,-16
1606924004.6384,-9
1606924004.6404,-9
1606924004.6424,-11
1606924004.6444,-11
1606924004.6464,-7
1606924004.6484,-4
1606924004.6505,-7
1606924004.6524,-4
1606924004.6544,-2
1606924004.6564,-4
1606924004.6584,-2
1606924004.6591,7
1606924004.6604,7
1606924004.6624,2
1606924004.6644,2
1606924004.6664,7
1606924004.6684,9
1606924005.1036,9
1606924005.1044,7
1606924005.1066,7
1606924005.1084,0
1606924005.1104,-11
1606924005.1125,-9
1606924005.1146,9
1606924005.1165,40
1606924005.1172,69
1606924005.1184,83
1606924005.1204,81
1606924005.1223,52
1606924005.1243,11
1606924005.1263,-9
1606924005.1284,-4
1606924005.1305,2
1606924005.1323,0
1606924005.1343,2
1606924005.1363,7
1606924005.1383,14
1606924005.1403,33
1606924005.1423,112
1606924005.1443,449
1606924005.1449,1114
1606924005.1463,1576
1606924005.1483,1093
1606924005.1503,-334
1606924005.1523,-1272
1606924005.1543,-703
1606924005.1563,59
1606924005.1584,-2
1606924005.1604,-90
1606924005.1624,93
1606924005.1643,102
1606924005.1663,33
1606924005.1683,83
1606924005.1703,114
1606924005.1723,98
1606924005.1743,112
1606924005.1750,136
1606924005.1763,141
1606924005.1783,157
1606924005.1803,181
1606924005.1823,203
1606924005.1843,220
1606924005.1863,239
1606924005.1883,263
1606924005.1903,291
1606924005.1923,327
1606924005.1943,363
1606924005.1963,394
1606924005.1983,428
1606924005.2003,449
1606924005.2024,459
1606924005.2043,459
1606924005.2049,447
1606924005.2063,416
1606924005.2084,358
1606924005.2104,284
1606924005.2124,191
1606924005.2143,81
1606924005.2163,-16
1606924005.2183,-95
1606924005.2203,-155
1606924005.2223,-198
1606924005.2243,-217
1606924005.2263,-220
1606924005.2283,-220
1606924005.2303,-212
1606924005.2323,-191
1606924005.2343,-174
1606924005.2350,-165
1606924005.2363,-153
1606924005.7035,-138
1606924005.7044,-131
1606924005.7067,-126
1606924005.7095,-114
1606924005.7115,-102
1606924005.7135,-100
1606924005.7156,-110
1606924005.7175,-110
1606924005.7195,-105
1606924005.7215,-100
1606924005.7234,-100
1606924005.7254,-102
1606924005.7274,-102
1606924005.7294,-100
1606924005.7301,-98
1606924005.7314,-98
1606924005.7334,-98
1606924005.7354,-90
1606924005.7374,-88
1606924005.7394,-88
1606924005.7415,-83
1606924005.7433,-78
1606924005.7453,-78
1606924005.7473,-76
1606924005.7493,-69
1606924005.7513,-62
1606924005.7533,-62
1606924005.7554,-59
1606924005.7573,-52
1606924005.7593,-50
1606924005.7600,-47
1606924005.7614,-45
1606924005.7634,-43
1606924005.7654,-40
1606924005.7674,-33
1606924005.7695,-33
1606924005.7716,-35
1606924005.7733,-31
1606924005.7754,-26
1606924005.7774,-28
1606924005.7794,-33
1606924005.7814,-31
1606924005.7834,-26
1606924005.7854,-23
1606924005.7873,-26
1606924005.7894,-26
1606924005.7900,-23
1606924005.7914,-23
1606924005.7933,-21
1606924005.7954,-16
1606924005.7973,-9
1606924005.7994,-9
1606924005.8014,-11
1606924005.8034,-9
1606924005.8053,-4
1606924005.8074,-2
1606924005.8094,-4
1606924005.8113,-2
1606924005.8134,0
1606924005.8154,-4
1606924005.8174,-7
1606924005.8194,4
1606924005.8200,2
1606924005.8214,-14
1606924005.8233,-14
1606924005.8253,2
1606924005.8274,28
1606924005.8294,62
1606924005.8314,81
1606924005.8334,74
1606924005.8353,59
1606924005.8374,33
1606924005.8394,-4
1606924006.2440,-14
1606924006.2449,2
1606924006.2466,4
1606924006.2491,-7
1606924006.2511,0
1606924006.2530,11
1606924006.2550,19
1606924006.2570,59
1606924006.2590,256
1606924006.2610,806
1606924006.2630,1497
1606924006.2650,1526
1606924006.2670,313
1606924006.2692,-1146
1606924006.2710,-1158
1606924006.2729,-256
1606924006.2749,7
1606924006.2769,-110
1606924006.2776,21
1606924006.2789,114
1606924006.2810,50
1606924006.2829,62
1606924006.2849,117
1606924006.2869,107
1606924006.2889,105
1606924006.2910,124
1606924006.2930,136
1606924006.2949,153
1606924006.2969,177
1606924006.2989,196
1606924006.3010,215
1606924006.3029,234
1606924006.3050,256
1606924006.3070,287
1606924006.3076,320
1606924006.3089,351
1606924006.3110,392
1606924006.3131,433
1606924006.3149,459
1606924006.3170,476
1606924006.3189,488
1606924006.3210,478
1606924006.3229,454
1606924006.3249,411
1606924006.3270,346
1606924006.3289,251
1606924006.3310,141
1606924006.3329,28
1606924006.3349,-66
1606924006.3369,-141
1606924006.3376,-198
1606924006.3389,-232
1606924006.3410,-239
1606924006.3429,-236
1606924006.3449,-229
1606924006.3469,-217
1606924006.3489,-205
1606924006.3509,-191
1606924006.3529,-172
1606924006.3550,-160
1606924006.3570,-150
1606924006.3590,-136
1606924006.3610,-131
1606924006.3629,-131
1606924006.3651,-122
1606924006.3670,-110
1606924006.3676,-107
1606924006.3689,-110
1606924006.3710,-107
1606924006.3729,-102
1606924006.3749,-102
1606924006.3769,-100
1606924006.3789,-100
1606924006.8140,-100
1606924006.8149,-98
1606924006.8173,-90
1606924006.8200,-88
1606924006.8219,-93
1606924006.8240,-88
1606924006.8261,-81
1606924006.8280,-81
1606924006.8300,-86
1606924006.8307,-88
1606924006.8319,-76
1606924006.8339,-71
1606924006.8359,-74
1606924006.8379,-71
1606924006.8399,-64
1606924006.8420,-59
1606924006.8439,-55
1606924006.8459,-50
1606924006.8479,-50
1606924006.8499,-47
1606924006.8519,-47
1606924006.8532,-45
1606924006.8549,-38
1606924006.8569,-33
1606924006.8575,-40
1606924006.8589,-47
1606924006.8609,-47
1606924006.8629,-43
1606924006.8649,-35
1606924006.8669,-33
1606924006.8689,-31
1606924006.8709,-28
1606924006.8729,-31
1606924006.8749,-28
1606924006.8769,-21
1606924006.8789,-19
1606924006.8809,-23
1606924006.8829,-19
1606924006.8849,-11
1606924006.8869,-11
1606924006.8875,-19
1606924006.8889,-26
1606924006.8911,-19
1606924006.8929,-2
1606924006.8949,19
1606924006.8969,47
1606924006.8989,69
1606924006.9010,71
1606924006.9029,45
1606924006.9049,2
1606924006.9069,-21
1606924006.9089,-16
1606924006.9109,-9
1606924006.9128,-9
1606924006.9149,-9
1606924006.9169,-9
1606924006.9175,-4
1606924006.9189,19
1606924006.9209,74
1606924006.9229,313
1606924006.9248,947
1606924006.9269,1629
1606924006.9289,1449
1606924006.9309,21
1606924006.9329,-1311
1606924006.9349,-1021
1606924006.9369,-105
1606924006.9389,11
1606924006.9409,-117
1606924006.9429,45
1606924006.9449,110
1606924006.9469,35
1606924006.9475,64
1606924007.3840,110
1606924007.3849,93
1606924007.3873,100
1606924007.3899,129
1606924007.3920,141
1606924007.3940,150
1606924007.3960,172
1606924007.3980,193
1606924007.4000,210
1606924007.4020,232
1606924007.4040,256
1606924007.4059,282
1606924007.4080,313
1606924007.4085,349
1606924007.4100,385
1606924007.4120,421
1606924007.4139,449
1606924007.4159,466
1606924007.4180,459
1606924007.4200,442
1606924007.4221,413
1606924007.4240,366
1606924007.4259,289
1606924007.4279,193
1606924007.4299,78
1606924007.4319,-33
1606924007.4339,-122
1606924007.4359,-179
1606924007.4379,-212
1606924007.4385,-236
1606924007.4399,-246
1606924007.4419,-241
1606924007.4439,-227
1606924007.4459,-215
1606924007.4479,-205
1606924007.4499,-189
1606924007.4519,-172
1606924007.4539,-160
1606924007.4559,-153
1606924007.4579,-138
1606924007.4599,-129
1606924007.4618,-122
1606924007.4639,-119
1606924007.4659,-110
1606924007.4679,-100
1606924007.4684,-95
1606924007.4699,-95
1606924007.4719,-93
1606924007.4739,-93
1606924007.4759,-93
1606924007.4779,-93
1606924007.4799,-90
1606924007.4819,-88
1606924007.4839,-93
1606924007.4859,-95
1606924007.4879,-90
1606924007.4899,-81
1606924007.4919,-78
1606924007.4939,-76
1606924007.4959,-76
1606924007.4979,-74
1606924007.4985,-69
1606924007.4999,-66
1606924007.5019,-62
1606924007.5039,-57
1606924007.5059,-55
1606924007.5079,-52
1606924007.5099,-47
1606924007.5119,-45
1606924007.5139,-45
1606924007.5159,-40
1606924007.5180,-38
1606924007.5199,-38
1606924007.8935,-35
1606924007.8943,-28
1606924007.8967,-26
1606924007.8978,-28
1606924007.8995,-26
1606924007.9015,-23
1606924007.9034,-19
1606924007.9054,-16
1606924007.9074,-23
1606924007.9094,-28
1606924007.9115,-31
1606924007.9134,-40
1606924007.9154,-38
1606924007.9174,-28
1606924007.9194,-28
1606924007.9214,-35
1606924007.9234,-28
1606924007.9254,-19
1606924007.9273,-19
1606924007.9279,-19
1606924007.9294,-14
1606924007.9314,-11
1606924007.9334,-11
1606924007.9354,-9
1606924007.9373,-7
1606924007.9394,-7
1606924007.9415,-9
1606924007.9433,-9
1606924007.9453,-11
1606924007.9473,-23
1606924007.9493,-23
1606924007.9514,-7
1606924007.9533,21
1606924007.9553,55
1606924007.9573,78
1606924007.9579,81
1606924007.9593,64
1606924007.9614,28
1606924007.9633,-2
1606924007.9653,-11
1606924007.9673,-9
1606924007.9693,-7
1606924007.9713,-4
1606924007.9733,-2
1606924007.9753,2
1606924007.9773,19
1606924007.9793,55
1606924007.9814,220
1606924007.9833,748
1606924007.9855,1437
1606924007.9874,1521
1606924007.9879,459
1606924007.9894,-992
1606924007.9913,-1167
1606924007.9933,-248
1606924007.9953,100
1606924007.9973,-100
1606924007.9993,-7
1606924008.0013,129
1606924008.0033,55
1606924008.0053,45
1606924008.0073,107
1606924008.0093,102
1606924008.0113,98
1606924008.0133,124
1606924008.0153,136
1606924008.0173,143
1606924008.0179,169
1606924008.0193,193
1606924008.0214,208
1606924008.0233,224
1606924008.0253,253
1606924008.0273,284
1606924008.4940,313
1606924008.4949,344
1606924008.4973,378
1606924008.4989,413
1606924008.5010,442
1606924008.5030,454
1606924008.5050,466
1606924008.5070,464
1606924008.5076,437
1606924008.5090,394
1606924008.5110,339
1606924008.5130,253
1606924008.5150,136
1606924008.5170,21
1606924008.5190,-69
1606924008.5210,-141
1606924008.5229,-196
1606924008.5249,-224
1606924008.5269,-236
1606924008.5289,-239
1606924008.5310,-234
1606924008.5330,-220
1606924008.5349,-203
1606924008.5369,-186
1606924008.5375,-174
1606924008.5389,-165
1606924008.5410,-153
1606924008.5431,-136
1606924008.5450,-129
1606924008.5468,-122
1606924008.5489,-114
1606924008.5510,-110
1606924008.5529,-105
1606924008.5549,-100
1606924008.5569,-98
1606924008.5589,-95
1606924008.5610,-93
1606924008.5629,-95
1606924008.5649,-93
1606924008.5669,-90
1606924008.5674,-88
1606924008.5689,-90
1606924008.5709,-90
1606924008.5729,-86
1606924008.5749,-81
1606924008.5769,-81
1606924008.5789,-78
1606924008.5809,-74
1606924008.5829,-69
1606924008.5849,-66
1606924008.5869,-62
1606924008.5889,-62
1606924008.5910,-59
1606924008.5929,-55
1606924008.5949,-50
1606924008.5969,-50
1606924008.5974,-47
1606924008.5989,-43
1606924008.6009,-40
1606924008.6029,-35
1606924008.6049,-31
1606924008.6069,-31
1606924008.6089,-31
1606924008.6110,-28
1606924008.6129,-28
1606924008.6149,-23
1606924008.6169,-23
1606924008.6188,-26
1606924008.6209,-23
1606924008.6229,-16
1606924008.6249,-16
1606924008.6269,-23
1606924008.6274,-19
1606924009.0635,-11
1606924009.0644,-9
1606924009.0668,-9
1606924009.0696,-9
1606924009.0716,-11
1606924009.0738,-14
1606924009.0755,-16
1606924009.0776,-14
1606924009.0795,-11
1606924009.0815,-19
1606924009.0835,-21
1606924009.0855,-16
1606924009.0875,-11
1606924009.0880,-14
1606924009.0895,-14
1606924009.0916,-9
1606924009.0935,-7
1606924009.0955,-11
1606924009.0975,-11
1606924009.0995,-4
1606924009.1014,-4
1606924009.1036,-7
1606924009.1055,-11
1606924009.1075,-16
1606924009.1095,-14
1606924009.1115,0
1606924009.1135,23
1606924009.1154,59
1606924009.1175,81
1606924009.1180,81
1606924009.1195,69
1606924009.1215,35
1606924009.1234,2
1606924009.1254,-9
1606924009.1274,0
1606924009.1296,7
1606924009.1315,7
1606924009.1334,7
1606924009.1354,11
1606924009.1374,21
1606924009.1395,52
1606924009.1415,193
1606924009.1435,672
1606924009.1454,1361
1606924009.1474,1550
1606924009.1480,622
1606924009.1495,-868
1606924009.1515,-1234
1606924009.1534,-344
1606924009.1556,117
1606924009.1574,-76
1606924009.1595,-28
1606924009.1615,129
1606924009.1634,66
1606924009.1654,38
1606924009.1674,107
1606924009.1697,112
1606924009.1715,100
1606924009.1734,126
1606924009.1754,136
1606924009.1774,131
1606924009.1780,155
1606924009.1794,181
1606924009.1815,198
1606924009.1834,222
1606924009.1854,251
1606924009.1874,277
1606924009.1894,306
1606924009.1914,342
1606924009.1934,380
1606924009.1955,416
1606924009.1974,449
1606924009.1994,473
1606924009.6033,485
1606924009.6040,483
1606924009.6064,466
1606924009.6075,428
1606924009.6091,368
1606924009.6111,284
1606924009.6131,179
1606924009.6151,62
1606924009.6171,-43
1606924009.6190,-119
1606924009.6211,-181
1606924009.6231,-227
1606924009.6251,-241
1606924009.6271,-246
1606924009.6291,-248
1606924009.6311,-234
1606924009.6330,-212
1606924009.6350,-203
1606924009.6370,-191
1606924009.6376,-169
1606924009.6390,-162
1606924009.6411,-160
1606924009.6430,-148
1606924009.6449,-145
1606924009.6470,-145
1606924009.6490,-126
1606924009.6511,-114
1606924009.6530,-124
1606924009.6550,-124
1606924009.6570,-110
1606924009.6589,-95
1606924009.6610,-98
1606924009.6630,-100
1606924009.6650,-100
1606924009.6672,-112
1606924009.6675,-112
1606924009.6690,-90
1606924009.6711,-78
1606924009.6730,-110
1606924009.6751,-119
1606924009.6770,-62
1606924009.6790,-43
1606924009.6810,-59
1606924009.6830,-52
1606924009.6850,-55
1606924009.6870,-71
1606924009.6890,-76
1606924009.6910,-74
1606924009.6930,-71
1606924009.6949,-71
1606924009.6970,-57
1606924009.6976,-40
1606924009.6990,-52
1606924009.7010,-76
1606924009.7030,-69
1606924009.7050,-40
1606924009.7070,-31
1606924009.7090,-43
1606924009.7110,-43
1606924009.7130,-45
1606924009.7150,-47
1606924009.7170,-28
1606924009.7190,-14
1606924009.7210,-26
1606924009.7230,-31
1606924009.7250,-21
1606924009.7270,-14
1606924009.7276,-11
1606924009.7290,-21
1606924009.7310,-26
1606924009.7330,-21
1606924009.7350,-14
1606924009.7370,-2
1606924010.1737,-4
1606924010.1743,-33
1606924010.1767,-38
1606924010.1794,-2
1606924010.1815,9
1606924010.1834,-7
1606924010.1855,-16
1606924010.1860,-21
1606924010.1874,-23
1606924010.1894,-23
1606924010.1915,-28
1606924010.1934,-19
1606924010.1956,-2
1606924010.1975,19
1606924010.1994,81
1606924010.2015,100
1606924010.2034,52
1606924010.2054,38
1606924010.2074,23
1606924010.2095,-19
1606924010.2115,-21
1606924010.2134,-2
1606924010.2154,0
1606924010.2160,0
1606924010.2174,7
1606924010.2194,11
1606924010.2214,26
1606924010.2234,107
1606924010.2254,399
1606924010.2274,1002
1606924010.2294,1483
1606924010.2314,1086
1606924010.2334,-181
1606924010.2354,-1091
1606924010.2373,-772
1606924010.2394,-114
1606924010.2414,-4
1606924010.2434,-50
1606924010.2454,57
1606924010.2459,88
1606924010.2474,47
1606924010.2493,74
1606924010.2514,102
1606924010.2534,93
1606924010.2554,102
1606924010.2574,117
1606924010.2594,114
1606924010.2614,124
1606924010.2634,145
1606924010.2654,165
1606924010.2674,179
1606924010.2694,198
1606924010.2714,227
1606924010.2734,263
1606924010.2754,291
1606924010.2761,315
1606924010.2774,363
1606924010.2794,413
1606924010.2814,440
1606924010.2834,449
1606924010.2854,464
1606924010.2874,473
1606924010.2894,461
1606924010.2915,418
1606924010.2934,351
1606924010.2954,253
1606924010.2974,124
1606924010.2994,7
1606924010.3015,-76
1606924010.3034,-150
1606924010.3054,-210
1606924010.3060,-239
1606924010.3074,-253
1606924010.7137,-260
1606924010.7144,-244
1606924010.7173,-227
1606924010.7195,-217
1606924010.7201,-203
1606924010.7215,-184
1606924010.7235,-169
1606924010.7256,-157
1606924010.7275,-148
1606924010.7296,-148
1606924010.7315,-143
1606924010.7335,-131
1606924010.7355,-126
1606924010.7375,-124
1606924010.7395,-117
1606924010.7416,-105
1606924010.7435,-105
1606924010.7456,-110
1606924010.7475,-102
1606924010.7495,-98
1606924010.7501,-102
1606924010.7516,-102
1606924010.7535,-98
1606924010.7555,-93
1606924010.7575,-90
1606924010.7595,-86
1606924010.7615,-78
1606924010.7635,-78
1606924010.7655,-86
1606924010.7674,-83
1606924010.7695,-71
1606924010.7715,-62
1606924010.7735,-62
1606924010.7755,-64
1606924010.7775,-64
1606924010.7794,-57
1606924010.7801,-55
1606924010.7815,-55
1606924010.7836,-52
1606924010.7855,-52
1606924010.7875,-47
1606924010.7897,-45
1606924010.7916,-47
1606924010.7935,-45
1606924010.7955,-35
1606924010.7975,-28
1606924010.7995,-31
1606924010.8015,-31
1606924010.8035,-31
1606924010.8055,-33
1606924010.8075,-23
1606924010.8081,0
1606924010.8095,21
1606924010.8115,50
1606924010.8135,69
1606924010.8155,57
1606924010.8174,28
1606924010.8195,-4
1606924010.8214,-26
1606924010.8235,-28
1606924010.8255,-31
1606924010.8274,-33
1606924010.8295,-26
1606924010.8315,-19
1606924010.8335,-19
1606924010.8355,4
1606924010.8375,76
1606924010.8381,325
1606924010.8395,921
1606924010.8415,1502
1606924010.8435,1289
1606924010.8455,21
1606924010.8475,-1203
1606924011.2841,-1031
1606924011.2851,-177
1606924011.2875,28
1606924011.2902,-86
1606924011.2922,28
1606924011.2942,102
1606924011.2963,40
1606924011.2970,52
1606924011.2982,95
1606924011.3002,88
1606924011.3022,100
1606924011.3042,129
1606924011.3062,143
1606924011.3082,157
1606924011.3102,179
1606924011.3122,203
1606924011.3142,229
1606924011.3162,251
1606924011.3182,270
1606924011.3204,301
1606924011.3222,344
1606924011.3242,385
1606924011.3262,425
1606924011.3267,468
1606924011.3282,507
1606924011.3302,531
1606924011.3322,540
1606924011.3342,533
1606924011.3361,502
1606924011.3381,445
1606924011.3403,356
1606924011.3421,232
1606924011.3442,95
1606924011.3461,-21
1606924011.3482,-122
1606924011.3501,-196
1606924011.3521,-236
1606924011.3541,-260
1606924011.3561,-275
1606924011.3567,-270
1606924011.3581,-253
1606924011.3601,-241
1606924011.3621,-224
1606924011.3641,-203
1606924011.3663,-191
1606924011.3682,-184
1606924011.3701,-172
1606924011.3722,-155
1606924011.3742,-143
1606924011.3761,-138
1606924011.3781,-138
1606924011.3802,-133
1606924011.3821,-126
1606924011.3841,-122
1606924011.3861,-117
1606924011.3866,-114
1606924011.3881,-114
1606924011.3901,-112
1606924011.3921,-112
1606924011.3941,-107
1606924011.3960,-102
1606924011.3981,-102
1606924011.4001,-105
1606924011.4021,-98
1606924011.4041,-90
1606924011.4061,-90
1606924011.4081,-88
1606924011.4101,-86
1606924011.4121,-86
1606924011.4141,-76
1606924011.4163,-69
1606924011.4166,-69
1606924011.4181,-66
1606924011.8236,-59
1606924011.8245,-57
1606924011.8269,-55
1606924011.8297,-52
1606924011.8317,-57
1606924011.8336,-62
1606924011.8356,-47
1606924011.8376,-28
1606924011.8396,-11
1606924011.8416,19
1606924011.8436,40
1606924011.8456,38
1606924011.8476,16
1606924011.8496,-19
1606924011.8502,-50
1606924011.8515,-55
1606924011.8535,-45
1606924011.8555,-40
1606924011.8575,-38
1606924011.8596,-33
1606924011.8616,-23
1606924011.8636,-2
1606924011.8655,55
1606924011.8675,282
1606924011.8695,868
1606924011.8715,1500
1606924011.8735,1370
1606924011.8756,78
1606924011.8775,-1280
1606924011.8795,-1136
1606924011.8801,-184
1606924011.8816,47
1606924011.8835,-102
1606924011.8856,21
1606924011.8876,105
1606924011.8896,31
1606924011.8917,47
1606924011.8936,100
1606924011.8956,90
1606924011.8975,93
1606924011.8996,119
1606924011.9016,129
1606924011.9035,136
1606924011.9056,153
1606924011.9076,169
1606924011.9096,193
1606924011.9102,220
1606924011.9116,246
1606924011.9137,275
1606924011.9156,315
1606924011.9175,356
1606924011.9195,389
1606924011.9216,425
1606924011.9235,461
1606924011.9255,476
1606924011.9276,476
1606924011.9295,466
1606924011.9315,435
1606924011.9335,378
1606924011.9355,291
1606924011.9375,177
1606924011.9395,57
1606924011.9402,-52
1606924011.9415,-138
1606924011.9436,-198
1606924011.9455,-232
1606924011.9476,-246
1606924011.9496,-248
1606924011.9516,-244
1606924011.9535,-234
1606924011.9555,-220
1606924011.9575,-205
1606924011.9595,-191
1606924012.4242,-177
1606924012.4258,-165
1606924012.4283,-157
1606924012.4296,-153
1606924012.4310,-143
1606924012.4330,-141
1606924012.4350,-138
1606924012.4372,-136
1606924012.4389,-136
1606924012.4409,-136
1606924012.4428,-126
1606924012.4449,-112
1606924012.4469,-107
1606924012.4489,-114
1606924012.4508,-112
1606924012.4529,-105
1606924012.4548,-107
1606924012.4569,-110
1606924012.4589,-105
1606924012.4597,-98
1606924012.4609,-98
1606924012.4629,-95
1606924012.4649,-88
1606924012.4669,-86
1606924012.4689,-83
1606924012.4709,-78
1606924012.4731,-76
1606924012.4749,-71
1606924012.4769,-64
1606924012.4789,-59
1606924012.4809,-57
1606924012.4828,-57
1606924012.4848,-57
1606924012.4869,-52
1606924012.4889,-50
1606924012.4894,-47
1606924012.4908,-38
1606924012.4928,-38
1606924012.4948,-45
1606924012.4968,-33
1606924012.4988,-9
1606924012.5008,16
1606924012.5028,50
1606924012.5048,62
1606924012.5068,52
1606924012.5088,26
1606924012.5108,-11
1606924012.5128,-38
1606924012.5148,-33
1606924012.5168,-21
1606924012.5188,-23
1606924012.5194,-28
1606924012.5208,-19
1606924012.5228,-11
1606924012.5248,11
1606924012.5268,86
1606924012.5288,363
1606924012.5308,976
1606924012.5328,1524
1606924012.5348,1225
1606924012.5368,-133
1606924012.5388,-1311
1606924012.5408,-983
1606924012.5428,-95
1606924012.5448,26
1606924012.5468,-100
1606924012.5488,47
1606924012.5495,110
1606924012.5508,38
1606924012.5528,64
1606924012.5547,107
1606924012.5568,95
1606924012.5588,102
1606924012.9633,131
1606924012.9639,143
1606924012.9663,153
1606924012.9690,169
1606924012.9712,189
1606924012.9730,215
1606924012.9751,244
1606924012.9757,267
1606924012.9770,294
1606924012.9790,325
1606924012.9811,361
1606924012.9830,399
1606924012.9850,430
1606924012.9870,454
1606924012.9890,476
1606924012.9910,483
1606924012.9930,473
1606924012.9950,440
1606924012.9970,382
1606924012.9990,296
1606924013.0010,181
1606924013.0030,59
1606924013.0050,-45
1606924013.0057,-126
1606924013.0070,-189
1606924013.0090,-227
1606924013.0110,-241
1606924013.0130,-241
1606924013.0149,-236
1606924013.0169,-222
1606924013.0189,-200
1606924013.0209,-184
1606924013.0229,-172
1606924013.0249,-160
1606924013.0270,-150
1606924013.0283,-141
1606924013.0300,-136
1606924013.0320,-133
1606924013.0402,-129
1606924013.0420,-124
1606924013.0440,-124
1606924013.0459,-122
1606924013.0480,-119
1606924013.0500,-119
1606924013.0521,-117
1606924013.0540,-110
1606924013.0559,-107
1606924013.0579,-105
1606924013.0599,-102
1606924013.0619,-100
1606924013.0640,-98
1606924013.0660,-88
1606924013.0679,-86
1606924013.0686,-88
1606924013.0699,-88
1606924013.0721,-88
1606924013.0740,-88
1606924013.0760,-83
1606924013.0779,-81
1606924013.0800,-83
1606924013.0820,-83
1606924013.0839,-81
1606924013.0860,-76
1606924013.0880,-74
1606924013.0899,-71
1606924013.0920,-64
1606924013.0940,-57
1606924013.0959,-57
1606924013.0980,-47
1606924013.0986,-26
1606924013.1000,4
1606924013.1020,33
1606924013.1039,52
1606924013.5335,55
1606924013.5344,33
1606924013.5368,-11
1606924013.5394,-43
1606924013.5416,-43
1606924013.5435,-33
1606924013.5457,-38
1606924013.5475,-47
1606924013.5495,-43
1606924013.5515,-31
1606924013.5534,-16
1606924013.5554,26
1606924013.5561,217
1606924013.5575,751
1606924013.5594,1404
1606924013.5615,1435
1606924013.5635,327
1606924013.5654,-1112
1606924013.5674,-1239
1606924013.5695,-308
1606924013.5715,52
1606924013.5734,-110
1606924013.5754,-14
1606924013.5774,110
1606924013.5795,43
1606924013.5814,33
1606924013.5834,93
1606924013.5854,90
1606924013.5861,83
1606924013.5874,110
1606924013.5894,126
1606924013.5914,133
1606924013.5934,157
1606924013.5956,184
1606924013.5974,200
1606924013.5994,222
1606924013.6014,253
1606924013.6034,284
1606924013.6054,315
1606924013.6074,354
1606924013.6094,394
1606924013.6114,428
1606924013.6134,454
1606924013.6154,473
1606924013.6160,473
1606924013.6174,456
1606924013.6194,430
1606924013.6214,378
1606924013.6234,294
1606924013.6253,184
1606924013.6274,69
1606924013.6293,-33
1606924013.6314,-117
1606924013.6334,-177
1606924013.6354,-215
1606924013.6374,-236
1606924013.6394,-236
1606924013.6414,-222
1606924013.6434,-212
1606924013.6454,-205
1606924013.6461,-186
1606924013.6474,-172
1606924013.6494,-165
1606924013.6514,-148
1606924013.6534,-136
1606924013.6554,-133
1606924013.6573,-131
1606924013.6594,-126
1606924013.6614,-129
1606924013.6634,-122
1606924013.6654,-117
1606924013.6674,-112
1606924013.6694,-112
1606924014.0738,-117
1606924014.0744,-119
1606924014.0768,-117
1606924014.0796,-110
1606924014.0815,-107
1606924014.0835,-110
1606924014.0857,-112
1606924014.0876,-110
1606924014.0895,-110
1606924014.0916,-110
1606924014.0935,-102
1606924014.0957,-100
1606924014.0976,-100
1606924014.0995,-95
1606924014.1016,-88
1606924014.1035,-83
1606924014.1055,-81
1606924014.1062,-76
1606924014.1086,-66
1606924014.1106,-64
1606924014.1125,-66
1606924014.1145,-62
1606924014.1166,-55
1606924014.1185,-57
1606924014.1206,-59
1606924014.1225,-50
1606924014.1245,-40
1606924014.1265,-47
1606924014.1285,-52
1606924014.1305,-47
1606924014.1325,-40
1606924014.1345,-23
1606924014.1365,7
1606924014.1371,45
1606924014.1385,66
1606924014.1406,57
1606924014.1425,31
1606924014.1445,-2
1606924014.1465,-31
1606924014.1485,-40
1606924014.1505,-31
1606924014.1525,-26
1606924014.1544,-23
1606924014.1565,-21
1606924014.1585,-16
1606924014.1606,-2
1606924014.1625,47
1606924014.1645,260
1606924014.1664,837
1606924014.1671,1492
1606924014.1685,1461
1606924014.1705,299
1606924014.1725,-1110
1606924014.1745,-1153
1606924014.1764,-236
1606924014.1785,50
1606924014.1805,-117
1606924014.1825,2
1606924014.1845,114
1606924014.1865,43
1606924014.1885,43
1606924014.1906,93
1606924014.1926,86
1606924014.1945,83
1606924014.1965,112
1606924014.1971,129
1606924014.1985,138
1606924014.2005,157
1606924014.2025,184
1606924014.2045,212
1606924014.2065,236
1606924014.2085,253
1606924014.2106,275
1606924014.6437,313
1606924014.6446,363
1606924014.6470,399
1606924014.6498,435
1606924014.6518,466
1606924014.6538,473
1606924014.6558,468
1606924014.6564,468
1606924014.6578,447
1606924014.6597,397
1606924014.6616,320
1606924014.6637,215
1606924014.6657,93
1606924014.6677,-21
1606924014.6697,-110
1606924014.6717,-169
1606924014.6737,-212
1606924014.6757,-239
1606924014.6777,-246
1606924014.6797,-236
1606924014.6817,-222
1606924014.6837,-203
1606924014.6856,-193
1606924014.6863,-181
1606924014.6877,-169
1606924014.6897,-157
1606924014.6917,-148
1606924014.6936,-136
1606924014.6957,-131
1606924014.6977,-131
1606924014.6997,-129
1606924014.7016,-122
1606924014.7037,-114
1606924014.7056,-114
1606924014.7076,-112
1606924014.7096,-110
1606924014.7117,-110
1606924014.7136,-112
1606924014.7156,-110
1606924014.7162,-102
1606924014.7178,-102
1606924014.7196,-102
1606924014.7217,-95
1606924014.7236,-90
1606924014.7256,-93
1606924014.7276,-93
1606924014.7296,-88
1606924014.7317,-83
1606924014.7336,-81
1606924014.7356,-78
1606924014.7376,-71
1606924014.7396,-69
1606924014.7417,-74
1606924014.7436,-74
1606924014.7456,-69
1606924014.7462,-64
1606924014.7476,-59
1606924014.7496,-55
1606924014.7517,-52
1606924014.7537,-52
1606924014.7556,-47
1606924014.7576,-45
1606924014.7596,-50
1606924014.7617,-47
1606924014.7637,-43
1606924014.7656,-43
1606924014.7676,-38
1606924014.7696,-35
1606924014.7717,-38
1606924014.7736,-38
1606924014.7756,-35
1606924014.7763,-43
1606924014.7776,-43
1606924015.1837,-21
1606924015.1844,9
1606924015.1868,43
1606924015.1895,66
1606924015.1916,64
1606924015.1935,45
1606924015.1956,9
1606924015.1975,-33
1606924015.1995,-38
1606924015.2016,-26
1606924015.2035,-23
1606924015.2055,-26
1606924015.2060,-21
1606924015.2075,-16
1606924015.2095,-2
1606924015.2115,33
1606924015.2135,177
1606924015.2155,657
1606924015.2177,1344
1606924015.2196,1531
1606924015.2215,602
1606924015.2235,-894
1606924015.2255,-1289
1606924015.2275,-404
1606924015.2295,86
1606924015.2315,-93
1606924015.2335,-45
1606924015.2355,114
1606924015.2360,57
1606924015.2375,28
1606924015.2395,93
1606924015.2415,100
1606924015.2435,90
1606924015.2455,117
1606924015.2474,129
1606924015.2494,136
1606924015.2515,162
1606924015.2535,186
1606924015.2555,198
1606924015.2575,217
1606924015.2595,246
1606924015.2614,272
1606924015.2635,303
1606924015.2654,342
1606924015.2661,375
1606924015.2674,399
1606924015.2695,418
1606924015.2715,437
1606924015.2734,449
1606924015.2755,442
1606924015.2775,413
1606924015.2795,370
1606924015.2815,306
1606924015.2835,217
1606924015.2855,110
1606924015.2875,9
1606924015.2895,-76
1606924015.2915,-145
1606924015.2935,-196
1606924015.2955,-215
1606924015.2960,-217
1606924015.2974,-220
1606924015.2994,-205
1606924015.3015,-189
1606924015.3035,-177
1606924015.3054,-167
1606924015.3074,-150
1606924015.3095,-141
1606924015.3115,-138
1606924015.3136,-129
1606924015.3155,-119
1606924015.3175,-114
1606924015.3194,-114
1606924015.7839,-114
1606924015.7847,-110
1606924015.7864,-107
1606924015.7888,-114
1606924015.7910,-119
1606924015.7929,-114
1606924015.7949,-107
1606924015.7969,-110
1606924015.7989,-117
1606924015.8009,-114
1606924015.8028,-105
1606924015.8048,-98
1606924015.8068,-100
1606924015.8089,-100
1606924015.8109,-95
1606924015.8129,-93
1606924015.8149,-93
1606924015.8168,-86
1606924015.8174,-81
1606924015.8188,-78
1606924015.8208,-74
1606924015.8228,-71
1606924015.8248,-69
1606924015.8268,-69
1606924015.8288,-62
1606924015.8309,-57
1606924015.8328,-52
1606924015.8348,-52
1606924015.8368,-47
1606924015.8388,-40
1606924015.8409,-40
1606924015.8428,-43
1606924015.8448,-40
1606924015.8468,-35
1606924015.8474,-31
1606924015.8488,-26
1606924015.8508,-21
1606924015.8528,-23
1606924015.8548,-31
1606924015.8568,-28
1606924015.8588,-21
1606924015.8609,-16
1606924015.8629,-19
1606924015.8648,-16
1606924015.8668,-16
1606924015.8688,-14
1606924015.8708,-9
1606924015.8730,-19
1606924015.8748,-28
1606924015.8768,-11
1606924015.8774,14
1606924015.8788,40
1606924015.8808,71
1606924015.8828,88
1606924015.8848,78
1606924015.8868,50
1606924015.8888,16
1606924015.8908,-7
1606924015.8928,-9
1606924015.8948,0
1606924015.8968,4
1606924015.8988,4
1606924015.9008,4
1606924015.9028,4
1606924015.9048,26
1606924015.9068,95
1606924015.9074,373
1606924015.9088,995
1606924015.9108,1526
1606924015.9128,1193
1606924015.9147,-165
1606924015.9168,-1260
1606924015.9188,-846
1606924016.3536,-7
1606924016.3545,21
1606924016.3570,-95
1606924016.3596,76
1606924016.3618,110
1606924016.3637,31
1606924016.3657,71
1606924016.3664,112
1606924016.3677,88
1606924016.3697,95
1606924016.3717,124
1606924016.3736,131
1606924016.3756,145
1606924016.3777,169
1606924016.3797,189
1606924016.3816,208
1606924016.3836,234
1606924016.3856,263
1606924016.3877,287
1606924016.3896,315
1606924016.3917,346
1606924016.3936,380
1606924016.3956,409
1606924016.3963,433
1606924016.3976,440
1606924016.3998,435
1606924016.4017,421
1606924016.4036,394
1606924016.4056,344
1606924016.4076,272
1606924016.4096,174
1606924016.4116,59
1606924016.4136,-40
1606924016.4156,-117
1606924016.4175,-177
1606924016.4196,-215
1606924016.4216,-229
1606924016.4236,-229
1606924016.4256,-222
1606924016.4262,-210
1606924016.4276,-196
1606924016.4296,-179
1606924016.4316,-165
1606924016.4336,-160
1606924016.4356,-155
1606924016.4375,-138
1606924016.4396,-131
1606924016.4416,-133
1606924016.4436,-129
1606924016.4456,-122
1606924016.4476,-122
1606924016.4495,-122
1606924016.4515,-122
1606924016.4536,-119
1606924016.4556,-117
1606924016.4562,-117
1606924016.4576,-117
1606924016.4595,-117
1606924016.4616,-117
1606924016.4636,-114
1606924016.4656,-110
1606924016.4676,-107
1606924016.4696,-107
1606924016.4716,-102
1606924016.4736,-95
1606924016.4756,-93
1606924016.4776,-93
1606924016.4796,-93
1606924016.4816,-93
1606924016.4836,-86
1606924016.4856,-76
1606924016.4862,-69
1606924016.4876,-66
1606924016.8935,-64
1606924016.8943,-64
1606924016.8966,-64
1606924016.8986,-59
1606924016.9005,-52
1606924016.9025,-47
1606924016.9044,-47
1606924016.9064,-47
1606924016.9084,-45
1606924016.9105,-38
1606924016.9124,-40
1606924016.9144,-47
1606924016.9149,-40
1606924016.9164,-31
1606924016.9186,-31
1606924016.9204,-31
1606924016.9224,-28
1606924016.9243,-28
1606924016.9263,-26
1606924016.9283,-21
1606924016.9305,-16
1606924016.9323,-9
1606924016.9345,-9
1606924016.9364,-14
1606924016.9383,-16
1606924016.9404,-16
1606924016.9423,-14
1606924016.9429,-11
1606924016.9443,-9
1606924016.9463,-11
1606924016.9483,-14
1606924016.9505,-7
1606924016.9524,14
1606924016.9543,43
1606924016.9563,76
1606924016.9583,95
1606924016.9604,86
1606924016.9623,59
1606924016.9643,23
1606924016.9663,-2
1606924016.9684,0
1606924016.9703,9
1606924016.9724,4
1606924016.9729,0
1606924016.9743,9
1606924016.9763,19
1606924016.9783,33
1606924016.9804,86
1606924016.9823,334
1606924016.9846,942
1606924016.9864,1528
1606924016.9883,1306
1606924016.9904,-23
1606924016.9923,-1234
1606924016.9945,-925
1606924016.9964,-64
1606924016.9983,23
1606924017.0005,-95
1606924017.0024,64
1606924017.0030,119
1606924017.0042,47
1606924017.0063,76
1606924017.0083,117
1606924017.0104,98
1606924017.0123,105
1606924017.0143,136
1606924017.0163,145
1606924017.0184,155
1606924017.0204,177
1606924017.0223,198
1606924017.0243,217
1606924017.0263,239
1606924017.0283,263
1606924017.4936,287
1606924017.4945,320
1606924017.4969,358
1606924017.4996,389
1606924017.5017,413
1606924017.5036,437
1606924017.5056,449
1606924017.5076,442
1606924017.5096,423
1606924017.5116,397
1606924017.5136,349
1606924017.5156,277
1606924017.5176,181
1606924017.5196,76
1606924017.5216,-26
1606924017.5221,-107
1606924017.5237,-174
1606924017.5256,-227
1606924017.5276,-248
1606924017.5296,-251
1606924017.5316,-244
1606924017.5335,-232
1606924017.5356,-215
1606924017.5375,-200
1606924017.5395,-196
1606924017.5416,-189
1606924017.5436,-167
1606924017.5456,-150
1606924017.5475,-145
1606924017.5496,-143
1606924017.5516,-136
1606924017.5521,-129
1606924017.5537,-122
1606924017.5555,-119
1606924017.5575,-122
1606924017.5595,-124
1606924017.5615,-119
1606924017.5635,-114
1606924017.5656,-110
1606924017.5675,-112
1606924017.5695,-110
1606924017.5715,-105
1606924017.5735,-105
1606924017.5755,-105
1606924017.5775,-95
1606924017.5795,-93
1606924017.5816,-93
1606924017.5821,-88
1606924017.5835,-83
1606924017.5855,-86
1606924017.5875,-81
1606924017.5896,-74
1606924017.5916,-69
1606924017.5935,-66
1606924017.5955,-64
1606924017.5975,-62
1606924017.5995,-57
1606924017.6016,-55
1606924017.6035,-50
1606924017.6055,-50
1606924017.6075,-47
1606924017.6095,-43
1606924017.6115,-38
1606924017.6121,-35
1606924017.6135,-31
1606924017.6155,-33
1606924017.6175,-33
1606924017.6195,-26
1606924017.6216,-21
1606924017.6236,-19
1606924017.6255,-23
1606924017.6275,-21
1606924017.6296,-19
1606924018.0031,-16
1606924018.0037,-11
1606924018.0061,-7
1606924018.0087,-4
1606924018.0094,-7
1606924018.0109,-11
1606924018.0128,-16
1606924018.0149,-16
1606924018.0168,-4
1606924018.0187,9
1606924018.0210,33
1606924018.0227,57
1606924018.0247,64
1606924018.0267,52
1606924018.0288,26
1606924018.0308,-4
1606924018.0328,-26
1606924018.0348,-23
1606924018.0367,-14
1606924018.0388,-11
1606924018.0394,-11
1606924018.0408,-9
1606924018.0427,2
1606924018.0448,28
1606924018.0467,110
1606924018.0487,452
1606924018.0508,1134
1606924018.0527,1595
1606924018.0548,1028
1606924018.0567,-495
1606924018.0587,-1380
1606924018.0608,-722
1606924018.0627,19
1606924018.0647,-35
1606924018.0667,-81
1606924018.0687,90
1606924018.0694,88
1606924018.0708,33
1606924018.0727,86
1606924018.0748,112
1606924018.0768,93
1606924018.0788,110
1606924018.0808,131
1606924018.0828,126
1606924018.0847,141
1606924018.0868,172
1606924018.0887,191
1606924018.0908,203
1606924018.0927,234
1606924018.0949,263
1606924018.0967,291
1606924018.0988,325
1606924018.0994,356
1606924018.1007,382
1606924018.1028,411
1606924018.1047,433
1606924018.1067,440
1606924018.1087,433
1606924018.1107,416
1606924018.1127,378
1606924018.1147,315
1606924018.1169,241
1606924018.1188,143
1606924018.1207,35
1606924018.1227,-57
1606924018.1247,-129
1606924018.1267,-184
1606924018.1287,-215
1606924018.1293,-229
1606924018.1307,-232
1606924018.1327,-224
1606924018.1347,-210
1606924018.1367,-198
1606924018.5440,-186
1606924018.5451,-172
1606924018.5475,-162
1606924018.5492,-157
1606924018.5512,-150
1606924018.5531,-143
1606924018.5551,-141
1606924018.5571,-136
1606924018.5591,-129
1606924018.5611,-124
1606924018.5618,-122
1606924018.5631,-114
1606924018.5651,-112
1606924018.5671,-114
1606924018.5691,-112
1606924018.5712,-107
1606924018.5731,-105
1606924018.5751,-105
1606924018.5771,-100
1606924018.5791,-95
1606924018.5811,-95
1606924018.5831,-90
1606924018.5851,-88
1606924018.5872,-83
1606924018.5891,-83
1606924018.5911,-78
1606924018.5917,-71
1606924018.5931,-66
1606924018.5951,-62
1606924018.5971,-59
1606924018.5991,-59
1606924018.6011,-57
1606924018.6031,-55
1606924018.6051,-47
1606924018.6071,-47
1606924018.6091,-50
1606924018.6111,-43
1606924018.6131,-38
1606924018.6151,-35
1606924018.6173,-28
1606924018.6192,-26
1606924018.6211,-31
1606924018.6217,-26
1606924018.6231,-19
1606924018.6251,-19
1606924018.6271,-19
1606924018.6291,-16
1606924018.6311,-11
1606924018.6331,-9
1606924018.6351,-9
1606924018.6371,-9
1606924018.6391,-7
1606924018.6411,-7
1606924018.6431,-7
1606924018.6451,0
1606924018.6471,7
1606924018.6491,4
1606924018.6511,2
1606924018.6518,7
1606924018.6531,9
1606924018.6551,7
1606924018.6571,-2
1606924018.6591,-4
1606924018.6611,9
1606924018.6631,33
1606924018.6651,62
1606924018.6671,86
1606924018.6691,90
1606924018.6711,74
1606924018.6731,40
1606924018.6751,4
1606924018.6771,-11
1606924018.6791,-7
1606924019.1440,0
1606924019.1449,0
1606924019.1463,0
1606924019.1480,-2
1606924019.1501,2
1606924019.1520,38
1606924019.1540,150
1606924019.1561,547
1606924019.1581,1210
1606924019.1600,1512
1606924019.1620,758
1606924019.1640,-720
1606924019.1660,-1308
1606924019.1680,-516
1606924019.1686,76
1606924019.1700,-62
1606924019.1720,-52
1606924019.1742,114
1606924019.1760,71
1606924019.1779,31
1606924019.1800,93
1606924019.1819,100
1606924019.1839,83
1606924019.1859,112
1606924019.1879,133
1606924019.1899,136
1606924019.1920,155
1606924019.1939,177
1606924019.1959,196
1606924019.1979,217
1606924019.1986,244
1606924019.1999,270
1606924019.2019,301
1606924019.2039,332
1606924019.2059,366
1606924019.2079,399
1606924019.2099,425
1606924019.2120,445
1606924019.2139,452
1606924019.2159,445
1606924019.2179,425
1606924019.2199,389
1606924019.2219,332
1606924019.2239,251
1606924019.2259,148
1606924019.2279,40
1606924019.2286,-52
1606924019.2299,-124
1606924019.2311,-174
1606924019.2329,-205
1606924019.2350,-217
1606924019.2369,-222
1606924019.2390,-217
1606924019.2410,-200
1606924019.2429,-186
1606924019.2449,-177
1606924019.2469,-165
1606924019.2489,-150
1606924019.2509,-143
1606924019.2529,-136
1606924019.2550,-129
1606924019.2556,-126
1606924019.2569,-122
1606924019.2589,-114
1606924019.2610,-110
1606924019.2629,-107
1606924019.2649,-102
1606924019.2669,-100
1606924019.2691,-102
1606924019.2710,-107
1606924019.2731,-105
1606924019.2750,-93
1606924019.2769,-88
1606924019.7136,-90
1606924019.7144,-88
1606924019.7169,-86
1606924019.7186,-86
1606924019.7192,-83
1606924019.7206,-78
1606924019.7225,-76
1606924019.7245,-74
1606924019.7265,-76
1606924019.7285,-76
1606924019.7306,-71
1606924019.7325,-64
1606924019.7345,-59
1606924019.7365,-59
1606924019.7385,-62
1606924019.7406,-55
1606924019.7425,-52
1606924019.7445,-52
1606924019.7465,-45
1606924019.7485,-43
1606924019.7490,-40
1606924019.7506,-38
1606924019.7525,-31
1606924019.7544,-26
1606924019.7565,-26
1606924019.7585,-21
1606924019.7606,-16
1606924019.7625,-19
1606924019.7645,-19
1606924019.7665,-14
1606924019.7685,-9
1606924019.7706,-9
1606924019.7725,-11
1606924019.7746,-7
1606924019.7765,-2
1606924019.7785,-2
1606924019.7791,-2
1606924019.7804,2
1606924019.7825,2
1606924019.7845,4
1606924019.7865,7
1606924019.7885,7
1606924019.7905,7
1606924019.7925,2
1606924019.7945,2
1606924019.7965,2
1606924019.7986,-4
1606924019.8005,-9
1606924019.8025,-2
1606924019.8045,16
1606924019.8065,38
1606924019.8086,69
1606924019.8090,88
1606924019.8106,88
1606924019.8124,66
1606924019.8144,28
1606924019.8165,-4
1606924019.8185,-11
1606924019.8205,-2
1606924019.8225,-2
1606924019.8245,-7
1606924019.8264,-4
1606924019.8285,-2
1606924019.8305,11
1606924019.8325,66
1606924019.8345,277
1606924019.8364,815
1606924019.8384,1392
1606924019.8391,1268
1606924019.8405,81
1606924019.8425,-1181
1606924019.8444,-1038
1606924019.8465,-129
1606924020.2840,69
1606924020.2849,-90
1606924020.2873,40
1606924020.2891,129
1606924020.2911,52
1606924020.2930,64
1606924020.2950,117
1606924020.2970,105
1606924020.2990,105
1606924020.2996,124
1606924020.3011,129
1606924020.3030,145
1606924020.3050,169
1606924020.3070,181
1606924020.3090,200
1606924020.3110,227
1606924020.3130,256
1606924020.3150,282
1606924020.3170,313
1606924020.3189,349
1606924020.3210,378
1606924020.3230,404
1606924020.3250,430
1606924020.3270,454
1606924020.3292,456
1606924020.3295,435
1606924020.3310,404
1606924020.3329,368
1606924020.3349,301
1606924020.3369,210
1606924020.3389,112
1606924020.3410,11
1606924020.3429,-81
1606924020.3449,-148
1606924020.3469,-186
1606924020.3489,-212
1606924020.3510,-224
1606924020.3529,-222
1606924020.3549,-210
1606924020.3569,-198
1606924020.3589,-186
1606924020.3595,-167
1606924020.3610,-155
1606924020.3629,-150
1606924020.3649,-141
1606924020.3669,-129
1606924020.3689,-126
1606924020.3709,-124
1606924020.3729,-119
1606924020.3749,-122
1606924020.3769,-117
1606924020.3789,-105
1606924020.3810,-102
1606924020.3829,-102
1606924020.3849,-95
1606924020.3869,-98
1606924020.3889,-102
1606924020.3895,-98
1606924020.3909,-88
1606924020.3929,-86
1606924020.3949,-88
1606924020.3969,-90
1606924020.3989,-90
1606924020.4010,-83
1606924020.4029,-78
1606924020.4049,-78
1606924020.4069,-74
1606924020.4089,-62
1606924020.4110,-59
1606924020.4129,-64
1606924020.4150,-62
1606924020.4169,-55
1606924020.4176,-50
1606924020.8238,-45
1606924020.8246,-45
1606924020.8272,-43
1606924020.8298,-40
1606924020.8317,-38
1606924020.8337,-38
1606924020.8357,-33
1606924020.8377,-28
1606924020.8397,-26
1606924020.8417,-26
1606924020.8437,-26
1606924020.8457,-28
1606924020.8478,-28
1606924020.8496,-26
1606924020.8503,-21
1606924020.8516,-16
1606924020.8536,-21
1606924020.8557,-23
1606924020.8576,-11
1606924020.8597,-4
1606924020.8617,-9
1606924020.8636,-16
1606924020.8656,-16
1606924020.8676,0
1606924020.8697,21
1606924020.8717,43
1606924020.8736,69
1606924020.8757,83
1606924020.8777,74
1606924020.8796,40
1606924020.8802,0
1606924020.8816,-14
1606924020.8836,0
1606924020.8857,4
1606924020.8877,-4
1606924020.8897,-11
1606924020.8918,-2
1606924020.8937,9
1606924020.8957,45
1606924020.8977,150
1606924020.8997,483
1606924020.9016,1136
1606924020.9036,1598
1606924020.9056,1004
1606924020.9077,-550
1606924020.9096,-1397
1606924020.9102,-763
1606924020.9116,-76
1606924020.9136,-69
1606924020.9156,-55
1606924020.9177,100
1606924020.9196,100
1606924020.9216,57
1606924020.9238,100
1606924020.9256,124
1606924020.9276,114
1606924020.9296,131
1606924020.9316,153
1606924020.9336,160
1606924020.9356,172
1606924020.9376,189
1606924020.9396,210
1606924020.9402,229
1606924020.9416,258
1606924020.9436,289
1606924020.9456,315
1606924020.9476,349
1606924020.9496,389
1606924020.9517,425
1606924020.9536,454
1606924020.9556,476
1606924020.9576,485
1606924020.9596,478
1606924021.3634,464
1606924021.3642,433
1606924021.3665,370
1606924021.3677,275
1606924021.3693,167
1606924021.3713,57
1606924021.3733,-43
1606924021.3753,-129
1606924021.3773,-196
1606924021.3793,-236
1606924021.3813,-251
1606924021.3832,-253
1606924021.3852,-244
1606924021.3872,-229
1606924021.3892,-212
1606924021.3912,-200
1606924021.3932,-186
1606924021.3953,-177
1606924021.3972,-167
