,ecg
1606935088.3533,3102.0
1606935088.3562,3533.0
1606935088.3587,4075.0
1606935088.3603,4680.0
1606935088.362,5080.0
1606935088.364,5468.0
1606935088.366,5896.0
1606935088.3681,6243.0
1606935088.3702,6559.0
1606935088.3727,6884.0
1606935088.3748,7173.0
1606935088.377,7433.0
1606935088.3794,7691.0
1606935088.381,7944.0
1606935088.3831,8170.0
1606935088.385,8368.0
1606935088.387,8561.0
1606935088.389,8761.0
1606935088.3911,8932.0
1606935088.393,9081.0
1606935088.395,9240.0
1606935088.397,9394.0
1606935088.399,9519.0
1606935088.401,9640.0
1606935088.403,9770.0
1606935088.405,9890.0
1606935088.407,9999.0
1606935088.409,10095.0
1606935088.4109,10182.0
1606935088.4129,10268.0
1606935088.4149,10353.0
1606935088.4169,10425.0
1606935088.419,10490.0
1606935088.4209,10558.0
1606935088.4229,10603.0
1606935088.4249,10632.0
1606935088.427,10678.0
1606935088.429,10721.0
1606935088.4309,10745.0
1606935088.4329,10765.0
1606935088.4349,10786.0
1606935088.4369,10801.0
1606935088.439,10806.0
1606935088.4409,10810.0
1606935088.4429,10818.0
1606935088.4449,10810.0
1606935088.4469,10789.0
1606935088.449,10777.0
1606935088.4509,10769.0
1606935088.4529,10760.0
1606935088.4553,10741.0
1606935088.4569,10697.0
1606935088.459,10659.0
1606935088.4609,10639.0
1606935088.4628,10606.0
1606935088.4648,10565.0
1606935088.4669,10533.0
1606935088.4689,10492.0
1606935088.4708,10437.0
1606935088.4729,10394.0
1606935088.4749,10358.0
1606935088.4768,10302.0
1606935088.4789,10247.0
1606935088.4808,10196.0
1606935088.4829,10141.0
1606935088.4848,10083.0
1606935088.4868,10028.0
1606935088.4888,9970.0
1606935088.4908,9912.0
1606935088.4928,9840.0
1606935088.4949,9770.0
1606935088.4968,9717.0
1606935088.4988,9664.0
1606935088.8903,9599.0
1606935088.8919,9548.0
1606935088.8944,9505.0
1606935088.897,9425.0
1606935088.8991,9331.0
1606935088.901,9254.0
1606935088.903,9180.0
1606935088.905,9095.0
1606935088.9069,9009.0
1606935088.909,8932.0
1606935088.911,8869.0
1606935088.9129,8804.0
1606935088.915,8708.0
1606935088.917,8614.0
1606935088.919,8551.0
1606935088.9209,8505.0
1606935088.9229,8529.0
1606935088.925,8647.0
1606935088.9269,8606.0
1606935088.929,8315.0
1606935088.931,8144.0
1606935088.9329,8110.0
1606935088.9349,7968.0
1606935088.9369,7848.0
1606935088.9391,7807.0
1606935088.941,7730.0
1606935088.9429,7636.0
1606935088.945,7571.0
1606935088.9473,7501.0
1606935088.949,7424.0
1606935088.9511,7354.0
1606935088.953,7284.0
1606935088.955,7209.0
1606935088.9569,7139.0
1606935088.959,7072.0
1606935088.961,7000.0
1606935088.963,6927.0
1606935088.965,6865.0
1606935088.967,6800.0
1606935088.969,6727.0
1606935088.9709,6660.0
1606935088.9729,6595.0
1606935088.9749,6527.0
1606935088.9769,6458.0
1606935088.9789,6371.0
1606935088.9809,6296.0
1606935088.9829,6241.0
1606935088.9849,6169.0
1606935088.9869,6091.0
1606935088.989,6024.0
1606935088.9909,5954.0
1606935088.9929,5867.0
1606935088.9949,5793.0
1606935088.9969,5737.0
1606935088.999,5682.0
1606935089.0009,5619.0
1606935089.0029,5557.0
1606935089.0048,5497.0
1606935089.0069,5439.0
1606935089.0089,5381.0
1606935089.0109,5316.0
1606935089.0129,5256.0
1606935089.0148,5195.0
1606935089.0169,5130.0
1606935089.0189,5073.0
1606935089.0208,5027.0
1606935089.0229,4967.0
1606935089.0249,4906.0
1606935089.027,4851.0
1606935089.0289,4798.0
1606935089.0308,4743.0
1606935089.0328,4687.0
1606935089.0348,4639.0
1606935089.4294,4586.0
1606935089.4303,4521.0
1606935089.4319,4461.0
1606935089.4339,4415.0
1606935089.4358,4369.0
1606935089.4378,4316.0
1606935089.4401,4263.0
1606935089.4419,4215.0
1606935089.4439,4169.0
1606935089.4458,4109.0
1606935089.4478,4046.0
1606935089.4499,4003.0
1606935089.4518,3962.0
1606935089.4538,3909.0
1606935089.4558,3858.0
1606935089.4578,3820.0
1606935089.4598,3779.0
1606935089.4618,3731.0
1606935089.4638,3687.0
1606935089.4659,3644.0
1606935089.4678,3601.0
1606935089.4699,3560.0
1606935089.4718,3521.0
1606935089.4738,3480.0
1606935089.4758,3439.0
1606935089.4778,3398.0
1606935089.4798,3365.0
1606935089.4818,3331.0
1606935089.4838,3295.0
1606935089.4858,3280.0
1606935089.4878,3266.0
1606935089.4898,3218.0
1606935089.4918,3158.0
1606935089.4937,3112.0
1606935089.4958,3068.0
1606935089.4977,3020.0
1606935089.4998,2972.0
1606935089.5018,2931.0
1606935089.5037,2900.0
1606935089.5057,2868.0
1606935089.5078,2830.0
1606935089.5098,2796.0
1606935089.5118,2765.0
1606935089.5138,2753.0
1606935089.5158,2818.0
1606935089.5177,2965.0
1606935089.5198,2979.0
1606935089.5224,2777.0
1606935089.5238,2654.0
1606935089.5258,2630.0
1606935089.5278,2529.0
1606935089.5298,2464.0
1606935089.5318,2466.0
1606935089.5338,2430.0
1606935089.5358,2389.0
1606935089.5378,2372.0
1606935089.5398,2346.0
1606935089.5419,2312.0
1606935089.5438,2288.0
1606935089.5458,2264.0
1606935089.5478,2237.0
1606935089.5498,2208.0
1606935089.5518,2180.0
1606935089.5538,2158.0
1606935089.5558,2141.0
1606935089.5578,2124.0
1606935089.5598,2107.0
1606935089.5618,2078.0
1606935089.5639,2042.0
1606935089.5658,2016.0
1606935089.5678,1999.0
1606935089.5698,1989.0
1606935089.5718,1970.0
1606935089.9991,1936.0
1606935090.0,1902.0
1606935090.0025,1874.0
1606935090.0051,1852.0
1606935090.0071,1837.0
1606935090.0092,1816.0
1606935090.0112,1775.0
1606935090.0131,1734.0
1606935090.015,1722.0
1606935090.017,1717.0
1606935090.0191,1698.0
1606935090.021,1683.0
1606935090.023,1669.0
1606935090.025,1645.0
1606935090.027,1630.0
1606935090.0291,1623.0
1606935090.031,1606.0
1606935090.033,1587.0
1606935090.035,1560.0
1606935090.037,1544.0
1606935090.039,1546.0
1606935090.041,1534.0
1606935090.043,1503.0
1606935090.045,1481.0
1606935090.047,1464.0
1606935090.0491,1454.0
1606935090.051,1445.0
1606935090.053,1404.0
1606935090.055,1380.0
1606935090.057,1377.0
1606935090.059,1356.0
1606935090.061,1327.0
1606935090.063,1320.0
1606935090.065,1293.0
1606935090.067,1264.0
1606935090.0693,1271.0
1606935090.0711,1267.0
1606935090.073,1221.0
1606935090.075,1197.0
1606935090.077,1206.0
1606935090.0791,1187.0
1606935090.081,1146.0
1606935090.083,1141.0
1606935090.085,1139.0
1606935090.087,1105.0
1606935090.0891,1064.0
1606935090.091,1057.0
1606935090.0931,1093.0
1606935090.095,1074.0
1606935090.097,999.0
1606935090.0991,985.0
1606935090.101,990.0
1606935090.103,956.0
1606935090.105,975.0
1606935090.107,994.0
1606935090.1091,939.0
1606935090.111,912.0
1606935090.113,920.0
1606935090.115,891.0
1606935090.117,881.0
1606935090.1191,917.0
1606935090.121,941.0
1606935090.123,874.0
1606935090.125,802.0
1606935090.127,828.0
1606935090.1291,840.0
1606935090.131,787.0
1606935090.133,758.0
1606935090.135,761.0
1606935090.137,758.0
1606935090.1391,749.0
1606935090.141,732.0
1606935090.143,720.0
1606935090.5989,727.0
1606935090.5999,763.0
1606935090.6018,862.0
1606935090.6038,994.0
1606935090.6058,975.0
1606935090.6077,809.0
1606935090.6097,739.0
1606935090.6117,713.0
1606935090.6138,628.0
1606935090.6157,616.0
1606935090.6177,645.0
1606935090.6198,616.0
1606935090.6216,587.0
1606935090.6239,604.0
1606935090.6257,597.0
1606935090.6277,561.0
1606935090.6297,578.0
1606935090.6316,633.0
1606935090.6336,626.0
1606935090.6356,590.0
1606935090.6376,597.0
1606935090.6396,599.0
1606935090.6417,570.0
1606935090.6436,561.0
1606935090.6457,587.0
1606935090.6477,614.0
1606935090.6497,585.0
1606935090.6516,558.0
1606935090.6536,568.0
1606935090.6557,578.0
1606935090.6579,607.0
1606935090.6597,607.0
1606935090.6616,566.0
1606935090.6636,568.0
1606935090.6656,604.0
1606935090.6676,570.0
1606935090.6697,488.0
1606935090.6717,484.0
1606935090.6737,551.0
1606935090.6756,568.0
1606935090.6776,541.0
1606935090.6797,527.0
1606935090.6816,510.0
1606935090.6836,522.0
1606935090.6856,558.0
1606935090.6876,575.0
1606935090.6896,563.0
1606935090.6916,541.0
1606935090.6936,534.0
1606935090.6957,537.0
1606935090.6976,532.0
1606935090.6997,554.0
1606935090.7016,585.0
1606935090.7036,558.0
1606935090.7057,510.0
1606935090.7077,493.0
1606935090.7096,522.0
1606935090.7116,578.0
1606935090.7136,585.0
1606935090.7157,532.0
1606935090.7176,479.0
1606935090.7197,476.0
1606935090.7216,503.0
1606935090.7237,539.0
1606935090.7258,578.0
1606935090.7277,532.0
1606935090.7297,457.0
1606935090.7316,467.0
1606935090.7336,508.0
1606935090.7356,517.0
1606935090.7377,493.0
1606935090.7396,455.0
1606935090.7416,455.0
1606935091.1391,484.0
1606935091.1399,479.0
1606935091.1423,462.0
1606935091.1449,484.0
1606935091.1469,493.0
1606935091.149,460.0
1606935091.1509,450.0
1606935091.1529,460.0
1606935091.1549,440.0
1606935091.1569,433.0
1606935091.159,472.0
1606935091.1609,472.0
1606935091.1629,419.0
1606935091.1648,402.0
1606935091.1669,421.0
1606935091.169,455.0
1606935091.1709,505.0
1606935091.1729,486.0
1606935091.1749,397.0
1606935091.1769,387.0
1606935091.179,426.0
1606935091.1809,404.0
1606935091.1829,387.0
1606935091.1849,416.0
1606935091.1869,407.0
1606935091.1891,368.0
1606935091.1909,368.0
1606935091.1929,390.0
1606935091.1949,411.0
1606935091.1976,436.0
1606935091.199,522.0
1606935091.201,729.0
1606935091.2029,775.0
1606935091.2049,484.0
1606935091.2069,320.0
1606935091.209,436.0
1606935091.2109,423.0
1606935091.2129,327.0
1606935091.2149,344.0
1606935091.2171,366.0
1606935091.2191,358.0
1606935091.2209,373.0
1606935091.2231,368.0
1606935091.2249,339.0
1606935091.2269,373.0
1606935091.229,407.0
1606935091.2309,368.0
1606935091.2329,349.0
1606935091.2349,378.0
1606935091.2369,387.0
1606935091.239,380.0
1606935091.2409,368.0
1606935091.2429,361.0
1606935091.2449,404.0
1606935091.2469,440.0
1606935091.249,363.0
1606935091.2509,301.0
1606935091.2529,370.0
1606935091.2549,407.0
1606935091.2569,373.0
1606935091.259,368.0
1606935091.2609,344.0
1606935091.2629,313.0
1606935091.2649,346.0
1606935091.2669,378.0
1606935091.269,375.0
1606935091.2709,327.0
1606935091.2729,262.0
1606935091.2749,279.0
1606935091.2769,356.0
1606935091.279,363.0
1606935091.2809,325.0
1606935091.2829,325.0
1606935091.7101,313.0
1606935091.7111,269.0
1606935091.7136,269.0
1606935091.7162,322.0
1606935091.7183,361.0
1606935091.7201,334.0
1606935091.7221,291.0
1606935091.7241,279.0
1606935091.7261,293.0
1606935091.728,310.0
1606935091.7301,293.0
1606935091.732,303.0
1606935091.734,337.0
1606935091.736,313.0
1606935091.738,308.0
1606935091.74,325.0
1606935091.742,289.0
1606935091.744,286.0
1606935091.746,320.0
1606935091.748,315.0
1606935091.7502,272.0
1606935091.7521,260.0
1606935091.754,279.0
1606935091.756,291.0
1606935091.758,284.0
1606935091.76,267.0
1606935091.762,279.0
1606935091.764,264.0
1606935091.766,231.0
1606935091.768,255.0
1606935091.77,284.0
1606935091.772,274.0
1606935091.774,279.0
1606935091.776,281.0
1606935091.778,240.0
1606935091.78,233.0
1606935091.782,291.0
1606935091.784,289.0
1606935091.786,243.0
1606935091.788,277.0
1606935091.79,327.0
1606935091.792,317.0
1606935091.794,298.0
1606935091.796,293.0
1606935091.798,289.0
1606935091.8,277.0
1606935091.802,262.0
1606935091.804,255.0
1606935091.8061,267.0
1606935091.808,238.0
1606935091.81,197.0
1606935091.812,226.0
1606935091.814,245.0
1606935091.816,238.0
1606935091.818,252.0
1606935091.82,260.0
1606935091.822,354.0
1606935091.824,578.0
1606935091.826,647.0
1606935091.828,358.0
1606935091.83,142.0
1606935091.832,240.0
1606935091.834,255.0
1606935091.836,195.0
1606935091.838,260.0
1606935091.84,245.0
1606935091.842,173.0
1606935091.844,224.0
1606935091.846,255.0
1606935091.848,195.0
1606935091.8501,209.0
1606935091.8522,250.0
1606935091.8541,195.0
1606935092.2496,192.0
1606935092.2505,260.0
1606935092.253,236.0
1606935092.2557,185.0
1606935092.2577,226.0
1606935092.2596,267.0
1606935092.2616,219.0
1606935092.2636,195.0
1606935092.2656,248.0
1606935092.2676,260.0
1606935092.2696,199.0
1606935092.2715,209.0
1606935092.2735,262.0
1606935092.2755,228.0
1606935092.2775,183.0
1606935092.2796,226.0
1606935092.2815,245.0
1606935092.2835,178.0
1606935092.2855,168.0
1606935092.2875,226.0
1606935092.2895,221.0
1606935092.2915,151.0
1606935092.2935,139.0
1606935092.2955,192.0
1606935092.2975,209.0
1606935092.2996,178.0
1606935092.3015,185.0
1606935092.3035,236.0
1606935092.3055,192.0
1606935092.3075,120.0
1606935092.3095,168.0
1606935092.3115,207.0
1606935092.3135,192.0
1606935092.3155,221.0
1606935092.3175,219.0
1606935092.3196,175.0
1606935092.3215,187.0
1606935092.3235,221.0
1606935092.3255,202.0
1606935092.3275,178.0
1606935092.3296,202.0
1606935092.3315,219.0
1606935092.3335,197.0
1606935092.3355,192.0
1606935092.3375,187.0
1606935092.3395,175.0
1606935092.3415,199.0
1606935092.3435,214.0
1606935092.3455,180.0
1606935092.3477,149.0
1606935092.3496,161.0
1606935092.3515,192.0
1606935092.3535,190.0
1606935092.3555,166.0
1606935092.3575,173.0
1606935092.3595,166.0
1606935092.3615,146.0
1606935092.3635,163.0
1606935092.3655,178.0
1606935092.3675,166.0
1606935092.3695,151.0
1606935092.3715,161.0
1606935092.3735,183.0
1606935092.3755,187.0
1606935092.3775,166.0
1606935092.3796,156.0
1606935092.3815,163.0
1606935092.3835,154.0
1606935092.3855,146.0
1606935092.3875,166.0
1606935092.3896,180.0
1606935092.3915,158.0
1606935092.3935,134.0
1606935092.8199,171.0
1606935092.8208,192.0
1606935092.8233,173.0
1606935092.8259,202.0
1606935092.8279,248.0
1606935092.8299,226.0
1606935092.8318,171.0
1606935092.8338,163.0
1606935092.8358,178.0
1606935092.8378,175.0
1606935092.8398,158.0
1606935092.8418,122.0
1606935092.8438,120.0
1606935092.8458,154.0
1606935092.8478,146.0
1606935092.85,122.0
1606935092.8518,149.0
1606935092.8538,173.0
1606935092.8558,197.0
1606935092.8566,327.0
1606935092.8589,491.0
1606935092.8609,414.0
1606935092.8628,197.0
1606935092.8648,163.0
1606935092.8669,187.0
1606935092.869,146.0
1606935092.8708,130.0
1606935092.8732,120.0
1606935092.8748,118.0
1606935092.8768,137.0
1606935092.8789,144.0
1606935092.8808,130.0
1606935092.8828,115.0
1606935092.8848,139.0
1606935092.8855,168.0
1606935092.8878,156.0
1606935092.8898,142.0
1606935092.8918,146.0
1606935092.8938,168.0
1606935092.8958,173.0
1606935092.8978,139.0
1606935092.8998,125.0
1606935092.9018,151.0
1606935092.9038,156.0
1606935092.9058,161.0
1606935092.9078,185.0
1606935092.9098,173.0
1606935092.9118,146.0
1606935092.9138,161.0
1606935092.9158,197.0
1606935092.9165,173.0
1606935092.919,108.0
1606935092.9208,122.0
1606935092.9228,158.0
1606935092.9248,149.0
1606935092.9267,146.0
1606935092.9288,132.0
1606935092.9308,103.0
1606935092.9328,105.0
1606935092.9348,130.0
1606935092.9368,132.0
1606935092.9388,113.0
1606935092.9408,122.0
1606935092.9428,154.0
1606935092.9448,130.0
1606935092.9468,98.0
1606935092.9475,120.0
1606935092.9498,127.0
1606935092.9518,105.0
1606935092.9538,122.0
1606935092.9559,151.0
1606935092.9578,137.0
1606935092.9598,110.0
1606935093.3892,113.0
1606935093.3902,139.0
1606935093.3926,149.0
1606935093.3953,139.0
1606935093.3973,130.0
1606935093.3995,122.0
1606935093.4013,122.0
1606935093.4032,132.0
1606935093.4052,146.0
1606935093.406,134.0
1606935093.4082,103.0
1606935093.4101,84.0
1606935093.4121,89.0
1606935093.4141,122.0
1606935093.4161,151.0
1606935093.4181,125.0
1606935093.4202,93.0
1606935093.4221,108.0
1606935093.4241,118.0
1606935093.4262,105.0
1606935093.4281,113.0
1606935093.4302,120.0
1606935093.4321,120.0
1606935093.4341,118.0
1606935093.4361,122.0
1606935093.4368,115.0
1606935093.4391,89.0
1606935093.4411,93.0
1606935093.4431,122.0
1606935093.4451,122.0
1606935093.4471,122.0
1606935093.4491,134.0
1606935093.4511,122.0
1606935093.4531,110.0
1606935093.4551,122.0
1606935093.4571,120.0
1606935093.4591,115.0
1606935093.4611,127.0
1606935093.4631,144.0
1606935093.4651,144.0
1606935093.4671,122.0
1606935093.4678,105.0
1606935093.4702,132.0
1606935093.4721,156.0
1606935093.4742,134.0
1606935093.4762,122.0
1606935093.4781,158.0
1606935093.4802,185.0
1606935093.4821,183.0
1606935093.4841,180.0
1606935093.4861,173.0
1606935093.4881,149.0
1606935093.4901,127.0
1606935093.4921,113.0
1606935093.4941,108.0
1606935093.4961,120.0
1606935093.4983,115.0
1606935093.499,101.0
1606935093.5002,115.0
1606935093.5021,134.0
1606935093.5041,122.0
1606935093.5061,132.0
1606935093.5081,260.0
1606935093.5101,445.0
1606935093.5121,443.0
1606935093.5141,226.0
1606935093.5161,154.0
1606935093.5181,195.0
1606935093.5202,113.0
1606935093.5221,77.0
1606935093.5241,130.0
1606935093.5261,105.0
1606935093.5281,74.0
1606935093.9295,98.0
1606935093.9303,96.0
1606935093.9326,74.0
1606935093.9344,98.0
1606935093.9364,125.0
1606935093.9384,113.0
1606935093.9404,91.0
1606935093.9424,84.0
1606935093.9444,91.0
1606935093.9465,103.0
1606935093.9483,108.0
1606935093.9505,93.0
1606935093.9524,81.0
1606935093.9529,81.0
1606935093.9542,91.0
1606935093.9562,105.0
1606935093.9583,127.0
1606935093.9603,137.0
1606935093.9623,134.0
1606935093.9643,125.0
1606935093.9664,110.0
1606935093.9683,103.0
1606935093.9703,118.0
1606935093.9723,130.0
1606935093.9743,120.0
1606935093.9763,105.0
1606935093.9784,98.0
1606935093.9804,103.0
1606935093.9824,101.0
1606935093.983,81.0
1606935093.9853,81.0
1606935093.9873,105.0
1606935093.9892,115.0
1606935093.9912,93.0
1606935093.9934,89.0
1606935093.9953,110.0
1606935093.9972,125.0
1606935093.9993,118.0
1606935094.0013,103.0
1606935094.0032,108.0
1606935094.0052,122.0
1606935094.0072,110.0
1606935094.0093,105.0
1606935094.0113,122.0
1606935094.0132,122.0
1606935094.0139,103.0
1606935094.0163,108.0
1606935094.0182,130.0
1606935094.0203,137.0
1606935094.0222,125.0
1606935094.0243,120.0
1606935094.0262,127.0
1606935094.0282,120.0
1606935094.0303,110.0
1606935094.0322,125.0
1606935094.0342,127.0
1606935094.0362,108.0
1606935094.0382,98.0
1606935094.0402,110.0
1606935094.0422,118.0
1606935094.0442,108.0
1606935094.0449,108.0
1606935094.0472,122.0
1606935094.0487,125.0
1606935094.0502,122.0
1606935094.0522,118.0
1606935094.0542,110.0
1606935094.0562,110.0
1606935094.0582,108.0
1606935094.0602,103.0
1606935094.0623,103.0
1606935094.0642,101.0
1606935094.0649,105.0
1606935094.4694,120.0
1606935094.4702,115.0
1606935094.4735,96.0
1606935094.4753,93.0
1606935094.4772,93.0
1606935094.4792,91.0
1606935094.4811,91.0
1606935094.4832,81.0
1606935094.4852,72.0
1606935094.4872,67.0
1606935094.4892,69.0
1606935094.4911,67.0
1606935094.4934,65.0
1606935094.4953,84.0
1606935094.4972,113.0
1606935094.4992,108.0
1606935094.5011,81.0
1606935094.5031,84.0
1606935094.5051,84.0
1606935094.5072,50.0
1606935094.5092,28.0
1606935094.5111,40.0
1606935094.5131,45.0
1606935094.5151,38.0
1606935094.5171,36.0
1606935094.5193,43.0
1606935094.5212,45.0
1606935094.5231,45.0
1606935094.5251,103.0
1606935094.5271,279.0
1606935094.5292,440.0
1606935094.5312,308.0
1606935094.5331,65.0
1606935094.5351,79.0
1606935094.5371,108.0
1606935094.5391,12.0
1606935094.5411,2.0
1606935094.5432,40.0
1606935094.5451,24.0
1606935094.5471,16.0
1606935094.5492,33.0
1606935094.5511,33.0
1606935094.5532,28.0
1606935094.5552,38.0
1606935094.5571,40.0
1606935094.5592,38.0
1606935094.5612,43.0
1606935094.5633,45.0
1606935094.5651,45.0
1606935094.5672,50.0
1606935094.5692,60.0
1606935094.5711,57.0
1606935094.5731,57.0
1606935094.5751,65.0
1606935094.5771,67.0
1606935094.5793,72.0
1606935094.5812,79.0
1606935094.5831,81.0
1606935094.5851,79.0
1606935094.5871,77.0
1606935094.5892,77.0
1606935094.5912,72.0
1606935094.5931,69.0
1606935094.5954,65.0
1606935094.5972,62.0
1606935094.5992,65.0
1606935094.6011,67.0
1606935094.6032,60.0
1606935094.6051,55.0
1606935094.6071,60.0
1606935094.6092,62.0
1606935094.6111,55.0
1606935094.6132,65.0
1606935095.0699,72.0
1606935095.0708,60.0
1606935095.0732,45.0
1606935095.0759,36.0
1606935095.0779,48.0
1606935095.0799,50.0
1606935095.082,21.0
1606935095.0839,21.0
1606935095.0859,40.0
1606935095.0879,24.0
1606935095.0898,14.0
1606935095.0918,36.0
1606935095.0938,43.0
1606935095.0958,31.0
1606935095.0978,28.0
1606935095.0999,16.0
1606935095.1018,16.0
1606935095.1038,38.0
1606935095.1059,43.0
1606935095.1078,31.0
1606935095.1098,31.0
1606935095.1118,26.0
1606935095.1138,7.0
1606935095.1158,-7.0
1606935095.1178,-2.0
1606935095.1199,-2.0
1606935095.1219,-7.0
1606935095.1238,0.0
1606935095.1258,14.0
1606935095.1278,12.0
1606935095.1298,-12.0
1606935095.1318,-38.0
1606935095.1338,-40.0
1606935095.1358,-33.0
1606935095.1378,-38.0
1606935095.1398,-33.0
1606935095.1418,-21.0
1606935095.1438,-21.0
1606935095.1458,-40.0
1606935095.1478,-60.0
1606935095.1498,-50.0
1606935095.152,-38.0
1606935095.1539,-45.0
1606935095.1558,-50.0
1606935095.1578,-50.0
1606935095.1598,-55.0
1606935095.1618,-60.0
1606935095.1638,-52.0
1606935095.1658,-57.0
1606935095.1678,-69.0
1606935095.1698,-62.0
1606935095.1718,-62.0
1606935095.1738,-72.0
1606935095.1758,-52.0
1606935095.1778,-38.0
1606935095.1798,-60.0
1606935095.1818,-72.0
1606935095.1838,-45.0
1606935095.1858,-26.0
1606935095.1878,-45.0
1606935095.1898,-81.0
1606935095.1918,-89.0
1606935095.1938,-79.0
1606935095.1958,-84.0
1606935095.1978,-91.0
1606935095.1998,-81.0
1606935095.2018,-84.0
1606935095.2038,-69.0
1606935095.2058,-52.0
1606935095.2078,-77.0
1606935095.2098,-55.0
1606935095.2118,105.0
1606935095.2138,320.0
1606935095.6093,313.0
1606935095.61,65.0
1606935095.6125,2.0
1606935095.6151,89.0
1606935095.6171,24.0
1606935095.6192,-21.0
1606935095.6211,12.0
1606935095.6231,-4.0
1606935095.6251,-12.0
1606935095.6271,31.0
1606935095.6291,50.0
1606935095.6311,31.0
1606935095.6331,19.0
1606935095.6351,48.0
1606935095.6371,86.0
1606935095.639,79.0
1606935095.641,67.0
1606935095.6431,91.0
1606935095.6451,115.0
1606935095.6473,125.0
1606935095.6491,113.0
1606935095.6511,81.0
1606935095.653,98.0
1606935095.6551,158.0
1606935095.6571,151.0
1606935095.6592,110.0
1606935095.6611,118.0
1606935095.663,139.0
1606935095.665,142.0
1606935095.667,132.0
1606935095.6691,115.0
1606935095.671,108.0
1606935095.6731,113.0
1606935095.675,115.0
1606935095.677,110.0
1606935095.6791,89.0
1606935095.681,79.0
1606935095.683,93.0
1606935095.685,93.0
1606935095.6871,91.0
1606935095.6891,101.0
1606935095.691,108.0
1606935095.693,108.0
1606935095.695,105.0
1606935095.697,105.0
1606935095.6991,105.0
1606935095.701,101.0
1606935095.703,103.0
1606935095.705,118.0
1606935095.7071,120.0
1606935095.7091,113.0
1606935095.711,118.0
1606935095.7131,122.0
1606935095.7151,115.0
1606935095.7171,115.0
1606935095.7191,105.0
1606935095.721,105.0
1606935095.723,122.0
1606935095.725,134.0
1606935095.727,120.0
1606935095.7291,113.0
1606935095.731,115.0
1606935095.733,113.0
1606935095.735,118.0
1606935095.737,125.0
1606935095.739,110.0
1606935095.741,89.0
1606935095.7439,98.0
1606935095.745,127.0
1606935095.7471,130.0
1606935095.7493,103.0
1606935095.7511,86.0
1606935095.753,101.0
1606935096.2384,120.0
1606935096.2394,113.0
1606935096.2419,93.0
1606935096.2445,96.0
1606935096.2465,101.0
1606935096.2485,98.0
1606935096.2505,105.0
1606935096.2524,108.0
1606935096.2544,101.0
1606935096.2564,101.0
1606935096.2584,108.0
1606935096.2604,101.0
1606935096.2624,89.0
1606935096.2644,103.0
1606935096.2664,101.0
1606935096.2684,79.0
1606935096.2704,105.0
1606935096.2724,132.0
1606935096.2744,96.0
1606935096.2764,81.0
1606935096.2784,105.0
1606935096.2804,108.0
1606935096.2824,113.0
1606935096.2844,130.0
1606935096.2864,120.0
1606935096.2884,108.0
1606935096.2904,101.0
1606935096.2924,122.0
1606935096.2944,171.0
1606935096.2964,161.0
1606935096.2984,108.0
1606935096.3004,118.0
1606935096.3024,134.0
1606935096.3044,93.0
1606935096.3064,62.0
1606935096.3084,84.0
1606935096.3104,110.0
1606935096.3124,105.0
1606935096.3144,91.0
1606935096.3164,96.0
1606935096.3184,110.0
1606935096.3204,101.0
1606935096.3224,163.0
1606935096.3244,375.0
1606935096.3264,488.0
1606935096.3284,257.0
1606935096.3304,43.0
1606935096.3324,130.0
1606935096.3346,158.0
1606935096.3364,57.0
1606935096.3385,48.0
1606935096.3404,79.0
1606935096.3424,67.0
1606935096.3444,62.0
1606935096.3464,69.0
1606935096.3484,62.0
1606935096.3504,60.0
1606935096.3524,69.0
1606935096.3544,72.0
1606935096.3564,86.0
1606935096.3584,105.0
1606935096.3604,86.0
1606935096.3624,50.0
1606935096.3644,67.0
1606935096.3664,118.0
1606935096.3684,120.0
1606935096.3704,86.0
1606935096.3724,91.0
1606935096.3744,122.0
1606935096.3764,122.0
1606935096.3784,115.0
1606935096.3804,120.0
1606935096.3824,110.0
1606935096.7189,103.0
1606935096.7196,125.0
1606935096.7221,122.0
1606935096.7247,86.0
1606935096.7267,74.0
1606935096.7287,84.0
1606935096.7307,74.0
1606935096.7327,60.0
1606935096.7347,60.0
1606935096.7367,67.0
1606935096.7387,55.0
1606935096.7406,43.0
1606935096.7426,57.0
1606935096.7446,52.0
1606935096.7467,38.0
1606935096.7486,33.0
1606935096.7506,33.0
1606935096.7526,55.0
1606935096.7546,69.0
1606935096.7566,62.0
1606935096.7586,45.0
1606935096.7606,19.0
1606935096.7626,50.0
1606935096.7646,91.0
1606935096.7667,67.0
1606935096.7686,38.0
1606935096.7709,62.0
1606935096.7727,79.0
1606935096.7746,62.0
1606935096.7766,65.0
1606935096.7786,84.0
1606935096.7806,77.0
1606935096.7826,72.0
1606935096.7846,79.0
1606935096.7866,62.0
1606935096.7886,60.0
1606935096.7906,96.0
1606935096.7926,96.0
1606935096.7946,62.0
1606935096.7966,62.0
1606935096.7986,77.0
1606935096.8006,74.0
1606935096.8026,84.0
1606935096.8046,91.0
1606935096.8066,69.0
1606935096.8086,77.0
1606935096.8106,118.0
1606935096.8126,118.0
1606935096.8146,79.0
1606935096.8166,74.0
1606935096.8186,96.0
1606935096.8206,118.0
1606935096.8226,125.0
1606935096.8246,113.0
1606935096.8266,122.0
1606935096.8286,125.0
1606935096.8306,84.0
1606935096.8326,96.0
1606935096.8346,156.0
1606935096.8366,132.0
1606935096.8386,79.0
1606935096.8406,113.0
1606935096.8426,161.0
1606935096.8446,137.0
1606935096.8466,103.0
1606935096.8486,110.0
1606935096.8506,144.0
1606935096.8526,185.0
1606935096.8546,185.0
1606935096.8566,168.0
1606935096.8586,166.0
1606935096.8606,144.0
1606935096.8626,122.0
1606935097.2897,103.0
1606935097.2906,81.0
1606935097.2932,93.0
1606935097.2957,118.0
1606935097.2979,103.0
1606935097.2997,81.0
1606935097.3018,84.0
1606935097.3036,91.0
1606935097.3056,101.0
1606935097.3076,192.0
1606935097.3097,421.0
1606935097.3116,505.0
1606935097.3136,233.0
1606935097.3156,52.0
1606935097.3176,130.0
1606935097.3196,113.0
1606935097.3216,45.0
1606935097.3236,62.0
1606935097.3256,67.0
1606935097.3276,45.0
1606935097.3296,33.0
1606935097.3316,48.0
1606935097.3336,84.0
1606935097.3356,89.0
1606935097.3376,67.0
1606935097.3396,62.0
1606935097.3416,65.0
1606935097.3436,69.0
1606935097.3456,81.0
1606935097.3476,79.0
1606935097.3496,81.0
1606935097.3516,91.0
1606935097.3536,93.0
1606935097.3556,98.0
1606935097.3576,103.0
1606935097.3596,105.0
1606935097.3616,130.0
1606935097.3635,122.0
1606935097.3656,93.0
1606935097.3676,120.0
1606935097.3696,149.0
1606935097.3716,115.0
1606935097.3736,96.0
1606935097.3756,110.0
1606935097.3776,113.0
1606935097.3796,108.0
1606935097.3816,98.0
1606935097.3836,96.0
1606935097.3856,108.0
1606935097.3875,89.0
1606935097.3896,65.0
1606935097.3915,93.0
1606935097.3936,96.0
1606935097.3956,62.0
1606935097.3976,74.0
1606935097.3998,105.0
1606935097.4016,108.0
1606935097.4036,84.0
1606935097.4056,67.0
1606935097.4084,86.0
1606935097.4096,101.0
1606935097.4116,101.0
1606935097.4135,89.0
1606935097.4156,93.0
1606935097.4176,120.0
1606935097.4196,105.0
1606935097.4216,67.0
1606935097.4236,79.0
1606935097.4256,113.0
1606935097.4276,113.0
1606935097.4296,105.0
1606935097.4316,103.0
1606935097.4336,91.0
1606935097.8291,93.0
1606935097.8301,101.0
1606935097.8326,84.0
1606935097.8352,74.0
1606935097.8371,81.0
1606935097.8391,77.0
1606935097.8411,67.0
1606935097.8431,72.0
1606935097.8451,79.0
1606935097.8471,69.0
1606935097.8491,69.0
1606935097.851,65.0
1606935097.853,48.0
1606935097.8551,50.0
1606935097.857,67.0
1606935097.8591,69.0
1606935097.861,72.0
1606935097.863,86.0
1606935097.865,84.0
1606935097.867,52.0
1606935097.8691,52.0
1606935097.871,74.0
1606935097.873,67.0
1606935097.875,62.0
1606935097.877,67.0
1606935097.879,69.0
1606935097.881,55.0
1606935097.883,52.0
1606935097.885,74.0
1606935097.887,52.0
1606935097.8891,43.0
1606935097.8911,79.0
1606935097.893,110.0
1606935097.8953,118.0
1606935097.8971,89.0
1606935097.8991,67.0
1606935097.901,74.0
1606935097.9031,45.0
1606935097.9051,14.0
1606935097.907,45.0
1606935097.9091,62.0
1606935097.911,31.0
1606935097.913,40.0
1606935097.9151,57.0
1606935097.917,28.0
1606935097.9191,24.0
1606935097.921,84.0
1606935097.923,202.0
1606935097.925,390.0
1606935097.927,395.0
1606935097.9291,142.0
1606935097.931,77.0
1606935097.933,166.0
1606935097.935,79.0
1606935097.937,-4.0
1606935097.939,19.0
1606935097.941,21.0
1606935097.943,14.0
1606935097.945,28.0
1606935097.947,33.0
1606935097.9491,21.0
1606935097.951,12.0
1606935097.953,21.0
1606935097.955,28.0
1606935097.957,24.0
1606935097.9591,12.0
1606935097.961,33.0
1606935097.963,72.0
1606935097.965,62.0
1606935097.967,40.0
1606935097.9691,36.0
1606935097.971,40.0
1606935097.973,52.0
1606935098.4597,65.0
1606935098.4606,84.0
1606935098.4631,105.0
1606935098.4658,84.0
1606935098.4677,43.0
1606935098.4698,48.0
1606935098.4718,67.0
1606935098.4737,62.0
1606935098.4757,48.0
1606935098.4777,45.0
1606935098.4797,60.0
1606935098.4818,62.0
1606935098.4837,31.0
1606935098.4856,21.0
1606935098.4876,60.0
1606935098.4896,65.0
1606935098.4916,36.0
1606935098.4936,40.0
1606935098.4956,57.0
1606935098.4976,48.0
1606935098.4996,33.0
1606935098.5016,48.0
1606935098.5036,74.0
1606935098.5056,86.0
1606935098.5076,79.0
1606935098.5097,67.0
1606935098.5116,77.0
1606935098.5136,72.0
1606935098.5156,67.0
1606935098.5176,98.0
1606935098.5196,86.0
1606935098.5216,48.0
1606935098.5236,69.0
1606935098.5256,113.0
1606935098.5276,108.0
1606935098.5296,69.0
1606935098.5316,74.0
1606935098.5336,113.0
1606935098.5356,103.0
1606935098.5376,74.0
1606935098.5396,84.0
1606935098.5416,96.0
1606935098.5436,84.0
1606935098.5456,103.0
1606935098.5476,132.0
1606935098.5496,101.0
1606935098.5517,48.0
1606935098.5536,55.0
1606935098.5556,101.0
1606935098.5576,115.0
1606935098.5597,91.0
1606935098.5616,72.0
1606935098.5636,84.0
1606935098.5656,96.0
1606935098.5677,84.0
1606935098.5697,81.0
1606935098.5716,79.0
1606935098.5736,89.0
1606935098.5756,125.0
1606935098.5776,120.0
1606935098.5796,89.0
1606935098.5816,86.0
1606935098.5838,96.0
1606935098.5856,93.0
1606935098.5876,91.0
1606935098.5896,91.0
1606935098.5916,93.0
1606935098.5936,98.0
1606935098.5956,86.0
1606935098.5976,91.0
1606935098.5996,125.0
1606935098.6016,120.0
1606935098.6036,91.0
1606935098.9989,105.0
1606935098.9997,132.0
1606935099.0022,125.0
1606935099.0047,120.0
1606935099.0067,127.0
1606935099.0088,118.0
1606935099.0107,81.0
1606935099.0127,65.0
1606935099.0147,77.0
1606935099.0167,67.0
1606935099.0188,55.0
1606935099.0207,74.0
1606935099.0227,74.0
1606935099.0248,38.0
1606935099.0267,36.0
1606935099.0287,86.0
1606935099.0307,171.0
1606935099.0327,337.0
1606935099.0347,402.0
1606935099.0367,207.0
1606935099.0388,79.0
1606935099.0407,113.0
1606935099.0427,52.0
1606935099.0447,4.0
1606935099.0467,40.0
1606935099.0488,33.0
1606935099.0507,19.0
1606935099.0528,31.0
1606935099.0547,12.0
1606935099.0567,4.0
1606935099.0587,36.0
1606935099.0607,40.0
1606935099.0627,40.0
1606935099.0647,55.0
1606935099.0667,48.0
1606935099.0687,38.0
1606935099.0707,57.0
1606935099.0727,52.0
1606935099.0747,33.0
1606935099.0767,52.0
1606935099.079,74.0
1606935099.0808,81.0
1606935099.0827,79.0
1606935099.0847,48.0
1606935099.0867,40.0
1606935099.0888,65.0
1606935099.0907,77.0
1606935099.0927,81.0
1606935099.0947,81.0
1606935099.0968,55.0
1606935099.0988,45.0
1606935099.1007,72.0
1606935099.1027,69.0
1606935099.1048,43.0
1606935099.1054,45.0
1606935099.1077,65.0
1606935099.1098,69.0
1606935099.1117,67.0
1606935099.1137,65.0
1606935099.1157,55.0
1606935099.1177,55.0
1606935099.1197,65.0
1606935099.1217,74.0
1606935099.1237,69.0
1606935099.1257,57.0
1606935099.1277,62.0
1606935099.1297,74.0
1606935099.1317,65.0
1606935099.1337,60.0
1606935099.1357,77.0
1606935099.1364,77.0
1606935099.1388,79.0
1606935099.1407,96.0
1606935099.5388,91.0
1606935099.5396,81.0
1606935099.542,84.0
1606935099.5447,79.0
1606935099.5467,69.0
1606935099.5474,74.0
1606935099.5497,77.0
1606935099.5517,84.0
1606935099.5536,77.0
1606935099.5556,43.0
1606935099.5576,40.0
1606935099.5597,84.0
1606935099.5616,96.0
1606935099.5636,62.0
1606935099.5657,57.0
1606935099.5676,77.0
1606935099.5697,74.0
1606935099.5716,77.0
1606935099.5738,98.0
1606935099.5757,98.0
1606935099.5776,74.0
1606935099.5783,62.0
1606935099.5807,77.0
1606935099.5826,84.0
1606935099.5846,74.0
1606935099.5866,65.0
1606935099.5886,69.0
1606935099.5906,89.0
1606935099.5926,96.0
1606935099.5946,89.0
1606935099.5966,91.0
1606935099.5986,103.0
1606935099.6006,93.0
1606935099.6026,77.0
1606935099.6046,93.0
1606935099.6066,130.0
1606935099.6086,122.0
1606935099.6093,93.0
1606935099.6116,103.0
1606935099.6136,110.0
1606935099.6156,86.0
1606935099.6176,84.0
1606935099.6196,96.0
1606935099.6216,96.0
1606935099.6236,96.0
1606935099.6256,108.0
1606935099.6276,125.0
1606935099.6296,132.0
1606935099.6316,113.0
1606935099.6336,98.0
1606935099.6356,98.0
1606935099.6376,81.0
1606935099.6396,50.0
1606935099.6403,31.0
1606935099.6426,45.0
1606935099.6446,77.0
1606935099.6466,81.0
1606935099.6488,69.0
1606935099.6506,67.0
1606935099.6526,60.0
1606935099.6547,93.0
1606935099.6566,260.0
1606935099.6586,440.0
1606935099.6606,315.0
1606935099.6626,65.0
1606935099.6646,65.0
1606935099.6666,86.0
1606935099.6686,-16.0
1606935099.6693,-50.0
1606935099.6719,-4.0
1606935099.6736,31.0
1606935099.6756,24.0
1606935099.6776,-4.0
1606935100.0795,-19.0
1606935100.0806,-9.0
1606935100.083,9.0
1606935100.0857,28.0
1606935100.0877,33.0
1606935100.0896,14.0
1606935100.0917,-4.0
1606935100.0936,7.0
1606935100.0956,12.0
1606935100.0976,14.0
1606935100.0995,45.0
1606935100.1003,48.0
1606935100.1025,7.0
1606935100.1046,16.0
1606935100.1066,67.0
1606935100.1086,77.0
1606935100.1106,55.0
1606935100.1126,50.0
1606935100.1146,45.0
1606935100.1166,14.0
1606935100.1186,14.0
1606935100.1206,69.0
1606935100.1226,81.0
1606935100.1245,28.0
1606935100.1265,26.0
1606935100.1287,57.0
1606935100.1306,48.0
1606935100.1312,36.0
1606935100.1326,45.0
1606935100.1345,36.0
1606935100.1365,19.0
1606935100.1386,21.0
1606935100.1406,26.0
1606935100.1426,12.0
1606935100.1446,0.0
1606935100.1466,31.0
1606935100.1486,62.0
1606935100.1505,50.0
1606935100.1525,43.0
1606935100.1546,55.0
1606935100.1565,52.0
1606935100.1586,38.0
1606935100.1606,40.0
1606935100.1613,77.0
1606935100.1635,113.0
1606935100.1656,113.0
1606935100.1676,98.0
1606935100.1698,98.0
1606935100.1716,108.0
1606935100.1736,113.0
1606935100.1755,113.0
1606935100.1775,115.0
1606935100.1796,120.0
1606935100.1816,122.0
1606935100.1836,120.0
1606935100.1855,120.0
1606935100.1876,120.0
1606935100.1895,115.0
1606935100.1916,118.0
1606935100.1923,113.0
1606935100.1946,127.0
1606935100.1965,185.0
1606935100.1986,197.0
1606935100.2006,161.0
1606935100.2026,156.0
1606935100.2046,158.0
1606935100.2066,146.0
1606935100.2085,144.0
1606935100.2106,151.0
1606935100.2126,151.0
1606935100.2146,144.0
1606935100.2166,146.0
1606935100.2185,149.0
1606935100.6496,146.0
1606935100.6506,144.0
1606935100.653,142.0
1606935100.6557,142.0
1606935100.6577,132.0
1606935100.6597,118.0
1606935100.6616,127.0
1606935100.6636,156.0
1606935100.6656,151.0
1606935100.6676,120.0
1606935100.6696,122.0
1606935100.6715,149.0
1606935100.6735,146.0
1606935100.6755,132.0
1606935100.6775,144.0
1606935100.6782,173.0
1606935100.6806,185.0
1606935100.6825,168.0
1606935100.6845,154.0
1606935100.6865,146.0
1606935100.6885,127.0
1606935100.6905,105.0
1606935100.6925,103.0
1606935100.6945,105.0
1606935100.6965,93.0
1606935100.6987,93.0
1606935100.7006,115.0
1606935100.7025,120.0
1606935100.7045,113.0
1606935100.7065,151.0
1606935100.7085,286.0
1606935100.7092,474.0
1606935100.7115,467.0
1606935100.7135,221.0
1606935100.7155,122.0
1606935100.7175,171.0
1606935100.7196,118.0
1606935100.7215,77.0
1606935100.7235,98.0
1606935100.7255,86.0
1606935100.7276,77.0
1606935100.7295,84.0
1606935100.7315,72.0
1606935100.7335,60.0
1606935100.7355,69.0
1606935100.7375,72.0
1606935100.7383,65.0
1606935100.7406,60.0
1606935100.7425,55.0
1606935100.7445,62.0
1606935100.7466,77.0
1606935100.7485,74.0
1606935100.7505,65.0
1606935100.7525,60.0
1606935100.7545,72.0
1606935100.7565,69.0
1606935100.7585,52.0
1606935100.7605,62.0
1606935100.7625,77.0
1606935100.7645,67.0
1606935100.7665,65.0
1606935100.7685,62.0
1606935100.7705,55.0
1606935100.7725,55.0
1606935100.7745,50.0
1606935100.7765,43.0
1606935100.7785,40.0
1606935100.7805,26.0
1606935100.7825,16.0
1606935100.7845,33.0
1606935100.7865,31.0
1606935100.7885,9.0
1606935100.7905,19.0
1606935101.1895,21.0
1606935101.1904,0.0
1606935101.1929,-4.0
1606935101.1959,-2.0
1606935101.1976,-7.0
1606935101.1996,-7.0
1606935101.2015,-21.0
1606935101.2035,-40.0
1606935101.2055,-28.0
1606935101.2075,0.0
1606935101.2095,7.0
1606935101.2115,-9.0
1606935101.2135,-12.0
1606935101.2155,0.0
1606935101.2175,4.0
1606935101.2195,2.0
1606935101.2214,2.0
1606935101.2235,2.0
1606935101.2254,7.0
1606935101.2274,16.0
1606935101.2295,21.0
1606935101.2315,16.0
1606935101.2335,16.0
1606935101.2355,19.0
1606935101.2375,24.0
1606935101.2395,24.0
1606935101.2414,26.0
1606935101.2435,31.0
1606935101.2455,33.0
1606935101.2475,36.0
1606935101.2495,40.0
1606935101.2514,45.0
1606935101.2534,48.0
1606935101.2554,45.0
1606935101.2574,45.0
1606935101.2595,48.0
1606935101.2614,52.0
1606935101.2634,52.0
1606935101.2654,55.0
1606935101.2674,57.0
1606935101.2695,62.0
1606935101.2714,67.0
1606935101.2734,69.0
1606935101.2754,72.0
1606935101.2774,74.0
1606935101.2795,72.0
1606935101.2814,72.0
1606935101.2834,77.0
1606935101.2854,81.0
1606935101.2874,79.0
1606935101.2894,79.0
1606935101.2916,81.0
1606935101.2934,79.0
1606935101.2954,77.0
1606935101.2976,84.0
1606935101.2996,93.0
1606935101.3014,101.0
1606935101.3034,110.0
1606935101.3054,118.0
1606935101.3074,113.0
1606935101.3095,105.0
1606935101.3114,101.0
1606935101.3134,89.0
1606935101.3154,72.0
1606935101.3174,60.0
1606935101.3195,55.0
1606935101.3214,57.0
1606935101.3234,62.0
1606935101.3254,65.0
1606935101.3274,67.0
1606935101.3295,62.0
1606935101.3314,60.0
1606935101.3334,84.0
1606935101.7896,187.0
1606935101.7905,370.0
1606935101.7929,411.0
1606935101.7956,221.0
1606935101.7976,125.0
1606935101.7996,149.0
1606935101.8017,69.0
1606935101.8035,21.0
1606935101.8055,57.0
1606935101.8075,52.0
1606935101.8096,31.0
1606935101.8115,45.0
1606935101.8136,62.0
1606935101.8155,60.0
1606935101.8175,62.0
1606935101.8196,69.0
1606935101.8215,77.0
1606935101.8235,81.0
1606935101.8255,81.0
1606935101.8275,81.0
1606935101.8296,84.0
1606935101.8315,84.0
1606935101.8335,86.0
1606935101.8355,89.0
1606935101.8376,91.0
1606935101.8395,96.0
1606935101.8415,101.0
1606935101.8435,98.0
1606935101.8455,96.0
1606935101.8475,96.0
1606935101.8495,93.0
1606935101.8515,93.0
1606935101.8537,91.0
1606935101.8555,89.0
1606935101.8575,86.0
1606935101.8594,81.0
1606935101.8615,77.0
1606935101.8634,72.0
1606935101.8654,69.0
1606935101.8674,69.0
1606935101.8695,65.0
1606935101.8714,60.0
1606935101.8735,57.0
1606935101.8755,55.0
1606935101.8774,52.0
1606935101.8795,50.0
1606935101.8815,48.0
1606935101.8835,50.0
1606935101.8855,52.0
1606935101.8874,50.0
1606935101.8894,52.0
1606935101.8914,50.0
1606935101.8934,50.0
1606935101.8954,52.0
1606935101.8975,52.0
1606935101.8995,57.0
1606935101.9014,62.0
1606935101.9034,62.0
1606935101.9054,65.0
1606935101.9074,67.0
1606935101.9095,65.0
1606935101.9114,62.0
1606935101.9134,62.0
1606935101.9154,62.0
1606935101.9174,65.0
1606935101.9195,65.0
1606935101.9215,62.0
1606935101.9234,62.0
1606935101.9254,62.0
1606935101.9274,57.0
1606935101.9295,57.0
1606935101.9315,62.0
1606935101.9335,65.0
1606935102.3891,62.0
1606935102.39,62.0
1606935102.3924,62.0
1606935102.3951,62.0
1606935102.397,65.0
1606935102.3991,67.0
1606935102.4012,69.0
1606935102.4031,69.0
1606935102.405,62.0
1606935102.407,60.0
1606935102.4093,60.0
1606935102.411,62.0
1606935102.413,60.0
1606935102.415,60.0
1606935102.417,65.0
1606935102.419,67.0
1606935102.421,67.0
1606935102.423,62.0
1606935102.425,62.0
1606935102.427,69.0
1606935102.429,69.0
1606935102.431,72.0
1606935102.433,81.0
1606935102.435,86.0
1606935102.437,93.0
1606935102.4389,108.0
1606935102.441,125.0
1606935102.443,122.0
1606935102.445,115.0
1606935102.447,113.0
1606935102.449,105.0
1606935102.451,89.0
1606935102.4529,74.0
1606935102.4549,72.0
1606935102.4569,77.0
1606935102.459,81.0
1606935102.461,81.0
1606935102.4629,81.0
1606935102.465,81.0
1606935102.467,77.0
1606935102.469,93.0
1606935102.4709,192.0
1606935102.4736,390.0
1606935102.475,445.0
1606935102.477,219.0
1606935102.479,93.0
1606935102.481,163.0
1606935102.483,105.0
1606935102.485,26.0
1606935102.487,72.0
1606935102.4889,77.0
1606935102.4909,40.0
1606935102.493,48.0
1606935102.495,62.0
1606935102.497,55.0
1606935102.499,52.0
1606935102.501,62.0
1606935102.503,65.0
1606935102.505,57.0
1606935102.507,57.0
1606935102.509,65.0
1606935102.5111,67.0
1606935102.513,69.0
1606935102.515,67.0
1606935102.5169,67.0
1606935102.519,77.0
1606935102.521,79.0
1606935102.5229,72.0
1606935102.525,74.0
1606935102.5269,84.0
1606935102.529,84.0
1606935102.531,81.0
1606935102.533,81.0
1606935102.899,81.0
1606935102.8999,79.0
1606935102.9024,77.0
1606935102.905,72.0
1606935102.9071,69.0
1606935102.9091,69.0
1606935102.9111,67.0
1606935102.913,67.0
1606935102.915,65.0
1606935102.9169,60.0
1606935102.919,60.0
1606935102.9209,55.0
1606935102.923,45.0
1606935102.9249,31.0
1606935102.9269,24.0
1606935102.929,28.0
1606935102.9309,33.0
1606935102.9329,28.0
1606935102.9349,26.0
1606935102.9369,31.0
1606935102.9389,33.0
1606935102.9409,31.0
1606935102.9429,36.0
1606935102.9449,40.0
1606935102.9469,40.0
1606935102.949,40.0
1606935102.9509,43.0
1606935102.9529,45.0
1606935102.9549,43.0
1606935102.9569,43.0
1606935102.9589,43.0
1606935102.9609,40.0
1606935102.9629,38.0
1606935102.9649,33.0
1606935102.9669,33.0
1606935102.9689,33.0
1606935102.9709,33.0
1606935102.973,31.0
1606935102.9749,26.0
1606935102.9771,26.0
1606935102.9791,31.0
1606935102.9809,33.0
1606935102.9829,26.0
1606935102.9849,21.0
1606935102.9869,24.0
1606935102.9889,26.0
1606935102.9909,31.0
1606935102.9929,36.0
1606935102.9949,33.0
1606935102.9969,33.0
1606935102.999,36.0
1606935103.0009,40.0
1606935103.0029,40.0
1606935103.0049,40.0
1606935103.0069,45.0
1606935103.0089,45.0
1606935103.011,48.0
1606935103.0129,62.0
1606935103.0149,81.0
1606935103.0169,84.0
1606935103.019,67.0
1606935103.0209,57.0
1606935103.0229,55.0
1606935103.0249,43.0
1606935103.0269,24.0
1606935103.029,16.0
1606935103.0309,16.0
1606935103.0329,14.0
1606935103.0349,14.0
1606935103.0369,21.0
1606935103.0389,24.0
1606935103.0409,24.0
1606935103.0429,21.0
1606935103.4696,43.0
1606935103.4705,158.0
1606935103.4731,385.0
1606935103.4756,426.0
1606935103.4776,115.0
1606935103.4796,-43.0
1606935103.4817,93.0
1606935103.4836,60.0
1606935103.4856,-43.0
1606935103.4876,4.0
1606935103.4895,28.0
1606935103.4915,-9.0
1606935103.4935,-2.0
1606935103.4955,14.0
1606935103.4975,7.0
1606935103.4996,9.0
1606935103.5015,21.0
1606935103.5037,24.0
1606935103.5056,26.0
1606935103.5075,31.0
1606935103.5096,36.0
1606935103.5115,40.0
1606935103.5135,45.0
1606935103.5155,48.0
1606935103.5175,50.0
1606935103.5196,55.0
1606935103.5215,62.0
1606935103.5235,65.0
1606935103.5255,62.0
1606935103.5276,69.0
1606935103.5295,79.0
1606935103.5315,81.0
1606935103.5335,84.0
1606935103.5355,84.0
1606935103.5375,79.0
1606935103.5395,72.0
1606935103.5415,74.0
1606935103.5435,72.0
1606935103.5455,67.0
1606935103.5475,65.0
1606935103.5495,67.0
1606935103.5515,67.0
1606935103.5535,60.0
1606935103.5555,55.0
1606935103.5575,52.0
1606935103.5595,43.0
1606935103.5616,33.0
1606935103.5635,31.0
1606935103.5655,33.0
1606935103.5675,33.0
1606935103.5695,36.0
1606935103.5715,38.0
1606935103.5735,36.0
1606935103.5755,28.0
1606935103.5775,28.0
1606935103.5796,38.0
1606935103.5815,48.0
1606935103.5835,48.0
1606935103.5855,48.0
1606935103.5875,55.0
1606935103.5896,55.0
1606935103.5915,55.0
1606935103.5935,55.0
1606935103.5955,55.0
1606935103.5975,55.0
1606935103.5995,55.0
1606935103.6015,48.0
1606935103.6035,45.0
1606935103.6057,40.0
1606935103.6075,38.0
1606935103.6095,38.0
1606935103.6115,40.0
1606935103.6135,40.0
1606935104.0094,38.0
1606935104.0103,40.0
1606935104.0128,43.0
1606935104.0154,40.0
1606935104.0174,40.0
1606935104.0196,40.0
1606935104.0215,40.0
1606935104.0234,38.0
1606935104.0254,33.0
1606935104.0273,31.0
1606935104.0294,33.0
1606935104.0313,31.0
1606935104.0333,28.0
1606935104.0353,31.0
1606935104.0373,33.0
1606935104.0393,38.0
1606935104.0413,40.0
1606935104.0434,45.0
1606935104.0453,57.0
1606935104.0473,72.0
1606935104.0494,79.0
1606935104.0513,77.0
1606935104.0533,69.0
1606935104.0553,65.0
1606935104.0573,55.0
1606935104.0593,38.0
1606935104.0613,26.0
1606935104.0634,21.0
1606935104.0653,21.0
1606935104.0673,24.0
1606935104.0695,28.0
1606935104.0713,31.0
1606935104.0733,28.0
1606935104.0753,21.0
1606935104.0773,33.0
1606935104.0793,120.0
1606935104.0813,315.0
1606935104.0833,421.0
1606935104.0854,236.0
1606935104.0873,72.0
1606935104.0893,113.0
1606935104.0913,69.0
1606935104.0934,-16.0
1606935104.0953,9.0
1606935104.0973,26.0
1606935104.0993,-2.0
1606935104.1015,-2.0
1606935104.1034,7.0
1606935104.1053,4.0
1606935104.1073,7.0
1606935104.1094,14.0
1606935104.1113,14.0
1606935104.1134,14.0
1606935104.1153,16.0
1606935104.1173,16.0
1606935104.1194,16.0
1606935104.1213,21.0
1606935104.1233,21.0
1606935104.1253,21.0
1606935104.1273,26.0
1606935104.1294,31.0
1606935104.1313,36.0
1606935104.1333,40.0
1606935104.1353,43.0
1606935104.1373,45.0
1606935104.1393,48.0
1606935104.1413,48.0
1606935104.1434,48.0
1606935104.1453,48.0
1606935104.1473,48.0
1606935104.1494,43.0
1606935104.1513,38.0
1606935104.1533,40.0
1606935104.6093,40.0
1606935104.6103,36.0
1606935104.6128,36.0
1606935104.6154,36.0
1606935104.6174,28.0
1606935104.6194,19.0
1606935104.6213,12.0
1606935104.6233,12.0
1606935104.6253,14.0
1606935104.6273,12.0
1606935104.6293,12.0
1606935104.6313,16.0
1606935104.6333,21.0
1606935104.6353,21.0
1606935104.6373,24.0
1606935104.6392,24.0
1606935104.6412,21.0
1606935104.6433,21.0
1606935104.6452,28.0
1606935104.6473,31.0
1606935104.6493,31.0
1606935104.6512,31.0
1606935104.6532,33.0
1606935104.6552,36.0
1606935104.6574,38.0
1606935104.6593,40.0
1606935104.6612,40.0
1606935104.6633,40.0
1606935104.6652,40.0
1606935104.6672,40.0
1606935104.6692,43.0
1606935104.6713,43.0
1606935104.6732,40.0
1606935104.6752,40.0
1606935104.6772,38.0
1606935104.6793,31.0
1606935104.6812,31.0
1606935104.6832,36.0
1606935104.6852,38.0
1606935104.6872,33.0
1606935104.6892,31.0
1606935104.6912,31.0
1606935104.6933,33.0
1606935104.6953,38.0
1606935104.6973,40.0
1606935104.6994,40.0
1606935104.7012,43.0
1606935104.7032,45.0
1606935104.7052,45.0
1606935104.7073,45.0
1606935104.7093,48.0
1606935104.7112,48.0
1606935104.7133,43.0
1606935104.7152,38.0
1606935104.7172,40.0
1606935104.7193,45.0
1606935104.7212,52.0
1606935104.7232,60.0
1606935104.7252,67.0
1606935104.7272,74.0
1606935104.7293,89.0
1606935104.7313,101.0
1606935104.7332,98.0
1606935104.7352,89.0
1606935104.7372,81.0
1606935104.7392,79.0
1606935104.7412,65.0
1606935104.7434,48.0
1606935104.7452,40.0
1606935104.7472,40.0
1606935104.7493,45.0
1606935104.7512,45.0
1606935104.7532,50.0
1606935105.1793,50.0
1606935105.1803,45.0
1606935105.1823,43.0
1606935105.1841,93.0
1606935105.186,250.0
1606935105.188,423.0
1606935105.1899,358.0
1606935105.1919,144.0
1606935105.1939,113.0
1606935105.1959,105.0
1606935105.1979,2.0
1606935105.1999,-12.0
1606935105.2019,24.0
1606935105.204,2.0
1606935105.2059,-7.0
1606935105.2079,12.0
1606935105.21,16.0
1606935105.2119,14.0
1606935105.2139,24.0
1606935105.2159,28.0
1606935105.2179,31.0
1606935105.2199,33.0
1606935105.2219,36.0
1606935105.2239,38.0
1606935105.2259,40.0
1606935105.2279,43.0
1606935105.23,40.0
1606935105.2319,40.0
1606935105.2339,48.0
1606935105.2359,55.0
1606935105.2379,52.0
1606935105.2399,50.0
1606935105.2419,55.0
1606935105.2439,57.0
1606935105.2459,57.0
1606935105.2479,60.0
1606935105.2499,62.0
1606935105.2519,60.0
1606935105.2539,57.0
1606935105.2559,55.0
1606935105.2579,50.0
1606935105.2599,48.0
1606935105.2619,48.0
1606935105.2639,48.0
1606935105.2659,45.0
1606935105.2679,43.0
1606935105.2699,38.0
1606935105.2719,38.0
1606935105.2739,40.0
1606935105.2759,38.0
1606935105.2779,38.0
1606935105.28,40.0
1606935105.2819,43.0
1606935105.2841,45.0
1606935105.286,48.0
1606935105.2879,52.0
1606935105.2899,55.0
1606935105.2919,52.0
1606935105.2994,55.0
1606935105.3009,60.0
1606935105.3029,62.0
1606935105.3049,62.0
1606935105.3069,62.0
1606935105.309,62.0
1606935105.3109,62.0
1606935105.3129,57.0
1606935105.3149,55.0
1606935105.3169,60.0
1606935105.3189,62.0
1606935105.3209,60.0
1606935105.3229,50.0
1606935105.3249,26.0
1606935105.3269,2.0
1606935105.7196,9.0
1606935105.7206,9.0
1606935105.7231,-21.0
1606935105.7256,-45.0
1606935105.7276,-43.0
1606935105.7297,-48.0
1606935105.7317,-79.0
1606935105.7336,-108.0
1606935105.7356,-125.0
1606935105.7376,-105.0
1606935105.7396,-50.0
1606935105.7415,-33.0
1606935105.7435,-40.0
1606935105.7455,-2.0
1606935105.7475,33.0
1606935105.7496,33.0
1606935105.7515,38.0
1606935105.7535,52.0
1606935105.7555,55.0
1606935105.7575,57.0
1606935105.7596,62.0
1606935105.7615,65.0
1606935105.7635,65.0
1606935105.7655,62.0
1606935105.7675,52.0
1606935105.7696,45.0
1606935105.7716,48.0
1606935105.7735,48.0
1606935105.7755,48.0
1606935105.7775,55.0
1606935105.7796,60.0
1606935105.7817,57.0
1606935105.7836,65.0
1606935105.7857,89.0
1606935105.7875,103.0
1606935105.7895,103.0
1606935105.7915,103.0
1606935105.7935,103.0
1606935105.7955,91.0
1606935105.7975,72.0
1606935105.7996,60.0
1606935105.8015,57.0
1606935105.8035,57.0
1606935105.8055,60.0
1606935105.8075,57.0
1606935105.8095,60.0
1606935105.8103,65.0
1606935105.8125,55.0
1606935105.8146,62.0
1606935105.8166,149.0
1606935105.8186,332.0
1606935105.8205,436.0
1606935105.8225,274.0
1606935105.8245,115.0
1606935105.8265,144.0
1606935105.8285,96.0
1606935105.8305,12.0
1606935105.8325,38.0
1606935105.8345,52.0
1606935105.8365,24.0
1606935105.8385,31.0
1606935105.8405,45.0
1606935105.8413,40.0
1606935105.8435,38.0
1606935105.8455,45.0
1606935105.8475,45.0
1606935105.8496,40.0
1606935105.8515,40.0
1606935105.8535,38.0
1606935105.8555,40.0
1606935105.8575,45.0
1606935105.8595,48.0
1606935105.8615,52.0
1606935106.2595,55.0
1606935106.2605,55.0
1606935106.2629,60.0
1606935106.2656,69.0
1606935106.2676,72.0
1606935106.2683,72.0
1606935106.2705,69.0
1606935106.2725,67.0
1606935106.2745,65.0
1606935106.2767,60.0
1606935106.2786,55.0
1606935106.2805,52.0
1606935106.2824,52.0
1606935106.2845,45.0
1606935106.2865,40.0
1606935106.2886,45.0
1606935106.2904,48.0
1606935106.2925,38.0
1606935106.2944,31.0
1606935106.2965,31.0
1606935106.2985,33.0
1606935106.2992,31.0
1606935106.3015,28.0
1606935106.3034,28.0
1606935106.3055,28.0
1606935106.3075,26.0
1606935106.3095,28.0
1606935106.3114,31.0
1606935106.3134,31.0
1606935106.3155,33.0
1606935106.3175,33.0
1606935106.3195,28.0
1606935106.3215,24.0
1606935106.3234,24.0
1606935106.3254,26.0
1606935106.3274,26.0
1606935106.3295,19.0
1606935106.3302,14.0
1606935106.3326,14.0
1606935106.3345,19.0
1606935106.3364,21.0
1606935106.3385,21.0
1606935106.3404,16.0
1606935106.3425,16.0
1606935106.3445,19.0
1606935106.3465,21.0
1606935106.3485,19.0
1606935106.3505,16.0
1606935106.3525,19.0
1606935106.3544,24.0
1606935106.3565,24.0
1606935106.3585,24.0
1606935106.3592,24.0
1606935106.3615,24.0
1606935106.3634,21.0
1606935106.3654,21.0
1606935106.3675,24.0
1606935106.3695,24.0
1606935106.3715,26.0
1606935106.3734,28.0
1606935106.3756,26.0
1606935106.3775,26.0
1606935106.3795,28.0
1606935106.3815,28.0
1606935106.3834,28.0
1606935106.3855,33.0
1606935106.3874,36.0
1606935106.3895,31.0
1606935106.3902,26.0
1606935106.3925,28.0
1606935106.3945,33.0
1606935106.3965,33.0
1606935106.3985,31.0
1606935106.8296,31.0
1606935106.8307,33.0
1606935106.8331,38.0
1606935106.8358,43.0
1606935106.8377,48.0
1606935106.8398,55.0
1606935106.8417,60.0
1606935106.8436,57.0
1606935106.8443,52.0
1606935106.8467,40.0
1606935106.8487,31.0
1606935106.8506,21.0
1606935106.8526,4.0
1606935106.8546,-12.0
1606935106.8566,-12.0
1606935106.8586,-4.0
1606935106.8606,0.0
1606935106.8627,2.0
1606935106.8647,4.0
1606935106.8666,7.0
1606935106.8687,7.0
1606935106.8706,38.0
1606935106.8726,168.0
1606935106.8746,378.0
1606935106.8753,383.0
1606935106.8777,113.0
1606935106.8797,12.0
1606935106.8816,86.0
1606935106.8836,12.0
1606935106.8856,-50.0
1606935106.8876,-2.0
1606935106.8897,-2.0
1606935106.8916,-26.0
1606935106.8936,-9.0
1606935106.8956,0.0
1606935106.8976,-7.0
1606935106.8996,-4.0
1606935106.9016,2.0
1606935106.9038,4.0
1606935106.9057,9.0
1606935106.9063,16.0
1606935106.9087,16.0
1606935106.9106,14.0
1606935106.9126,19.0
1606935106.9147,24.0
1606935106.9166,24.0
1606935106.9187,26.0
1606935106.9206,31.0
1606935106.9226,38.0
1606935106.9246,45.0
1606935106.9266,48.0
1606935106.9287,50.0
1606935106.9306,55.0
1606935106.9326,52.0
1606935106.9346,52.0
1606935106.9366,55.0
1606935106.9373,55.0
1606935106.9398,50.0
1606935106.9416,48.0
1606935106.9436,45.0
1606935106.9457,43.0
1606935106.9476,43.0
1606935106.9497,43.0
1606935106.9516,43.0
1606935106.9536,38.0
1606935106.9556,36.0
1606935106.9576,36.0
1606935106.9597,33.0
1606935106.9616,33.0
1606935106.9637,31.0
1606935106.9656,33.0
1606935106.9676,33.0
1606935106.9683,36.0
1606935107.3993,38.0
1606935107.4002,40.0
1606935107.4027,40.0
1606935107.4054,40.0
1606935107.4073,43.0
1606935107.4093,45.0
1606935107.4113,48.0
1606935107.4133,45.0
1606935107.4152,40.0
1606935107.4172,43.0
1606935107.418,50.0
1606935107.4203,45.0
1606935107.4222,40.0
1606935107.4242,43.0
1606935107.4262,43.0
1606935107.4283,38.0
1606935107.4304,38.0
1606935107.4323,40.0
1606935107.4343,36.0
1606935107.4362,33.0
1606935107.4382,36.0
1606935107.4402,38.0
1606935107.4422,36.0
1606935107.4442,38.0
1606935107.4462,40.0
1606935107.4469,43.0
1606935107.4492,43.0
1606935107.4512,43.0
1606935107.4532,40.0
1606935107.4552,43.0
1606935107.4578,48.0
1606935107.4598,52.0
1606935107.4612,57.0
1606935107.4632,60.0
1606935107.4651,57.0
1606935107.4672,52.0
1606935107.4692,48.0
1606935107.4712,52.0
1606935107.4732,57.0
1606935107.4752,57.0
1606935107.4772,57.0
1606935107.4792,60.0
1606935107.4812,57.0
1606935107.4832,57.0
1606935107.4852,60.0
1606935107.4872,62.0
1606935107.4892,62.0
1606935107.4912,60.0
1606935107.4932,62.0
1606935107.4952,65.0
1606935107.4972,69.0
1606935107.4992,74.0
1606935107.5011,77.0
1606935107.5032,86.0
1606935107.5052,96.0
1606935107.5072,98.0
1606935107.5092,91.0
1606935107.5112,84.0
1606935107.5132,74.0
1606935107.5152,57.0
1606935107.5172,43.0
1606935107.5192,28.0
1606935107.5212,24.0
1606935107.5232,28.0
1606935107.5252,31.0
1606935107.5272,28.0
1606935107.5292,31.0
1606935107.5314,28.0
1606935107.5332,28.0
1606935107.5352,72.0
1606935107.5372,214.0
1606935107.5392,399.0
1606935107.5412,378.0
1606935107.9401,168.0
1606935107.941,108.0
1606935107.9435,110.0
1606935107.9461,16.0
1606935107.9481,-7.0
1606935107.95,19.0
1606935107.9521,4.0
1606935107.954,0.0
1606935107.956,7.0
1606935107.958,0.0
1606935107.9601,0.0
1606935107.962,14.0
1606935107.964,19.0
1606935107.966,19.0
1606935107.968,26.0
1606935107.9701,28.0
1606935107.972,28.0
1606935107.974,33.0
1606935107.976,40.0
1606935107.978,43.0
1606935107.98,45.0
1606935107.982,48.0
1606935107.984,50.0
1606935107.986,55.0
1606935107.988,57.0
1606935107.99,60.0
1606935107.992,62.0
1606935107.994,62.0
1606935107.996,60.0
1606935107.998,60.0
1606935108.0,60.0
1606935108.002,55.0
1606935108.004,55.0
1606935108.006,52.0
1606935108.008,48.0
1606935108.0101,45.0
1606935108.012,36.0
1606935108.014,14.0
1606935108.016,2.0
1606935108.018,12.0
1606935108.02,31.0
1606935108.022,38.0
1606935108.024,38.0
1606935108.026,40.0
1606935108.028,43.0
1606935108.0302,45.0
1606935108.0321,55.0
1606935108.034,60.0
1606935108.036,60.0
1606935108.038,65.0
1606935108.04,69.0
1606935108.042,69.0
1606935108.044,67.0
1606935108.046,67.0
1606935108.048,69.0
1606935108.05,67.0
1606935108.052,62.0
1606935108.054,65.0
1606935108.056,69.0
1606935108.058,72.0
1606935108.06,69.0
1606935108.062,65.0
1606935108.064,62.0
1606935108.066,62.0
1606935108.068,62.0
1606935108.07,62.0
1606935108.072,62.0
1606935108.074,62.0
1606935108.076,62.0
1606935108.078,62.0
1606935108.08,62.0
1606935108.082,60.0
1606935108.084,57.0
1606935108.5393,57.0
1606935108.5403,62.0
1606935108.5428,62.0
1606935108.5455,62.0
1606935108.5474,62.0
1606935108.5495,60.0
1606935108.5514,50.0
1606935108.5534,48.0
1606935108.5554,55.0
1606935108.5574,50.0
1606935108.5594,45.0
1606935108.5613,50.0
1606935108.5634,55.0
1606935108.5653,55.0
1606935108.5673,55.0
1606935108.5693,52.0
1606935108.5713,52.0
1606935108.5734,52.0
1606935108.5753,45.0
1606935108.5773,43.0
1606935108.5793,48.0
1606935108.5813,52.0
1606935108.5833,55.0
1606935108.5855,57.0
1606935108.5874,60.0
1606935108.5893,65.0
1606935108.5913,69.0
1606935108.5933,69.0
1606935108.5953,74.0
1606935108.5973,89.0
1606935108.5993,101.0
1606935108.6013,98.0
1606935108.6033,89.0
1606935108.6053,81.0
1606935108.6073,72.0
1606935108.6093,55.0
1606935108.6113,40.0
1606935108.6133,33.0
1606935108.6153,38.0
1606935108.6173,40.0
1606935108.6193,40.0
1606935108.6213,43.0
1606935108.6232,45.0
1606935108.6253,43.0
1606935108.6273,50.0
1606935108.6293,118.0
1606935108.6313,289.0
1606935108.6333,426.0
1606935108.6354,305.0
1606935108.6374,122.0
1606935108.6393,120.0
1606935108.6414,84.0
1606935108.6436,-4.0
1606935108.6454,12.0
1606935108.6474,28.0
1606935108.6494,2.0
1606935108.6513,4.0
1606935108.6533,19.0
1606935108.6553,16.0
1606935108.6573,14.0
1606935108.6593,19.0
1606935108.6613,21.0
1606935108.6633,24.0
1606935108.6652,24.0
1606935108.6672,24.0
1606935108.6693,26.0
1606935108.6713,31.0
1606935108.6732,33.0
1606935108.6753,36.0
1606935108.6773,38.0
1606935108.6793,40.0
1606935108.6813,45.0
1606935108.6833,50.0
1606935109.0796,52.0
1606935109.0808,52.0
1606935109.0831,55.0
1606935109.0856,55.0
1606935109.0876,55.0
1606935109.0897,57.0
1606935109.0917,55.0
1606935109.0937,50.0
1606935109.0956,45.0
1606935109.0976,38.0
1606935109.0997,28.0
1606935109.1016,21.0
1606935109.1036,14.0
1606935109.1057,14.0
1606935109.1076,16.0
1606935109.1096,16.0
1606935109.1116,19.0
1606935109.1136,19.0
1606935109.1156,21.0
1606935109.1176,21.0
1606935109.1196,24.0
1606935109.1215,28.0
1606935109.1235,33.0
1606935109.1255,33.0
1606935109.1275,36.0
1606935109.1296,38.0
1606935109.1322,36.0
1606935109.1336,38.0
1606935109.1355,45.0
1606935109.1375,48.0
1606935109.1395,45.0
1606935109.1416,45.0
1606935109.1437,50.0
1606935109.1455,50.0
1606935109.1475,48.0
1606935109.1496,50.0
1606935109.1515,52.0
1606935109.1535,52.0
1606935109.1555,48.0
1606935109.1575,43.0
1606935109.1596,45.0
1606935109.1615,43.0
1606935109.1635,36.0
1606935109.1655,38.0
1606935109.1675,40.0
1606935109.1696,40.0
1606935109.1715,38.0
1606935109.1735,33.0
1606935109.1756,33.0
1606935109.1775,36.0
1606935109.1795,36.0
1606935109.1815,36.0
1606935109.1837,38.0
1606935109.1856,38.0
1606935109.1875,38.0
1606935109.1896,38.0
1606935109.1915,38.0
1606935109.1936,38.0
1606935109.1955,36.0
1606935109.1975,36.0
1606935109.1995,36.0
1606935109.2015,36.0
1606935109.2036,36.0
1606935109.2056,36.0
1606935109.2076,38.0
1606935109.2095,36.0
1606935109.2115,38.0
1606935109.2135,40.0
1606935109.2155,40.0
1606935109.2175,38.0
1606935109.2195,38.0
1606935109.2215,40.0
1606935109.2236,38.0
1606935109.6498,33.0
1606935109.6511,28.0
1606935109.6535,31.0
1606935109.6562,36.0
1606935109.6581,38.0
1606935109.6602,40.0
1606935109.6622,45.0
1606935109.6641,60.0
1606935109.6662,65.0
1606935109.6681,62.0
1606935109.6702,57.0
1606935109.6721,52.0
1606935109.6742,43.0
1606935109.6761,26.0
1606935109.6781,16.0
1606935109.68,9.0
1606935109.6821,7.0
1606935109.6841,12.0
1606935109.6861,16.0
1606935109.6881,16.0
1606935109.6901,16.0
1606935109.692,16.0
1606935109.694,21.0
1606935109.696,79.0
1606935109.6981,243.0
1606935109.7,407.0
1606935109.702,298.0
1606935109.704,77.0
1606935109.706,84.0
1606935109.708,93.0
1606935109.7102,-7.0
1606935109.7121,-7.0
1606935109.714,26.0
1606935109.716,2.0
1606935109.718,-2.0
1606935109.7201,12.0
1606935109.7221,7.0
1606935109.724,7.0
1606935109.726,16.0
1606935109.728,16.0
1606935109.73,12.0
1606935109.732,14.0
1606935109.734,19.0
1606935109.736,19.0
1606935109.738,21.0
1606935109.74,28.0
1606935109.742,28.0
1606935109.744,31.0
1606935109.746,33.0
1606935109.748,36.0
1606935109.7501,40.0
1606935109.752,45.0
1606935109.754,43.0
1606935109.756,43.0
1606935109.758,48.0
1606935109.7601,45.0
1606935109.762,43.0
1606935109.764,48.0
1606935109.766,45.0
1606935109.768,38.0
1606935109.77,33.0
1606935109.772,33.0
1606935109.774,31.0
1606935109.776,28.0
1606935109.778,21.0
1606935109.78,19.0
1606935109.782,21.0
1606935109.784,21.0
1606935109.786,19.0
1606935109.788,14.0
1606935109.79,12.0
1606935109.792,14.0
1606935109.794,16.0
1606935110.2197,16.0
1606935110.2206,21.0
1606935110.2231,24.0
1606935110.2257,24.0
1606935110.2277,24.0
1606935110.2297,28.0
1606935110.2317,28.0
1606935110.2336,28.0
1606935110.2359,31.0
1606935110.2377,26.0
1606935110.2396,19.0
1606935110.2416,24.0
1606935110.2437,24.0
1606935110.2456,21.0
1606935110.2476,26.0
1606935110.2497,26.0
1606935110.2516,19.0
1606935110.2536,19.0
1606935110.2556,24.0
1606935110.2576,24.0
1606935110.2596,24.0
1606935110.2616,21.0
1606935110.2636,19.0
1606935110.2656,14.0
1606935110.2676,12.0
1606935110.2697,12.0
1606935110.2716,14.0
1606935110.2736,16.0
1606935110.2756,16.0
1606935110.2776,16.0
1606935110.2796,12.0
1606935110.2816,12.0
1606935110.2836,12.0
1606935110.2856,7.0
1606935110.2876,7.0
1606935110.2896,12.0
1606935110.2916,12.0
1606935110.2936,12.0
1606935110.2956,16.0
1606935110.2976,16.0
1606935110.2996,16.0
1606935110.3016,16.0
1606935110.3036,19.0
1606935110.3056,19.0
1606935110.3076,16.0
1606935110.3096,16.0
1606935110.3116,16.0
1606935110.3136,19.0
1606935110.3156,14.0
1606935110.3176,14.0
1606935110.3196,19.0
1606935110.3216,21.0
1606935110.3236,24.0
1606935110.3256,45.0
1606935110.3277,69.0
1606935110.3296,62.0
1606935110.3316,43.0
1606935110.3336,36.0
1606935110.3356,28.0
1606935110.3378,14.0
1606935110.3397,0.0
1606935110.3416,0.0
1606935110.3436,7.0
1606935110.3456,9.0
1606935110.3476,12.0
1606935110.3496,14.0
1606935110.3516,12.0
1606935110.3536,26.0
1606935110.3556,120.0
1606935110.3576,322.0
1606935110.3596,426.0
1606935110.3616,216.0
1606935110.3636,28.0
1606935110.7293,86.0
1606935110.7301,65.0
1606935110.7325,-24.0
1606935110.7352,2.0
1606935110.7372,21.0
1606935110.7392,-4.0
1606935110.7413,-4.0
1606935110.7431,4.0
1606935110.7451,0.0
1606935110.7471,2.0
1606935110.7492,4.0
1606935110.7511,0.0
1606935110.7531,2.0
1606935110.7551,12.0
1606935110.7571,12.0
1606935110.7592,12.0
1606935110.7611,19.0
1606935110.7632,21.0
1606935110.7651,24.0
1606935110.7671,26.0
1606935110.7691,33.0
1606935110.7711,38.0
1606935110.7731,40.0
1606935110.7752,43.0
1606935110.7771,45.0
1606935110.7792,45.0
1606935110.7811,40.0
1606935110.7831,40.0
1606935110.7851,43.0
1606935110.7871,40.0
1606935110.7892,36.0
1606935110.7911,33.0
1606935110.7931,33.0
1606935110.7951,28.0
1606935110.7971,24.0
1606935110.7991,21.0
1606935110.8011,21.0
1606935110.8033,21.0
1606935110.8052,16.0
1606935110.8071,16.0
1606935110.8092,16.0
1606935110.8111,12.0
1606935110.8132,9.0
1606935110.8151,16.0
1606935110.8171,19.0
1606935110.8191,21.0
1606935110.8211,24.0
1606935110.8231,24.0
1606935110.8251,26.0
1606935110.8271,31.0
1606935110.8291,33.0
1606935110.8311,38.0
1606935110.8331,40.0
1606935110.8351,38.0
1606935110.8371,40.0
1606935110.8391,45.0
1606935110.8411,45.0
1606935110.8431,43.0
1606935110.8451,43.0
1606935110.8471,45.0
1606935110.8492,45.0
1606935110.8511,43.0
1606935110.8531,43.0
1606935110.8551,43.0
1606935110.8571,40.0
1606935110.8591,38.0
1606935110.8611,36.0
1606935110.8632,36.0
1606935110.8651,38.0
1606935110.8671,38.0
1606935110.8692,38.0
1606935110.8711,38.0
1606935110.8731,38.0
1606935111.2988,40.0
1606935111.2994,43.0
1606935111.3018,38.0
1606935111.3044,33.0
1606935111.3064,24.0
1606935111.3084,16.0
1606935111.3105,16.0
1606935111.3125,14.0
1606935111.3144,14.0
1606935111.3164,19.0
1606935111.3184,26.0
1606935111.3204,26.0
1606935111.3225,26.0
1606935111.3245,28.0
1606935111.3264,31.0
1606935111.3286,28.0
1606935111.3305,31.0
1606935111.3324,31.0
1606935111.3344,24.0
1606935111.3365,16.0
1606935111.3384,14.0
1606935111.3404,14.0
1606935111.3424,14.0
1606935111.3444,21.0
1606935111.3464,28.0
1606935111.3485,33.0
1606935111.3504,45.0
1606935111.3524,69.0
1606935111.3544,72.0
1606935111.3564,57.0
1606935111.3584,48.0
1606935111.3604,40.0
1606935111.3624,26.0
1606935111.3644,14.0
1606935111.3664,9.0
1606935111.3684,14.0
1606935111.3704,19.0
1606935111.3724,19.0
1606935111.3744,19.0
1606935111.3764,14.0
1606935111.3784,16.0
1606935111.3805,72.0
1606935111.3824,236.0
1606935111.3845,404.0
1606935111.3865,315.0
1606935111.3886,96.0
1606935111.3904,84.0
1606935111.3924,89.0
1606935111.3944,-9.0
1606935111.3965,-12.0
1606935111.3985,24.0
1606935111.4004,0.0
1606935111.4024,-4.0
1606935111.4044,12.0
1606935111.4064,9.0
1606935111.4084,7.0
1606935111.4104,16.0
1606935111.4124,21.0
1606935111.4144,19.0
1606935111.4164,21.0
1606935111.4184,26.0
1606935111.4204,26.0
1606935111.4224,26.0
1606935111.4244,28.0
1606935111.4264,31.0
1606935111.4284,36.0
1606935111.4306,40.0
1606935111.4325,43.0
1606935111.4344,45.0
1606935111.4364,48.0
1606935111.4384,43.0
1606935111.4404,45.0
1606935111.4424,50.0
1606935111.8992,50.0
1606935111.9002,45.0
1606935111.9026,45.0
1606935111.9053,45.0
1606935111.9072,38.0
1606935111.9093,28.0
1606935111.9112,21.0
1606935111.9132,21.0
1606935111.9151,21.0
1606935111.9172,19.0
1606935111.9192,14.0
1606935111.9211,9.0
1606935111.9232,7.0
1606935111.9252,7.0
1606935111.9271,7.0
1606935111.9292,9.0
1606935111.9311,12.0
1606935111.9331,12.0
1606935111.9351,14.0
1606935111.9371,19.0
1606935111.9391,19.0
1606935111.9411,19.0
1606935111.9431,21.0
1606935111.9451,28.0
1606935111.9471,31.0
1606935111.9492,31.0
1606935111.9511,36.0
1606935111.9531,38.0
1606935111.9551,36.0
1606935111.9571,36.0
1606935111.9592,38.0
1606935111.9611,38.0
1606935111.9632,36.0
1606935111.9651,36.0
1606935111.9671,36.0
1606935111.9692,38.0
1606935111.9711,38.0
1606935111.9731,36.0
1606935111.9751,33.0
1606935111.9771,33.0
1606935111.9792,33.0
1606935111.9811,36.0
1606935111.9831,36.0
1606935111.9851,36.0
1606935111.9874,36.0
1606935111.9892,38.0
1606935111.9911,40.0
1606935111.9931,40.0
1606935111.9951,40.0
1606935111.9971,43.0
1606935111.9992,43.0
1606935112.0012,40.0
1606935112.0032,40.0
1606935112.0051,40.0
1606935112.0071,40.0
1606935112.0092,40.0
1606935112.0111,40.0
1606935112.0132,38.0
1606935112.0151,38.0
1606935112.0171,40.0
1606935112.0192,40.0
1606935112.0211,38.0
1606935112.0231,38.0
1606935112.0251,36.0
1606935112.0271,36.0
1606935112.0292,36.0
1606935112.0311,36.0
1606935112.0331,33.0
1606935112.0351,31.0
1606935112.0371,33.0
1606935112.0392,40.0
1606935112.0411,40.0
1606935112.0431,43.0
1606935112.4394,65.0
1606935112.4401,84.0
1606935112.4415,74.0
1606935112.4435,50.0
1606935112.4455,43.0
1606935112.4476,36.0
1606935112.4496,19.0
1606935112.4515,7.0
1606935112.4535,9.0
1606935112.4555,12.0
1606935112.4575,7.0
1606935112.4595,4.0
1606935112.4615,9.0
1606935112.4635,7.0
1606935112.4655,16.0
1606935112.4675,103.0
1606935112.4695,291.0
1606935112.4715,390.0
1606935112.4735,221.0
1606935112.4756,67.0
1606935112.4776,93.0
1606935112.4796,45.0
1606935112.4804,-36.0
1606935112.4826,-4.0
1606935112.4846,9.0
1606935112.4865,-14.0
1606935112.4886,-9.0
1606935112.4905,2.0
1606935112.4925,2.0
1606935112.4945,4.0
1606935112.4966,12.0
1606935112.4986,12.0
1606935112.5005,14.0
1606935112.5025,16.0
1606935112.5045,19.0
1606935112.5065,21.0
1606935112.5085,28.0
1606935112.5092,31.0
1606935112.5105,31.0
1606935112.5125,36.0
1606935112.5145,43.0
1606935112.5165,45.0
1606935112.5185,48.0
1606935112.5205,52.0
1606935112.5225,52.0
1606935112.5245,52.0
1606935112.5265,55.0
1606935112.5285,57.0
1606935112.5305,57.0
1606935112.5325,52.0
1606935112.5345,48.0
1606935112.5365,43.0
1606935112.5385,36.0
1606935112.5392,31.0
1606935112.5405,28.0
1606935112.5425,31.0
1606935112.5445,28.0
1606935112.5466,28.0
1606935112.5486,31.0
1606935112.5505,33.0
1606935112.5525,31.0
1606935112.5545,26.0
1606935112.5565,26.0
1606935112.5585,33.0
1606935112.5605,36.0
1606935112.5625,36.0
1606935112.5645,40.0
1606935112.5665,43.0
1606935112.5685,43.0
1606935112.5692,40.0
1606935112.5705,38.0
1606935112.5725,40.0
1606935112.5745,40.0
1606935113.0393,38.0
1606935113.0405,38.0
1606935113.0421,43.0
1606935113.044,43.0
1606935113.046,43.0
1606935113.048,45.0
1606935113.0499,45.0
1606935113.0519,38.0
1606935113.0539,31.0
1606935113.0559,33.0
1606935113.0579,33.0
1606935113.0587,26.0
1606935113.0608,24.0
1606935113.0629,26.0
1606935113.0648,26.0
1606935113.0669,24.0
1606935113.0689,21.0
1606935113.0708,26.0
1606935113.0729,26.0
1606935113.0748,26.0
1606935113.0769,28.0
1606935113.0789,33.0
1606935113.0808,36.0
1606935113.0828,33.0
1606935113.0848,33.0
1606935113.0869,36.0
1606935113.0889,36.0
1606935113.0895,33.0
1606935113.0909,33.0
1606935113.0928,36.0
1606935113.0949,31.0
1606935113.0968,28.0
1606935113.0989,33.0
1606935113.1009,36.0
1606935113.1028,33.0
1606935113.1048,33.0
1606935113.1068,33.0
1606935113.1089,33.0
1606935113.1108,36.0
1606935113.1129,33.0
1606935113.1148,31.0
1606935113.1169,36.0
1606935113.1189,38.0
1606935113.1196,36.0
1606935113.1218,36.0
1606935113.1239,55.0
1606935113.1258,79.0
1606935113.1278,77.0
1606935113.1299,57.0
1606935113.1318,43.0
1606935113.1338,33.0
1606935113.136,24.0
1606935113.1379,12.0
1606935113.1398,4.0
1606935113.1419,7.0
1606935113.1438,9.0
1606935113.1458,12.0
1606935113.1479,12.0
1606935113.1499,7.0
1606935113.1505,12.0
1606935113.1518,77.0
1606935113.1538,250.0
1606935113.1558,409.0
1606935113.1578,272.0
1606935113.1599,21.0
1606935113.1619,45.0
1606935113.1639,84.0
1606935113.1658,-24.0
1606935113.1678,-28.0
1606935113.1699,19.0
1606935113.1719,-7.0
1606935113.1738,-19.0
1606935113.1758,0.0
1606935113.5495,2.0
1606935113.5505,-4.0
1606935113.553,-9.0
1606935113.5556,-4.0
1606935113.5578,4.0
1606935113.5596,12.0
1606935113.5615,9.0
1606935113.5635,9.0
1606935113.5655,7.0
1606935113.5675,2.0
1606935113.5696,7.0
1606935113.5715,14.0
1606935113.5736,12.0
1606935113.5755,7.0
1606935113.5775,12.0
1606935113.5782,19.0
1606935113.5805,24.0
1606935113.5825,26.0
1606935113.5845,26.0
1606935113.5866,26.0
1606935113.5885,26.0
1606935113.5905,26.0
1606935113.5925,26.0
1606935113.5945,24.0
1606935113.5966,19.0
1606935113.5985,16.0
1606935113.6005,19.0
1606935113.6025,19.0
1606935113.6045,16.0
1606935113.6067,12.0
1606935113.6086,12.0
1606935113.6091,9.0
1606935113.6105,4.0
1606935113.6125,2.0
1606935113.6145,0.0
1606935113.6165,-2.0
1606935113.6185,-4.0
1606935113.6205,0.0
1606935113.6225,4.0
1606935113.6245,7.0
1606935113.6264,9.0
1606935113.6285,14.0
1606935113.6305,16.0
1606935113.6325,19.0
1606935113.6345,21.0
1606935113.6365,26.0
1606935113.6385,31.0
1606935113.6392,31.0
1606935113.6405,28.0
1606935113.6425,31.0
1606935113.6444,33.0
1606935113.6465,33.0
1606935113.6485,28.0
1606935113.6505,26.0
1606935113.6525,24.0
1606935113.6544,14.0
1606935113.6565,12.0
1606935113.6585,14.0
1606935113.6605,14.0
1606935113.6625,14.0
1606935113.6645,14.0
1606935113.6665,19.0
1606935113.6685,21.0
1606935113.6692,21.0
1606935113.6705,21.0
1606935113.6725,19.0
1606935113.6745,14.0
1606935113.6765,16.0
1606935113.6785,19.0
1606935113.6805,24.0
1606935113.6826,24.0
1606935113.6845,21.0
1606935113.6865,24.0
1606935114.1498,24.0
1606935114.1511,21.0
1606935114.1536,19.0
1606935114.1562,21.0
1606935114.1582,21.0
1606935114.1601,16.0
1606935114.1608,12.0
1606935114.1633,12.0
1606935114.1651,14.0
1606935114.1671,14.0
1606935114.169,14.0
1606935114.171,21.0
1606935114.173,26.0
1606935114.175,36.0
1606935114.1771,57.0
1606935114.179,74.0
1606935114.181,62.0
1606935114.1831,45.0
1606935114.185,36.0
1606935114.187,26.0
1606935114.1891,14.0
1606935114.191,0.0
1606935114.193,-2.0
1606935114.195,4.0
1606935114.197,7.0
1606935114.1991,7.0
1606935114.201,7.0
1606935114.203,9.0
1606935114.205,28.0
1606935114.207,137.0
1606935114.209,346.0
1606935114.211,407.0
1606935114.213,173.0
1606935114.215,26.0
1606935114.217,89.0
1606935114.219,38.0
1606935114.221,-38.0
1606935114.223,0.0
1606935114.225,12.0
1606935114.227,-14.0
1606935114.229,-4.0
1606935114.231,7.0
1606935114.233,2.0
1606935114.235,7.0
1606935114.237,14.0
1606935114.239,14.0
1606935114.241,14.0
1606935114.243,14.0
1606935114.245,12.0
1606935114.247,12.0
1606935114.249,16.0
1606935114.251,19.0
1606935114.253,21.0
1606935114.255,24.0
1606935114.257,28.0
1606935114.259,33.0
1606935114.261,38.0
1606935114.263,38.0
1606935114.2652,38.0
1606935114.2671,40.0
1606935114.2691,43.0
1606935114.271,40.0
1606935114.273,40.0
1606935114.275,40.0
1606935114.277,38.0
1606935114.2791,31.0
1606935114.281,28.0
1606935114.283,28.0
1606935114.285,26.0
1606935114.287,24.0
1606935114.289,21.0
1606935114.291,16.0
1606935114.293,14.0
1606935114.6594,14.0
1606935114.6602,12.0
1606935114.6616,12.0
1606935114.6636,12.0
1606935114.6656,9.0
1606935114.6675,12.0
1606935114.6696,12.0
1606935114.6716,7.0
1606935114.6736,4.0
1606935114.6755,7.0
1606935114.6775,4.0
1606935114.6796,0.0
1606935114.6815,2.0
1606935114.6835,9.0
1606935114.6855,14.0
1606935114.6875,14.0
1606935114.6896,14.0
1606935114.6915,16.0
1606935114.6935,21.0
1606935114.6955,21.0
1606935114.6975,21.0
1606935114.6996,19.0
1606935114.7016,19.0
1606935114.7035,21.0
1606935114.7055,26.0
1606935114.7075,26.0
1606935114.7095,24.0
1606935114.7115,21.0
1606935114.7135,24.0
1606935114.7155,26.0
1606935114.7175,26.0
1606935114.7196,26.0
1606935114.7215,28.0
1606935114.7235,28.0
1606935114.7255,24.0
1606935114.7275,26.0
1606935114.7298,31.0
1606935114.7316,33.0
1606935114.7335,33.0
1606935114.7355,31.0
1606935114.7375,31.0
1606935114.7396,26.0
1606935114.7415,26.0
1606935114.7435,28.0
1606935114.7455,28.0
1606935114.7475,28.0
1606935114.7495,28.0
1606935114.7515,26.0
1606935114.7535,21.0
1606935114.7555,19.0
1606935114.7575,16.0
1606935114.7595,19.0
1606935114.7615,21.0
1606935114.7635,21.0
1606935114.7655,21.0
1606935114.7675,24.0
1606935114.7696,26.0
1606935114.7715,26.0
1606935114.7735,26.0
1606935114.7755,28.0
1606935114.7775,36.0
1606935114.7796,38.0
1606935114.7815,38.0
1606935114.7836,45.0
1606935114.7855,69.0
1606935114.7875,79.0
1606935114.7896,67.0
1606935114.7915,52.0
1606935114.7935,48.0
1606935114.7955,36.0
1606935114.7975,16.0
1606935114.7996,9.0
1606935114.8015,14.0
1606935115.2596,19.0
1606935115.2607,16.0
1606935115.2621,16.0
1606935115.2639,14.0
1606935115.2659,4.0
1606935115.2679,26.0
1606935115.2699,144.0
1606935115.272,337.0
1606935115.2739,375.0
1606935115.2759,175.0
1606935115.2779,69.0
1606935115.2802,89.0
1606935115.2819,14.0
1606935115.2839,-38.0
1606935115.2862,0.0
1606935115.2879,-4.0
1606935115.2899,-26.0
1606935115.2919,-12.0
1606935115.294,-2.0
1606935115.2959,-7.0
1606935115.2979,-2.0
1606935115.2999,2.0
1606935115.3019,4.0
1606935115.3039,7.0
1606935115.3059,9.0
1606935115.3079,9.0
1606935115.3098,12.0
1606935115.3118,14.0
1606935115.3141,19.0
1606935115.3159,24.0
1606935115.3178,28.0
1606935115.3199,31.0
1606935115.3218,33.0
1606935115.3238,33.0
1606935115.3258,31.0
1606935115.3278,33.0
1606935115.3299,36.0
1606935115.3318,38.0
1606935115.3338,36.0
1606935115.3358,33.0
1606935115.3378,31.0
1606935115.3399,31.0
1606935115.3418,28.0
1606935115.3438,24.0
1606935115.3458,24.0
1606935115.3478,24.0
1606935115.3499,24.0
1606935115.3518,21.0
1606935115.3538,19.0
1606935115.3558,19.0
1606935115.3578,19.0
1606935115.3598,19.0
1606935115.3618,21.0
1606935115.3638,24.0
1606935115.3658,24.0
1606935115.3678,26.0
1606935115.3699,26.0
1606935115.3718,28.0
1606935115.3738,31.0
1606935115.3758,31.0
1606935115.3778,33.0
1606935115.3799,33.0
1606935115.3818,36.0
1606935115.3838,36.0
1606935115.3858,38.0
1606935115.388,40.0
1606935115.3898,43.0
1606935115.3918,43.0
1606935115.3938,43.0
1606935115.3958,45.0
1606935115.3978,45.0
1606935115.3998,45.0
1606935115.4018,45.0
1606935115.8595,45.0
1606935115.8605,45.0
1606935115.8629,43.0
1606935115.8655,43.0
1606935115.8675,45.0
1606935115.8696,43.0
1606935115.8716,40.0
1606935115.8736,45.0
1606935115.8755,43.0
1606935115.8775,33.0
1606935115.8796,26.0
1606935115.8815,31.0
1606935115.8835,36.0
1606935115.8855,31.0
1606935115.8875,31.0
1606935115.8897,33.0
1606935115.8915,36.0
1606935115.8935,33.0
1606935115.8955,36.0
1606935115.8975,38.0
1606935115.8981,38.0
1606935115.8994,36.0
1606935115.9014,36.0
1606935115.9034,38.0
1606935115.9054,38.0
1606935115.9075,38.0
1606935115.9095,31.0
1606935115.9114,26.0
1606935115.9135,26.0
1606935115.9154,26.0
1606935115.9174,24.0
1606935115.9194,24.0
1606935115.9214,24.0
1606935115.9234,26.0
1606935115.9254,28.0
1606935115.9274,31.0
1606935115.9281,31.0
1606935115.9295,28.0
1606935115.9315,26.0
1606935115.9334,24.0
1606935115.9354,26.0
1606935115.9374,26.0
1606935115.9394,31.0
1606935115.9416,48.0
1606935115.9435,72.0
1606935115.9455,69.0
1606935115.9474,52.0
1606935115.9494,45.0
1606935115.9514,38.0
1606935115.9534,24.0
1606935115.9554,12.0
1606935115.9574,12.0
1606935115.9581,16.0
1606935115.9595,16.0
1606935115.9614,16.0
1606935115.9634,21.0
1606935115.9654,19.0
1606935115.9674,24.0
1606935115.9694,84.0
1606935115.9714,252.0
1606935115.9734,407.0
1606935115.9754,298.0
1606935115.9774,84.0
1606935115.9794,79.0
1606935115.9814,79.0
1606935115.9834,-14.0
1606935115.9854,-12.0
1606935115.9874,19.0
1606935115.9881,-4.0
1606935115.9895,-9.0
1606935115.9914,9.0
1606935115.9934,4.0
1606935115.9955,0.0
1606935116.369,12.0
1606935116.3697,16.0
1606935116.3721,16.0
1606935116.3748,16.0
1606935116.3767,19.0
1606935116.3789,19.0
1606935116.3808,21.0
1606935116.3827,21.0
1606935116.3847,26.0
1606935116.3867,33.0
1606935116.3874,31.0
1606935116.3888,24.0
1606935116.3907,24.0
1606935116.3927,26.0
1606935116.3947,21.0
1606935116.3967,16.0
1606935116.3988,16.0
1606935116.4007,24.0
1606935116.4027,26.0
1606935116.4047,21.0
1606935116.4067,16.0
1606935116.4089,14.0
1606935116.4107,9.0
1606935116.4127,4.0
1606935116.4147,0.0
1606935116.4167,0.0
1606935116.4174,2.0
1606935116.4187,0.0
1606935116.4207,4.0
1606935116.4227,4.0
1606935116.4247,4.0
1606935116.4268,7.0
1606935116.4288,12.0
1606935116.4307,14.0
1606935116.4327,16.0
1606935116.4347,16.0
1606935116.4367,14.0
1606935116.4387,16.0
1606935116.4407,24.0
1606935116.4427,28.0
1606935116.4447,31.0
1606935116.4467,31.0
1606935116.4473,31.0
1606935116.4487,31.0
1606935116.4507,33.0
1606935116.4527,33.0
1606935116.4547,36.0
1606935116.4567,33.0
1606935116.4587,28.0
1606935116.4607,31.0
1606935116.4627,28.0
1606935116.4647,26.0
1606935116.4667,26.0
1606935116.4688,21.0
1606935116.4707,16.0
1606935116.4728,16.0
1606935116.4747,14.0
1606935116.4754,7.0
1606935116.4767,9.0
1606935116.4787,12.0
1606935116.4807,9.0
1606935116.4827,9.0
1606935116.4847,7.0
1606935116.4867,9.0
1606935116.4887,12.0
1606935116.4907,9.0
1606935116.4927,4.0
1606935116.4947,4.0
1606935116.4967,7.0
1606935116.4987,4.0
1606935116.5007,2.0
1606935116.5027,4.0
1606935116.5049,7.0
1606935116.9096,7.0
1606935116.9105,7.0
1606935116.9129,7.0
1606935116.9156,7.0
1606935116.9176,7.0
1606935116.9196,9.0
1606935116.9216,9.0
1606935116.9236,7.0
1606935116.9255,0.0
1606935116.9275,-4.0
1606935116.9296,-2.0
1606935116.9316,-7.0
1606935116.9335,-14.0
1606935116.9355,-19.0
1606935116.9362,-14.0
1606935116.9375,-9.0
1606935116.9396,-7.0
1606935116.9415,14.0
1606935116.9435,36.0
1606935116.9455,31.0
1606935116.9475,14.0
1606935116.9495,7.0
1606935116.9515,0.0
1606935116.9535,-12.0
1606935116.9555,-24.0
1606935116.9575,-24.0
1606935116.9595,-16.0
1606935116.9615,-12.0
1606935116.9635,-9.0
1606935116.9655,-9.0
1606935116.9662,-12.0
1606935116.9675,4.0
1606935116.9695,101.0
1606935116.9715,308.0
1606935116.9735,411.0
1606935116.9755,190.0
1606935116.9775,-7.0
1606935116.9795,57.0
1606935116.9815,45.0
1606935116.9835,-48.0
1606935116.9855,-19.0
1606935116.9875,7.0
1606935116.9895,-24.0
1606935116.9915,-24.0
1606935116.9935,-9.0
1606935116.9955,-14.0
1606935116.9962,-12.0
1606935116.9975,-4.0
1606935116.9995,-2.0
1606935117.0015,0.0
1606935117.0037,4.0
1606935117.0056,9.0
1606935117.0075,12.0
1606935117.0095,16.0
1606935117.0115,19.0
1606935117.0135,19.0
1606935117.0155,26.0
1606935117.0175,31.0
1606935117.0195,33.0
1606935117.0215,36.0
1606935117.0235,40.0
1606935117.0255,48.0
1606935117.0262,50.0
1606935117.0275,50.0
1606935117.0295,52.0
1606935117.0315,55.0
1606935117.0335,52.0
1606935117.0355,50.0
1606935117.0375,48.0
1606935117.0395,45.0
1606935117.0415,45.0
1606935117.0435,40.0
1606935117.0455,38.0
1606935117.479,38.0
1606935117.4799,33.0
1606935117.4823,31.0
1606935117.4835,26.0
1606935117.485,14.0
1606935117.487,0.0
1606935117.489,-4.0
1606935117.4909,0.0
1606935117.4929,2.0
1606935117.4949,2.0
1606935117.4969,4.0
1606935117.499,9.0
1606935117.5009,9.0
1606935117.5029,14.0
1606935117.5049,19.0
1606935117.507,24.0
1606935117.509,24.0
1606935117.5109,26.0
1606935117.5129,31.0
1606935117.5136,33.0
1606935117.5149,33.0
1606935117.5169,33.0
1606935117.519,38.0
1606935117.5209,38.0
1606935117.5229,36.0
1606935117.5249,33.0
1606935117.5269,36.0
1606935117.5289,36.0
1606935117.5311,31.0
1606935117.533,28.0
1606935117.5349,28.0
1606935117.5369,31.0
1606935117.539,31.0
1606935117.541,28.0
1606935117.5429,31.0
1606935117.5435,26.0
1606935117.5449,21.0
1606935117.5469,21.0
1606935117.549,24.0
1606935117.5509,26.0
1606935117.5529,24.0
1606935117.5549,24.0
1606935117.5569,28.0
1606935117.5589,31.0
1606935117.5609,28.0
1606935117.5629,31.0
1606935117.5649,31.0
1606935117.5669,31.0
1606935117.5689,31.0
1606935117.571,31.0
1606935117.5729,33.0
1606935117.5735,36.0
1606935117.5749,33.0
1606935117.5769,28.0
1606935117.579,28.0
1606935117.5809,28.0
1606935117.5829,28.0
1606935117.5849,31.0
1606935117.5869,31.0
1606935117.589,28.0
1606935117.5909,28.0
1606935117.5929,31.0
1606935117.5949,36.0
1606935117.5969,38.0
1606935117.5989,38.0
1606935117.6009,40.0
1606935117.6029,60.0
1606935117.6035,81.0
1606935117.6049,77.0
1606935117.607,60.0
1606935117.6089,48.0
1606935117.6109,38.0
1606935117.6129,24.0
1606935118.0196,12.0
1606935118.0206,12.0
1606935118.023,14.0
1606935118.0257,14.0
1606935118.0276,16.0
1606935118.0297,16.0
1606935118.0319,9.0
1606935118.0337,9.0
1606935118.0356,72.0
1606935118.0363,231.0
1606935118.0376,387.0
1606935118.0396,313.0
1606935118.0416,115.0
1606935118.0436,86.0
1606935118.0456,74.0
1606935118.0476,-14.0
1606935118.0495,-16.0
1606935118.0517,12.0
1606935118.0535,-7.0
1606935118.0555,-12.0
1606935118.0575,2.0
1606935118.0596,2.0
1606935118.0615,0.0
1606935118.0635,9.0
1606935118.0655,14.0
1606935118.0662,14.0
1606935118.0675,19.0
1606935118.0696,19.0
1606935118.0715,16.0
1606935118.0735,19.0
1606935118.0755,21.0
1606935118.0775,26.0
1606935118.0796,31.0
1606935118.0816,36.0
1606935118.0836,36.0
1606935118.0856,40.0
1606935118.0875,45.0
1606935118.0896,48.0
1606935118.0915,48.0
1606935118.0935,48.0
1606935118.0955,50.0
1606935118.0962,48.0
1606935118.0975,48.0
1606935118.0996,45.0
1606935118.1015,43.0
1606935118.1036,38.0
1606935118.1055,31.0
1606935118.1075,33.0
1606935118.1096,33.0
1606935118.1115,28.0
1606935118.1135,26.0
1606935118.1155,28.0
1606935118.1175,26.0
1606935118.1196,24.0
1606935118.1215,26.0
1606935118.1235,26.0
1606935118.1255,26.0
1606935118.1264,26.0
1606935118.1276,24.0
1606935118.1296,21.0
1606935118.1315,21.0
1606935118.1335,26.0
1606935118.1355,26.0
1606935118.1375,24.0
1606935118.1396,19.0
1606935118.1417,19.0
1606935118.1436,24.0
1606935118.1455,28.0
1606935118.1475,28.0
1606935118.1496,28.0
1606935118.1515,31.0
1606935118.1535,31.0
1606935118.1555,31.0
1606935118.6796,33.0
1606935118.6806,33.0
1606935118.683,33.0
1606935118.6857,26.0
1606935118.6877,19.0
1606935118.6897,19.0
1606935118.6918,19.0
1606935118.6937,19.0
1606935118.6957,19.0
1606935118.6977,19.0
1606935118.6997,21.0
1606935118.7017,19.0
1606935118.7036,16.0
1606935118.7043,21.0
1606935118.7056,24.0
1606935118.7076,21.0
1606935118.7097,21.0
1606935118.7116,21.0
1606935118.7136,21.0
1606935118.7156,21.0
1606935118.7176,24.0
1606935118.7196,26.0
1606935118.7216,26.0
1606935118.7236,26.0
1606935118.7256,28.0
1606935118.7276,31.0
1606935118.7297,31.0
1606935118.7316,28.0
1606935118.7336,28.0
1606935118.7342,28.0
1606935118.7356,26.0
1606935118.7376,26.0
1606935118.7396,26.0
1606935118.7416,26.0
1606935118.7436,24.0
1606935118.7458,26.0
1606935118.7476,26.0
1606935118.7496,28.0
1606935118.7516,28.0
1606935118.7536,28.0
1606935118.7556,26.0
1606935118.7576,26.0
1606935118.7596,31.0
1606935118.7616,36.0
1606935118.7636,38.0
1606935118.7642,38.0
1606935118.7656,55.0
1606935118.7677,77.0
1606935118.7696,74.0
1606935118.7716,55.0
1606935118.7736,45.0
1606935118.7756,38.0
1606935118.7776,26.0
1606935118.7796,12.0
1606935118.7816,7.0
1606935118.7836,9.0
1606935118.7856,7.0
1606935118.7876,4.0
1606935118.7896,9.0
1606935118.7916,4.0
1606935118.7936,12.0
1606935118.7942,81.0
1606935118.7956,255.0
1606935118.7976,399.0
1606935118.7996,284.0
1606935118.8016,86.0
1606935118.8036,86.0
1606935118.8056,69.0
1606935118.8076,-21.0
1606935118.8096,-12.0
1606935118.8116,14.0
1606935118.8136,-4.0
1606935118.8156,-7.0
1606935119.1897,4.0
1606935119.1907,2.0
1606935119.193,2.0
1606935119.1958,12.0
1606935119.1965,12.0
1606935119.1977,14.0
1606935119.1998,21.0
1606935119.2017,21.0
1606935119.2037,21.0
1606935119.2057,21.0
1606935119.2077,26.0
1606935119.2097,28.0
1606935119.2116,26.0
1606935119.2138,21.0
1606935119.2158,26.0
1606935119.2176,31.0
1606935119.2197,26.0
1606935119.2216,19.0
1606935119.2236,24.0
1606935119.2256,31.0
1606935119.2263,28.0
1606935119.2276,28.0
1606935119.2297,31.0
1606935119.2316,33.0
1606935119.2336,31.0
1606935119.2357,26.0
1606935119.2376,26.0
1606935119.2396,24.0
1606935119.2416,19.0
1606935119.2436,19.0
1606935119.2456,19.0
1606935119.2476,19.0
1606935119.2497,16.0
1606935119.2516,19.0
1606935119.2536,21.0
1606935119.2556,21.0
1606935119.2563,19.0
1606935119.2576,21.0
1606935119.2597,26.0
1606935119.2616,26.0
1606935119.2636,26.0
1606935119.2656,26.0
1606935119.2676,28.0
1606935119.2697,31.0
1606935119.2716,28.0
1606935119.2737,28.0
1606935119.2756,36.0
1606935119.2776,38.0
1606935119.2797,33.0
1606935119.2816,31.0
1606935119.2836,28.0
1606935119.2856,31.0
1606935119.2863,36.0
1606935119.2877,36.0
1606935119.2897,38.0
1606935119.2916,36.0
1606935119.2936,33.0
1606935119.2956,24.0
1606935119.2976,-16.0
1606935119.2996,-77.0
1606935119.3016,-86.0
1606935119.3036,-33.0
1606935119.3056,7.0
1606935119.3076,7.0
1606935119.3098,9.0
1606935119.3117,14.0
1606935119.3137,14.0
1606935119.3157,12.0
1606935119.3163,7.0
1606935119.3176,-4.0
1606935119.3197,-21.0
1606935119.3216,-12.0
1606935119.3237,14.0
1606935119.7293,16.0
1606935119.7302,12.0
1606935119.7325,21.0
1606935119.7352,26.0
1606935119.7372,24.0
1606935119.7393,26.0
1606935119.7412,28.0
1606935119.7419,26.0
1606935119.7432,28.0
1606935119.7452,24.0
1606935119.7472,14.0
1606935119.7492,12.0
1606935119.7512,14.0
1606935119.7532,12.0
1606935119.7552,12.0
1606935119.7572,16.0
1606935119.7592,16.0
1606935119.7611,16.0
1606935119.7632,21.0
1606935119.7652,24.0
1606935119.7672,33.0
1606935119.7692,55.0
1606935119.7711,72.0
1606935119.7718,62.0
1606935119.7732,48.0
1606935119.7751,40.0
1606935119.7772,28.0
1606935119.7792,16.0
1606935119.7812,9.0
1606935119.7833,12.0
1606935119.7852,14.0
1606935119.7872,14.0
1606935119.7892,12.0
1606935119.7912,0.0
1606935119.7932,-19.0
1606935119.7952,14.0
1606935119.7972,151.0
1606935119.7992,358.0
1606935119.8012,395.0
1606935119.8018,139.0
1606935119.8032,2.0
1606935119.8051,81.0
1606935119.8073,31.0
1606935119.8092,-48.0
1606935119.8111,-2.0
1606935119.8132,9.0
1606935119.8152,-19.0
1606935119.8171,-4.0
1606935119.8192,7.0
1606935119.8211,-2.0
1606935119.8231,0.0
1606935119.8252,12.0
1606935119.8272,12.0
1606935119.8292,12.0
1606935119.8312,16.0
1606935119.8318,19.0
1606935119.8331,19.0
1606935119.8351,21.0
1606935119.8373,19.0
1606935119.8392,-2.0
1606935119.8411,-31.0
1606935119.8431,-38.0
1606935119.8452,-40.0
1606935119.8472,-50.0
1606935119.8492,-24.0
1606935119.8511,26.0
1606935119.8531,36.0
1606935119.8551,31.0
1606935119.8571,43.0
1606935119.8592,48.0
1606935119.8612,40.0
1606935119.8618,45.0
1606935119.8631,45.0
1606935120.2993,38.0
1606935120.3005,38.0
1606935120.3029,40.0
1606935120.3056,38.0
1606935120.3076,33.0
1606935120.3097,33.0
1606935120.3117,26.0
1606935120.3136,16.0
1606935120.3156,9.0
1606935120.3176,9.0
1606935120.3196,7.0
1606935120.3215,4.0
1606935120.3235,7.0
1606935120.3255,12.0
1606935120.3262,14.0
1606935120.3275,14.0
1606935120.3295,19.0
1606935120.3315,24.0
1606935120.3335,24.0
1606935120.3355,26.0
1606935120.3376,28.0
1606935120.3395,33.0
1606935120.3415,33.0
1606935120.3435,36.0
1606935120.3454,33.0
1606935120.3475,33.0
1606935120.3495,33.0
1606935120.3514,33.0
1606935120.3534,33.0
1606935120.3554,31.0
1606935120.3561,28.0
1606935120.3575,28.0
1606935120.3595,31.0
1606935120.3615,26.0
1606935120.3635,19.0
1606935120.3655,16.0
1606935120.3674,16.0
1606935120.3695,19.0
1606935120.3714,14.0
1606935120.3735,12.0
1606935120.3754,14.0
1606935120.3775,16.0
1606935120.3795,12.0
1606935120.3816,12.0
1606935120.3835,16.0
1606935120.3842,19.0
1606935120.3865,16.0
1606935120.3885,16.0
1606935120.3905,19.0
1606935120.3924,19.0
1606935120.3945,19.0
1606935120.3965,19.0
1606935120.3986,21.0
1606935120.4005,21.0
1606935120.4024,16.0
1606935120.4044,12.0
1606935120.4064,9.0
1606935120.4086,9.0
1606935120.4104,7.0
1606935120.4125,4.0
1606935120.4145,7.0
1606935120.4152,7.0
1606935120.4164,4.0
1606935120.4185,4.0
1606935120.4205,4.0
1606935120.4225,4.0
1606935120.4245,7.0
1606935120.4265,12.0
1606935120.4286,14.0
1606935120.4305,16.0
1606935120.4325,38.0
1606935120.4346,57.0
1606935120.4365,50.0
1606935120.8691,31.0
1606935120.8699,26.0
1606935120.8797,21.0
1606935120.8821,4.0
1606935120.884,-9.0
1606935120.886,-7.0
1606935120.888,-2.0
1606935120.8892,-2.0
1606935120.891,-9.0
1606935120.893,-14.0
1606935120.895,-16.0
1606935120.897,-4.0
1606935120.8989,79.0
1606935120.9009,264.0
1606935120.9029,378.0
1606935120.905,224.0
1606935120.9056,50.0
1606935120.9069,65.0
1606935120.909,24.0
1606935120.9109,-57.0
1606935120.913,-33.0
1606935120.9149,-16.0
1606935120.9169,-38.0
1606935120.919,-36.0
1606935120.9209,-26.0
1606935120.9229,-31.0
1606935120.9249,-28.0
1606935120.9269,-26.0
1606935120.9289,-31.0
1606935120.9309,-26.0
1606935120.9329,-16.0
1606935120.9349,-14.0
1606935120.9355,-14.0
1606935120.9369,-12.0
1606935120.939,-9.0
1606935120.9409,-7.0
1606935120.9429,-2.0
1606935120.9449,0.0
1606935120.9469,2.0
1606935120.949,4.0
1606935120.9509,7.0
1606935120.9529,9.0
1606935120.9549,12.0
1606935120.9569,12.0
1606935120.9589,14.0
1606935120.9609,16.0
1606935120.9629,14.0
1606935120.9649,4.0
1606935120.9656,0.0
1606935120.9671,2.0
1606935120.969,0.0
1606935120.9709,-4.0
1606935120.9729,-7.0
1606935120.9749,-7.0
1606935120.9769,-9.0
1606935120.979,-9.0
1606935120.9809,-7.0
1606935120.9829,-4.0
1606935120.9849,-7.0
1606935120.9869,-7.0
1606935120.9889,-7.0
1606935120.9909,-2.0
1606935120.9929,0.0
1606935120.9949,0.0
1606935120.9956,2.0
1606935120.9969,4.0
1606935120.999,7.0
1606935121.0009,9.0
1606935121.0029,14.0
1606935121.0049,16.0
1606935121.0069,19.0
1606935121.0089,16.0
1606935121.0109,19.0
1606935121.3793,24.0
1606935121.38,26.0
1606935121.3824,26.0
1606935121.3851,26.0
1606935121.387,26.0
1606935121.3891,24.0
1606935121.3897,24.0
1606935121.391,26.0
1606935121.393,24.0
1606935121.395,14.0
1606935121.397,7.0
1606935121.3991,9.0
1606935121.401,14.0
1606935121.403,12.0
1606935121.405,9.0
1606935121.4071,9.0
1606935121.409,9.0
1606935121.411,7.0
1606935121.413,7.0
1606935121.415,7.0
1606935121.417,4.0
1606935121.419,4.0
1606935121.4197,4.0
1606935121.421,7.0
1606935121.423,7.0
1606935121.425,9.0
1606935121.427,9.0
1606935121.4292,9.0
1606935121.431,9.0
1606935121.433,9.0
1606935121.435,9.0
1606935121.437,9.0
1606935121.4391,7.0
1606935121.441,0.0
1606935121.443,-4.0
1606935121.445,0.0
1606935121.447,7.0
1606935121.449,7.0
1606935121.4497,2.0
1606935121.451,4.0
1606935121.453,7.0
1606935121.455,7.0
1606935121.457,7.0
1606935121.459,12.0
1606935121.461,19.0
1606935121.463,24.0
1606935121.465,26.0
1606935121.467,40.0
1606935121.469,57.0
1606935121.471,57.0
1606935121.473,48.0
1606935121.475,43.0
1606935121.477,33.0
1606935121.479,16.0
1606935121.4797,7.0
1606935121.481,2.0
1606935121.483,0.0
1606935121.485,0.0
1606935121.487,2.0
1606935121.489,7.0
1606935121.491,9.0
1606935121.493,7.0
1606935121.495,9.0
1606935121.497,60.0
1606935121.499,209.0
1606935121.501,383.0
1606935121.503,320.0
1606935121.505,103.0
1606935121.507,72.0
1606935121.509,77.0
1606935121.5097,-19.0
1606935121.511,-31.0
1606935121.5131,4.0
1606935121.9795,-16.0
1606935121.9808,-24.0
1606935121.9832,-9.0
1606935121.9859,-16.0
1606935121.9878,-24.0
1606935121.9901,-12.0
1606935121.9919,-7.0
1606935121.9938,-7.0
1606935121.9958,-2.0
1606935121.9978,0.0
1606935121.9998,2.0
1606935122.0005,2.0
1606935122.0018,2.0
1606935122.0039,4.0
1606935122.0058,9.0
1606935122.0078,9.0
1606935122.0098,14.0
1606935122.0118,19.0
1606935122.0138,21.0
1606935122.0158,24.0
1606935122.0178,28.0
1606935122.0199,28.0
1606935122.0218,28.0
1606935122.0238,31.0
1606935122.0258,33.0
1606935122.0278,33.0
1606935122.0298,26.0
1606935122.0304,21.0
1606935122.0318,21.0
1606935122.0338,16.0
1606935122.0358,12.0
1606935122.0378,14.0
1606935122.0398,14.0
1606935122.0418,12.0
1606935122.0438,12.0
1606935122.0458,14.0
1606935122.0478,14.0
1606935122.0498,12.0
1606935122.0518,14.0
1606935122.0538,19.0
1606935122.0558,19.0
1606935122.0578,19.0
1606935122.0598,24.0
1606935122.0603,28.0
1606935122.0617,31.0
1606935122.0638,26.0
1606935122.0657,26.0
1606935122.0677,31.0
1606935122.0698,36.0
1606935122.0717,36.0
1606935122.0738,36.0
1606935122.0757,36.0
1606935122.0778,38.0
1606935122.0798,38.0
1606935122.0817,40.0
1606935122.0837,40.0
1606935122.0859,38.0
1606935122.0878,36.0
1606935122.0897,33.0
1606935122.0903,36.0
1606935122.0917,33.0
1606935122.0937,28.0
1606935122.0957,28.0
1606935122.0977,28.0
1606935122.0997,28.0
1606935122.1017,26.0
1606935122.1037,26.0
1606935122.1057,28.0
1606935122.1077,26.0
1606935122.1098,21.0
1606935122.1117,24.0
1606935122.1137,26.0
1606935122.1157,26.0
1606935122.549,26.0
1606935122.5498,21.0
1606935122.5522,21.0
1606935122.555,24.0
1606935122.5568,19.0
1606935122.5589,16.0
1606935122.5609,21.0
1606935122.5628,19.0
1606935122.5648,12.0
1606935122.5668,14.0
1606935122.5689,19.0
1606935122.5708,9.0
1606935122.5728,7.0
1606935122.5748,9.0
1606935122.5768,7.0
1606935122.5774,7.0
1606935122.5788,9.0
1606935122.5808,12.0
1606935122.5828,16.0
1606935122.5848,19.0
1606935122.5868,16.0
1606935122.5888,33.0
1606935122.5908,60.0
1606935122.5928,60.0
1606935122.5948,40.0
1606935122.5968,33.0
1606935122.5988,26.0
1606935122.6007,12.0
1606935122.6028,2.0
1606935122.6048,0.0
1606935122.6067,4.0
1606935122.6073,7.0
1606935122.6088,7.0
1606935122.6107,9.0
1606935122.613,7.0
1606935122.6148,14.0
1606935122.6167,79.0
1606935122.6188,260.0
1606935122.6207,433.0
1606935122.6227,291.0
1606935122.6247,19.0
1606935122.6268,40.0
1606935122.6288,96.0
1606935122.6308,-12.0
1606935122.6328,-24.0
1606935122.6347,21.0
1606935122.6367,0.0
1606935122.6373,-14.0
1606935122.6388,7.0
1606935122.6407,12.0
1606935122.6427,7.0
1606935122.6447,12.0
1606935122.6467,14.0
1606935122.6488,12.0
1606935122.6507,14.0
1606935122.6527,19.0
1606935122.6547,21.0
1606935122.6567,26.0
1606935122.6587,28.0
1606935122.6607,28.0
1606935122.6627,33.0
1606935122.6647,36.0
1606935122.6667,38.0
1606935122.6673,40.0
1606935122.6688,45.0
1606935122.6707,50.0
1606935122.6728,55.0
1606935122.6747,52.0
1606935122.6768,50.0
1606935122.6789,50.0
1606935122.6808,43.0
1606935122.6829,36.0
1606935122.6847,40.0
1606935123.089,38.0
1606935123.09,31.0
1606935123.0924,31.0
1606935123.0942,33.0
1606935123.0961,31.0
1606935123.0981,26.0
1606935123.0987,24.0
1606935123.1,24.0
1606935123.102,19.0
1606935123.104,7.0
1606935123.106,0.0
1606935123.1081,0.0
1606935123.1102,2.0
1606935123.1121,0.0
1606935123.1141,4.0
1606935123.116,14.0
1606935123.118,16.0
1606935123.12,16.0
1606935123.122,21.0
1606935123.124,24.0
1606935123.126,26.0
1606935123.128,31.0
1606935123.1286,33.0
1606935123.13,36.0
1606935123.132,36.0
1606935123.134,36.0
1606935123.136,38.0
1606935123.1381,40.0
1606935123.14,40.0
1606935123.142,40.0
1606935123.144,40.0
1606935123.146,33.0
1606935123.148,33.0
1606935123.15,36.0
1606935123.152,36.0
1606935123.154,33.0
1606935123.156,33.0
1606935123.158,36.0
1606935123.1587,38.0
1606935123.16,38.0
1606935123.162,36.0
1606935123.164,36.0
1606935123.166,31.0
1606935123.168,24.0
1606935123.17,24.0
1606935123.172,28.0
1606935123.174,28.0
1606935123.176,31.0
1606935123.178,28.0
1606935123.18,26.0
1606935123.182,31.0
1606935123.184,33.0
1606935123.186,33.0
1606935123.188,31.0
1606935123.1886,33.0
1606935123.19,33.0
1606935123.192,36.0
1606935123.194,38.0
1606935123.196,36.0
1606935123.198,33.0
1606935123.2,33.0
1606935123.202,31.0
1606935123.204,26.0
1606935123.2061,26.0
1606935123.208,31.0
1606935123.21,36.0
1606935123.212,43.0
1606935123.214,57.0
1606935123.216,74.0
1606935123.218,65.0
1606935123.2186,50.0
1606935123.22,45.0
1606935123.222,36.0
1606935123.6594,21.0
1606935123.6603,7.0
1606935123.6626,4.0
1606935123.6654,9.0
1606935123.6674,14.0
1606935123.6694,14.0
1606935123.6715,9.0
1606935123.6721,0.0
1606935123.6733,9.0
1606935123.6753,84.0
1606935123.6773,252.0
1606935123.6794,395.0
1606935123.6813,281.0
1606935123.6833,89.0
1606935123.6853,84.0
1606935123.6873,65.0
1606935123.6893,-21.0
1606935123.6913,-9.0
1606935123.6933,12.0
1606935123.6953,-9.0
1606935123.6973,-7.0
1606935123.6993,9.0
1606935123.7012,7.0
1606935123.7019,7.0
1606935123.7032,14.0
1606935123.7052,14.0
1606935123.7073,16.0
1606935123.7093,21.0
1606935123.7112,26.0
1606935123.7132,24.0
1606935123.7152,26.0
1606935123.7172,31.0
1606935123.7192,36.0
1606935123.7212,38.0
1606935123.7232,38.0
1606935123.7253,38.0
1606935123.7272,43.0
1606935123.7293,43.0
1606935123.7312,43.0
1606935123.7318,45.0
1606935123.7332,50.0
1606935123.7354,50.0
1606935123.7373,45.0
1606935123.7393,45.0
1606935123.7412,45.0
1606935123.7432,40.0
1606935123.7453,36.0
1606935123.7472,33.0
1606935123.7493,31.0
1606935123.7512,28.0
1606935123.7532,28.0
1606935123.7552,28.0
1606935123.7573,31.0
1606935123.7593,28.0
1606935123.7612,26.0
1606935123.7618,21.0
1606935123.7632,16.0
1606935123.7652,16.0
1606935123.7672,19.0
1606935123.7693,24.0
1606935123.7712,26.0
1606935123.7732,26.0
1606935123.7752,28.0
1606935123.7772,36.0
1606935123.7792,38.0
1606935123.7812,36.0
1606935123.7832,33.0
1606935123.7852,36.0
1606935123.7872,38.0
1606935123.7893,38.0
1606935123.7912,38.0
1606935123.7918,43.0
1606935123.7932,43.0
1606935124.1988,40.0
1606935124.1995,43.0
1606935124.2018,43.0
1606935124.2045,38.0
1606935124.2065,38.0
1606935124.2085,40.0
1606935124.2107,38.0
1606935124.2125,31.0
1606935124.2145,24.0
1606935124.2165,24.0
1606935124.2186,28.0
1606935124.2205,26.0
1606935124.2225,24.0
1606935124.2231,28.0
1606935124.2245,28.0
1606935124.2265,26.0
1606935124.2285,26.0
1606935124.2305,28.0
1606935124.2325,26.0
1606935124.2347,26.0
1606935124.2365,26.0
1606935124.2385,28.0
1606935124.2405,28.0
1606935124.2425,26.0
1606935124.2445,26.0
1606935124.2465,26.0
1606935124.2485,26.0
1606935124.2504,26.0
1606935124.2524,28.0
1606935124.2531,28.0
1606935124.2544,28.0
1606935124.2564,26.0
1606935124.2585,26.0
1606935124.2605,28.0
1606935124.2624,28.0
1606935124.2644,31.0
1606935124.2664,38.0
1606935124.2685,45.0
1606935124.2705,45.0
1606935124.2724,57.0
1606935124.2744,69.0
1606935124.2764,60.0
1606935124.2785,50.0
1606935124.2805,50.0
1606935124.2825,38.0
1606935124.2831,21.0
1606935124.2844,7.0
1606935124.2864,-2.0
1606935124.2885,-4.0
1606935124.2904,0.0
1606935124.2926,2.0
1606935124.2944,4.0
1606935124.2964,7.0
1606935124.2986,4.0
1606935124.3004,14.0
1606935124.3024,98.0
1606935124.3044,281.0
1606935124.3065,387.0
1606935124.3085,221.0
1606935124.3105,60.0
1606935124.311,86.0
1606935124.3124,43.0
1606935124.3144,-40.0
1606935124.3164,-9.0
1606935124.3185,7.0
1606935124.3204,-21.0
1606935124.3224,-19.0
1606935124.3244,-4.0
1606935124.3264,-4.0
1606935124.3285,-4.0
1606935124.3306,2.0
1606935124.3325,7.0
1606935124.3345,7.0
1606935124.7991,9.0
1606935124.8001,14.0
1606935124.8025,16.0
1606935124.8052,14.0
1606935124.8072,14.0
1606935124.8092,12.0
1606935124.8112,14.0
1606935124.8132,21.0
1606935124.8152,24.0
1606935124.8172,19.0
1606935124.8192,21.0
1606935124.8212,28.0
1606935124.8232,31.0
1606935124.8252,31.0
1606935124.8272,33.0
1606935124.8292,36.0
1606935124.8311,31.0
1606935124.8318,24.0
1606935124.8331,21.0
1606935124.8351,24.0
1606935124.8371,19.0
1606935124.8392,14.0
1606935124.8411,14.0
1606935124.8431,19.0
1606935124.8451,16.0
1606935124.8471,14.0
1606935124.8492,14.0
1606935124.8511,14.0
1606935124.8531,14.0
1606935124.8551,14.0
1606935124.8571,16.0
1606935124.8591,19.0
1606935124.8611,19.0
1606935124.8617,19.0
1606935124.8631,21.0
1606935124.8651,24.0
1606935124.8671,26.0
1606935124.8691,28.0
1606935124.8711,31.0
1606935124.8732,28.0
1606935124.8751,26.0
1606935124.8771,26.0
1606935124.8791,26.0
1606935124.8811,28.0
1606935124.883,28.0
1606935124.8851,28.0
1606935124.8871,26.0
1606935124.8891,26.0
1606935124.8912,26.0
1606935124.8918,26.0
1606935124.8931,24.0
1606935124.8951,21.0
1606935124.8971,16.0
1606935124.8991,19.0
1606935124.901,21.0
1606935124.9031,21.0
1606935124.9051,21.0
1606935124.9071,19.0
1606935124.9091,16.0
1606935124.911,19.0
1606935124.9131,19.0
1606935124.9151,21.0
1606935124.9171,24.0
1606935124.9191,24.0
1606935124.9211,21.0
1606935124.9217,21.0
1606935124.9231,24.0
1606935124.9251,24.0
1606935124.927,21.0
1606935124.9291,24.0
1606935124.9311,21.0
1606935124.9332,19.0
1606935124.9351,21.0
1606935125.3691,24.0
1606935125.37,24.0
1606935125.3725,21.0
1606935125.3752,21.0
1606935125.3771,28.0
1606935125.3791,28.0
1606935125.3812,26.0
1606935125.3831,33.0
1606935125.3838,50.0
1606935125.3851,50.0
1606935125.3871,33.0
1606935125.3892,28.0
1606935125.3911,26.0
1606935125.3931,9.0
1606935125.3951,-12.0
1606935125.3973,-19.0
1606935125.3991,-19.0
1606935125.4012,-19.0
1606935125.4031,-16.0
1606935125.4051,-16.0
1606935125.4071,-14.0
1606935125.4092,-12.0
1606935125.4111,-12.0
1606935125.4131,14.0
1606935125.4137,134.0
1606935125.4151,346.0
1606935125.4174,380.0
1606935125.4191,113.0
1606935125.4205,-19.0
1606935125.4218,74.0
1606935125.4228,26.0
1606935125.4251,-57.0
1606935125.4271,-14.0
1606935125.4292,-2.0
1606935125.4312,-36.0
1606935125.4331,-26.0
1606935125.4352,-9.0
1606935125.437,-12.0
1606935125.4377,-12.0
1606935125.439,-7.0
1606935125.4411,-7.0
1606935125.4431,-4.0
1606935125.445,2.0
1606935125.4471,9.0
1606935125.4491,12.0
1606935125.451,14.0
1606935125.453,16.0
1606935125.455,21.0
1606935125.457,26.0
1606935125.4591,28.0
1606935125.461,31.0
1606935125.463,36.0
1606935125.4651,38.0
1606935125.467,40.0
1606935125.4676,45.0
1606935125.4691,48.0
1606935125.471,48.0
1606935125.473,48.0
1606935125.4751,43.0
1606935125.477,40.0
1606935125.4791,40.0
1606935125.4811,38.0
1606935125.483,31.0
1606935125.485,28.0
1606935125.487,28.0
1606935125.4891,26.0
1606935125.491,24.0
1606935125.493,24.0
1606935125.495,21.0
1606935125.4971,16.0
1606935125.4976,12.0
1606935125.4991,12.0
1606935125.501,7.0
1606935125.9094,7.0
1606935125.9103,9.0
1606935125.9117,12.0
1606935125.9135,14.0
1606935125.9158,16.0
1606935125.9175,21.0
1606935125.9195,24.0
1606935125.9215,24.0
1606935125.9234,26.0
1606935125.9255,31.0
1606935125.926,31.0
1606935125.9274,24.0
1606935125.9294,21.0
1606935125.9314,26.0
1606935125.9334,24.0
1606935125.9354,16.0
1606935125.9374,19.0
1606935125.9394,19.0
1606935125.9414,16.0
1606935125.9434,16.0
1606935125.9454,16.0
1606935125.9474,16.0
1606935125.9494,16.0
1606935125.9514,16.0
1606935125.9534,19.0
1606935125.9554,19.0
1606935125.956,14.0
1606935125.9574,9.0
1606935125.9594,12.0
1606935125.9613,14.0
1606935125.9634,14.0
1606935125.9653,12.0
1606935125.9673,14.0
1606935125.9694,16.0
1606935125.9713,16.0
1606935125.9733,19.0
1606935125.9753,21.0
1606935125.9773,21.0
1606935125.9794,21.0
1606935125.9814,21.0
1606935125.9833,24.0
1606935125.9853,24.0
1606935125.986,21.0
1606935125.9873,19.0
1606935125.9894,21.0
1606935125.9913,31.0
1606935125.9933,33.0
1606935125.9953,38.0
1606935125.9973,55.0
1606935125.9994,67.0
1606935126.0015,62.0
1606935126.0034,55.0
1606935126.0054,52.0
1606935126.0074,45.0
1606935126.0094,28.0
1606935126.0115,14.0
1606935126.0134,7.0
1606935126.0154,7.0
1606935126.016,9.0
1606935126.0173,12.0
1606935126.0194,12.0
1606935126.0213,12.0
1606935126.0234,4.0
1606935126.0253,0.0
1606935126.0273,43.0
1606935126.0294,192.0
1606935126.0313,380.0
1606935126.0334,334.0
1606935126.0353,93.0
1606935126.0373,45.0
1606935126.0394,84.0
1606935126.0414,-7.0
1606935126.0433,-38.0
1606935126.4793,2.0
1606935126.4804,-12.0
1606935126.4828,-26.0
1606935126.4855,-9.0
1606935126.4875,-7.0
1606935126.4894,-12.0
1606935126.4914,-4.0
1606935126.4934,0.0
1606935126.4954,-7.0
1606935126.4974,-9.0
1606935126.4994,-2.0
1606935126.5014,2.0
1606935126.5034,0.0
1606935126.5054,4.0
1606935126.5075,7.0
1606935126.508,12.0
1606935126.5094,16.0
1606935126.5114,21.0
1606935126.5134,21.0
1606935126.5154,19.0
1606935126.5174,16.0
1606935126.5194,21.0
1606935126.5214,24.0
1606935126.5234,24.0
1606935126.5254,24.0
1606935126.5274,21.0
1606935126.5294,21.0
1606935126.5314,21.0
1606935126.5334,16.0
1606935126.5354,14.0
1606935126.5374,12.0
1606935126.538,9.0
1606935126.5394,9.0
1606935126.5416,9.0
1606935126.5434,12.0
1606935126.5454,9.0
1606935126.5474,7.0
1606935126.5495,9.0
1606935126.5514,9.0
1606935126.5534,9.0
1606935126.5554,7.0
1606935126.5574,12.0
1606935126.5594,14.0
1606935126.5614,16.0
1606935126.5634,19.0
1606935126.5654,21.0
1606935126.5674,24.0
1606935126.568,26.0
1606935126.5694,28.0
1606935126.5714,28.0
1606935126.5734,31.0
1606935126.5755,33.0
1606935126.5774,33.0
1606935126.5794,33.0
1606935126.5814,31.0
1606935126.5834,28.0
1606935126.5855,28.0
1606935126.5874,28.0
1606935126.5895,28.0
1606935126.5914,26.0
1606935126.5934,26.0
1606935126.5954,24.0
1606935126.5974,26.0
1606935126.598,26.0
1606935126.5994,26.0
1606935126.6014,24.0
1606935126.6034,24.0
1606935126.6054,24.0
1606935126.6074,24.0
1606935126.6094,26.0
1606935126.6114,26.0
1606935126.6134,26.0
1606935126.6154,26.0
1606935127.0194,26.0
1606935127.0202,26.0
1606935127.0226,28.0
1606935127.0243,28.0
1606935127.0263,31.0
1606935127.0282,28.0
1606935127.0289,26.0
1606935127.0303,31.0
1606935127.0323,33.0
1606935127.0342,26.0
1606935127.0363,16.0
1606935127.0386,12.0
1606935127.0403,7.0
1606935127.0422,4.0
1606935127.0443,7.0
1606935127.0463,14.0
1606935127.0483,19.0
1606935127.0503,21.0
1606935127.0522,28.0
1606935127.0542,45.0
1606935127.0562,55.0
1606935127.0582,50.0
1606935127.0588,45.0
1606935127.0602,40.0
1606935127.0622,31.0
1606935127.0642,12.0
1606935127.0662,4.0
1606935127.0683,4.0
1606935127.0702,4.0
1606935127.0722,4.0
1606935127.0742,4.0
1606935127.0762,12.0
1606935127.0783,16.0
1606935127.0802,9.0
1606935127.0822,12.0
1606935127.0842,81.0
1606935127.0862,252.0
1606935127.0882,385.0
1606935127.0888,255.0
1606935127.0902,67.0
1606935127.0922,84.0
1606935127.0942,60.0
1606935127.0963,-33.0
1606935127.0982,-19.0
1606935127.1002,7.0
1606935127.1022,-19.0
1606935127.1042,-19.0
1606935127.1062,-2.0
1606935127.1082,-7.0
1606935127.1102,-4.0
1606935127.1122,4.0
1606935127.1142,7.0
1606935127.1162,7.0
1606935127.1183,9.0
1606935127.1188,12.0
1606935127.1202,12.0
1606935127.1222,16.0
1606935127.1242,19.0
1606935127.1262,24.0
1606935127.1282,26.0
1606935127.1302,26.0
1606935127.1322,28.0
1606935127.1344,33.0
1606935127.1363,38.0
1606935127.1383,38.0
1606935127.1402,38.0
1606935127.1422,40.0
1606935127.1442,43.0
1606935127.1463,43.0
1606935127.1482,45.0
1606935127.1494,43.0
1606935127.1512,38.0
1606935127.1532,31.0
1606935127.5595,31.0
1606935127.5603,31.0
1606935127.5626,31.0
1606935127.5653,26.0
1606935127.5673,19.0
1606935127.5694,14.0
1606935127.5714,12.0
1606935127.5734,4.0
1606935127.5753,2.0
1606935127.5759,7.0
1606935127.5773,7.0
1606935127.5794,4.0
1606935127.5813,9.0
1606935127.5833,14.0
1606935127.5853,16.0
1606935127.5873,19.0
1606935127.5893,21.0
1606935127.5913,21.0
1606935127.5933,24.0
1606935127.5953,24.0
1606935127.5973,21.0
1606935127.5993,24.0
1606935127.6013,26.0
1606935127.6033,26.0
1606935127.6053,28.0
1606935127.6059,31.0
1606935127.6073,31.0
1606935127.6093,28.0
1606935127.6113,28.0
1606935127.6133,26.0
1606935127.6153,24.0
1606935127.6173,26.0
1606935127.6193,26.0
1606935127.6213,24.0
1606935127.6233,24.0
1606935127.6253,21.0
1606935127.6273,16.0
1606935127.6293,19.0
1606935127.6313,21.0
1606935127.6332,19.0
1606935127.6354,19.0
1606935127.6359,21.0
1606935127.6374,21.0
1606935127.6393,21.0
1606935127.6413,24.0
1606935127.6433,24.0
1606935127.6453,24.0
1606935127.6473,24.0
1606935127.6493,24.0
1606935127.6513,21.0
1606935127.6533,19.0
1606935127.6553,21.0
1606935127.6573,21.0
1606935127.6593,19.0
1606935127.6612,19.0
1606935127.6633,21.0
1606935127.6653,26.0
1606935127.6659,26.0
1606935127.6673,24.0
1606935127.6693,26.0
1606935127.6713,33.0
1606935127.6733,38.0
1606935127.6753,38.0
1606935127.6773,38.0
1606935127.6793,52.0
1606935127.6813,65.0
1606935127.6835,65.0
1606935127.6853,57.0
1606935127.6873,48.0
1606935127.6893,40.0
1606935127.6913,24.0
1606935127.6933,4.0
1606935127.6953,-4.0
1606935128.1296,-7.0
1606935128.1306,-2.0
1606935128.133,0.0
1606935128.1347,2.0
1606935128.1367,-4.0
1606935128.1387,-12.0
1606935128.1407,-9.0
1606935128.1427,26.0
1606935128.1447,154.0
1606935128.1466,342.0
1606935128.1487,317.0
1606935128.1506,77.0
1606935128.1526,24.0
1606935128.1546,74.0
1606935128.1566,-14.0
1606935128.1587,-50.0
1606935128.1592,-4.0
1606935128.1606,-16.0
1606935128.1629,-36.0
1606935128.1647,-16.0
1606935128.1666,-9.0
1606935128.1686,-14.0
1606935128.1706,-7.0
1606935128.1726,-2.0
1606935128.1746,-7.0
1606935128.1766,-2.0
1606935128.1787,2.0
1606935128.1807,0.0
1606935128.1826,0.0
1606935128.1846,7.0
1606935128.1866,9.0
1606935128.1872,12.0
1606935128.1886,16.0
1606935128.1906,19.0
1606935128.1926,19.0
1606935128.1945,24.0
1606935128.1966,28.0
1606935128.1986,28.0
1606935128.2006,28.0
1606935128.2026,28.0
1606935128.2046,26.0
1606935128.2066,24.0
1606935128.2086,24.0
1606935128.2105,24.0
1606935128.2125,19.0
1606935128.2146,16.0
1606935128.2166,16.0
1606935128.2172,19.0
1606935128.2186,16.0
1606935128.2206,16.0
1606935128.2226,19.0
1606935128.2245,16.0
1606935128.2267,9.0
1606935128.2286,9.0
1606935128.2306,9.0
1606935128.2326,9.0
1606935128.2346,12.0
1606935128.2366,12.0
1606935128.2386,12.0
1606935128.2405,12.0
1606935128.2425,12.0
1606935128.2445,14.0
1606935128.2466,21.0
1606935128.2472,16.0
1606935128.2486,12.0
1606935128.2506,21.0
1606935128.2526,24.0
1606935128.2545,21.0
1606935128.2565,24.0
1606935128.2588,28.0
1606935128.2606,26.0
1606935128.2626,24.0
1606935128.2646,21.0
1606935128.7296,21.0
1606935128.7306,19.0
1606935128.733,16.0
1606935128.7347,12.0
1606935128.7353,12.0
1606935128.7366,9.0
1606935128.7386,2.0
1606935128.7406,4.0
1606935128.7426,7.0
1606935128.7446,7.0
1606935128.7466,4.0
1606935128.7486,2.0
1606935128.7506,4.0
1606935128.7526,7.0
1606935128.7546,9.0
1606935128.7566,12.0
1606935128.7586,12.0
1606935128.7606,9.0
1606935128.7626,9.0
1606935128.7646,12.0
1606935128.7652,12.0
1606935128.7666,7.0
1606935128.7686,4.0
1606935128.7706,12.0
1606935128.7726,12.0
1606935128.7746,9.0
1606935128.7766,12.0
1606935128.7786,12.0
1606935128.7806,12.0
1606935128.7826,12.0
1606935128.7846,12.0
1606935128.7866,14.0
1606935128.7886,16.0
1606935128.7905,21.0
1606935128.7925,31.0
1606935128.7946,45.0
1606935128.7951,52.0
1606935128.7965,50.0
1606935128.7986,45.0
1606935128.8005,38.0
1606935128.8026,26.0
1606935128.8046,12.0
1606935128.8065,-4.0
1606935128.8086,-9.0
1606935128.8105,-9.0
1606935128.8125,-7.0
1606935128.8146,-4.0
1606935128.8167,-4.0
1606935128.8187,-7.0
1606935128.8206,-9.0
1606935128.8225,-4.0
1606935128.8245,67.0
1606935128.8251,267.0
1606935128.8265,409.0
1606935128.8286,221.0
1606935128.8305,-21.0
1606935128.8325,24.0
1606935128.8346,43.0
1606935128.8365,-57.0
1606935128.8386,-50.0
1606935128.8405,-14.0
1606935128.8425,-38.0
1606935128.8446,-43.0
1606935128.8465,-26.0
1606935128.8486,-28.0
1606935128.8505,-26.0
1606935128.8525,-16.0
1606935128.8545,-14.0
1606935128.8552,-14.0
1606935128.8565,-9.0
1606935128.8585,-4.0
1606935128.8606,-2.0
1606935128.8625,0.0
1606935129.2689,2.0
1606935129.2695,7.0
1606935129.272,9.0
1606935129.2729,12.0
1606935129.2745,19.0
1606935129.2765,26.0
1606935129.2785,28.0
1606935129.2805,31.0
1606935129.2825,31.0
1606935129.2845,31.0
1606935129.2865,24.0
1606935129.2885,21.0
1606935129.2905,21.0
1606935129.2925,24.0
1606935129.2945,19.0
1606935129.2964,16.0
1606935129.2985,14.0
1606935129.3005,14.0
1606935129.3025,12.0
1606935129.3031,9.0
1606935129.3045,7.0
1606935129.3065,4.0
1606935129.3085,4.0
1606935129.3105,0.0
1606935129.3125,-2.0
1606935129.3147,-4.0
1606935129.3165,-7.0
1606935129.3186,-4.0
1606935129.3204,0.0
1606935129.3225,2.0
1606935129.3245,2.0
1606935129.3265,4.0
1606935129.3285,9.0
1606935129.3305,12.0
1606935129.3325,14.0
1606935129.3331,19.0
1606935129.3345,21.0
1606935129.3365,21.0
1606935129.3385,21.0
1606935129.3405,24.0
1606935129.3425,28.0
1606935129.3445,28.0
1606935129.3465,28.0
1606935129.3485,26.0
1606935129.3505,26.0
1606935129.3525,24.0
1606935129.3544,24.0
1606935129.3565,21.0
1606935129.3585,14.0
1606935129.3605,9.0
1606935129.3625,7.0
1606935129.3631,12.0
1606935129.3646,12.0
1606935129.3665,9.0
1606935129.3685,12.0
1606935129.3707,14.0
1606935129.3726,14.0
1606935129.3745,14.0
1606935129.3766,14.0
1606935129.3786,16.0
1606935129.3805,14.0
1606935129.3826,14.0
1606935129.3846,16.0
1606935129.3866,19.0
1606935129.3885,16.0
1606935129.3905,19.0
1606935129.3924,21.0
1606935129.3931,24.0
1606935129.3945,21.0
1606935129.3965,21.0
1606935129.3985,21.0
1606935129.4005,19.0
1606935129.4025,19.0
1606935129.8398,19.0
1606935129.8411,14.0
1606935129.8435,14.0
1606935129.8465,21.0
1606935129.8481,26.0
1606935129.8501,28.0
1606935129.8522,38.0
1606935129.8542,50.0
1606935129.855,50.0
1606935129.8561,43.0
1606935129.8581,38.0
1606935129.8601,33.0
1606935129.8622,19.0
1606935129.8647,4.0
1606935129.8661,-7.0
1606935129.8681,-12.0
1606935129.8702,-9.0
1606935129.8721,-7.0
1606935129.8741,-9.0
1606935129.8761,-7.0
1606935129.8781,-7.0
1606935129.8802,-12.0
1606935129.8821,2.0
1606935129.8841,91.0
1606935129.8846,279.0
1606935129.8861,385.0
1606935129.8881,214.0
1606935129.89,48.0
1606935129.8921,72.0
1606935129.8941,31.0
1606935129.8961,-50.0
1606935129.8981,-26.0
1606935129.9,-14.0
1606935129.902,-38.0
1606935129.904,-33.0
1606935129.906,-21.0
1606935129.908,-26.0
1606935129.91,-26.0
1606935129.9121,-19.0
1606935129.914,-16.0
1606935129.9146,-16.0
1606935129.916,-16.0
1606935129.918,-14.0
1606935129.92,-12.0
1606935129.922,-7.0
1606935129.924,-2.0
1606935129.926,2.0
1606935129.928,4.0
1606935129.93,7.0
1606935129.932,12.0
1606935129.934,16.0
1606935129.936,19.0
1606935129.938,24.0
1606935129.94,28.0
1606935129.9422,26.0
1606935129.9441,26.0
1606935129.9446,28.0
1606935129.946,28.0
1606935129.948,24.0
1606935129.95,19.0
1606935129.952,14.0
1606935129.954,9.0
1606935129.956,9.0
1606935129.958,7.0
1606935129.96,4.0
1606935129.962,0.0
1606935129.964,2.0
1606935129.966,2.0
1606935129.968,0.0
1606935129.97,0.0
1606935129.972,0.0
1606935129.974,0.0
1606935129.9746,2.0
1606935130.3795,2.0
1606935130.3805,7.0
1606935130.3819,9.0
1606935130.3842,9.0
1606935130.386,12.0
1606935130.3879,12.0
1606935130.3899,12.0
1606935130.3919,16.0
1606935130.3939,14.0
1606935130.3959,7.0
1606935130.3979,4.0
1606935130.3998,9.0
1606935130.4018,9.0
1606935130.4038,7.0
1606935130.4045,12.0
1606935130.4058,12.0
1606935130.4078,9.0
1606935130.4098,7.0
1606935130.4119,9.0
1606935130.4138,9.0
1606935130.4159,7.0
1606935130.4178,7.0
1606935130.4198,7.0
1606935130.4218,2.0
1606935130.4238,0.0
1606935130.4258,4.0
1606935130.4278,7.0
1606935130.4298,4.0
1606935130.4318,4.0
1606935130.4338,7.0
1606935130.4344,9.0
1606935130.4358,9.0
1606935130.438,7.0
1606935130.4398,4.0
1606935130.4418,7.0
1606935130.4438,7.0
1606935130.4458,4.0
1606935130.4478,7.0
1606935130.4498,9.0
1606935130.4518,9.0
1606935130.4538,9.0
1606935130.4558,7.0
1606935130.4578,4.0
1606935130.4598,4.0
1606935130.4618,7.0
1606935130.4638,9.0
1606935130.4644,9.0
1606935130.4658,7.0
1606935130.4678,7.0
1606935130.4698,9.0
1606935130.4719,12.0
1606935130.4738,14.0
1606935130.4758,19.0
1606935130.4778,24.0
1606935130.4797,26.0
1606935130.4818,38.0
1606935130.4838,52.0
1606935130.4858,52.0
1606935130.4878,43.0
1606935130.4898,31.0
1606935130.4918,24.0
1606935130.4938,9.0
1606935130.4944,-9.0
1606935130.4958,-16.0
1606935130.4978,-16.0
1606935130.4998,-12.0
1606935130.5018,-14.0
1606935130.5038,-14.0
1606935130.5058,-12.0
1606935130.5078,-12.0
1606935130.5098,-12.0
1606935130.5118,31.0
1606935130.5138,175.0
1606935130.9495,358.0
1606935130.9505,315.0
1606935130.9529,93.0
1606935130.954,52.0
1606935130.9556,67.0
1606935130.9576,-31.0
1606935130.9596,-57.0
1606935130.9615,-21.0
1606935130.9635,-33.0
1606935130.9655,-48.0
1606935130.9677,-31.0
1606935130.9696,-28.0
1606935130.9715,-31.0
1606935130.9735,-26.0
1606935130.9755,-21.0
1606935130.9775,-21.0
1606935130.9796,-21.0
1606935130.9815,-21.0
1606935130.9835,-19.0
1606935130.9841,-16.0
1606935130.9855,-14.0
1606935130.9875,-16.0
1606935130.9896,-9.0
1606935130.9915,0.0
1606935130.9935,2.0
1606935130.9955,4.0
1606935130.9975,7.0
1606935130.9995,9.0
1606935131.0014,12.0
1606935131.0035,16.0
1606935131.0055,14.0
1606935131.0075,16.0
1606935131.0095,19.0
1606935131.0115,16.0
1606935131.0135,12.0
1606935131.0141,12.0
1606935131.0155,9.0
1606935131.0174,7.0
1606935131.0195,7.0
1606935131.0214,7.0
1606935131.0235,4.0
1606935131.0254,2.0
1606935131.0274,2.0
1606935131.0295,2.0
1606935131.0314,2.0
1606935131.0335,0.0
1606935131.0355,-2.0
1606935131.0374,-2.0
1606935131.0395,2.0
1606935131.0414,4.0
1606935131.0434,2.0
1606935131.0441,7.0
1606935131.0454,9.0
1606935131.0475,4.0
1606935131.0495,7.0
1606935131.0514,14.0
1606935131.0535,16.0
1606935131.0554,14.0
1606935131.0574,14.0
1606935131.0595,16.0
1606935131.0614,19.0
1606935131.0636,19.0
1606935131.0655,19.0
1606935131.0675,21.0
1606935131.0695,19.0
1606935131.0715,19.0
1606935131.0734,19.0
1606935131.0741,19.0
1606935131.0754,16.0
1606935131.0774,16.0
1606935131.0795,19.0
1606935131.0815,19.0
1606935131.0835,16.0
1606935131.489,14.0
1606935131.4897,16.0
1606935131.4921,19.0
1606935131.4938,16.0
1606935131.4958,14.0
1606935131.4978,14.0
1606935131.4998,14.0
1606935131.5018,9.0
1606935131.5024,7.0
1606935131.5037,7.0
1606935131.5057,7.0
1606935131.5077,7.0
1606935131.5098,7.0
1606935131.5117,7.0
1606935131.5137,4.0
1606935131.5157,7.0
1606935131.5177,9.0
1606935131.5198,9.0
1606935131.5217,7.0
1606935131.5237,4.0
1606935131.5257,4.0
1606935131.5277,4.0
1606935131.5297,4.0
1606935131.5317,4.0
1606935131.5323,9.0
1606935131.5337,12.0
1606935131.5357,16.0
1606935131.5377,19.0
1606935131.5398,24.0
1606935131.5417,45.0
1606935131.5437,62.0
1606935131.5458,50.0
1606935131.5477,31.0
1606935131.5497,24.0
1606935131.5517,12.0
1606935131.5537,-2.0
1606935131.5557,-7.0
1606935131.5577,-9.0
1606935131.5597,-14.0
1606935131.5619,-12.0
1606935131.5623,-2.0
1606935131.5637,-2.0
1606935131.5657,-9.0
1606935131.5678,9.0
1606935131.5697,120.0
1606935131.5717,322.0
1606935131.5737,387.0
1606935131.5757,149.0
1606935131.5777,-4.0
1606935131.5797,74.0
1606935131.5817,36.0
1606935131.5837,-48.0
1606935131.5859,-9.0
1606935131.5877,0.0
1606935131.5898,-31.0
1606935131.5917,-16.0
1606935131.5923,0.0
1606935131.5937,-14.0
1606935131.5957,-16.0
1606935131.5978,-2.0
1606935131.5998,0.0
1606935131.6017,0.0
1606935131.6038,7.0
1606935131.6057,9.0
1606935131.6077,7.0
1606935131.6097,9.0
1606935131.6117,12.0
1606935131.6137,14.0
1606935131.6157,19.0
1606935131.6177,19.0
1606935131.6197,21.0
1606935131.6203,28.0
1606935131.6217,31.0
