Time,ECG
1607021055.1710,7810
1607021055.1735,8901
1607021055.1761,9956
1607021055.1783,10579
1607021055.1803,11132
1607021055.1824,11693
1607021055.1837,12085
1607021055.1856,12394
1607021055.1875,12696
1607021055.1896,12936
1607021055.1916,13110
1607021055.1937,13252
1607021055.1959,13395
1607021055.1982,13514
1607021055.2003,13604
1607021055.2030,13699
1607021055.2046,13770
1607021055.2066,13780
1607021055.2086,13773
1607021055.2106,13780
1607021055.2126,13768
1607021055.2146,13735
1607021055.2165,13708
1607021055.2186,13697
1607021055.2206,13673
1607021055.2226,13630
1607021055.2245,13594
1607021055.2265,13563
1607021055.2285,13509
1607021055.2305,13416
1607021055.2325,13288
1607021055.2345,13221
1607021055.2365,13369
1607021055.2385,13813
1607021055.2405,14359
1607021055.2425,14229
1607021055.2445,13093
1607021055.2465,12292
1607021055.2485,12613
1607021055.2505,12903
1607021055.2525,12675
1607021055.2545,12573
1607021055.2565,12603
1607021055.2585,12487
1607021055.2605,12385
1607021055.2625,12333
1607021055.2645,12228
1607021055.2665,12161
1607021055.2685,12159
1607021055.2705,12095
1607021055.2727,11993
1607021055.2745,11914
1607021055.2764,11838
1607021055.2784,11757
1607021055.2804,11686
1607021055.2825,11612
1607021055.2844,11529
1607021055.2864,11451
1607021055.2884,11396
1607021055.2904,11353
1607021055.2925,11287
1607021055.2944,11199
1607021055.2964,11132
1607021055.2984,11061
1607021055.3004,10954
1607021055.3025,10850
1607021055.3044,10759
1607021055.3064,10655
1607021055.3084,10517
1607021055.3104,10348
1607021055.3124,10170
1607021055.3145,10023
1607021055.3164,9887
1607021055.7094,9761
1607021055.7103,9659
1607021055.7128,9559
1607021055.7154,9455
1607021055.7174,9384
1607021055.7194,9317
1607021055.7214,9220
1607021055.7234,9129
1607021055.7254,9056
1607021055.7274,9003
1607021055.7294,8942
1607021055.7314,8823
1607021055.7334,8730
1607021055.7354,8678
1607021055.7373,8590
1607021055.7394,8500
1607021055.7414,8440
1607021055.7434,8359
1607021055.7454,8264
1607021055.7474,8193
1607021055.7494,8126
1607021055.7514,8041
1607021055.7534,7946
1607021055.7553,7872
1607021055.7573,7820
1607021055.7593,7751
1607021055.7613,7646
1607021055.7633,7556
1607021055.7655,7490
1607021055.7674,7423
1607021055.7693,7359
1607021055.7713,7278
1607021055.7734,7193
1607021055.7753,7114
1607021055.7773,7043
1607021055.7793,6979
1607021055.7813,6910
1607021055.7834,6831
1607021055.7853,6755
1607021055.7873,6684
1607021055.7893,6618
1607021055.7913,6551
1607021055.7933,6489
1607021055.7953,6456
1607021055.7973,6430
1607021055.7993,6370
1607021055.8013,6282
1607021055.8034,6195
1607021055.8053,6116
1607021055.8073,6033
1607021055.8093,5952
1607021055.8113,5890
1607021055.8134,5831
1607021055.8153,5762
1607021055.8173,5703
1607021055.8193,5662
1607021055.8213,5605
1607021055.8233,5515
1607021055.8253,5401
1607021055.8273,5280
1607021055.8293,5284
1607021055.8313,5584
1607021055.8334,6147
1607021055.8353,6496
1607021055.8373,5864
1607021055.8393,4636
1607021055.8413,4301
1607021055.8433,4821
1607021055.8454,4983
1607021055.8475,4783
1607021055.8493,4764
1607021055.8513,4788
1607021055.8533,4705
1607021056.2795,4657
1607021056.2803,4636
1607021056.2829,4583
1607021056.2854,4541
1607021056.2873,4507
1607021056.2893,4467
1607021056.2916,4443
1607021056.2934,4408
1607021056.2954,4336
1607021056.2973,4293
1607021056.2993,4293
1607021056.3013,4260
1607021056.3033,4198
1607021056.3053,4198
1607021056.3073,4232
1607021056.3093,4201
1607021056.3113,4139
1607021056.3134,4113
1607021056.3153,4091
1607021056.3173,4044
1607021056.3193,3989
1607021056.3213,3942
1607021056.3233,3887
1607021056.3253,3811
1607021056.3273,3704
1607021056.3293,3569
1607021056.3313,3448
1607021056.3333,3348
1607021056.3353,3262
1607021056.3373,3203
1607021056.3393,3153
1607021056.3413,3103
1607021056.3433,3060
1607021056.3453,3029
1607021056.3473,3006
1607021056.3493,2977
1607021056.3513,2948
1607021056.3533,2925
1607021056.3553,2903
1607021056.3629,2875
1607021056.3643,2846
1607021056.3663,2820
1607021056.3683,2789
1607021056.3703,2756
1607021056.3723,2732
1607021056.3743,2713
1607021056.3764,2678
1607021056.3783,2637
1607021056.3804,2613
1607021056.3824,2594
1607021056.3843,2564
1607021056.3863,2528
1607021056.3883,2499
1607021056.3904,2476
1607021056.3923,2447
1607021056.3942,2419
1607021056.3963,2385
1607021056.3985,2350
1607021056.4003,2324
1607021056.4023,2307
1607021056.4043,2281
1607021056.4064,2247
1607021056.4083,2221
1607021056.4103,2198
1607021056.4124,2179
1607021056.4143,2176
1607021056.4163,2181
1607021056.4183,2171
1607021056.4203,2148
1607021056.4223,2110
1607021056.4243,2060
1607021056.4263,2015
1607021056.4283,1993
1607021056.8494,1974
1607021056.8503,1948
1607021056.8528,1927
1607021056.8554,1908
1607021056.8574,1889
1607021056.8594,1874
1607021056.8615,1846
1607021056.8634,1770
1607021056.8654,1668
1607021056.8674,1677
1607021056.8694,1993
1607021056.8714,2632
1607021056.8734,3143
1607021056.8754,2663
1607021056.8774,1349
1607021056.8793,812
1607021056.8813,1352
1607021056.8834,1665
1607021056.8853,1544
1607021056.8873,1546
1607021056.8893,1606
1607021056.8913,1563
1607021056.8934,1544
1607021056.8953,1565
1607021056.8973,1551
1607021056.8993,1539
1607021056.9013,1546
1607021056.9034,1544
1607021056.9053,1535
1607021056.9073,1537
1607021056.9093,1539
1607021056.9113,1539
1607021056.9133,1539
1607021056.9153,1544
1607021056.9173,1556
1607021056.9195,1556
1607021056.9214,1554
1607021056.9234,1575
1607021056.9253,1587
1607021056.9273,1573
1607021056.9293,1570
1607021056.9313,1580
1607021056.9333,1561
1607021056.9353,1508
1607021056.9373,1473
1607021056.9393,1435
1607021056.9413,1349
1607021056.9433,1242
1607021056.9453,1159
1607021056.9474,1088
1607021056.9493,1017
1607021056.9513,967
1607021056.9534,943
1607021056.9553,943
1607021056.9573,933
1607021056.9593,914
1607021056.9613,910
1607021056.9634,919
1607021056.9653,919
1607021056.9673,910
1607021056.9693,902
1607021056.9713,900
1607021056.9734,898
1607021056.9753,900
1607021056.9773,895
1607021056.9793,886
1607021056.9813,876
1607021056.9833,876
1607021056.9853,872
1607021056.9873,862
1607021056.9893,860
1607021056.9913,850
1607021056.9933,824
1607021057.3896,800
1607021057.3903,812
1607021057.3928,836
1607021057.3955,826
1607021057.3974,796
1607021057.3994,779
1607021057.4015,774
1607021057.4034,762
1607021057.4053,748
1607021057.4073,748
1607021057.4093,777
1607021057.4113,803
1607021057.4133,788
1607021057.4155,769
1607021057.4174,765
1607021057.4193,739
1607021057.4213,710
1607021057.4234,708
1607021057.4253,698
1607021057.4273,672
1607021057.4293,674
1607021057.4313,691
1607021057.4334,686
1607021057.4353,672
1607021057.4373,653
1607021057.4394,591
1607021057.4414,518
1607021057.4434,605
1607021057.4453,1014
1607021057.4473,1682
1607021057.4493,2045
1607021057.4513,1311
1607021057.4534,90
1607021057.4553,-57
1607021057.4575,534
1607021057.4594,646
1607021057.4615,515
1607021057.4634,601
1607021057.4653,629
1607021057.4673,556
1607021057.4693,586
1607021057.4713,624
1607021057.4734,596
1607021057.4753,598
1607021057.4773,641
1607021057.4793,648
1607021057.4813,627
1607021057.4833,634
1607021057.4853,670
1607021057.4874,672
1607021057.4893,672
1607021057.4913,705
1607021057.4933,727
1607021057.4953,724
1607021057.4973,736
1607021057.4993,750
1607021057.5013,767
1607021057.5034,791
1607021057.5053,791
1607021057.5073,777
1607021057.5093,774
1607021057.5113,769
1607021057.5134,724
1607021057.5153,667
1607021057.5175,589
1607021057.5194,480
1607021057.5213,399
1607021057.5233,373
1607021057.5253,339
1607021057.5273,294
1607021057.5293,275
1607021057.5313,270
1607021057.5333,268
1607021057.9288,278
1607021057.9296,280
1607021057.9313,280
1607021057.9334,292
1607021057.9353,294
1607021057.9373,292
1607021057.9393,292
1607021057.9413,294
1607021057.9434,301
1607021057.9453,299
1607021057.9473,289
1607021057.9493,294
1607021057.9513,308
1607021057.9533,320
1607021057.9553,330
1607021057.9573,318
1607021057.9593,299
1607021057.9613,311
1607021057.9634,332
1607021057.9653,316
1607021057.9673,294
1607021057.9693,294
1607021057.9713,289
1607021057.9733,287
1607021057.9753,304
1607021057.9773,327
1607021057.9793,349
1607021057.9813,368
1607021057.9833,373
1607021057.9853,351
1607021057.9873,327
1607021057.9893,313
1607021057.9913,301
1607021057.9933,304
1607021057.9952,311
1607021057.9973,299
1607021057.9993,287
1607021058.0014,304
1607021058.0034,320
1607021058.0053,308
1607021058.0073,268
1607021058.0093,192
1607021058.0115,168
1607021058.0133,396
1607021058.0152,967
1607021058.0173,1646
1607021058.0193,1639
1607021058.0213,472
1607021058.0233,-508
1607021058.0253,-156
1607021058.0273,380
1607021058.0293,278
1607021058.0313,204
1607021058.0333,323
1607021058.0353,327
1607021058.0373,294
1607021058.0393,332
1607021058.0413,363
1607021058.0434,363
1607021058.0453,368
1607021058.0472,389
1607021058.0493,408
1607021058.0512,422
1607021058.0533,434
1607021058.0554,451
1607021058.0573,468
1607021058.0593,482
1607021058.0613,499
1607021058.0633,527
1607021058.0653,553
1607021058.0672,565
1607021058.0693,586
1607021058.0713,615
1607021058.5292,632
1607021058.5302,634
1607021058.5327,624
1607021058.5353,610
1607021058.5373,579
1607021058.5393,522
1607021058.5413,446
1607021058.5432,356
1607021058.5452,263
1607021058.5472,187
1607021058.5492,137
1607021058.5512,116
1607021058.5533,104
1607021058.5552,92
1607021058.5572,85
1607021058.5592,83
1607021058.5612,83
1607021058.5632,83
1607021058.5652,99
1607021058.5672,121
1607021058.5694,137
1607021058.5712,135
1607021058.5732,123
1607021058.5751,118
1607021058.5771,133
1607021058.5791,163
1607021058.5812,173
1607021058.5832,152
1607021058.5852,156
1607021058.5872,171
1607021058.5892,149
1607021058.5911,133
1607021058.5932,142
1607021058.5952,147
1607021058.5971,149
1607021058.5991,147
1607021058.6013,140
1607021058.6032,137
1607021058.6051,133
1607021058.6071,123
1607021058.6091,128
1607021058.6111,147
1607021058.6132,175
1607021058.6151,192
1607021058.6172,204
1607021058.6192,213
1607021058.6211,175
1607021058.6232,144
1607021058.6251,149
1607021058.6271,125
1607021058.6291,106
1607021058.6311,135
1607021058.6332,168
1607021058.6352,166
1607021058.6372,140
1607021058.6391,118
1607021058.6411,85
1607021058.6432,-2
1607021058.6451,-23
1607021058.6471,266
1607021058.6493,955
1607021058.6512,1701
1607021058.6532,1499
1607021058.6551,116
1607021058.6571,-689
1607021058.6591,-159
1607021058.6611,237
1607021058.6632,66
1607021058.6651,78
1607021058.6672,187
1607021058.6691,130
1607021058.6713,128
1607021058.6732,206
1607021059.0988,201
1607021059.0996,182
1607021059.1020,216
1607021059.1047,235
1607021059.1066,232
1607021059.1086,259
1607021059.1107,289
1607021059.1127,289
1607021059.1147,294
1607021059.1166,327
1607021059.1186,356
1607021059.1206,365
1607021059.1227,380
1607021059.1247,403
1607021059.1266,430
1607021059.1287,465
1607021059.1307,484
1607021059.1327,470
1607021059.1346,472
1607021059.1366,475
1607021059.1386,425
1607021059.1406,356
1607021059.1426,282
1607021059.1447,178
1607021059.1467,83
1607021059.1486,38
1607021059.1506,7
1607021059.1526,-28
1607021059.1546,-40
1607021059.1566,-35
1607021059.1586,-38
1607021059.1607,-35
1607021059.1627,-21
1607021059.1646,-9
1607021059.1666,-2
1607021059.1686,2
1607021059.1706,9
1607021059.1726,9
1607021059.1746,19
1607021059.1766,40
1607021059.1786,49
1607021059.1806,45
1607021059.1826,47
1607021059.1846,52
1607021059.1866,49
1607021059.1886,59
1607021059.1906,66
1607021059.1926,54
1607021059.1947,42
1607021059.1968,42
1607021059.1986,59
1607021059.2006,68
1607021059.2026,57
1607021059.2046,52
1607021059.2066,61
1607021059.2086,59
1607021059.2106,59
1607021059.2127,80
1607021059.2146,83
1607021059.2166,57
1607021059.2186,49
1607021059.2206,66
1607021059.2226,64
1607021059.2246,40
1607021059.2266,57
1607021059.2287,102
1607021059.2306,99
1607021059.2326,76
1607021059.2346,125
1607021059.2366,185
1607021059.2386,152
1607021059.2406,99
1607021059.2426,111
1607021059.6684,128
1607021059.6693,102
1607021059.6707,83
1607021059.6727,92
1607021059.6747,97
1607021059.6766,90
1607021059.6786,87
1607021059.6806,104
1607021059.6826,95
1607021059.6846,26
1607021059.6866,-66
1607021059.6886,-87
1607021059.6907,149
1607021059.6926,829
1607021059.6946,1651
1607021059.6966,1535
1607021059.6987,204
1607021059.7006,-608
1607021059.7026,-133
1607021059.7045,218
1607021059.7067,7
1607021059.7086,-9
1607021059.7105,121
1607021059.7126,95
1607021059.7132,83
1607021059.7145,130
1607021059.7165,135
1607021059.7187,149
1607021059.7206,180
1607021059.7226,173
1607021059.7246,173
1607021059.7265,213
1607021059.7285,225
1607021059.7305,223
1607021059.7326,259
1607021059.7345,292
1607021059.7365,297
1607021059.7386,316
1607021059.7406,346
1607021059.7426,365
1607021059.7432,384
1607021059.7445,408
1607021059.7465,425
1607021059.7485,432
1607021059.7505,432
1607021059.7526,411
1607021059.7547,377
1607021059.7566,344
1607021059.7585,285
1607021059.7605,185
1607021059.7626,90
1607021059.7647,26
1607021059.7666,-11
1607021059.7685,-49
1607021059.7705,-73
1607021059.7726,-68
1607021059.7732,-71
1607021059.7745,-76
1607021059.7765,-47
1607021059.7785,-21
1607021059.7805,-21
1607021059.7826,-16
1607021059.7845,-9
1607021059.7865,-7
1607021059.7886,2
1607021059.7906,11
1607021059.7926,16
1607021059.7947,23
1607021059.7966,35
1607021059.7986,33
1607021059.8006,19
1607021059.8026,21
1607021059.8032,45
1607021060.1787,52
1607021060.1794,38
1607021060.1818,42
1607021060.1845,42
1607021060.1866,35
1607021060.1887,45
1607021060.1905,49
1607021060.1925,40
1607021060.1945,33
1607021060.1964,28
1607021060.1984,33
1607021060.2006,35
1607021060.2026,38
1607021060.2031,57
1607021060.2044,59
1607021060.2064,40
1607021060.2084,33
1607021060.2104,40
1607021060.2125,52
1607021060.2145,61
1607021060.2165,59
1607021060.2185,59
1607021060.2204,71
1607021060.2225,73
1607021060.2244,61
1607021060.2264,57
1607021060.2284,57
1607021060.2304,59
1607021060.2325,71
1607021060.2331,71
1607021060.2345,66
1607021060.2364,78
1607021060.2384,80
1607021060.2404,83
1607021060.2425,114
1607021060.2444,142
1607021060.2464,137
1607021060.2484,114
1607021060.2505,106
1607021060.2525,109
1607021060.2545,92
1607021060.2564,71
1607021060.2584,76
1607021060.2604,90
1607021060.2625,80
1607021060.2631,73
1607021060.2644,95
1607021060.2665,109
1607021060.2685,78
1607021060.2704,14
1607021060.2725,-49
1607021060.2744,-7
1607021060.2764,327
1607021060.2784,1007
1607021060.2804,1549
1607021060.2825,1005
1607021060.2847,-278
1607021060.2865,-591
1607021060.2884,-7
1607021060.2904,149
1607021060.2925,-16
1607021060.2931,49
1607021060.2944,125
1607021060.2964,90
1607021060.2984,109
1607021060.3006,147
1607021060.3025,137
1607021060.3044,140
1607021060.3064,168
1607021060.3084,175
1607021060.3104,182
1607021060.3125,206
1607021060.3144,225
1607021060.7495,230
1607021060.7505,242
1607021060.7529,268
1607021060.7556,294
1607021060.7562,308
1607021060.7575,316
1607021060.7595,330
1607021060.7616,356
1607021060.7636,387
1607021060.7655,411
1607021060.7675,406
1607021060.7695,394
1607021060.7715,392
1607021060.7735,375
1607021060.7754,327
1607021060.7775,256
1607021060.7796,175
1607021060.7815,106
1607021060.7835,45
1607021060.7841,-16
1607021060.7855,-49
1607021060.7875,-57
1607021060.7894,-66
1607021060.7914,-78
1607021060.7935,-71
1607021060.7955,-61
1607021060.7975,-54
1607021060.7994,-45
1607021060.8015,-38
1607021060.8035,-35
1607021060.8054,-30
1607021060.8074,-28
1607021060.8094,-19
1607021060.8115,-4
1607021060.8137,-4
1607021060.8141,-14
1607021060.8155,-7
1607021060.8174,2
1607021060.8194,9
1607021060.8214,9
1607021060.8234,7
1607021060.8254,9
1607021060.8275,14
1607021060.8295,16
1607021060.8315,16
1607021060.8335,19
1607021060.8354,23
1607021060.8374,21
1607021060.8394,14
1607021060.8414,21
1607021060.8434,40
1607021060.8442,40
1607021060.8455,33
1607021060.8474,38
1607021060.8495,47
1607021060.8514,49
1607021060.8535,42
1607021060.8554,45
1607021060.8574,54
1607021060.8594,49
1607021060.8615,47
1607021060.8634,68
1607021060.8654,73
1607021060.8674,61
1607021060.8694,61
1607021060.8714,68
1607021060.8735,71
1607021060.8741,64
1607021060.8754,68
1607021060.8775,78
1607021060.8795,78
1607021060.8815,68
1607021060.8834,71
1607021061.2893,80
1607021061.2901,83
1607021061.2925,76
1607021061.2951,71
1607021061.2971,80
1607021061.2991,90
1607021061.3011,78
1607021061.3032,66
1607021061.3044,71
1607021061.3061,73
1607021061.3082,66
1607021061.3101,61
1607021061.3123,71
1607021061.3141,87
1607021061.3161,87
1607021061.3180,80
1607021061.3200,76
1607021061.3221,73
1607021061.3242,78
1607021061.3260,90
1607021061.3281,102
1607021061.3301,123
1607021061.3321,142
1607021061.3340,140
1607021061.3360,121
1607021061.3381,106
1607021061.3401,92
1607021061.3421,80
1607021061.3440,80
1607021061.3460,80
1607021061.3482,78
1607021061.3500,80
1607021061.3521,87
1607021061.3540,90
1607021061.3561,85
1607021061.3580,59
1607021061.3600,-7
1607021061.3621,-57
1607021061.3640,71
1607021061.3660,503
1607021061.3680,1162
1607021061.3700,1402
1607021061.3722,527
1607021061.3741,-529
1607021061.3760,-422
1607021061.3780,104
1607021061.3800,78
1607021061.3821,-16
1607021061.3840,87
1607021061.3860,99
1607021061.3881,68
1607021061.3901,111
1607021061.3921,133
1607021061.3940,121
1607021061.3960,137
1607021061.3982,161
1607021061.4000,166
1607021061.4021,175
1607021061.4041,190
1607021061.4062,204
1607021061.4080,220
1607021061.4100,235
1607021061.4121,247
1607021061.4142,266
1607021061.4161,294
1607021061.4181,318
1607021061.4200,330
1607021061.4221,346
1607021061.4241,368
1607021061.4260,382
1607021061.4280,387
1607021061.4300,382
1607021061.4321,373
1607021061.9183,354
1607021061.9192,318
1607021061.9207,259
1607021061.9228,182
1607021061.9247,102
1607021061.9267,35
1607021061.9287,-11
1607021061.9307,-42
1607021061.9327,-64
1607021061.9348,-76
1607021061.9367,-76
1607021061.9387,-61
1607021061.9407,-49
1607021061.9427,-49
1607021061.9447,-42
1607021061.9467,-35
1607021061.9487,-30
1607021061.9508,-21
1607021061.9527,-14
1607021061.9547,-11
1607021061.9567,-7
1607021061.9587,-4
1607021061.9607,0
1607021061.9627,2
1607021061.9646,4
1607021061.9667,9
1607021061.9686,9
1607021061.9706,7
1607021061.9728,9
1607021061.9746,14
1607021061.9766,16
1607021061.9786,21
1607021061.9806,21
1607021061.9827,19
1607021061.9846,21
1607021061.9866,23
1607021061.9886,26
1607021061.9906,28
1607021061.9926,28
1607021061.9946,28
1607021061.9966,35
1607021061.9989,38
1607021062.0007,35
1607021062.0027,38
1607021062.0046,42
1607021062.0066,42
1607021062.0086,40
1607021062.0106,45
1607021062.0127,49
1607021062.0147,49
1607021062.0167,47
1607021062.0186,45
1607021062.0206,49
1607021062.0227,54
1607021062.0246,52
1607021062.0266,52
1607021062.0286,57
1607021062.0306,54
1607021062.0327,47
1607021062.0346,52
1607021062.0366,57
1607021062.0386,54
1607021062.0406,47
1607021062.0427,45
1607021062.0446,49
1607021062.0466,57
1607021062.0487,57
1607021062.0507,52
1607021062.0526,59
1607021062.0546,61
1607021062.0566,59
1607021062.0586,61
1607021062.0607,64
1607021062.4594,64
1607021062.4605,61
1607021062.4631,61
1607021062.4656,54
1607021062.4675,54
1607021062.4695,68
1607021062.4717,87
1607021062.4735,106
1607021062.4755,111
1607021062.4776,99
1607021062.4796,92
1607021062.4817,80
1607021062.4835,64
1607021062.4855,54
1607021062.4875,52
1607021062.4895,45
1607021062.4915,45
1607021062.4936,54
1607021062.4955,64
1607021062.4977,68
1607021062.4995,66
1607021062.5015,42
1607021062.5034,-21
1607021062.5054,-80
1607021062.5075,21
1607021062.5095,418
1607021062.5116,1066
1607021062.5135,1423
1607021062.5155,686
1607021062.5175,-499
1607021062.5195,-584
1607021062.5214,19
1607021062.5234,114
1607021062.5254,-16
1607021062.5275,64
1607021062.5294,111
1607021062.5314,71
1607021062.5334,85
1607021062.5354,118
1607021062.5375,118
1607021062.5394,135
1607021062.5414,166
1607021062.5435,171
1607021062.5454,173
1607021062.5474,190
1607021062.5494,199
1607021062.5514,216
1607021062.5534,240
1607021062.5554,249
1607021062.5574,259
1607021062.5595,287
1607021062.5615,313
1607021062.5634,323
1607021062.5654,332
1607021062.5674,363
1607021062.5694,389
1607021062.5714,394
1607021062.5735,389
1607021062.5755,377
1607021062.5775,358
1607021062.5795,325
1607021062.5816,259
1607021062.5834,180
1607021062.5854,111
1607021062.5874,42
1607021062.5894,-23
1607021062.5915,-71
1607021062.5935,-102
1607021062.5955,-114
1607021062.5975,-106
1607021062.5996,-99
1607021062.6015,-106
1607021062.6035,-102
1607021062.9989,-95
1607021062.9995,-90
1607021063.0016,-78
1607021063.0035,-66
1607021063.0055,-61
1607021063.0075,-59
1607021063.0094,-52
1607021063.0114,-35
1607021063.0134,-30
1607021063.0154,-42
1607021063.0174,-49
1607021063.0194,-45
1607021063.0215,-35
1607021063.0235,-33
1607021063.0254,-28
1607021063.0275,-21
1607021063.0294,-30
1607021063.0315,-47
1607021063.0334,-33
1607021063.0354,-14
1607021063.0374,-19
1607021063.0395,-7
1607021063.0414,4
1607021063.0434,-4
1607021063.0454,-9
1607021063.0474,-4
1607021063.0494,2
1607021063.0514,2
1607021063.0534,-2
1607021063.0555,11
1607021063.0574,26
1607021063.0594,19
1607021063.0614,7
1607021063.0634,7
1607021063.0654,9
1607021063.0674,23
1607021063.0694,42
1607021063.0715,40
1607021063.0734,21
1607021063.0754,30
1607021063.0774,40
1607021063.0794,28
1607021063.0814,30
1607021063.0834,47
1607021063.0854,45
1607021063.0874,23
1607021063.0895,30
1607021063.0914,54
1607021063.0936,47
1607021063.0954,35
1607021063.0974,73
1607021063.0994,114
1607021063.1014,118
1607021063.1034,118
1607021063.1055,106
1607021063.1074,71
1607021063.1094,49
1607021063.1114,64
1607021063.1134,71
1607021063.1154,59
1607021063.1174,52
1607021063.1194,57
1607021063.1215,68
1607021063.1234,71
1607021063.1254,52
1607021063.1274,-2
1607021063.1294,-59
1607021063.1314,38
1607021063.1334,446
1607021063.1354,1112
1607021063.1375,1492
1607021063.1394,758
1607021063.1414,-563
1607021063.5694,-779
1607021063.5703,-118
1607021063.5728,92
1607021063.5754,0
1607021063.5774,66
1607021063.5794,109
1607021063.5816,78
1607021063.5835,90
1607021063.5855,114
1607021063.5874,121
1607021063.5894,135
1607021063.5914,152
1607021063.5934,159
1607021063.5954,171
1607021063.5974,187
1607021063.5994,197
1607021063.6014,213
1607021063.6034,240
1607021063.6054,261
1607021063.6074,280
1607021063.6094,304
1607021063.6114,330
1607021063.6133,351
1607021063.6154,370
1607021063.6174,387
1607021063.6193,408
1607021063.6215,418
1607021063.6234,406
1607021063.6253,387
1607021063.6273,365
1607021063.6293,320
1607021063.6313,249
1607021063.6334,161
1607021063.6353,64
1607021063.6373,-23
1607021063.6393,-80
1607021063.6413,-118
1607021063.6433,-144
1607021063.6453,-154
1607021063.6473,-152
1607021063.6494,-142
1607021063.6513,-133
1607021063.6533,-123
1607021063.6553,-109
1607021063.6573,-99
1607021063.6593,-92
1607021063.6613,-83
1607021063.6634,-73
1607021063.6654,-66
1607021063.6674,-64
1607021063.6694,-54
1607021063.6713,-40
1607021063.6734,-35
1607021063.6753,-38
1607021063.6774,-33
1607021063.6793,-26
1607021063.6815,-26
1607021063.6834,-23
1607021063.6853,-23
1607021063.6873,-28
1607021063.6894,-28
1607021063.6913,-23
1607021063.6934,-19
1607021063.6953,-16
1607021063.6974,-16
1607021063.6994,-19
1607021063.7013,-14
1607021063.7033,-2
1607021063.7053,0
1607021063.7073,-9
1607021063.7093,-16
1607021063.7113,-14
1607021063.7133,-9
1607021064.1092,-9
1607021064.1101,-4
1607021064.1126,23
1607021064.1151,59
1607021064.1173,78
1607021064.1192,71
1607021064.1212,61
1607021064.1231,49
1607021064.1251,28
1607021064.1271,11
1607021064.1291,11
1607021064.1311,9
1607021064.1331,0
1607021064.1351,0
1607021064.1371,23
1607021064.1391,40
1607021064.1411,28
1607021064.1432,-9
1607021064.1451,-85
1607021064.1471,-152
1607021064.1491,-26
1607021064.1511,482
1607021064.1531,1333
1607021064.1551,1737
1607021064.1571,739
1607021064.1591,-591
1607021064.1612,-501
1607021064.1631,97
1607021064.1650,-4
1607021064.1671,-135
1607021064.1691,23
1607021064.1711,49
1607021064.1732,4
1607021064.1751,61
1607021064.1771,90
1607021064.1790,64
1607021064.1811,64
1607021064.1831,97
1607021064.1850,135
1607021064.1871,144
1607021064.1891,137
1607021064.1911,161
1607021064.1932,197
1607021064.1951,206
1607021064.1970,225
1607021064.1991,256
1607021064.2011,275
1607021064.2031,289
1607021064.2051,335
1607021064.2070,387
1607021064.2091,401
1607021064.2111,403
1607021064.2131,411
1607021064.2150,406
1607021064.2171,382
1607021064.2192,344
1607021064.2211,275
1607021064.2231,175
1607021064.2251,68
1607021064.2271,-7
1607021064.2291,-61
1607021064.2311,-118
1607021064.2331,-159
1607021064.2350,-175
1607021064.2370,-182
1607021064.2390,-180
1607021064.2411,-166
1607021064.2432,-159
1607021064.2450,-154
1607021064.2470,-135
1607021064.2491,-111
1607021064.2510,-106
1607021064.2531,-109
1607021064.6794,-104
1607021064.6803,-99
1607021064.6828,-90
1607021064.6854,-68
1607021064.6874,-59
1607021064.6895,-78
1607021064.6916,-80
1607021064.6933,-49
1607021064.6953,-42
1607021064.6973,-54
1607021064.6994,-42
1607021064.7013,-38
1607021064.7034,-49
1607021064.7054,-45
1607021064.7073,-38
1607021064.7093,-47
1607021064.7113,-52
1607021064.7133,-33
1607021064.7153,-2
1607021064.7173,14
1607021064.7193,26
1607021064.7214,38
1607021064.7234,35
1607021064.7253,21
1607021064.7273,2
1607021064.7293,-7
1607021064.7313,-2
1607021064.7333,-7
1607021064.7353,-9
1607021064.7373,7
1607021064.7394,11
1607021064.7414,2
1607021064.7433,2
1607021064.7454,-9
1607021064.7473,-87
1607021064.7493,-180
1607021064.7513,-95
1607021064.7533,363
1607021064.7554,1200
1607021064.7573,1760
1607021064.7593,960
1607021064.7613,-496
1607021064.7633,-641
1607021064.7653,40
1607021064.7673,61
1607021064.7693,-135
1607021064.7714,-11
1607021064.7733,47
1607021064.7754,0
1607021064.7774,45
1607021064.7793,85
1607021064.7813,68
1607021064.7833,76
1607021064.7853,90
1607021064.7874,95
1607021064.7893,114
1607021064.7913,137
1607021064.7933,152
1607021064.7954,178
1607021064.7973,209
1607021064.7994,228
1607021064.8013,251
1607021064.8034,285
1607021064.8054,311
1607021064.8074,332
1607021064.8094,361
1607021064.8113,382
1607021064.8133,394
1607021064.8153,401
1607021064.8173,408
1607021064.8193,389
1607021064.8214,327
1607021064.8233,247
1607021065.2789,166
1607021065.2798,68
1607021065.2823,-26
1607021065.2850,-80
1607021065.2870,-106
1607021065.2889,-142
1607021065.2909,-168
1607021065.2929,-163
1607021065.2948,-166
1607021065.2968,-171
1607021065.2989,-161
1607021065.3011,-144
1607021065.3029,-133
1607021065.3049,-121
1607021065.3068,-116
1607021065.3088,-102
1607021065.3108,-78
1607021065.3129,-61
1607021065.3149,-57
1607021065.3169,-61
1607021065.3188,-61
1607021065.3208,-61
1607021065.3229,-66
1607021065.3248,-54
1607021065.3268,-35
1607021065.3288,-30
1607021065.3309,-35
1607021065.3329,-28
1607021065.3348,-23
1607021065.3368,-40
1607021065.3388,-49
1607021065.3408,-38
1607021065.3428,-28
1607021065.3448,-30
1607021065.3468,-4
1607021065.3489,42
1607021065.3508,35
1607021065.3528,2
1607021065.3548,14
1607021065.3568,14
1607021065.3588,-14
1607021065.3608,-19
1607021065.3628,-9
1607021065.3649,-2
1607021065.3668,0
1607021065.3688,-9
1607021065.3708,-14
1607021065.3728,4
1607021065.3748,7
1607021065.3768,-61
1607021065.3788,-142
1607021065.3808,-57
1607021065.3829,344
1607021065.3848,1024
1607021065.3868,1468
1607021065.3888,791
1607021065.3908,-513
1607021065.3928,-743
1607021065.3948,-118
1607021065.3968,38
1607021065.3989,-90
1607021065.4008,-9
1607021065.4030,59
1607021065.4048,23
1607021065.4068,33
1607021065.4088,64
1607021065.4108,64
1607021065.4128,73
1607021065.4149,90
1607021065.4168,90
1607021065.4188,104
1607021065.4208,142
1607021065.4228,173
1607021065.8194,178
1607021065.8204,182
1607021065.8228,209
1607021065.8255,240
1607021065.8276,251
1607021065.8297,266
1607021065.8315,294
1607021065.8335,330
1607021065.8354,349
1607021065.8374,342
1607021065.8394,346
1607021065.8414,349
1607021065.8435,318
1607021065.8454,292
1607021065.8474,256
1607021065.8494,168
1607021065.8514,66
1607021065.8534,-19
1607021065.8554,-85
1607021065.8574,-116
1607021065.8595,-125
1607021065.8615,-133
1607021065.8634,-130
1607021065.8654,-125
1607021065.8674,-121
1607021065.8694,-121
1607021065.8714,-123
1607021065.8734,-104
1607021065.8755,-73
1607021065.8775,-71
1607021065.8794,-80
1607021065.8814,-66
1607021065.8833,-61
1607021065.8853,-68
1607021065.8873,-66
1607021065.8893,-61
1607021065.8914,-57
1607021065.8934,-38
1607021065.8954,-28
1607021065.8973,-40
1607021065.8995,-40
1607021065.9014,-30
1607021065.9034,-30
1607021065.9053,-26
1607021065.9074,-11
1607021065.9094,-19
1607021065.9114,-28
1607021065.9135,-21
1607021065.9154,-9
1607021065.9174,-14
1607021065.9194,-19
1607021065.9200,-9
1607021065.9214,2
1607021065.9234,0
1607021065.9254,2
1607021065.9274,30
1607021065.9294,64
1607021065.9313,76
1607021065.9334,73
1607021065.9353,59
1607021065.9373,33
1607021065.9394,21
1607021065.9414,26
1607021065.9434,19
1607021065.9454,2
1607021065.9473,16
1607021065.9494,42
1607021065.9500,38
1607021065.9514,26
1607021065.9534,26
1607021065.9554,-19
1607021065.9573,-104
1607021065.9595,-111
1607021066.3593,128
1607021066.3605,715
1607021066.3630,1411
1607021066.3656,1295
1607021066.3676,68
1607021066.3696,-708
1607021066.3717,-256
1607021066.3725,123
1607021066.3735,-33
1607021066.3755,-54
1607021066.3775,54
1607021066.3795,30
1607021066.3815,11
1607021066.3835,59
1607021066.3855,76
1607021066.3876,76
1607021066.3895,97
1607021066.3915,109
1607021066.3936,123
1607021066.3955,142
1607021066.3974,149
1607021066.3995,159
1607021066.4015,182
1607021066.4021,197
1607021066.4036,209
1607021066.4055,232
1607021066.4075,268
1607021066.4095,292
1607021066.4116,297
1607021066.4135,318
1607021066.4155,349
1607021066.4174,361
1607021066.4196,351
1607021066.4215,339
1607021066.4235,320
1607021066.4255,273
1607021066.4274,199
1607021066.4294,121
1607021066.4301,47
1607021066.4314,-26
1607021066.4335,-85
1607021066.4354,-118
1607021066.4375,-133
1607021066.4394,-133
1607021066.4414,-130
1607021066.4434,-128
1607021066.4454,-123
1607021066.4475,-109
1607021066.4495,-95
1607021066.4514,-85
1607021066.4535,-78
1607021066.4555,-73
1607021066.4575,-71
1607021066.4594,-68
1607021066.4601,-59
1607021066.4615,-47
1607021066.4634,-47
1607021066.4654,-49
1607021066.4675,-47
1607021066.4695,-47
1607021066.4715,-38
1607021066.4735,-26
1607021066.4755,-26
1607021066.4774,-28
1607021066.4795,-21
1607021066.4814,-19
1607021066.4834,-21
1607021066.4855,-23
1607021066.4875,-21
1607021066.4897,-9
1607021066.4901,-4
1607021066.4915,-9
1607021066.4935,-4
1607021066.9288,0
1607021066.9297,-4
1607021066.9308,-9
1607021066.9328,-2
1607021066.9349,9
1607021066.9368,11
1607021066.9388,21
1607021066.9409,52
1607021066.9428,78
1607021066.9447,66
1607021066.9467,49
1607021066.9475,40
1607021066.9489,21
1607021066.9508,7
1607021066.9528,7
1607021066.9547,9
1607021066.9567,9
1607021066.9587,9
1607021066.9607,11
1607021066.9628,14
1607021066.9648,16
1607021066.9667,-23
1607021066.9688,-111
1607021066.9707,-147
1607021066.9728,35
1607021066.9747,560
1607021066.9767,1302
1607021066.9774,1428
1607021066.9787,327
1607021066.9808,-681
1607021066.9828,-384
1607021066.9847,114
1607021066.9867,0
1607021066.9887,-76
1607021066.9907,47
1607021066.9927,49
1607021066.9947,14
1607021066.9967,57
1607021066.9988,78
1607021067.0007,73
1607021067.0027,92
1607021067.0047,111
1607021067.0067,118
1607021067.0074,135
1607021067.0087,152
1607021067.0107,163
1607021067.0127,180
1607021067.0150,199
1607021067.0167,220
1607021067.0187,244
1607021067.0207,259
1607021067.0227,280
1607021067.0247,318
1607021067.0267,344
1607021067.0287,346
1607021067.0308,351
1607021067.0327,356
1607021067.0347,349
1607021067.0367,327
1607021067.0374,292
1607021067.0387,232
1607021067.0407,147
1607021067.0427,59
1607021067.0447,-14
1607021067.0467,-71
1607021067.0488,-109
1607021067.0508,-130
1607021067.0528,-135
1607021067.0548,-133
1607021067.0568,-133
1607021067.0588,-125
1607021067.0608,-114
1607021067.0628,-109
1607021067.4695,-99
1607021067.4704,-87
1607021067.4721,-76
1607021067.4745,-68
1607021067.4766,-66
1607021067.4786,-64
1607021067.4805,-64
1607021067.4825,-71
1607021067.4845,-76
1607021067.4865,-78
1607021067.4886,-73
1607021067.4905,-66
1607021067.4925,-59
1607021067.4945,-57
1607021067.4965,-54
1607021067.4985,-52
1607021067.5004,-52
1607021067.5024,-52
1607021067.5031,-47
1607021067.5044,-38
1607021067.5064,-33
1607021067.5085,-35
1607021067.5105,-33
1607021067.5125,-28
1607021067.5144,-23
1607021067.5166,-21
1607021067.5185,-21
1607021067.5204,-16
1607021067.5224,-11
1607021067.5245,-11
1607021067.5265,-7
1607021067.5284,-2
1607021067.5304,0
1607021067.5324,0
1607021067.5331,2
1607021067.5344,4
1607021067.5365,7
1607021067.5385,7
1607021067.5404,7
1607021067.5425,2
1607021067.5444,-2
1607021067.5464,7
1607021067.5485,16
1607021067.5504,19
1607021067.5524,26
1607021067.5544,57
1607021067.5564,83
1607021067.5585,85
1607021067.5605,73
1607021067.5625,59
1607021067.5644,42
1607021067.5664,30
1607021067.5684,26
1607021067.5704,28
1607021067.5724,26
1607021067.5745,26
1607021067.5765,30
1607021067.5784,35
1607021067.5804,40
1607021067.5824,26
1607021067.5844,-30
1607021067.5864,-111
1607021067.5884,-76
1607021067.5905,230
1607021067.5925,860
1607021067.5944,1428
1607021067.5964,1017
1607021067.5984,-223
1607021067.6004,-653
1607021067.6024,-97
1607021067.6044,114
1607021067.6064,-54
1607021067.6085,-9
1607021068.0393,66
1607021068.0402,19
1607021068.0427,28
1607021068.0456,78
1607021068.0474,71
1607021068.0493,66
1607021068.0514,90
1607021068.0533,106
1607021068.0553,116
1607021068.0572,125
1607021068.0593,144
1607021068.0612,161
1607021068.0633,166
1607021068.0653,182
1607021068.0672,213
1607021068.0692,237
1607021068.0714,249
1607021068.0732,275
1607021068.0752,299
1607021068.0772,313
1607021068.0792,330
1607021068.0812,337
1607021068.0832,332
1607021068.0852,327
1607021068.0873,318
1607021068.0892,285
1607021068.0912,225
1607021068.0932,142
1607021068.0952,49
1607021068.0972,-23
1607021068.0992,-66
1607021068.1012,-97
1607021068.1033,-123
1607021068.1052,-135
1607021068.1072,-137
1607021068.1092,-137
1607021068.1112,-130
1607021068.1132,-118
1607021068.1152,-111
1607021068.1172,-102
1607021068.1193,-95
1607021068.1212,-85
1607021068.1232,-78
1607021068.1252,-80
1607021068.1272,-78
1607021068.1292,-61
1607021068.1312,-54
1607021068.1332,-64
1607021068.1353,-61
1607021068.1372,-52
1607021068.1392,-45
1607021068.1412,-38
1607021068.1432,-33
1607021068.1452,-35
1607021068.1474,-35
1607021068.1492,-38
1607021068.1513,-35
1607021068.1533,-28
1607021068.1553,-30
1607021068.1572,-30
1607021068.1592,-23
1607021068.1612,-26
1607021068.1632,-30
1607021068.1652,-30
1607021068.1672,-23
1607021068.1693,-9
1607021068.1712,-4
1607021068.1732,-11
1607021068.1752,-14
1607021068.1772,-7
1607021068.1792,-9
1607021068.1812,-7
1607021068.1832,2
1607021068.6694,4
1607021068.6706,0
1607021068.6731,2
1607021068.6757,9
1607021068.6777,9
1607021068.6797,2
1607021068.6818,0
1607021068.6837,7
1607021068.6857,11
1607021068.6877,7
1607021068.6896,9
1607021068.6917,19
1607021068.6937,23
1607021068.6957,21
1607021068.6977,19
1607021068.6997,19
1607021068.7017,21
1607021068.7036,26
1607021068.7057,23
1607021068.7077,21
1607021068.7096,19
1607021068.7116,19
1607021068.7137,28
1607021068.7157,47
1607021068.7176,73
1607021068.7196,97
1607021068.7216,95
1607021068.7236,66
1607021068.7256,45
1607021068.7276,33
1607021068.7297,26
1607021068.7316,33
1607021068.7338,40
1607021068.7357,38
1607021068.7375,26
1607021068.7396,28
1607021068.7416,45
1607021068.7436,45
1607021068.7457,-2
1607021068.7477,-76
1607021068.7496,-78
1607021068.7516,142
1607021068.7536,672
1607021068.7556,1302
1607021068.7576,1247
1607021068.7596,92
1607021068.7617,-796
1607021068.7636,-401
1607021068.7656,99
1607021068.7675,9
1607021068.7695,-35
1607021068.7716,68
1607021068.7735,57
1607021068.7755,33
1607021068.7776,73
1607021068.7796,90
1607021068.7817,87
1607021068.7836,104
1607021068.7855,121
1607021068.7875,125
1607021068.7896,133
1607021068.7916,152
1607021068.7935,171
1607021068.7956,182
1607021068.7976,199
1607021068.7996,225
1607021068.8016,244
1607021068.8036,261
1607021068.8056,285
1607021068.8076,304
1607021068.8095,325
1607021068.8116,346
1607021068.8137,356
1607021069.1793,358
1607021069.1803,363
1607021069.1827,351
1607021069.1854,316
1607021069.1873,273
1607021069.1893,211
1607021069.1915,125
1607021069.1934,38
1607021069.1953,-35
1607021069.1973,-85
1607021069.1995,-118
1607021069.2013,-135
1607021069.2033,-142
1607021069.2053,-142
1607021069.2074,-142
1607021069.2094,-140
1607021069.2113,-128
1607021069.2133,-114
1607021069.2153,-111
1607021069.2173,-104
1607021069.2193,-87
1607021069.2213,-80
1607021069.2234,-83
1607021069.2254,-73
1607021069.2273,-59
1607021069.2293,-59
1607021069.2314,-64
1607021069.2333,-59
1607021069.2352,-52
1607021069.2372,-52
1607021069.2393,-47
1607021069.2413,-42
1607021069.2433,-42
1607021069.2452,-40
1607021069.2472,-33
1607021069.2492,-33
1607021069.2513,-40
1607021069.2532,-38
1607021069.2552,-26
1607021069.2573,-19
1607021069.2593,-21
1607021069.2612,-16
1607021069.2633,-11
1607021069.2652,-21
1607021069.2672,-28
1607021069.2692,-16
1607021069.2712,-14
1607021069.2732,-19
1607021069.2753,-11
1607021069.2772,-7
1607021069.2787,-11
1607021069.2802,-7
1607021069.2822,-4
1607021069.2842,-11
1607021069.2863,-11
1607021069.2882,2
1607021069.2903,7
1607021069.2924,0
1607021069.2942,-4
1607021069.2962,-2
1607021069.2982,2
1607021069.3004,2
1607021069.3023,9
1607021069.3043,35
1607021069.3062,59
1607021069.3083,68
1607021069.3102,66
1607021069.3123,54
1607021069.3142,38
1607021069.3162,16
1607021069.3182,9
1607021069.3202,14
1607021069.3224,11
1607021069.7774,11
1607021069.7783,14
1607021069.7808,19
1607021069.7834,21
1607021069.7855,16
1607021069.7875,-19
1607021069.7895,-92
1607021069.7914,-116
1607021069.7934,99
1607021069.7954,655
1607021069.7974,1316
1607021069.7994,1278
1607021069.8014,121
1607021069.8035,-817
1607021069.8053,-470
1607021069.8074,47
1607021069.8095,-7
1607021069.8115,-47
1607021069.8134,54
1607021069.8153,47
1607021069.8175,26
1607021069.8194,61
1607021069.8214,76
1607021069.8234,83
1607021069.8254,106
1607021069.8273,114
1607021069.8294,118
1607021069.8313,142
1607021069.8333,161
1607021069.8354,171
1607021069.8373,187
1607021069.8393,209
1607021069.8413,223
1607021069.8433,247
1607021069.8453,270
1607021069.8473,280
1607021069.8493,299
1607021069.8514,337
1607021069.8534,361
1607021069.8555,365
1607021069.8574,365
1607021069.8593,358
1607021069.8613,337
1607021069.8633,301
1607021069.8653,249
1607021069.8674,173
1607021069.8694,80
1607021069.8713,0
1607021069.8733,-68
1607021069.8753,-118
1607021069.8773,-144
1607021069.8793,-156
1607021069.8813,-156
1607021069.8833,-152
1607021069.8854,-149
1607021069.8873,-140
1607021069.8893,-125
1607021069.8913,-116
1607021069.8933,-106
1607021069.8954,-95
1607021069.8974,-90
1607021069.8993,-85
1607021069.9014,-76
1607021069.9033,-71
1607021069.9053,-66
1607021069.9073,-59
1607021069.9093,-54
1607021069.9113,-54
1607021069.9133,-54
1607021069.9153,-45
1607021069.9174,-38
1607021069.9194,-40
1607021069.9213,-45
1607021070.2895,-45
1607021070.2907,-38
1607021070.2932,-30
1607021070.2958,-30
1607021070.2979,-33
1607021070.2998,-30
1607021070.3019,-23
1607021070.3038,-16
1607021070.3058,-21
1607021070.3079,-26
1607021070.3098,-23
1607021070.3119,-21
1607021070.3138,-26
1607021070.3158,-23
1607021070.3178,-19
1607021070.3198,-16
1607021070.3219,-21
1607021070.3241,-19
1607021070.3258,-11
1607021070.3278,-7
1607021070.3298,-9
1607021070.3318,-11
1607021070.3337,-11
1607021070.3358,-11
1607021070.3378,-9
1607021070.3397,0
1607021070.3418,23
1607021070.3437,52
1607021070.3457,66
1607021070.3477,59
1607021070.3497,47
1607021070.3518,33
1607021070.3537,14
1607021070.3557,2
1607021070.3577,7
1607021070.3597,11
1607021070.3618,14
1607021070.3637,14
1607021070.3657,14
1607021070.3677,16
1607021070.3697,14
1607021070.3717,-33
1607021070.3737,-114
1607021070.3757,-123
1607021070.3777,99
1607021070.3797,660
1607021070.3817,1378
1607021070.3837,1366
1607021070.3857,156
1607021070.3877,-762
1607021070.3897,-363
1607021070.3917,95
1607021070.3937,-33
1607021070.3957,-68
1607021070.3977,47
1607021070.3997,28
1607021070.4018,14
1607021070.4037,66
1607021070.4057,76
1607021070.4077,64
1607021070.4097,87
1607021070.4117,104
1607021070.4137,106
1607021070.4157,123
1607021070.4177,149
1607021070.4197,163
1607021070.4217,180
1607021070.4237,204
1607021070.4258,213
1607021070.4277,235
1607021070.4296,268
1607021070.4317,289
1607021070.4337,316
1607021070.8888,346
1607021070.8899,361
1607021070.8925,363
1607021070.8950,370
1607021070.8970,373
1607021070.8990,346
1607021070.9010,299
1607021070.9030,237
1607021070.9050,159
1607021070.9070,64
1607021070.9090,-23
1607021070.9110,-85
1607021070.9130,-125
1607021070.9150,-154
1607021070.9172,-168
1607021070.9190,-173
1607021070.9210,-175
1607021070.9230,-168
1607021070.9250,-154
1607021070.9269,-142
1607021070.9289,-137
1607021070.9309,-130
1607021070.9329,-118
1607021070.9350,-109
1607021070.9370,-104
1607021070.9391,-95
1607021070.9410,-83
1607021070.9429,-80
1607021070.9449,-80
1607021070.9469,-71
1607021070.9489,-66
1607021070.9509,-73
1607021070.9529,-73
1607021070.9549,-59
1607021070.9569,-52
1607021070.9589,-57
1607021070.9609,-64
1607021070.9630,-61
1607021070.9649,-49
1607021070.9669,-47
1607021070.9689,-57
1607021070.9709,-59
1607021070.9729,-49
1607021070.9749,-42
1607021070.9769,-42
1607021070.9789,-45
1607021070.9811,-40
1607021070.9830,-35
1607021070.9849,-35
1607021070.9869,-35
1607021070.9889,-33
1607021070.9909,-30
1607021070.9929,-28
1607021070.9949,-26
1607021070.9969,-26
1607021070.9989,-21
1607021071.0009,-16
1607021071.0029,-21
1607021071.0049,-26
1607021071.0069,-26
1607021071.0089,-19
1607021071.0109,-7
1607021071.0129,14
1607021071.0149,45
1607021071.0169,59
1607021071.0189,52
1607021071.0209,40
1607021071.0229,30
1607021071.0249,14
1607021071.0269,4
1607021071.0289,0
1607021071.0309,2
1607021071.0329,9
1607021071.3987,16
1607021071.3994,9
1607021071.4017,9
1607021071.4044,14
1607021071.4064,-9
1607021071.4084,-83
1607021071.4105,-144
1607021071.4125,-42
1607021071.4144,368
1607021071.4164,1088
1607021071.4184,1523
1607021071.4204,748
1607021071.4224,-527
1607021071.4244,-613
1607021071.4264,-7
1607021071.4283,33
1607021071.4304,-114
1607021071.4324,-11
1607021071.4344,30
1607021071.4364,-14
1607021071.4384,19
1607021071.4404,61
1607021071.4424,49
1607021071.4444,54
1607021071.4466,80
1607021071.4485,97
1607021071.4504,106
1607021071.4524,116
1607021071.4544,133
1607021071.4563,156
1607021071.4584,175
1607021071.4603,197
1607021071.4624,220
1607021071.4643,247
1607021071.4664,268
1607021071.4684,282
1607021071.4704,311
1607021071.4724,337
1607021071.4743,342
1607021071.4763,351
1607021071.4783,363
1607021071.4804,351
1607021071.4824,313
1607021071.4844,266
1607021071.4863,192
1607021071.4883,85
1607021071.4903,0
1607021071.4924,-71
1607021071.4944,-135
1607021071.4964,-140
1607021071.4983,-111
1607021071.5003,-133
1607021071.5024,-149
1607021071.5043,-130
1607021071.5064,-135
1607021071.5084,-147
1607021071.5104,-125
1607021071.5124,-111
1607021071.5143,-114
1607021071.5164,-106
1607021071.5184,-95
1607021071.5203,-85
1607021071.5224,-78
1607021071.5243,-71
1607021071.5263,-73
1607021071.5283,-71
1607021071.5304,-59
1607021071.5324,-52
1607021071.5344,-52
1607021071.5363,-47
1607021071.5383,-45
1607021071.5404,-49
1607021071.5479,-42
1607021071.9986,-35
1607021071.9994,-42
1607021072.0022,-45
1607021072.0046,-30
1607021072.0065,-40
1607021072.0085,-57
1607021072.0106,-42
1607021072.0125,-28
1607021072.0145,-30
1607021072.0165,-33
1607021072.0185,-28
1607021072.0205,-30
1607021072.0225,-28
1607021072.0244,-26
1607021072.0265,-26
1607021072.0285,-23
1607021072.0305,-16
1607021072.0325,-16
1607021072.0345,-16
1607021072.0366,-9
1607021072.0385,-2
1607021072.0405,-4
1607021072.0425,-7
1607021072.0445,-4
1607021072.0465,0
1607021072.0484,-2
1607021072.0505,-4
1607021072.0524,2
1607021072.0544,21
1607021072.0564,52
1607021072.0585,73
1607021072.0604,68
1607021072.0625,57
1607021072.0644,47
1607021072.0664,35
1607021072.0684,21
1607021072.0704,19
1607021072.0725,21
1607021072.0744,19
1607021072.0764,19
1607021072.0784,19
1607021072.0804,21
1607021072.0824,28
1607021072.0844,19
1607021072.0864,-40
1607021072.0884,-118
1607021072.0904,-71
1607021072.0925,254
1607021072.0944,914
1607021072.0964,1492
1607021072.0984,1021
1607021072.1004,-249
1607021072.1024,-624
1607021072.1046,-57
1607021072.1065,106
1607021072.1084,-73
1607021072.1104,-14
1607021072.1125,66
1607021072.1144,21
1607021072.1164,33
1607021072.1184,78
1607021072.1204,78
1607021072.1225,78
1607021072.1244,99
1607021072.1264,111
1607021072.1284,121
1607021072.1304,140
1607021072.1324,154
1607021072.1344,168
1607021072.1364,187
1607021072.1384,204
1607021072.1404,223
1607021072.1425,247
1607021072.5393,273
1607021072.5402,297
1607021072.5427,318
1607021072.5438,342
1607021072.5453,361
1607021072.5473,365
1607021072.5493,370
1607021072.5513,365
1607021072.5532,339
1607021072.5552,285
1607021072.5572,213
1607021072.5592,133
1607021072.5612,45
1607021072.5632,-30
1607021072.5653,-83
1607021072.5672,-118
1607021072.5692,-137
1607021072.5712,-147
1607021072.5732,-149
1607021072.5739,-140
1607021072.5752,-133
1607021072.5772,-128
1607021072.5793,-118
1607021072.5812,-109
1607021072.5832,-97
1607021072.5852,-90
1607021072.5872,-80
1607021072.5892,-73
1607021072.5912,-68
1607021072.5932,-64
1607021072.5952,-52
1607021072.5973,-45
1607021072.5992,-47
1607021072.6012,-49
1607021072.6031,-40
1607021072.6038,-33
1607021072.6051,-33
1607021072.6072,-33
1607021072.6091,-28
1607021072.6112,-28
1607021072.6132,-30
1607021072.6152,-26
1607021072.6171,-23
1607021072.6191,-23
1607021072.6212,-28
1607021072.6232,-33
1607021072.6251,-23
1607021072.6271,0
1607021072.6292,-7
1607021072.6311,-33
1607021072.6331,-16
1607021072.6338,16
1607021072.6351,2
1607021072.6371,-19
1607021072.6391,-11
1607021072.6411,-7
1607021072.6432,-21
1607021072.6451,-21
1607021072.6472,-11
1607021072.6491,-9
1607021072.6511,-11
1607021072.6532,-11
1607021072.6552,-11
1607021072.6572,-14
1607021072.6592,-7
1607021072.6611,0
1607021072.6632,-2
1607021072.6638,-7
1607021072.6652,-9
1607021072.6671,-14
1607021072.6691,-9
1607021072.6712,0
1607021072.6731,11
1607021073.1089,35
1607021073.1096,57
1607021073.1121,57
1607021073.1146,42
1607021073.1166,26
1607021073.1186,16
1607021073.1207,2
1607021073.1212,-11
1607021073.1227,-9
1607021073.1248,-2
1607021073.1266,-7
1607021073.1286,-11
1607021073.1306,-2
1607021073.1326,7
1607021073.1346,-4
1607021073.1366,-59
1607021073.1386,-137
1607021073.1406,-99
1607021073.1426,180
1607021073.1446,755
1607021073.1466,1344
1607021073.1486,1059
1607021073.1506,-161
1607021073.1512,-712
1607021073.1526,-178
1607021073.1545,111
1607021073.1566,-64
1607021073.1585,-49
1607021073.1605,45
1607021073.1626,11
1607021073.1645,9
1607021073.1665,54
1607021073.1687,71
1607021073.1706,85
1607021073.1726,95
1607021073.1745,95
1607021073.1765,109
1607021073.1785,128
1607021073.1806,137
1607021073.1812,156
1607021073.1825,182
1607021073.1845,199
1607021073.1865,211
1607021073.1885,230
1607021073.1905,261
1607021073.1926,289
1607021073.1945,316
1607021073.1965,335
1607021073.1986,346
1607021073.2005,354
1607021073.2025,361
1607021073.2046,365
1607021073.2065,363
1607021073.2085,327
1607021073.2105,263
1607021073.2112,190
1607021073.2126,104
1607021073.2145,14
1607021073.2166,-54
1607021073.2185,-102
1607021073.2207,-137
1607021073.2226,-152
1607021073.2245,-147
1607021073.2265,-144
1607021073.2286,-144
1607021073.2305,-137
1607021073.2326,-133
1607021073.2345,-130
1607021073.2365,-111
1607021073.2385,-99
1607021073.2406,-104
1607021073.2412,-95
1607021073.2426,-80
1607021073.6492,-85
1607021073.6500,-85
1607021073.6525,-73
1607021073.6542,-76
1607021073.6561,-80
1607021073.6581,-71
1607021073.6601,-57
1607021073.6622,-59
1607021073.6641,-76
1607021073.6660,-80
1607021073.6680,-64
1607021073.6700,-57
1607021073.6721,-64
1607021073.6741,-64
1607021073.6747,-57
1607021073.6761,-57
1607021073.6781,-59
1607021073.6801,-47
1607021073.6821,-33
1607021073.6840,-38
1607021073.6860,-47
1607021073.6880,-47
1607021073.6900,-42
1607021073.6921,-45
1607021073.6940,-49
1607021073.6960,-40
1607021073.6981,-35
1607021073.7000,-38
1607021073.7021,-40
1607021073.7040,-40
1607021073.7046,-40
1607021073.7060,-38
1607021073.7080,-23
1607021073.7100,9
1607021073.7121,40
1607021073.7140,49
1607021073.7160,42
1607021073.7180,26
1607021073.7202,0
1607021073.7221,-19
1607021073.7240,-23
1607021073.7260,-16
1607021073.7280,-14
1607021073.7300,-11
1607021073.7320,-7
1607021073.7340,-4
1607021073.7346,-2
1607021073.7360,-2
1607021073.7380,-40
1607021073.7400,-114
1607021073.7421,-92
1607021073.7440,206
1607021073.7460,826
1607021073.7480,1432
1607021073.7500,1126
1607021073.7521,-220
1607021073.7540,-955
1607021073.7560,-411
1607021073.7580,45
1607021073.7600,-33
1607021073.7620,-30
1607021073.7640,64
1607021073.7647,45
1607021073.7661,26
1607021073.7680,66
1607021073.7700,85
1607021073.7721,85
1607021073.7740,102
1607021073.7760,116
1607021073.7780,121
1607021073.7800,135
1607021073.7821,154
1607021073.7840,175
1607021074.2188,197
1607021074.2197,206
1607021074.2221,220
1607021074.2248,251
1607021074.2268,280
1607021074.2288,292
1607021074.2308,304
1607021074.2328,339
1607021074.2348,375
1607021074.2368,380
1607021074.2388,365
1607021074.2408,356
1607021074.2428,344
1607021074.2448,306
1607021074.2468,235
1607021074.2488,149
1607021074.2510,52
1607021074.2528,-38
1607021074.2547,-102
1607021074.2567,-144
1607021074.2587,-171
1607021074.2607,-180
1607021074.2628,-180
1607021074.2647,-163
1607021074.2667,-154
1607021074.2687,-156
1607021074.2707,-142
1607021074.2727,-128
1607021074.2747,-125
1607021074.2767,-118
1607021074.2787,-102
1607021074.2807,-95
1607021074.2827,-95
1607021074.2847,-87
1607021074.2867,-78
1607021074.2887,-73
1607021074.2907,-76
1607021074.2927,-73
1607021074.2947,-64
1607021074.2967,-59
1607021074.2987,-59
1607021074.3007,-57
1607021074.3027,-54
1607021074.3047,-57
1607021074.3067,-52
1607021074.3087,-45
1607021074.3107,-40
1607021074.3127,-35
1607021074.3147,-40
1607021074.3167,-42
1607021074.3186,-30
1607021074.3207,-26
1607021074.3227,-38
1607021074.3247,-45
1607021074.3267,-35
1607021074.3287,-30
1607021074.3307,-35
1607021074.3327,-19
1607021074.3347,14
1607021074.3367,35
1607021074.3387,33
1607021074.3407,21
1607021074.3427,9
1607021074.3447,-4
1607021074.3467,-19
1607021074.3487,-26
1607021074.3507,-23
1607021074.3528,-19
1607021074.3547,-19
1607021074.3566,-14
1607021074.3586,-14
1607021074.3607,-14
1607021074.3627,-21
1607021074.7592,-71
1607021074.7601,-159
1607021074.7626,-121
1607021074.7651,218
1607021074.7671,893
1607021074.7691,1511
1607021074.7712,1097
1607021074.7731,-256
1607021074.7751,-781
1607021074.7771,-201
1607021074.7791,59
1607021074.7811,-106
1607021074.7832,-59
1607021074.7851,35
1607021074.7871,-4
1607021074.7891,-2
1607021074.7911,42
1607021074.7931,47
1607021074.7951,45
1607021074.7971,68
1607021074.7991,90
1607021074.8011,97
1607021074.8031,109
1607021074.8051,130
1607021074.8072,152
1607021074.8091,163
1607021074.8111,187
1607021074.8131,213
1607021074.8151,235
1607021074.8171,261
1607021074.8192,292
1607021074.8212,318
1607021074.8231,339
1607021074.8252,361
1607021074.8272,373
1607021074.8291,368
1607021074.8311,351
1607021074.8331,325
1607021074.8352,273
1607021074.8371,197
1607021074.8391,109
1607021074.8411,16
1607021074.8431,-61
1607021074.8451,-109
1607021074.8471,-147
1607021074.8492,-173
1607021074.8511,-166
1607021074.8531,-156
1607021074.8551,-156
1607021074.8571,-154
1607021074.8591,-147
1607021074.8611,-137
1607021074.8631,-123
1607021074.8651,-116
1607021074.8671,-114
1607021074.8691,-106
1607021074.8711,-95
1607021074.8731,-80
1607021074.8751,-71
1607021074.8771,-68
1607021074.8791,-61
1607021074.8811,-54
1607021074.8831,-52
1607021074.8851,-49
1607021074.8871,-47
1607021074.8891,-45
1607021074.8911,-42
1607021074.8931,-38
1607021074.8951,-30
1607021074.8971,-33
1607021074.8991,-35
1607021074.9011,-35
1607021074.9031,-38
1607021075.3592,-35
1607021075.3601,-26
1607021075.3626,-23
1607021075.3652,-35
1607021075.3672,-42
1607021075.3692,-38
1607021075.3713,-28
1607021075.3731,-28
1607021075.3751,-26
1607021075.3771,0
1607021075.3791,30
1607021075.3811,42
1607021075.3831,30
1607021075.3851,21
1607021075.3871,11
1607021075.3891,-4
1607021075.3911,-11
1607021075.3931,-11
1607021075.3951,-11
1607021075.3971,-16
1607021075.3991,-16
1607021075.4011,-14
1607021075.4031,-16
1607021075.4053,-16
1607021075.4071,-35
1607021075.4091,-109
1607021075.4111,-180
1607021075.4131,-68
1607021075.4151,370
1607021075.4171,1121
1607021075.4191,1530
1607021075.4211,691
1607021075.4231,-553
1607021075.4251,-563
1607021075.4271,23
1607021075.4291,11
1607021075.4311,-130
1607021075.4331,-14
1607021075.4352,16
1607021075.4371,-35
1607021075.4391,0
1607021075.4411,33
1607021075.4431,23
1607021075.4451,38
1607021075.4471,66
1607021075.4491,76
1607021075.4511,90
1607021075.4531,102
1607021075.4552,118
1607021075.4571,144
1607021075.4591,161
1607021075.4610,173
1607021075.4631,199
1607021075.4651,230
1607021075.4671,251
1607021075.4691,273
1607021075.4711,304
1607021075.4731,325
1607021075.4751,337
1607021075.4771,349
1607021075.4791,354
1607021075.4811,335
1607021075.4831,297
1607021075.4851,240
1607021075.4871,159
1607021075.4891,66
1607021075.4911,-21
1607021075.4931,-87
1607021075.4951,-128
1607021075.4971,-156
1607021075.4991,-171
1607021075.5011,-166
1607021075.5031,-156
1607021075.9286,-156
1607021075.9294,-154
1607021075.9306,-142
1607021075.9326,-133
1607021075.9346,-128
1607021075.9366,-116
1607021075.9386,-104
1607021075.9406,-102
1607021075.9426,-97
1607021075.9445,-92
1607021075.9466,-85
1607021075.9486,-76
1607021075.9506,-66
1607021075.9525,-66
1607021075.9546,-64
1607021075.9567,-54
1607021075.9586,-49
1607021075.9605,-52
1607021075.9626,-49
1607021075.9645,-45
1607021075.9665,-45
1607021075.9685,-45
1607021075.9705,-40
1607021075.9726,-30
1607021075.9746,-30
1607021075.9765,-33
1607021075.9785,-35
1607021075.9805,-28
1607021075.9825,-21
1607021075.9845,-21
1607021075.9865,-21
1607021075.9885,-19
1607021075.9905,-28
1607021075.9926,-30
1607021075.9945,-19
1607021075.9965,-9
1607021075.9985,-16
1607021076.0005,-19
1607021076.0025,-19
1607021076.0045,-21
1607021076.0065,-19
1607021076.0085,-16
1607021076.0105,-11
1607021076.0125,4
1607021076.0146,33
1607021076.0165,59
1607021076.0185,64
1607021076.0205,42
1607021076.0226,26
1607021076.0245,14
1607021076.0265,2
1607021076.0286,-2
1607021076.0307,2
1607021076.0326,2
1607021076.0345,2
1607021076.0365,4
1607021076.0385,9
1607021076.0405,14
1607021076.0426,-2
1607021076.0445,-68
1607021076.0465,-135
1607021076.0485,-83
1607021076.0505,228
1607021076.0526,860
1607021076.0545,1404
1607021076.0565,929
1607021076.0585,-297
1607021076.0605,-632
1607021076.0626,-73
1607021076.0645,80
1607021076.0665,-92
1607021076.0685,-30
1607021076.0706,45
1607021076.4690,0
1607021076.4697,14
1607021076.4721,59
1607021076.4748,57
1607021076.4768,57
1607021076.4787,78
1607021076.4809,92
1607021076.4828,99
1607021076.4848,118
1607021076.4868,133
1607021076.4888,133
1607021076.4908,144
1607021076.4928,171
1607021076.4947,190
1607021076.4967,209
1607021076.4988,240
1607021076.5007,263
1607021076.5027,282
1607021076.5047,304
1607021076.5067,323
1607021076.5087,332
1607021076.5107,335
1607021076.5127,332
1607021076.5147,311
1607021076.5167,259
1607021076.5187,185
1607021076.5207,104
1607021076.5228,19
1607021076.5247,-54
1607021076.5267,-104
1607021076.5289,-137
1607021076.5308,-159
1607021076.5327,-163
1607021076.5347,-161
1607021076.5367,-161
1607021076.5387,-149
1607021076.5407,-135
1607021076.5428,-130
1607021076.5447,-128
1607021076.5467,-118
1607021076.5487,-104
1607021076.5507,-90
1607021076.5528,-87
1607021076.5547,-87
1607021076.5567,-83
1607021076.5587,-71
1607021076.5607,-61
1607021076.5628,-59
1607021076.5647,-66
1607021076.5667,-68
1607021076.5687,-59
1607021076.5707,-49
1607021076.5728,-54
1607021076.5747,-52
1607021076.5768,-42
1607021076.5787,-49
1607021076.5807,-59
1607021076.5828,-49
1607021076.5847,-40
1607021076.5867,-42
1607021076.5887,-45
1607021076.5907,-42
1607021076.5928,-40
1607021076.5947,-35
1607021076.5967,-40
1607021076.5988,-40
1607021076.6007,-33
1607021076.6027,-23
1607021076.6047,-26
1607021076.6067,-33
1607021076.6087,-23
1607021076.6107,-14
1607021076.6127,-19
1607021077.0388,-23
1607021077.0397,-21
1607021077.0422,-21
1607021077.0448,-21
1607021077.0468,-14
1607021077.0488,-9
1607021077.0508,-16
1607021077.0527,-23
1607021077.0549,-23
1607021077.0568,-23
1607021077.0587,-28
1607021077.0607,-26
1607021077.0627,-11
1607021077.0647,-11
1607021077.0667,-21
1607021077.0687,-21
1607021077.0707,-16
1607021077.0727,-21
1607021077.0747,-26
1607021077.0767,-26
1607021077.0787,-26
1607021077.0807,-19
1607021077.0827,-4
1607021077.0847,-4
1607021077.0867,-9
1607021077.0887,-11
1607021077.0907,-7
1607021077.0927,0
1607021077.0947,-4
1607021077.0967,-11
1607021077.0987,-7
1607021077.1007,0
1607021077.1027,-4
1607021077.1047,-11
1607021077.1067,-7
1607021077.1087,-2
1607021077.1107,-9
1607021077.1127,-7
1607021077.1147,0
1607021077.1167,-4
1607021077.1187,-7
1607021077.1207,-4
1607021077.1227,-11
1607021077.1248,-19
1607021077.1267,-7
1607021077.1287,19
1607021077.1307,45
1607021077.1327,57
1607021077.1347,59
1607021077.1367,47
1607021077.1387,26
1607021077.1407,9
1607021077.1427,4
1607021077.1447,2
1607021077.1467,-7
1607021077.1487,-4
1607021077.1507,4
1607021077.1527,11
1607021077.1546,19
1607021077.1568,16
1607021077.1587,-2
1607021077.1607,-61
1607021077.1627,-133
1607021077.1646,-90
1607021077.1669,209
1607021077.1687,845
1607021077.1707,1466
1607021077.1727,1083
1607021077.1746,-261
1607021077.1767,-805
1607021077.1787,-213
1607021077.1807,85
1607021077.1827,-73
1607021077.5793,-40
1607021077.5802,54
1607021077.5827,16
1607021077.5853,11
1607021077.5873,57
1607021077.5892,64
1607021077.5913,61
1607021077.5932,80
1607021077.5951,92
1607021077.5971,90
1607021077.5991,102
1607021077.6012,123
1607021077.6031,137
1607021077.6051,156
1607021077.6071,182
1607021077.6091,201
1607021077.6111,218
1607021077.6132,244
1607021077.6151,266
1607021077.6171,285
1607021077.6192,313
1607021077.6211,337
1607021077.6231,349
1607021077.6251,356
1607021077.6272,361
1607021077.6291,346
1607021077.6311,318
1607021077.6331,275
1607021077.6351,204
1607021077.6371,111
1607021077.6391,19
1607021077.6411,-54
1607021077.6432,-106
1607021077.6451,-137
1607021077.6471,-161
1607021077.6491,-173
1607021077.6511,-168
1607021077.6533,-161
1607021077.6552,-156
1607021077.6572,-149
1607021077.6592,-142
1607021077.6611,-137
1607021077.6631,-128
1607021077.6651,-121
1607021077.6671,-109
1607021077.6692,-97
1607021077.6711,-92
1607021077.6732,-90
1607021077.6751,-83
1607021077.6772,-78
1607021077.6792,-80
1607021077.6812,-80
1607021077.6831,-73
1607021077.6851,-68
1607021077.6871,-66
1607021077.6891,-68
1607021077.6911,-64
1607021077.6932,-59
1607021077.6951,-59
1607021077.6971,-57
1607021077.6992,-54
1607021077.7011,-52
1607021077.7031,-45
1607021077.7051,-47
1607021077.7071,-52
1607021077.7091,-52
1607021077.7111,-45
1607021077.7132,-45
1607021077.7151,-47
1607021077.7171,-45
1607021077.7192,-40
1607021077.7211,-38
1607021077.7231,-38
1607021078.1491,-33
1607021078.1498,-30
1607021078.1524,-33
1607021078.1549,-35
1607021078.1569,-40
1607021078.1589,-45
1607021078.1609,-40
1607021078.1630,-33
1607021078.1649,-30
1607021078.1668,-30
1607021078.1689,-28
1607021078.1708,-28
1607021078.1728,-23
1607021078.1749,-21
1607021078.1768,-21
1607021078.1790,-19
1607021078.1809,-14
1607021078.1828,-11
1607021078.1848,-11
1607021078.1869,-14
1607021078.1888,-9
1607021078.1908,-4
1607021078.1929,0
1607021078.1948,2
1607021078.1968,4
1607021078.1989,4
1607021078.2009,7
1607021078.2028,7
1607021078.2048,0
1607021078.2068,-4
1607021078.2088,-2
1607021078.2108,11
1607021078.2129,42
1607021078.2148,66
1607021078.2168,73
1607021078.2188,68
1607021078.2208,59
1607021078.2229,42
1607021078.2248,26
1607021078.2268,21
1607021078.2288,21
1607021078.2308,19
1607021078.2328,16
1607021078.2348,19
1607021078.2369,19
1607021078.2388,21
1607021078.2408,28
1607021078.2429,14
1607021078.2448,-57
1607021078.2468,-135
1607021078.2489,-68
1607021078.2508,294
1607021078.2528,988
1607021078.2548,1530
1607021078.2568,960
1607021078.2588,-330
1607021078.2609,-624
1607021078.2629,-45
1607021078.2648,80
1607021078.2668,-92
1607021078.2688,-21
1607021078.2708,49
1607021078.2729,4
1607021078.2748,21
1607021078.2768,61
1607021078.2788,57
1607021078.2810,61
1607021078.2829,83
1607021078.2848,90
1607021078.2869,92
1607021078.2888,106
1607021078.2908,125
1607021078.2928,140
1607021078.7193,156
1607021078.7202,178
1607021078.7227,199
1607021078.7253,218
1607021078.7273,242
1607021078.7293,266
1607021078.7314,287
1607021078.7332,306
1607021078.7352,323
1607021078.7372,332
1607021078.7392,339
1607021078.7412,339
1607021078.7432,323
1607021078.7452,280
1607021078.7472,216
1607021078.7492,135
1607021078.7512,45
1607021078.7532,-38
1607021078.7552,-106
1607021078.7572,-154
1607021078.7593,-180
1607021078.7612,-194
1607021078.7632,-197
1607021078.7652,-197
1607021078.7672,-190
1607021078.7692,-180
1607021078.7712,-171
1607021078.7719,-163
1607021078.7732,-149
1607021078.7752,-137
1607021078.7772,-130
1607021078.7792,-125
1607021078.7812,-116
1607021078.7832,-109
1607021078.7852,-99
1607021078.7872,-90
1607021078.7892,-83
1607021078.7912,-76
1607021078.7932,-76
1607021078.7952,-78
1607021078.7972,-71
1607021078.7992,-66
1607021078.8012,-66
1607021078.8019,-64
1607021078.8033,-61
1607021078.8052,-59
1607021078.8071,-59
1607021078.8092,-57
1607021078.8112,-54
1607021078.8132,-49
1607021078.8152,-42
1607021078.8172,-45
1607021078.8192,-52
1607021078.8212,-45
1607021078.8232,-38
1607021078.8252,-38
1607021078.8272,-40
1607021078.8292,-42
1607021078.8312,-35
1607021078.8319,-26
1607021078.8332,-21
1607021078.8352,-30
1607021078.8372,-35
1607021078.8392,-30
1607021078.8412,-23
1607021078.8432,-21
1607021078.8452,-19
1607021078.8471,-9
1607021078.8492,-9
1607021078.8512,-11
1607021078.8532,-9
1607021078.8552,-4
1607021078.8572,-4
1607021079.2890,-7
1607021079.2897,-4
1607021079.2922,2
1607021079.2948,2
1607021079.2968,0
1607021079.2990,4
1607021079.3008,9
1607021079.3027,2
1607021079.3047,-7
1607021079.3067,-4
1607021079.3087,-2
1607021079.3107,-9
1607021079.3127,-9
1607021079.3147,0
1607021079.3167,19
1607021079.3187,45
1607021079.3194,66
1607021079.3217,71
1607021079.3237,57
1607021079.3257,40
1607021079.3277,26
1607021079.3297,9
1607021079.3319,4
1607021079.3337,7
1607021079.3357,4
1607021079.3377,4
1607021079.3397,11
1607021079.3417,19
1607021079.3437,21
1607021079.3457,14
1607021079.3477,-21
1607021079.3497,-92
1607021079.3504,-111
1607021079.3517,80
1607021079.3537,579
1607021079.3557,1238
1607021079.3577,1259
1607021079.3597,194
1607021079.3618,-648
1607021079.3637,-308
1607021079.3657,104
1607021079.3677,-30
1607021079.3697,-83
1607021079.3717,30
1607021079.3737,21
1607021079.3757,-2
1607021079.3777,38
1607021079.3797,57
1607021079.3804,52
1607021079.3818,68
1607021079.3837,83
1607021079.3857,90
1607021079.3877,106
1607021079.3897,121
1607021079.3917,128
1607021079.3937,140
1607021079.3957,163
1607021079.3977,187
1607021079.3997,201
1607021079.4017,220
1607021079.4037,244
1607021079.4057,268
1607021079.4077,292
1607021079.4084,311
1607021079.4097,335
1607021079.4117,351
1607021079.4137,349
1607021079.4157,335
1607021079.4177,313
1607021079.4197,268
1607021079.4218,197
1607021079.4237,114
1607021079.4257,28
1607021079.8291,-47
1607021079.8301,-106
1607021079.8325,-142
1607021079.8352,-161
1607021079.8372,-171
1607021079.8378,-173
1607021079.8401,-166
1607021079.8422,-161
1607021079.8442,-154
1607021079.8461,-149
1607021079.8482,-144
1607021079.8501,-130
1607021079.8521,-118
1607021079.8541,-116
1607021079.8560,-111
1607021079.8581,-99
1607021079.8600,-90
1607021079.8621,-83
1607021079.8642,-78
1607021079.8661,-73
1607021079.8680,-66
1607021079.8687,-66
1607021079.8701,-66
1607021079.8721,-59
1607021079.8740,-54
1607021079.8760,-49
1607021079.8781,-45
1607021079.8801,-42
1607021079.8821,-47
1607021079.8841,-45
1607021079.8861,-42
1607021079.8881,-40
1607021079.8901,-38
1607021079.8921,-33
1607021079.8941,-35
1607021079.8960,-33
1607021079.8981,-28
1607021079.8987,-30
1607021079.9001,-30
1607021079.9021,-21
1607021079.9041,-14
1607021079.9060,-19
1607021079.9081,-19
1607021079.9100,-16
1607021079.9121,-16
1607021079.9141,-14
1607021079.9161,-9
1607021079.9180,-7
1607021079.9200,-11
1607021079.9221,-7
1607021079.9241,0
1607021079.9263,-4
1607021079.9281,-14
1607021079.9288,-9
1607021079.9302,-2
1607021079.9321,-7
1607021079.9340,-9
1607021079.9360,-2
1607021079.9380,-2
1607021079.9401,0
1607021079.9421,2
1607021079.9441,2
1607021079.9460,-2
1607021079.9481,-7
1607021079.9501,-9
1607021079.9521,2
1607021079.9541,28
1607021079.9561,61
1607021079.9581,76
1607021079.9587,59
1607021079.9601,42
1607021079.9621,30
1607021079.9640,14
1607021080.3988,11
1607021080.3997,11
1607021080.4022,2
1607021080.4048,-2
1607021080.4068,4
1607021080.4088,9
1607021080.4109,0
1607021080.4128,-7
1607021080.4148,-26
1607021080.4167,-95
1607021080.4175,-130
1607021080.4187,49
1607021080.4207,544
1607021080.4228,1202
1607021080.4247,1344
1607021080.4268,323
1607021080.4287,-781
1607021080.4307,-577
1607021080.4327,26
1607021080.4347,7
1607021080.4367,-80
1607021080.4387,40
1607021080.4407,54
1607021080.4427,11
1607021080.4447,45
1607021080.4467,71
1607021080.4487,68
1607021080.4507,85
1607021080.4527,104
1607021080.4548,114
1607021080.4569,130
1607021080.4587,147
1607021080.4607,161
1607021080.4627,173
1607021080.4647,194
1607021080.4667,218
1607021080.4687,240
1607021080.4707,259
1607021080.4727,280
1607021080.4747,306
1607021080.4767,330
1607021080.4787,351
1607021080.4807,370
1607021080.4827,387
1607021080.4847,394
1607021080.4867,384
1607021080.4887,358
1607021080.4907,311
1607021080.4927,242
1607021080.4947,156
1607021080.4967,59
1607021080.4987,-35
1607021080.5007,-97
1607021080.5027,-140
1607021080.5047,-171
1607021080.5067,-182
1607021080.5087,-178
1607021080.5107,-178
1607021080.5127,-173
1607021080.5147,-156
1607021080.5167,-147
1607021080.5187,-140
1607021080.5207,-125
1607021080.5227,-116
1607021080.5247,-114
1607021080.5267,-102
1607021080.5287,-90
1607021080.5307,-83
1607021080.5327,-80
1607021080.5347,-78
1607021080.5367,-71
1607021080.5387,-64
1607021080.5407,-61
1607021080.9391,-59
1607021080.9400,-57
1607021080.9425,-57
1607021080.9451,-47
1607021080.9471,-42
1607021080.9491,-47
1607021080.9511,-52
1607021080.9532,-49
1607021080.9551,-47
1607021080.9570,-45
1607021080.9590,-45
1607021080.9610,-42
1607021080.9630,-33
1607021080.9650,-38
1607021080.9670,-42
1607021080.9690,-30
1607021080.9710,-23
1607021080.9730,-26
1607021080.9750,-23
1607021080.9770,-19
1607021080.9790,-19
1607021080.9810,-11
1607021080.9830,-9
1607021080.9851,-19
1607021080.9870,-21
1607021080.9890,-9
1607021080.9910,-9
1607021080.9930,-16
1607021080.9950,-14
1607021080.9969,-9
1607021080.9990,-9
1607021081.0010,-7
1607021081.0031,19
1607021081.0050,57
1607021081.0069,66
1607021081.0090,49
1607021081.0110,35
1607021081.0130,23
1607021081.0151,0
1607021081.0170,-7
1607021081.0189,4
1607021081.0210,9
1607021081.0230,4
1607021081.0250,7
1607021081.0270,11
1607021081.0290,11
1607021081.0310,7
1607021081.0330,-21
1607021081.0350,-95
1607021081.0370,-125
1607021081.0390,59
1607021081.0410,567
1607021081.0430,1249
1607021081.0449,1371
1607021081.0470,320
1607021081.0490,-739
1607021081.0510,-506
1607021081.0530,49
1607021081.0551,-2
1607021081.0570,-87
1607021081.0590,26
1607021081.0610,38
1607021081.0630,-2
1607021081.0650,35
1607021081.0670,64
1607021081.0690,61
1607021081.0710,73
1607021081.0730,90
1607021081.0750,97
1607021081.0770,111
1607021081.0790,125
1607021081.0810,140
1607021081.0830,161
1607021081.5093,185
1607021081.5101,201
1607021081.5127,220
1607021081.5152,244
1607021081.5173,268
1607021081.5192,282
1607021081.5213,297
1607021081.5232,320
1607021081.5252,344
1607021081.5272,351
1607021081.5292,349
1607021081.5312,344
1607021081.5332,316
1607021081.5352,254
1607021081.5372,180
1607021081.5392,95
1607021081.5412,-2
1607021081.5431,-83
1607021081.5452,-137
1607021081.5471,-171
1607021081.5491,-192
1607021081.5511,-206
1607021081.5531,-204
1607021081.5551,-190
1607021081.5572,-182
1607021081.5591,-180
1607021081.5611,-166
1607021081.5632,-152
1607021081.5651,-149
1607021081.5671,-137
1607021081.5691,-121
1607021081.5711,-114
1607021081.5731,-116
1607021081.5752,-111
1607021081.5771,-99
1607021081.5791,-90
1607021081.5813,-85
1607021081.5832,-78
1607021081.5851,-73
1607021081.5871,-78
1607021081.5891,-78
1607021081.5911,-68
1607021081.5931,-66
1607021081.5951,-68
1607021081.5971,-61
1607021081.5991,-59
1607021081.6011,-61
1607021081.6031,-57
1607021081.6051,-49
1607021081.6071,-49
1607021081.6091,-52
1607021081.6111,-52
1607021081.6131,-42
1607021081.6151,-30
1607021081.6171,-33
1607021081.6191,-38
1607021081.6211,-28
1607021081.6231,-23
1607021081.6251,-28
1607021081.6271,-28
1607021081.6292,-23
1607021081.6311,-21
1607021081.6331,-21
1607021081.6351,-26
1607021081.6371,-30
1607021081.6391,-28
1607021081.6411,-4
1607021081.6431,38
1607021081.6451,64
1607021081.6471,54
1607021081.6491,35
1607021081.6511,23
1607021081.6533,7
1607021082.1089,-7
1607021082.1094,-9
1607021082.1118,-9
1607021082.1145,-9
1607021082.1165,-9
1607021082.1185,-9
1607021082.1205,-7
1607021082.1225,-7
1607021082.1245,-19
1607021082.1265,-76
1607021082.1285,-147
1607021082.1305,-97
1607021082.1325,213
1607021082.1345,836
1607021082.1366,1406
1607021082.1385,998
1607021082.1391,-266
1607021082.1405,-722
1607021082.1425,-156
1607021082.1444,73
1607021082.1465,-106
1607021082.1484,-64
1607021082.1505,28
1607021082.1525,-9
1607021082.1544,-2
1607021082.1565,49
1607021082.1585,47
1607021082.1605,42
1607021082.1625,68
1607021082.1645,87
1607021082.1665,90
1607021082.1685,102
1607021082.1691,116
1607021082.1705,128
1607021082.1725,147
1607021082.1745,173
1607021082.1764,194
1607021082.1785,216
1607021082.1805,242
1607021082.1825,261
1607021082.1844,278
1607021082.1864,304
1607021082.1884,325
1607021082.1905,337
1607021082.1925,342
1607021082.1945,337
1607021082.1964,316
1607021082.1985,278
1607021082.1991,225
1607021082.2004,147
1607021082.2025,54
1607021082.2045,-30
1607021082.2064,-97
1607021082.2085,-142
1607021082.2104,-163
1607021082.2125,-178
1607021082.2144,-185
1607021082.2165,-182
1607021082.2185,-175
1607021082.2204,-166
1607021082.2225,-154
1607021082.2245,-142
1607021082.2265,-137
1607021082.2285,-135
1607021082.2291,-133
1607021082.2306,-125
1607021082.2325,-116
1607021082.2344,-109
1607021082.2365,-109
1607021082.2384,-104
1607021082.2406,-92
1607021082.2425,-90
1607021082.2444,-87
1607021082.6493,-78
1607021082.6503,-76
1607021082.6527,-80
1607021082.6554,-78
1607021082.6574,-73
1607021082.6593,-76
1607021082.6614,-66
1607021082.6619,-54
1607021082.6633,-61
1607021082.6653,-68
1607021082.6673,-68
1607021082.6693,-71
1607021082.6713,-68
1607021082.6733,-64
1607021082.6753,-66
1607021082.6773,-61
1607021082.6793,-49
1607021082.6813,-45
1607021082.6832,-47
1607021082.6853,-49
1607021082.6872,-49
1607021082.6892,-49
1607021082.6912,-47
1607021082.6919,-47
1607021082.6932,-42
1607021082.6952,-21
1607021082.6972,16
1607021082.6992,38
1607021082.7012,33
1607021082.7033,19
1607021082.7054,11
1607021082.7072,-2
1607021082.7093,-21
1607021082.7112,-28
1607021082.7132,-28
1607021082.7152,-21
1607021082.7172,-11
1607021082.7192,-11
1607021082.7199,-16
1607021082.7213,-14
1607021082.7232,-16
1607021082.7252,-59
1607021082.7272,-133
1607021082.7294,-114
1607021082.7314,154
1607021082.7333,717
1607021082.7352,1292
1607021082.7372,1033
1607021082.7392,-144
1607021082.7412,-734
1607021082.7432,-232
1607021082.7452,90
1607021082.7472,-64
1607021082.7492,-59
1607021082.7499,38
1607021082.7512,7
1607021082.7532,0
1607021082.7552,47
1607021082.7573,54
1607021082.7592,54
1607021082.7613,73
1607021082.7632,90
1607021082.7652,99
1607021082.7672,111
1607021082.7693,123
1607021082.7712,135
1607021082.7732,149
1607021082.7753,168
1607021082.7773,192
1607021082.7793,213
1607021082.7799,240
1607021082.7812,266
1607021082.7832,287
1607021083.2193,299
1607021083.2203,316
1607021083.2227,337
1607021083.2253,342
1607021083.2273,332
1607021083.2293,323
1607021083.2314,294
1607021083.2333,232
1607021083.2353,152
1607021083.2373,61
1607021083.2380,-26
1607021083.2393,-87
1607021083.2413,-142
1607021083.2432,-182
1607021083.2452,-192
1607021083.2472,-185
1607021083.2492,-180
1607021083.2512,-168
1607021083.2532,-161
1607021083.2552,-159
1607021083.2572,-147
1607021083.2594,-133
1607021083.2613,-123
1607021083.2632,-121
1607021083.2652,-116
1607021083.2672,-104
1607021083.2679,-97
1607021083.2692,-99
1607021083.2712,-95
1607021083.2732,-78
1607021083.2752,-68
1607021083.2772,-71
1607021083.2792,-73
1607021083.2813,-78
1607021083.2832,-76
1607021083.2852,-64
1607021083.2872,-54
1607021083.2892,-57
1607021083.2912,-61
1607021083.2933,-59
1607021083.2952,-52
1607021083.2973,-45
1607021083.2980,-49
1607021083.2992,-54
1607021083.3012,-45
1607021083.3032,-47
1607021083.3052,-57
1607021083.3072,-49
1607021083.3092,-38
1607021083.3112,-42
1607021083.3133,-47
1607021083.3152,-45
1607021083.3172,-42
1607021083.3192,-47
1607021083.3212,-47
1607021083.3232,-35
1607021083.3252,-9
1607021083.3272,26
1607021083.3279,45
1607021083.3292,35
1607021083.3312,19
1607021083.3332,2
1607021083.3352,-11
1607021083.3372,-21
1607021083.3392,-23
1607021083.3413,-21
1607021083.3432,-14
1607021083.3452,-9
1607021083.3472,-16
1607021083.3493,-23
1607021083.3512,-19
1607021083.3532,-35
1607021083.3554,-102
1607021083.7592,-142
1607021083.7601,9
1607021083.7625,470
1607021083.7652,1133
1607021083.7672,1375
1607021083.7692,461
1607021083.7712,-760
1607021083.7731,-722
1607021083.7751,-59
1607021083.7771,14
1607021083.7791,-97
1607021083.7811,4
1607021083.7831,35
1607021083.7851,-7
1607021083.7871,30
1607021083.7891,61
1607021083.7911,49
1607021083.7917,66
1607021083.7930,95
1607021083.7950,104
1607021083.7970,109
1607021083.7991,128
1607021083.8010,154
1607021083.8030,166
1607021083.8050,178
1607021083.8071,201
1607021083.8092,225
1607021083.8112,247
1607021083.8131,273
1607021083.8150,294
1607021083.8171,318
1607021083.8191,337
1607021083.8210,354
1607021083.8217,370
1607021083.8230,373
1607021083.8250,351
1607021083.8270,323
1607021083.8290,287
1607021083.8310,218
1607021083.8330,116
1607021083.8350,16
1607021083.8370,-61
1607021083.8390,-123
1607021083.8410,-163
1607021083.8431,-182
1607021083.8450,-190
1607021083.8471,-190
1607021083.8491,-185
1607021083.8510,-173
1607021083.8517,-159
1607021083.8532,-144
1607021083.8551,-140
1607021083.8571,-133
1607021083.8590,-121
1607021083.8610,-111
1607021083.8630,-104
1607021083.8650,-97
1607021083.8670,-90
1607021083.8690,-80
1607021083.8711,-80
1607021083.8730,-83
1607021083.8750,-78
1607021083.8771,-76
1607021083.8790,-73
1607021083.8811,-68
1607021083.8817,-66
1607021083.8830,-66
1607021083.8850,-66
1607021083.8870,-66
1607021083.8890,-64
1607021083.8911,-52
1607021083.8930,-47
1607021083.8950,-54
1607021084.3288,-54
1607021084.3297,-45
1607021084.3321,-42
1607021084.3349,-42
1607021084.3368,-40
1607021084.3388,-42
1607021084.3395,-49
1607021084.3409,-54
1607021084.3427,-49
1607021084.3447,-45
1607021084.3467,-26
1607021084.3487,11
1607021084.3507,35
1607021084.3528,26
1607021084.3547,11
1607021084.3567,4
1607021084.3587,-11
1607021084.3607,-30
1607021084.3627,-30
1607021084.3647,-23
1607021084.3667,-23
1607021084.3687,-23
1607021084.3693,-28
1607021084.3707,-28
1607021084.3727,-16
1607021084.3746,-28
1607021084.3767,-90
1607021084.3787,-168
1607021084.3808,-123
1607021084.3827,209
1607021084.3846,864
1607021084.3867,1437
1607021084.3887,1000
1607021084.3907,-316
1607021084.3927,-810
1607021084.3946,-225
1607021084.3967,54
1607021084.3987,-97
1607021084.3994,-64
1607021084.4008,26
1607021084.4027,-7
1607021084.4047,-7
1607021084.4066,38
1607021084.4087,40
1607021084.4107,42
1607021084.4127,66
1607021084.4146,78
1607021084.4166,85
1607021084.4187,102
1607021084.4207,118
1607021084.4227,133
1607021084.4247,149
1607021084.4267,171
1607021084.4286,190
1607021084.4293,209
1607021084.4308,230
1607021084.4326,259
1607021084.4347,282
1607021084.4366,301
1607021084.4387,316
1607021084.4407,325
1607021084.4428,330
1607021084.4446,325
1607021084.4467,301
1607021084.4487,259
1607021084.4507,194
1607021084.4527,111
1607021084.4546,21
1607021084.4567,-49
1607021084.4573,-106
1607021084.4587,-152
1607021084.4606,-171
1607021084.4627,-175
1607021084.8693,-180
1607021084.8702,-178
1607021084.8727,-171
1607021084.8743,-166
1607021084.8762,-154
1607021084.8782,-135
1607021084.8804,-130
1607021084.8823,-133
1607021084.8842,-123
1607021084.8862,-109
1607021084.8882,-102
1607021084.8890,-102
1607021084.8902,-99
1607021084.8923,-90
1607021084.8942,-83
1607021084.8962,-83
1607021084.8982,-78
1607021084.9002,-73
1607021084.9022,-76
1607021084.9042,-76
1607021084.9062,-71
1607021084.9082,-68
1607021084.9102,-66
1607021084.9122,-61
1607021084.9142,-57
1607021084.9162,-57
1607021084.9182,-57
1607021084.9189,-52
1607021084.9202,-54
1607021084.9222,-52
1607021084.9242,-40
1607021084.9262,-33
1607021084.9282,-38
1607021084.9303,-40
1607021084.9322,-38
1607021084.9342,-38
1607021084.9362,-40
1607021084.9382,-45
1607021084.9402,-30
1607021084.9422,0
1607021084.9442,30
1607021084.9462,42
1607021084.9482,33
1607021084.9489,16
1607021084.9502,7
1607021084.9522,-2
1607021084.9542,-23
1607021084.9562,-35
1607021084.9582,-23
1607021084.9602,-16
1607021084.9622,-26
1607021084.9642,-33
1607021084.9662,-21
1607021084.9682,-16
1607021084.9702,-35
1607021084.9722,-92
1607021084.9742,-159
1607021084.9763,-109
1607021084.9783,204
1607021084.9788,845
1607021084.9802,1430
1607021084.9822,1002
1607021084.9842,-278
1607021084.9862,-720
1607021084.9882,-147
1607021084.9902,64
1607021084.9922,-118
1607021084.9942,-66
1607021084.9962,26
1607021084.9982,-14
1607021085.0002,-9
1607021085.0022,33
1607021085.0042,33
1607021085.4696,35
1607021085.4704,54
1607021085.4729,64
1607021085.4756,80
1607021085.4775,97
1607021085.4795,104
1607021085.4816,111
1607021085.4836,130
1607021085.4855,144
1607021085.4875,166
1607021085.4895,199
1607021085.4916,225
1607021085.4935,244
1607021085.4954,266
1607021085.4975,289
1607021085.4994,304
1607021085.5002,316
1607021085.5015,320
1607021085.5034,318
1607021085.5054,297
1607021085.5074,256
1607021085.5094,197
1607021085.5115,118
1607021085.5134,33
1607021085.5154,-42
1607021085.5174,-106
1607021085.5194,-144
1607021085.5215,-166
1607021085.5234,-180
1607021085.5254,-180
1607021085.5274,-168
1607021085.5294,-159
1607021085.5301,-149
1607021085.5314,-140
1607021085.5334,-130
1607021085.5356,-121
1607021085.5375,-116
1607021085.5394,-111
1607021085.5415,-104
1607021085.5434,-102
1607021085.5454,-95
1607021085.5474,-83
1607021085.5494,-78
1607021085.5515,-78
1607021085.5534,-78
1607021085.5554,-71
1607021085.5574,-68
1607021085.5594,-68
1607021085.5601,-66
1607021085.5615,-57
1607021085.5634,-54
1607021085.5654,-57
1607021085.5674,-57
1607021085.5694,-49
1607021085.5715,-45
1607021085.5734,-45
1607021085.5754,-42
1607021085.5774,-38
1607021085.5794,-40
1607021085.5815,-42
1607021085.5834,-38
1607021085.5854,-26
1607021085.5874,-19
1607021085.5895,-28
1607021085.5901,-33
1607021085.5915,-19
1607021085.5934,-11
1607021085.5954,-19
1607021085.5974,-19
1607021085.5994,-14
1607021085.6014,-11
1607021085.6034,-16
1607021085.6054,-21
1607021086.0089,-16
1607021086.0095,-14
1607021086.0111,-9
1607021086.0131,11
1607021086.0151,40
1607021086.0171,54
1607021086.0191,47
1607021086.0211,33
1607021086.0231,16
1607021086.0251,-4
1607021086.0271,-21
1607021086.0291,-23
1607021086.0311,-16
1607021086.0333,-16
1607021086.0337,-19
1607021086.0351,-7
1607021086.0371,0
1607021086.0391,-2
1607021086.0411,-33
1607021086.0431,-102
1607021086.0451,-140
1607021086.0471,9
1607021086.0491,458
1607021086.0511,1114
1607021086.0531,1292
1607021086.0551,361
1607021086.0572,-646
1607021086.0591,-458
1607021086.0611,57
1607021086.0631,-7
1607021086.0637,-104
1607021086.0651,9
1607021086.0671,14
1607021086.0691,-28
1607021086.0711,14
1607021086.0731,45
1607021086.0751,35
1607021086.0771,47
1607021086.0791,68
1607021086.0811,78
1607021086.0832,90
1607021086.0851,106
1607021086.0871,125
1607021086.0891,142
1607021086.0911,156
1607021086.0931,173
1607021086.0937,197
1607021086.0951,218
1607021086.0971,237
1607021086.0992,259
1607021086.1011,278
1607021086.1031,297
1607021086.1051,316
1607021086.1071,330
1607021086.1091,332
1607021086.1111,325
1607021086.1131,301
1607021086.1151,251
1607021086.1171,182
1607021086.1191,106
1607021086.1211,30
1607021086.1231,-45
1607021086.1238,-102
1607021086.1251,-137
1607021086.1272,-161
1607021086.1292,-171
1607021086.1311,-166
1607021086.1331,-159
1607021086.1351,-152
1607021086.1371,-140
1607021086.1391,-128
1607021086.1411,-116
1607021086.1431,-111
1607021086.5792,-109
1607021086.5801,-102
1607021086.5826,-85
1607021086.5852,-80
1607021086.5859,-83
1607021086.5871,-76
1607021086.5892,-66
1607021086.5912,-73
1607021086.5931,-78
1607021086.5951,-71
1607021086.5971,-68
1607021086.5991,-66
1607021086.6012,-54
1607021086.6031,-52
1607021086.6051,-61
1607021086.6071,-61
1607021086.6091,-52
1607021086.6111,-45
1607021086.6131,-40
1607021086.6212,-40
1607021086.6230,-38
1607021086.6251,-38
1607021086.6271,-35
1607021086.6291,-40
1607021086.6311,-42
1607021086.6331,-35
1607021086.6350,-30
1607021086.6371,-35
1607021086.6390,-30
1607021086.6411,-23
1607021086.6431,-23
1607021086.6438,-19
1607021086.6460,-14
1607021086.6466,-23
1607021086.6480,-23
1607021086.6501,-21
1607021086.6521,-19
1607021086.6540,-11
1607021086.6560,-4
1607021086.6581,-11
1607021086.6600,-14
1607021086.6621,-4
1607021086.6642,-4
1607021086.6661,-11
1607021086.6681,-7
1607021086.6701,2
1607021086.6721,2
1607021086.6740,-2
1607021086.6760,-7
1607021086.6767,-11
1607021086.6782,-9
1607021086.6800,0
1607021086.6821,11
1607021086.6840,33
1607021086.6860,59
1607021086.6881,61
1607021086.6900,57
1607021086.6920,52
1607021086.6941,26
1607021086.6961,-7
1607021086.6981,-7
1607021086.7001,7
1607021086.7020,2
1607021086.7040,-4
1607021086.7061,7
1607021086.7067,11
1607021086.7081,7
1607021086.7101,4
1607021086.7121,-19
1607021086.7141,-95
1607021086.7162,-130
1607021086.7180,68
1607021086.7200,589
1607021087.1193,1247
1607021087.1202,1340
1607021087.1226,270
1607021087.1253,-805
1607021087.1273,-553
1607021087.1293,40
1607021087.1299,9
1607021087.1314,-73
1607021087.1333,33
1607021087.1353,28
1607021087.1373,-7
1607021087.1394,47
1607021087.1413,71
1607021087.1432,54
1607021087.1452,68
1607021087.1472,92
1607021087.1493,102
1607021087.1512,109
1607021087.1532,123
1607021087.1552,135
1607021087.1574,152
1607021087.1593,168
1607021087.1598,192
1607021087.1612,218
1607021087.1632,235
1607021087.1652,256
1607021087.1673,282
1607021087.1692,304
1607021087.1713,323
1607021087.1732,344
1607021087.1752,356
1607021087.1772,346
1607021087.1792,337
1607021087.1812,327
1607021087.1832,292
1607021087.1852,230
1607021087.1872,142
1607021087.1892,45
1607021087.1899,-38
1607021087.1912,-95
1607021087.1932,-137
1607021087.1952,-171
1607021087.1972,-180
1607021087.1992,-175
1607021087.2014,-166
1607021087.2032,-154
1607021087.2052,-154
1607021087.2072,-156
1607021087.2092,-147
1607021087.2112,-130
1607021087.2132,-114
1607021087.2152,-109
1607021087.2172,-111
1607021087.2192,-106
1607021087.2198,-87
1607021087.2213,-76
1607021087.2232,-71
1607021087.2252,-71
1607021087.2272,-76
1607021087.2292,-90
1607021087.2312,-102
1607021087.2332,-73
1607021087.2352,-28
1607021087.2372,-38
1607021087.2392,-66
1607021087.2412,-61
1607021087.2432,-54
1607021087.2452,-61
1607021087.2472,-57
1607021087.2492,-49
1607021087.2498,-52
1607021087.2513,-52
1607021087.2532,-47
1607021087.6891,-40
1607021087.6900,-30
1607021087.6916,-30
1607021087.6935,-38
1607021087.6954,-35
1607021087.6974,-40
1607021087.6995,-52
1607021087.7015,-52
1607021087.7034,-40
1607021087.7054,-38
1607021087.7074,-42
1607021087.7094,-42
1607021087.7101,-35
1607021087.7115,-38
1607021087.7134,-38
1607021087.7154,-30
1607021087.7174,-30
1607021087.7194,-35
1607021087.7214,-33
1607021087.7234,-26
1607021087.7254,-23
1607021087.7274,-19
1607021087.7294,-14
1607021087.7315,-16
1607021087.7334,-21
1607021087.7354,-19
1607021087.7374,-21
1607021087.7394,-21
1607021087.7400,-11
1607021087.7415,9
1607021087.7434,45
1607021087.7453,68
1607021087.7473,57
1607021087.7493,33
1607021087.7514,19
1607021087.7533,7
1607021087.7553,-2
1607021087.7573,-9
1607021087.7593,-11
1607021087.7614,-4
1607021087.7633,2
1607021087.7653,0
1607021087.7673,4
1607021087.7693,2
1607021087.7700,-26
1607021087.7714,-95
1607021087.7733,-142
1607021087.7753,-2
1607021087.7773,477
1607021087.7795,1211
1607021087.7815,1468
1607021087.7833,496
1607021087.7853,-636
1607021087.7873,-499
1607021087.7893,52
1607021087.7914,0
1607021087.7933,-106
1607021087.7953,7
1607021087.7973,23
1607021087.7994,-7
1607021087.8000,30
1607021087.8014,49
1607021087.8033,45
1607021087.8053,66
1607021087.8073,83
1607021087.8093,87
1607021087.8114,104
1607021087.8133,123
1607021087.8153,130
1607021087.8173,137
1607021087.8193,161
1607021087.8214,187
1607021087.8234,204
1607021088.2287,220
1607021088.2294,254
1607021088.2318,280
1607021088.2336,297
1607021088.2354,313
1607021088.2374,327
1607021088.2394,332
1607021088.2415,330
1607021088.2434,320
1607021088.2454,299
1607021088.2474,259
1607021088.2494,199
1607021088.2515,123
1607021088.2534,33
1607021088.2554,-49
1607021088.2574,-109
1607021088.2594,-149
1607021088.2601,-166
1607021088.2615,-171
1607021088.2634,-180
1607021088.2654,-185
1607021088.2674,-168
1607021088.2694,-154
1607021088.2714,-149
1607021088.2734,-142
1607021088.2754,-130
1607021088.2774,-121
1607021088.2797,-116
1607021088.2815,-114
1607021088.2835,-106
1607021088.2854,-95
1607021088.2874,-92
1607021088.2894,-90
1607021088.2900,-83
1607021088.2914,-78
1607021088.2934,-78
1607021088.2954,-73
1607021088.2974,-68
1607021088.2994,-68
1607021088.3015,-68
1607021088.3034,-66
1607021088.3054,-66
1607021088.3074,-66
1607021088.3094,-64
1607021088.3114,-61
1607021088.3134,-66
1607021088.3154,-66
1607021088.3174,-54
1607021088.3194,-45
1607021088.3200,-47
1607021088.3214,-49
1607021088.3234,-45
1607021088.3254,-42
1607021088.3274,-45
1607021088.3294,-40
1607021088.3314,-35
1607021088.3334,-33
1607021088.3354,-33
1607021088.3374,-33
1607021088.3394,-30
1607021088.3414,-30
1607021088.3435,-30
1607021088.3454,-28
1607021088.3474,-26
1607021088.3494,-23
1607021088.3500,-19
1607021088.3514,-16
1607021088.3534,-16
1607021088.3554,-16
1607021088.3574,-23
1607021088.3594,-28
1607021088.3614,-21
1607021088.3634,-7
1607021088.8292,-4
1607021088.8301,-14
1607021088.8325,-19
1607021088.8352,-16
1607021088.8371,-19
1607021088.8394,-16
1607021088.8413,2
1607021088.8431,35
1607021088.8438,54
1607021088.8452,47
1607021088.8471,35
1607021088.8491,28
1607021088.8512,14
1607021088.8531,-2
1607021088.8551,-2
1607021088.8571,-2
1607021088.8591,-7
1607021088.8611,-7
1607021088.8631,0
1607021088.8651,4
1607021088.8671,7
1607021088.8691,-4
1607021088.8711,-64
1607021088.8731,-135
1607021088.8737,-83
1607021088.8751,225
1607021088.8771,843
1607021088.8791,1397
1607021088.8811,974
1607021088.8831,-251
1607021088.8851,-651
1607021088.8871,-97
1607021088.8891,90
1607021088.8911,-92
1607021088.8931,-45
1607021088.8951,40
1607021088.8971,2
1607021088.8991,9
1607021088.9011,54
1607021088.9030,52
1607021088.9037,54
1607021088.9050,76
1607021088.9070,83
1607021088.9090,95
1607021088.9110,116
1607021088.9131,128
1607021088.9150,135
1607021088.9170,159
1607021088.9190,178
1607021088.9211,190
1607021088.9231,206
1607021088.9250,230
1607021088.9270,251
1607021088.9290,270
1607021088.9310,297
1607021088.9330,313
1607021088.9338,325
1607021088.9351,330
1607021088.9371,325
1607021088.9390,320
1607021088.9410,299
1607021088.9430,242
1607021088.9451,156
1607021088.9470,71
1607021088.9490,-4
1607021088.9510,-73
1607021088.9530,-125
1607021088.9550,-154
1607021088.9570,-173
1607021088.9590,-180
1607021088.9611,-175
1607021088.9630,-168
1607021088.9637,-163
1607021089.3988,-154
1607021089.3997,-144
1607021089.4022,-140
1607021089.4039,-130
1607021089.4058,-121
1607021089.4078,-114
1607021089.4098,-106
1607021089.4118,-102
1607021089.4137,-99
1607021089.4158,-97
1607021089.4177,-97
1607021089.4198,-92
1607021089.4204,-85
1607021089.4218,-80
1607021089.4237,-78
1607021089.4257,-76
1607021089.4277,-76
1607021089.4297,-73
1607021089.4318,-64
1607021089.4337,-59
1607021089.4357,-64
1607021089.4377,-66
1607021089.4397,-59
1607021089.4418,-52
1607021089.4437,-54
1607021089.4457,-52
1607021089.4477,-42
1607021089.4497,-40
1607021089.4503,-45
1607021089.4517,-40
1607021089.4537,-30
1607021089.4557,-30
1607021089.4577,-35
1607021089.4597,-30
1607021089.4619,-28
1607021089.4637,-28
1607021089.4657,-23
1607021089.4677,-19
1607021089.4697,-21
1607021089.4719,-19
1607021089.4737,-14
1607021089.4757,-16
1607021089.4777,-19
1607021089.4797,-16
1607021089.4804,-14
1607021089.4817,-14
1607021089.4837,-7
1607021089.4858,2
1607021089.4877,-2
1607021089.4897,-4
1607021089.4917,0
1607021089.4937,2
1607021089.4957,0
1607021089.4977,-2
1607021089.4997,-7
1607021089.5017,-7
1607021089.5037,-7
1607021089.5057,-4
1607021089.5078,0
1607021089.5097,9
1607021089.5103,26
1607021089.5117,54
1607021089.5137,71
1607021089.5157,61
1607021089.5177,49
1607021089.5197,40
1607021089.5217,23
1607021089.5237,9
1607021089.5257,9
1607021089.5277,11
1607021089.5297,11
1607021089.5317,9
1607021089.5337,7
1607021089.9390,11
1607021089.9399,21
1607021089.9424,0
1607021089.9450,-71
1607021089.9469,-123
1607021089.9489,-19
1607021089.9510,358
1607021089.9529,988
1607021089.9549,1354
1607021089.9570,653
1607021089.9592,-496
1607021089.9609,-579
1607021089.9631,-4
1607021089.9649,54
1607021089.9670,-97
1607021089.9689,-14
1607021089.9709,38
1607021089.9715,-4
1607021089.9728,21
1607021089.9749,59
1607021089.9768,52
1607021089.9788,57
1607021089.9808,76
1607021089.9829,83
1607021089.9848,95
1607021089.9869,118
1607021089.9888,135
1607021089.9908,144
1607021089.9929,156
1607021089.9948,178
1607021089.9968,197
1607021089.9988,218
1607021090.0008,237
1607021090.0015,259
1607021090.0028,278
1607021090.0048,299
1607021090.0069,318
1607021090.0088,330
1607021090.0108,337
1607021090.0129,337
1607021090.0148,323
1607021090.0168,287
1607021090.0188,230
1607021090.0208,156
1607021090.0228,73
1607021090.0248,-2
1607021090.0268,-68
1607021090.0288,-121
1607021090.0308,-156
1607021090.0315,-175
1607021090.0329,-182
1607021090.0348,-173
1607021090.0369,-161
1607021090.0389,-156
1607021090.0408,-149
1607021090.0428,-130
1607021090.0448,-116
1607021090.0468,-114
1607021090.0488,-111
1607021090.0508,-102
1607021090.0530,-87
1607021090.0549,-80
1607021090.0568,-78
1607021090.0590,-71
1607021090.0594,-68
1607021090.0609,-71
1607021090.0629,-71
1607021090.0648,-66
1607021090.0668,-64
1607021090.0688,-64
1607021090.0708,-59
1607021090.0729,-54
1607021090.0748,-54
1607021090.5094,-49
1607021090.5107,-38
1607021090.5131,-40
1607021090.5158,-42
1607021090.5178,-42
1607021090.5197,-45
1607021090.5217,-45
1607021090.5224,-35
1607021090.5237,-33
1607021090.5258,-40
1607021090.5278,-45
1607021090.5297,-45
1607021090.5318,-49
1607021090.5338,-33
1607021090.5357,-14
1607021090.5377,-19
1607021090.5397,-28
1607021090.5417,-23
1607021090.5437,-26
1607021090.5457,-38
1607021090.5478,-45
1607021090.5497,-26
1607021090.5517,4
1607021090.5522,2
1607021090.5537,-30
1607021090.5558,-30
1607021090.5577,-14
1607021090.5597,-26
1607021090.5617,-35
1607021090.5636,-7
1607021090.5656,-7
1607021090.5677,-40
1607021090.5697,-30
1607021090.5717,2
1607021090.5737,2
1607021090.5756,-19
1607021090.5777,-26
1607021090.5796,-2
1607021090.5817,19
1607021090.5822,19
1607021090.5836,33
1607021090.5858,59
1607021090.5877,59
1607021090.5898,47
1607021090.5916,30
1607021090.5936,7
1607021090.5956,-4
1607021090.5976,4
1607021090.5996,4
1607021090.6016,-7
1607021090.6037,-2
1607021090.6057,19
1607021090.6076,23
1607021090.6096,7
1607021090.6116,-35
1607021090.6122,-104
1607021090.6136,-92
1607021090.6157,159
1607021090.6178,720
1607021090.6199,1356
1607021090.6217,1249
1607021090.6237,19
1607021090.6257,-891
1607021090.6277,-470
1607021090.6297,59
1607021090.6317,-9
1607021090.6337,-49
1607021090.6356,49
1607021090.6377,40
1607021090.6397,23
1607021090.6416,64
1607021090.6422,80
1607021090.6436,78
1607021091.0792,92
1607021091.0801,106
1607021091.0825,118
1607021091.0853,137
1607021091.0872,152
1607021091.0892,166
1607021091.0912,182
1607021091.0932,190
1607021091.0952,199
1607021091.0972,230
1607021091.0992,263
1607021091.1000,275
1607021091.1012,292
1607021091.1032,318
1607021091.1051,337
1607021091.1071,346
1607021091.1091,354
1607021091.1111,356
1607021091.1131,346
1607021091.1154,320
1607021091.1172,280
1607021091.1191,218
1607021091.1211,133
1607021091.1231,38
1607021091.1251,-42
1607021091.1271,-109
1607021091.1291,-152
1607021091.1298,-168
1607021091.1311,-175
1607021091.1332,-180
1607021091.1351,-175
1607021091.1371,-166
1607021091.1391,-163
1607021091.1411,-156
1607021091.1431,-140
1607021091.1451,-133
1607021091.1471,-125
1607021091.1492,-111
1607021091.1511,-99
1607021091.1531,-95
1607021091.1551,-95
1607021091.1571,-90
1607021091.1591,-83
1607021091.1597,-76
1607021091.1611,-73
1607021091.1631,-71
1607021091.1652,-68
1607021091.1671,-71
1607021091.1691,-73
1607021091.1711,-66
1607021091.1731,-57
1607021091.1751,-54
1607021091.1771,-59
1607021091.1791,-57
1607021091.1811,-52
1607021091.1832,-45
1607021091.1851,-42
1607021091.1871,-40
1607021091.1891,-40
1607021091.1897,-42
1607021091.1911,-42
1607021091.1931,-30
1607021091.1951,-21
1607021091.1971,-28
1607021091.1992,-35
1607021091.2011,-30
1607021091.2031,-23
1607021091.2051,-21
1607021091.2071,-21
1607021091.2091,-19
1607021091.2113,-19
1607021091.2131,-23
1607021091.2151,-23
1607021091.5890,-16
1607021091.5898,-14
1607021091.5922,0
1607021091.5949,35
1607021091.5969,57
1607021091.5988,54
1607021091.6009,40
1607021091.6028,23
1607021091.6048,4
1607021091.6068,-11
1607021091.6088,-21
1607021091.6109,-19
1607021091.6129,-16
1607021091.6148,-16
1607021091.6168,-7
1607021091.6188,0
1607021091.6194,-4
1607021091.6208,-21
1607021091.6228,-76
1607021091.6248,-140
1607021091.6268,-83
1607021091.6289,251
1607021091.6308,895
1607021091.6329,1437
1607021091.6348,955
1607021091.6368,-335
1607021091.6388,-741
1607021091.6408,-156
1607021091.6428,64
1607021091.6449,-97
1607021091.6468,-49
1607021091.6488,30
1607021091.6495,-7
1607021091.6508,-2
1607021091.6529,40
1607021091.6548,45
1607021091.6568,45
1607021091.6588,64
1607021091.6609,87
1607021091.6628,92
1607021091.6648,95
1607021091.6668,114
1607021091.6688,133
1607021091.6708,147
1607021091.6728,168
1607021091.6747,192
1607021091.6769,213
1607021091.6788,235
1607021091.6796,261
1607021091.6808,285
1607021091.6829,308
1607021091.6848,330
1607021091.6868,344
1607021091.6888,351
1607021091.6908,344
1607021091.6928,323
1607021091.6948,287
1607021091.6968,228
1607021091.6988,147
1607021091.7008,57
1607021091.7028,-30
1607021091.7048,-104
1607021091.7068,-147
1607021091.7089,-166
1607021091.7095,-187
1607021091.7108,-199
1607021091.7129,-190
1607021091.7148,-182
1607021091.7169,-178
1607021091.7188,-166
1607021091.7208,-154
1607021091.7228,-147
1607021091.7248,-140
1607021092.1893,-133
1607021092.1903,-123
1607021092.1927,-114
1607021092.1954,-114
1607021092.1973,-118
1607021092.1980,-106
1607021092.1994,-92
1607021092.2015,-85
1607021092.2033,-85
1607021092.2054,-83
1607021092.2074,-78
1607021092.2094,-76
1607021092.2114,-73
1607021092.2133,-71
1607021092.2153,-68
1607021092.2173,-64
1607021092.2193,-59
1607021092.2213,-66
1607021092.2233,-66
1607021092.2253,-59
1607021092.2273,-57
1607021092.2279,-52
1607021092.2293,-47
1607021092.2313,-45
1607021092.2333,-42
1607021092.2353,-38
1607021092.2376,-38
1607021092.2393,-38
1607021092.2414,-35
1607021092.2433,-38
1607021092.2453,-40
1607021092.2473,-38
1607021092.2493,-33
1607021092.2513,-19
1607021092.2532,7
1607021092.2553,33
1607021092.2573,40
1607021092.2579,38
1607021092.2593,28
1607021092.2613,4
1607021092.2632,-11
1607021092.2652,-14
1607021092.2673,-16
1607021092.2692,-16
1607021092.2714,-19
1607021092.2733,-19
1607021092.2752,-7
1607021092.2772,0
1607021092.2792,-9
1607021092.2813,-47
1607021092.2832,-118
1607021092.2853,-123
1607021092.2873,118
1607021092.2879,672
1607021092.2893,1285
1607021092.2913,1150
1607021092.2932,2
1607021092.2952,-736
1607021092.2972,-299
1607021092.2992,92
1607021092.3013,-54
1607021092.3033,-78
1607021092.3053,38
1607021092.3072,14
1607021092.3092,-7
1607021092.3114,42
1607021092.3132,57
1607021092.3152,49
1607021092.3172,66
1607021092.3179,80
1607021092.3192,83
1607021092.3214,95
1607021092.3233,114
1607021092.7592,133
1607021092.7601,156
1607021092.7626,171
1607021092.7653,182
1607021092.7676,204
1607021092.7692,225
1607021092.7713,249
1607021092.7733,275
1607021092.7753,292
1607021092.7772,299
1607021092.7792,308
1607021092.7798,320
1607021092.7812,323
1607021092.7832,311
1607021092.7852,280
1607021092.7873,228
1607021092.7893,156
1607021092.7912,73
1607021092.7932,-9
1607021092.7952,-80
1607021092.7972,-125
1607021092.7992,-154
1607021092.8012,-171
1607021092.8033,-178
1607021092.8051,-180
1607021092.8072,-173
1607021092.8091,-161
1607021092.8097,-152
1607021092.8112,-147
1607021092.8132,-135
1607021092.8151,-118
1607021092.8171,-111
1607021092.8191,-104
1607021092.8211,-92
1607021092.8232,-85
1607021092.8252,-83
1607021092.8271,-78
1607021092.8291,-73
1607021092.8312,-68
1607021092.8331,-66
1607021092.8351,-64
1607021092.8371,-61
1607021092.8391,-59
1607021092.8397,-57
1607021092.8412,-54
1607021092.8431,-49
1607021092.8451,-47
1607021092.8471,-52
1607021092.8491,-57
1607021092.8512,-52
1607021092.8532,-42
1607021092.8551,-35
1607021092.8572,-40
1607021092.8584,-49
1607021092.8601,-49
1607021092.8623,-42
1607021092.8642,-42
1607021092.8662,-45
1607021092.8667,-40
1607021092.8681,-33
1607021092.8701,-28
1607021092.8722,-11
1607021092.8741,21
1607021092.8762,47
1607021092.8781,38
1607021092.8801,11
1607021092.8822,7
1607021092.8841,4
1607021092.8861,-14
1607021092.8881,-23
1607021092.8902,-21
1607021092.8922,-19
1607021092.8941,-11
1607021093.2989,-7
1607021093.2998,-11
1607021093.3023,-19
1607021093.3049,-21
1607021093.3068,-52
1607021093.3089,-118
1607021093.3109,-123
1607021093.3128,106
1607021093.3148,632
1607021093.3168,1223
1607021093.3188,1121
1607021093.3208,-11
1607021093.3228,-826
1607021093.3248,-406
1607021093.3268,76
1607021093.3274,-33
1607021093.3288,-83
1607021093.3308,30
1607021093.3328,23
1607021093.3348,7
1607021093.3368,52
1607021093.3388,57
1607021093.3408,47
1607021093.3428,78
1607021093.3448,99
1607021093.3468,95
1607021093.3488,104
1607021093.3508,128
1607021093.3528,149
1607021093.3547,166
1607021093.3567,182
1607021093.3574,199
1607021093.3588,213
1607021093.3610,237
1607021093.3628,266
1607021093.3647,292
1607021093.3668,311
1607021093.3688,332
1607021093.3708,356
1607021093.3727,365
1607021093.3748,351
1607021093.3768,335
1607021093.3787,318
1607021093.3807,266
1607021093.3828,175
1607021093.3848,83
1607021093.3867,4
1607021093.3874,-71
1607021093.3887,-130
1607021093.3907,-156
1607021093.3928,-161
1607021093.3948,-173
1607021093.3967,-180
1607021093.3987,-173
1607021093.4007,-159
1607021093.4027,-149
1607021093.4047,-133
1607021093.4068,-118
1607021093.4087,-116
1607021093.4107,-109
1607021093.4128,-99
1607021093.4148,-102
1607021093.4167,-97
1607021093.4174,-76
1607021093.4188,-71
1607021093.4208,-83
1607021093.4228,-73
1607021093.4248,-59
1607021093.4268,-64
1607021093.4287,-73
1607021093.4308,-76
1607021093.4328,-68
1607021093.4347,-61
1607021093.8688,-61
1607021093.8697,-61
1607021093.8721,-59
1607021093.8738,-61
1607021093.8758,-57
1607021093.8778,-54
1607021093.8785,-57
1607021093.8798,-61
1607021093.8818,-54
1607021093.8837,-49
1607021093.8857,-57
1607021093.8879,-61
1607021093.8898,-52
1607021093.8917,-47
1607021093.8937,-49
1607021093.8957,-42
1607021093.8977,-21
1607021093.8997,4
1607021093.9018,23
1607021093.9037,26
1607021093.9057,7
1607021093.9077,-7
1607021093.9083,-14
1607021093.9097,-30
1607021093.9117,-40
1607021093.9137,-28
1607021093.9157,-28
1607021093.9177,-35
1607021093.9197,-33
1607021093.9217,-23
1607021093.9237,-14
1607021093.9257,-23
1607021093.9277,-71
1607021093.9297,-140
1607021093.9317,-104
1607021093.9337,213
1607021093.9357,838
1607021093.9377,1397
1607021093.9383,1017
1607021093.9397,-325
1607021093.9417,-979
1607021093.9439,-389
1607021093.9457,45
1607021093.9477,-54
1607021093.9497,-45
1607021093.9517,52
1607021093.9537,28
1607021093.9557,23
1607021093.9577,64
1607021093.9597,66
1607021093.9617,66
1607021093.9637,87
1607021093.9657,102
1607021093.9663,118
1607021093.9677,133
1607021093.9697,144
1607021093.9717,161
1607021093.9737,178
1607021093.9757,192
1607021093.9777,218
1607021093.9797,240
1607021093.9817,256
1607021093.9838,282
1607021093.9857,311
1607021093.9877,332
1607021093.9897,346
1607021093.9917,356
1607021093.9937,363
1607021093.9957,363
1607021093.9963,339
1607021093.9977,301
1607021093.9997,247
1607021094.0017,156
1607021094.4090,59
1607021094.4096,-23
1607021094.4120,-87
1607021094.4147,-137
1607021094.4167,-168
1607021094.4187,-185
1607021094.4208,-187
1607021094.4227,-187
1607021094.4233,-185
1607021094.4247,-175
1607021094.4267,-161
1607021094.4287,-152
1607021094.4308,-142
1607021094.4327,-135
1607021094.4346,-128
1607021094.4366,-111
1607021094.4386,-99
1607021094.4406,-102
1607021094.4427,-97
1607021094.4446,-87
1607021094.4466,-83
1607021094.4486,-76
1607021094.4506,-76
1607021094.4526,-85
1607021094.4533,-80
1607021094.4546,-66
1607021094.4566,-61
1607021094.4586,-64
1607021094.4606,-61
1607021094.4626,-61
1607021094.4646,-61
1607021094.4666,-57
1607021094.4686,-47
1607021094.4706,-42
1607021094.4727,-47
1607021094.4746,-49
1607021094.4766,-38
1607021094.4786,-30
1607021094.4806,-40
1607021094.4826,-45
1607021094.4834,-35
1607021094.4847,-33
1607021094.4866,-40
1607021094.4886,-28
1607021094.4906,11
1607021094.4926,52
1607021094.4946,52
1607021094.4967,26
1607021094.4986,11
1607021094.5006,4
1607021094.5027,-14
1607021094.5047,-26
1607021094.5066,-19
1607021094.5086,-14
1607021094.5106,-19
1607021094.5126,-23
1607021094.5133,-16
1607021094.5146,-16
1607021094.5166,-26
1607021094.5186,-54
1607021094.5206,-133
1607021094.5226,-185
1607021094.5246,-11
1607021094.5266,541
1607021094.5286,1328
1607021094.5306,1532
1607021094.5326,432
1607021094.5346,-731
1607021094.5366,-513
1607021094.5386,49
1607021094.5406,-35
1607021094.5427,-128
1607021094.5432,-7
1607021094.9792,-4
1607021094.9800,-38
1607021094.9825,16
1607021094.9852,42
1607021094.9871,23
1607021094.9891,35
1607021094.9913,57
1607021094.9931,64
1607021094.9950,76
1607021094.9971,95
1607021094.9990,116
1607021095.0011,137
1607021095.0031,156
1607021095.0037,175
1607021095.0050,201
1607021095.0070,225
1607021095.0090,251
1607021095.0111,280
1607021095.0132,299
1607021095.0151,316
1607021095.0171,335
1607021095.0191,351
1607021095.0211,358
1607021095.0230,339
1607021095.0250,304
1607021095.0270,249
1607021095.0290,166
1607021095.0312,71
1607021095.0330,-14
1607021095.0337,-90
1607021095.0350,-147
1607021095.0370,-175
1607021095.0390,-185
1607021095.0410,-182
1607021095.0431,-178
1607021095.0450,-173
1607021095.0470,-171
1607021095.0490,-159
1607021095.0510,-144
1607021095.0530,-135
1607021095.0550,-130
1607021095.0570,-123
1607021095.0590,-114
1607021095.0611,-99
1607021095.0630,-95
1607021095.0636,-95
1607021095.0650,-87
1607021095.0670,-83
1607021095.0690,-85
1607021095.0710,-85
1607021095.0730,-78
1607021095.0750,-71
1607021095.0770,-73
1607021095.0790,-71
1607021095.0810,-61
1607021095.0830,-59
1607021095.0850,-61
1607021095.0870,-61
1607021095.0890,-57
1607021095.0910,-54
1607021095.0930,-57
1607021095.0936,-49
1607021095.0950,-40
1607021095.0970,-45
1607021095.0990,-47
1607021095.1010,-38
1607021095.1030,-33
1607021095.1050,-33
1607021095.1071,-33
1607021095.1092,-28
1607021095.1111,-26
1607021095.1130,-33
1607021095.1150,-26
1607021095.5877,-19
1607021095.5886,-28
1607021095.5911,-38
1607021095.5937,-30
1607021095.5943,-9
1607021095.5957,16
1607021095.5977,40
1607021095.5998,45
1607021095.6017,28
1607021095.6037,7
1607021095.6057,-7
1607021095.6077,-19
1607021095.6097,-23
1607021095.6117,-23
1607021095.6136,-26
1607021095.6156,-28
1607021095.6176,-19
1607021095.6196,-9
1607021095.6217,-9
1607021095.6236,-14
1607021095.6242,-61
1607021095.6256,-152
1607021095.6276,-159
1607021095.6296,78
1607021095.6316,653
1607021095.6336,1378
1607021095.6356,1344
1607021095.6376,121
1607021095.6396,-748
1607021095.6416,-316
1607021095.6436,99
1607021095.6456,-76
1607021095.6476,-102
1607021095.6497,28
1607021095.6516,0
1607021095.6536,-28
1607021095.6542,23
1607021095.6556,38
1607021095.6576,30
1607021095.6596,47
1607021095.6616,61
1607021095.6636,66
1607021095.6656,87
1607021095.6676,109
1607021095.6696,114
1607021095.6716,130
1607021095.6736,161
1607021095.6757,180
1607021095.6776,192
1607021095.6796,216
1607021095.6816,249
1607021095.6836,280
1607021095.6842,301
1607021095.6856,316
1607021095.6876,330
1607021095.6896,337
1607021095.6916,342
1607021095.6936,327
1607021095.6956,287
1607021095.6976,230
1607021095.6996,156
1607021095.7016,73
1607021095.7036,-7
1607021095.7056,-80
1607021095.7076,-137
1607021095.7096,-168
1607021095.7116,-178
1607021095.7136,-173
1607021095.7142,-171
1607021095.7156,-171
1607021095.7176,-163
1607021095.7196,-144
1607021095.7216,-137
1607021096.1190,-140
1607021096.1197,-128
1607021096.1221,-114
1607021096.1238,-111
1607021096.1258,-106
1607021096.1278,-92
1607021096.1298,-83
1607021096.1319,-87
1607021096.1324,-92
1607021096.1338,-80
1607021096.1358,-68
1607021096.1378,-73
1607021096.1398,-80
1607021096.1418,-76
1607021096.1438,-73
1607021096.1458,-78
1607021096.1478,-71
1607021096.1497,-59
1607021096.1518,-61
1607021096.1538,-66
1607021096.1558,-59
1607021096.1578,-52
1607021096.1598,-52
1607021096.1618,-54
1607021096.1624,-49
1607021096.1639,-42
1607021096.1658,-45
1607021096.1678,-52
1607021096.1698,-47
1607021096.1718,-38
1607021096.1737,-33
1607021096.1757,-33
1607021096.1777,-38
1607021096.1797,-42
1607021096.1818,-42
1607021096.1837,-35
1607021096.1857,-33
1607021096.1877,-38
1607021096.1898,-40
1607021096.1918,-30
1607021096.1923,-23
1607021096.1937,-23
1607021096.1957,-23
1607021096.1977,-23
1607021096.1997,-26
1607021096.2018,-26
1607021096.2037,-23
1607021096.2057,-23
1607021096.2077,-14
1607021096.2097,-9
1607021096.2118,-21
1607021096.2137,-23
1607021096.2157,-11
1607021096.2177,-11
1607021096.2197,-11
1607021096.2218,-9
1607021096.2224,-11
1607021096.2237,-11
1607021096.2257,-2
1607021096.2277,0
1607021096.2297,-7
1607021096.2318,-9
1607021096.2337,-9
1607021096.2357,-19
1607021096.2377,-19
1607021096.2397,-9
1607021096.2418,4
1607021096.2437,28
1607021096.2457,52
1607021096.2477,45
1607021096.2497,30
1607021096.2518,21
1607021096.2523,11
1607021096.6888,0
1607021096.6898,-9
1607021096.6923,-9
1607021096.6952,-9
1607021096.6970,-9
1607021096.6989,-4
1607021096.7009,0
1607021096.7028,-2
1607021096.7049,-11
1607021096.7068,-61
1607021096.7089,-142
1607021096.7109,-133
1607021096.7129,104
1607021096.7150,660
1607021096.7169,1314
1607021096.7174,1140
1607021096.7188,-38
1607021096.7209,-660
1607021096.7228,-185
1607021096.7248,92
1607021096.7268,-97
1607021096.7288,-76
1607021096.7308,40
1607021096.7328,-9
1607021096.7348,-28
1607021096.7368,23
1607021096.7388,30
1607021096.7408,26
1607021096.7428,47
1607021096.7448,64
1607021096.7468,78
1607021096.7474,92
1607021096.7488,102
1607021096.7508,114
1607021096.7528,135
1607021096.7548,156
1607021096.7568,166
1607021096.7588,182
1607021096.7608,216
1607021096.7628,242
1607021096.7648,249
1607021096.7668,266
1607021096.7688,294
1607021096.7708,313
1607021096.7728,316
1607021096.7748,320
1607021096.7768,327
1607021096.7774,308
1607021096.7788,263
1607021096.7808,201
1607021096.7828,123
1607021096.7848,38
1607021096.7867,-35
1607021096.7887,-85
1607021096.7909,-130
1607021096.7928,-163
1607021096.7947,-171
1607021096.7968,-166
1607021096.7988,-168
1607021096.8008,-166
1607021096.8028,-152
1607021096.8048,-142
1607021096.8068,-133
1607021096.8074,-116
1607021096.8088,-109
1607021096.8108,-111
1607021096.8128,-104
1607021096.8147,-99
1607021096.8168,-104
1607021096.8188,-97
1607021096.8208,-78
1607021096.8228,-80
1607021096.8248,-92
1607021097.2286,-83
1607021097.2293,-76
1607021097.2318,-85
1607021097.2344,-85
1607021097.2350,-78
1607021097.2364,-68
1607021097.2383,-66
1607021097.2404,-76
1607021097.2424,-76
1607021097.2444,-61
1607021097.2463,-66
1607021097.2483,-78
1607021097.2503,-76
1607021097.2524,-68
1607021097.2543,-66
1607021097.2563,-66
1607021097.2583,-64
1607021097.2603,-59
1607021097.2624,-54
1607021097.2643,-54
1607021097.2649,-59
1607021097.2664,-59
1607021097.2683,-54
1607021097.2703,-52
1607021097.2724,-57
1607021097.2743,-57
1607021097.2763,-54
1607021097.2783,-42
1607021097.2803,-33
1607021097.2823,-38
1607021097.2843,-47
1607021097.2864,-35
1607021097.2885,-26
1607021097.2903,-40
1607021097.2924,-49
1607021097.2943,-35
1607021097.2949,-26
1607021097.2963,-26
1607021097.2983,-26
1607021097.3003,-26
1607021097.3023,-26
1607021097.3043,-21
1607021097.3063,-19
1607021097.3083,-16
1607021097.3103,-16
1607021097.3123,-19
1607021097.3143,-21
1607021097.3163,-11
1607021097.3184,-9
1607021097.3203,-16
1607021097.3223,-7
1607021097.3243,7
1607021097.3249,-7
1607021097.3263,-19
1607021097.3283,-16
1607021097.3303,-9
1607021097.3323,0
1607021097.3343,23
1607021097.3363,49
1607021097.3383,71
1607021097.3403,68
1607021097.3423,45
1607021097.3443,16
1607021097.3463,4
1607021097.3483,4
1607021097.3503,4
1607021097.3523,2
1607021097.3543,4
1607021097.3549,7
1607021097.3563,14
1607021097.3583,11
1607021097.3603,7
1607021097.3623,-26
1607021097.7687,-104
1607021097.7696,-118
1607021097.7720,118
1607021097.7747,681
1607021097.7766,1340
1607021097.7786,1299
1607021097.7807,90
1607021097.7826,-879
1607021097.7846,-494
1607021097.7866,42
1607021097.7874,-40
1607021097.7886,-95
1607021097.7906,11
1607021097.7926,9
1607021097.7947,-4
1607021097.7967,40
1607021097.7987,59
1607021097.8006,49
1607021097.8026,59
1607021097.8046,85
1607021097.8065,102
1607021097.8086,109
1607021097.8106,123
1607021097.8126,140
1607021097.8146,156
1607021097.8152,173
1607021097.8166,192
1607021097.8186,209
1607021097.8206,223
1607021097.8226,247
1607021097.8245,273
1607021097.8265,292
1607021097.8285,316
1607021097.8305,342
1607021097.8325,356
1607021097.8345,349
1607021097.8365,335
1607021097.8385,318
1607021097.8405,285
1607021097.8426,218
1607021097.8445,133
1607021097.8452,52
1607021097.8466,-23
1607021097.8485,-95
1607021097.8505,-144
1607021097.8526,-166
1607021097.8545,-178
1607021097.8565,-187
1607021097.8585,-187
1607021097.8605,-178
1607021097.8626,-168
1607021097.8647,-159
1607021097.8665,-147
1607021097.8685,-142
1607021097.8705,-135
1607021097.8726,-123
1607021097.8745,-121
1607021097.8751,-114
1607021097.8765,-102
1607021097.8785,-102
1607021097.8805,-99
1607021097.8827,-87
1607021097.8846,-80
1607021097.8866,-80
1607021097.8885,-85
1607021097.8905,-83
1607021097.8926,-76
1607021097.8945,-71
1607021097.8965,-73
1607021097.8986,-73
1607021097.9005,-68
1607021097.9026,-64
1607021097.9045,-64
1607021098.3694,-57
1607021098.3706,-54
1607021098.3731,-57
1607021098.3748,-59
1607021098.3766,-64
1607021098.3786,-66
1607021098.3806,-61
1607021098.3827,-57
1607021098.3847,-49
1607021098.3867,-45
1607021098.3886,-47
1607021098.3908,-38
1607021098.3926,-35
1607021098.3947,-40
1607021098.3953,-33
1607021098.3966,-23
1607021098.3987,-23
1607021098.4007,-26
1607021098.4026,-28
1607021098.4046,-26
1607021098.4066,-11
1607021098.4086,-4
1607021098.4106,-11
1607021098.4126,-16
1607021098.4146,-11
1607021098.4166,-9
1607021098.4186,-4
1607021098.4206,-2
1607021098.4226,-7
1607021098.4246,-11
1607021098.4252,-11
1607021098.4266,-11
1607021098.4286,-2
1607021098.4306,16
1607021098.4326,42
1607021098.4346,64
1607021098.4366,71
1607021098.4386,59
1607021098.4406,38
1607021098.4427,16
1607021098.4446,4
1607021098.4466,9
1607021098.4486,19
1607021098.4505,11
1607021098.4526,7
1607021098.4546,9
1607021098.4552,11
1607021098.4566,16
1607021098.4585,9
1607021098.4605,-40
1607021098.4626,-123
1607021098.4645,-102
1607021098.4666,185
1607021098.4685,812
1607021098.4705,1447
1607021098.4726,1138
1607021098.4746,-147
1607021098.4765,-729
1607021098.4786,-185
1607021098.4805,95
1607021098.4825,-90
1607021098.4845,-59
1607021098.4851,49
1607021098.4865,4
1607021098.4885,-7
1607021098.4906,45
1607021098.4926,52
1607021098.4945,47
1607021098.4965,68
1607021098.4985,80
1607021098.5006,87
1607021098.5026,104
1607021098.5045,118
1607021098.9685,128
1607021098.9694,144
1607021098.9718,166
1607021098.9729,190
1607021098.9745,206
1607021098.9765,213
1607021098.9785,232
1607021098.9806,261
1607021098.9824,285
1607021098.9845,301
1607021098.9864,318
1607021098.9884,327
1607021098.9904,325
1607021098.9924,313
1607021098.9944,285
1607021098.9964,237
1607021098.9984,166
1607021099.0006,80
1607021099.0025,-7
1607021099.0030,-83
1607021099.0044,-137
1607021099.0064,-173
1607021099.0084,-192
1607021099.0104,-199
1607021099.0125,-194
1607021099.0144,-192
1607021099.0165,-185
1607021099.0184,-175
1607021099.0204,-161
1607021099.0224,-149
1607021099.0244,-144
1607021099.0264,-133
1607021099.0285,-121
1607021099.0304,-116
1607021099.0324,-106
1607021099.0330,-95
1607021099.0344,-87
1607021099.0364,-85
1607021099.0384,-83
1607021099.0404,-78
1607021099.0424,-78
1607021099.0444,-73
1607021099.0464,-66
1607021099.0484,-57
1607021099.0504,-59
1607021099.0524,-66
1607021099.0544,-64
1607021099.0564,-49
1607021099.0584,-42
1607021099.0604,-49
1607021099.0624,-54
1607021099.0630,-52
1607021099.0644,-54
1607021099.0665,-47
1607021099.0684,-42
1607021099.0704,-42
1607021099.0724,-38
1607021099.0744,-33
1607021099.0764,-35
1607021099.0784,-33
1607021099.0804,-26
1607021099.0824,-23
1607021099.0844,-30
1607021099.0864,-30
1607021099.0884,-28
1607021099.0904,-28
1607021099.0924,-16
1607021099.0930,-11
1607021099.0945,-21
1607021099.0964,-19
1607021099.0984,-4
1607021099.1004,-4
1607021099.1011,-14
1607021099.4786,-14
1607021099.4793,-11
1607021099.4817,-11
1607021099.4844,-7
1607021099.4864,2
1607021099.4884,21
1607021099.4904,47
1607021099.4924,64
1607021099.4929,57
1607021099.4943,42
1607021099.4963,23
1607021099.4983,7
1607021099.5004,0
1607021099.5023,-4
1607021099.5043,-9
1607021099.5063,-14
1607021099.5083,-9
1607021099.5103,-4
1607021099.5124,-2
1607021099.5143,-9
1607021099.5163,-28
1607021099.5183,-90
1607021099.5203,-133
1607021099.5223,2
1607021099.5229,432
1607021099.5243,1076
1607021099.5263,1321
1607021099.5283,463
1607021099.5303,-605
1607021099.5323,-503
1607021099.5343,45
1607021099.5363,19
1607021099.5383,-102
1607021099.5403,9
1607021099.5423,40
1607021099.5443,-7
1607021099.5463,19
1607021099.5483,47
1607021099.5503,40
1607021099.5523,57
1607021099.5529,83
1607021099.5543,83
1607021099.5563,87
1607021099.5583,106
1607021099.5603,118
1607021099.5623,130
1607021099.5644,154
1607021099.5663,173
1607021099.5683,185
1607021099.5702,201
1607021099.5723,223
1607021099.5743,254
1607021099.5763,285
1607021099.5783,301
1607021099.5803,304
1607021099.5823,316
1607021099.5829,332
1607021099.5843,325
1607021099.5863,301
1607021099.5883,270
1607021099.5903,213
1607021099.5923,137
1607021099.5943,54
1607021099.5963,-26
1607021099.5983,-87
1607021099.6003,-128
1607021099.6023,-161
1607021099.6043,-175
1607021099.6063,-171
1607021099.6083,-168
1607021099.6103,-166
1607021099.6123,-154
1607021099.6129,-144
1607021100.0488,-137
1607021100.0498,-128
1607021100.0522,-121
1607021100.0549,-114
1607021100.0569,-109
1607021100.0588,-104
1607021100.0609,-97
1607021100.0629,-95
1607021100.0649,-95
1607021100.0669,-87
1607021100.0688,-76
1607021100.0708,-73
1607021100.0728,-76
1607021100.0734,-71
1607021100.0748,-66
1607021100.0768,-61
1607021100.0788,-57
1607021100.0808,-59
1607021100.0828,-57
1607021100.0848,-52
1607021100.0868,-52
1607021100.0888,-54
1607021100.0908,-54
1607021100.0928,-49
1607021100.0950,-38
1607021100.0969,-28
1607021100.0988,-33
1607021100.1008,-38
1607021100.1028,-35
1607021100.1034,-33
1607021100.1048,-33
1607021100.1068,-26
1607021100.1088,-19
1607021100.1108,-28
1607021100.1127,-35
1607021100.1147,-28
1607021100.1167,-19
1607021100.1187,-19
1607021100.1208,-19
1607021100.1227,-21
1607021100.1247,-26
1607021100.1267,-23
1607021100.1287,-19
1607021100.1307,-9
1607021100.1328,14
1607021100.1334,42
1607021100.1347,47
1607021100.1368,35
1607021100.1388,21
1607021100.1407,9
1607021100.1427,2
1607021100.1447,-7
1607021100.1467,-21
1607021100.1487,-21
1607021100.1507,-9
1607021100.1527,-9
1607021100.1547,-9
1607021100.1568,-2
1607021100.1587,-2
1607021100.1607,-38
1607021100.1627,-97
1607021100.1634,-116
1607021100.1647,47
1607021100.1667,503
1607021100.1688,1126
1607021100.1707,1266
1607021100.1728,299
1607021100.1747,-748
1607021100.1767,-551
1607021100.1787,30
1607021100.1808,7
1607021100.1827,-95
1607021100.1847,16
1607021100.5886,40
1607021100.5893,-4
1607021100.5919,21
1607021100.5935,52
1607021100.5940,54
1607021100.5954,66
1607021100.5974,78
1607021100.5994,83
1607021100.6014,99
1607021100.6034,111
1607021100.6054,125
1607021100.6074,142
1607021100.6094,159
1607021100.6114,173
1607021100.6134,190
1607021100.6153,209
1607021100.6173,240
1607021100.6193,268
1607021100.6214,287
1607021100.6233,313
1607021100.6240,332
1607021100.6254,337
1607021100.6273,344
1607021100.6293,351
1607021100.6314,325
1607021100.6333,278
1607021100.6353,216
1607021100.6373,130
1607021100.6393,30
1607021100.6414,-61
1607021100.6433,-128
1607021100.6453,-161
1607021100.6473,-180
1607021100.6493,-199
1607021100.6514,-204
1607021100.6533,-204
1607021100.6539,-204
1607021100.6553,-194
1607021100.6573,-175
1607021100.6593,-163
1607021100.6614,-156
1607021100.6633,-149
1607021100.6653,-137
1607021100.6673,-123
1607021100.6693,-121
1607021100.6714,-123
1607021100.6733,-118
1607021100.6754,-109
1607021100.6773,-97
1607021100.6793,-90
1607021100.6814,-92
1607021100.6833,-97
1607021100.6839,-87
1607021100.6855,-73
1607021100.6874,-76
1607021100.6893,-85
1607021100.6914,-83
1607021100.6933,-83
1607021100.6953,-76
1607021100.6973,-57
1607021100.6993,-61
1607021100.7014,-76
1607021100.7033,-66
1607021100.7053,-47
1607021100.7073,-47
1607021100.7093,-57
1607021100.7114,-57
1607021100.7133,-57
1607021100.7139,-52
1607021100.7153,-38
1607021100.7173,-35
1607021100.7193,-47
1607021100.7214,-42
1607021101.1586,-35
1607021101.1594,-28
1607021101.1618,0
1607021101.1635,30
1607021101.1654,35
1607021101.1674,23
1607021101.1694,2
1607021101.1714,-19
1607021101.1720,-23
1607021101.1734,-21
1607021101.1754,-26
1607021101.1774,-42
1607021101.1794,-38
1607021101.1815,-28
1607021101.1834,-21
1607021101.1854,-4
1607021101.1874,-7
1607021101.1894,-66
1607021101.1914,-140
1607021101.1934,-109
1607021101.1954,180
1607021101.1974,765
1607021101.1994,1330
1607021101.2015,1076
1607021101.2020,-163
1607021101.2034,-907
1607021101.2054,-425
1607021101.2074,40
1607021101.2094,-35
1607021101.2114,-57
1607021101.2134,35
1607021101.2156,23
1607021101.2174,4
1607021101.2194,40
1607021101.2214,54
1607021101.2233,54
1607021101.2253,76
1607021101.2274,95
1607021101.2294,104
1607021101.2314,111
1607021101.2320,121
1607021101.2333,142
1607021101.2354,171
1607021101.2374,180
1607021101.2394,192
1607021101.2414,216
