Time,ECG
1607021408.7126,750
1607021408.7154,3193
1607021408.7175,5971
1607021408.7196,7397
1607021408.7219,8343
1607021408.7241,9521
1607021408.7263,10355
1607021408.7283,10909
1607021408.7303,11513
1607021408.7323,12000
1607021408.7343,12335
1607021408.7365,12668
1607021408.7389,12969
1607021408.7412,13178
1607021408.7434,13369
1607021408.7455,13547
1607021408.7473,13680
1607021408.7493,13780
1607021408.7513,13870
1607021408.7533,13946
1607021408.7554,13991
1607021408.7573,14005
1607021408.7593,14003
1607021408.7614,13986
1607021408.7634,13910
1607021408.7653,13799
1607021408.7672,13697
1607021408.7693,13592
1607021408.7714,13478
1607021408.7733,13385
1607021408.7753,13321
1607021408.7772,13271
1607021408.7792,13224
1607021408.7812,13162
1607021408.7833,13098
1607021408.7853,13057
1607021408.7873,13007
1607021408.7893,12943
1607021408.7913,12891
1607021408.7933,12841
1607021408.7953,12767
1607021408.7973,12698
1607021408.7992,12639
1607021408.8012,12577
1607021408.8033,12501
1607021408.8052,12423
1607021408.8072,12347
1607021408.8092,12283
1607021408.8112,12218
1607021408.8132,12123
1607021408.8163,12033
1607021408.8172,11964
1607021408.8191,11879
1607021408.8212,11793
1607021408.8232,11719
1607021408.8252,11643
1607021408.8271,11548
1607021408.8291,11449
1607021408.8312,11368
1607021408.8332,11289
1607021408.8352,11197
1607021408.8371,11106
1607021408.8391,11033
1607021408.8411,10945
1607021408.8431,10847
1607021408.8452,10764
1607021408.8471,10686
1607021408.8491,10595
1607021408.8511,10505
1607021408.8531,10422
1607021408.8552,10339
1607021408.8571,10244
1607021408.8591,10149
1607021409.2495,10061
1607021409.2502,9982
1607021409.2517,9897
1607021409.2536,9814
1607021409.2557,9761
1607021409.2577,9716
1607021409.2597,9631
1607021409.2616,9528
1607021409.2637,9441
1607021409.2657,9353
1607021409.2677,9236
1607021409.2696,9113
1607021409.2717,9034
1607021409.2736,8975
1607021409.2756,8884
1607021409.2776,8782
1607021409.2796,8706
1607021409.2816,8640
1607021409.2836,8549
1607021409.2857,8433
1607021409.2876,8286
1607021409.2896,8183
1607021409.2916,8298
1607021409.2936,8740
1607021409.2957,9357
1607021409.2976,9369
1607021409.2996,8195
1607021409.3016,7117
1607021409.3038,7352
1607021409.3057,7794
1607021409.3076,7592
1607021409.3097,7428
1607021409.3116,7482
1607021409.3136,7402
1607021409.3156,7283
1607021409.3176,7257
1607021409.3196,7212
1607021409.3216,7128
1607021409.3236,7067
1607021409.3256,7014
1607021409.3276,6960
1607021409.3296,6905
1607021409.3316,6838
1607021409.3336,6781
1607021409.3357,6739
1607021409.3376,6689
1607021409.3396,6637
1607021409.3416,6591
1607021409.3436,6549
1607021409.3456,6508
1607021409.3476,6465
1607021409.3496,6420
1607021409.3516,6375
1607021409.3536,6318
1607021409.3556,6254
1607021409.3576,6187
1607021409.3596,6099
1607021409.3616,5983
1607021409.3636,5852
1607021409.3656,5707
1607021409.3676,5555
1607021409.3696,5415
1607021409.3716,5296
1607021409.3736,5204
1607021409.3756,5125
1607021409.3776,5056
1607021409.3796,4997
1607021409.3816,4949
1607021409.3836,4897
1607021409.3856,4845
1607021409.3876,4800
1607021409.3896,4759
1607021409.3916,4714
1607021409.8200,4667
1607021409.8207,4621
1607021409.8231,4572
1607021409.8259,4522
1607021409.8278,4476
1607021409.8298,4434
1607021409.8320,4389
1607021409.8338,4334
1607021409.8359,4272
1607021409.8378,4227
1607021409.8398,4191
1607021409.8418,4141
1607021409.8438,4091
1607021409.8458,4051
1607021409.8477,4006
1607021409.8497,3961
1607021409.8517,3918
1607021409.8537,3878
1607021409.8558,3835
1607021409.8577,3787
1607021409.8597,3745
1607021409.8617,3709
1607021409.8637,3671
1607021409.8658,3623
1607021409.8677,3583
1607021409.8697,3545
1607021409.8717,3502
1607021409.8739,3457
1607021409.8759,3424
1607021409.8779,3388
1607021409.8798,3348
1607021409.8817,3300
1607021409.8837,3260
1607021409.8858,3231
1607021409.8877,3193
1607021409.8897,3155
1607021409.8917,3150
1607021409.8937,3155
1607021409.8958,3124
1607021409.8977,3074
1607021409.8997,3029
1607021409.9017,2979
1607021409.9038,2925
1607021409.9057,2882
1607021409.9078,2853
1607021409.9097,2825
1607021409.9118,2792
1607021409.9137,2758
1607021409.9158,2732
1607021409.9177,2706
1607021409.9197,2673
1607021409.9217,2628
1607021409.9237,2540
1607021409.9259,2459
1607021409.9277,2547
1607021409.9297,2918
1607021409.9317,3538
1607021409.9339,3882
1607021409.9358,3127
1607021409.9378,1891
1607021409.9397,1767
1607021409.9417,2357
1607021409.9437,2409
1607021409.9458,2219
1607021409.9477,2278
1607021409.9497,2309
1607021409.9517,2236
1607021409.9537,2231
1607021409.9557,2245
1607021409.9577,2214
1607021409.9597,2195
1607021409.9617,2195
1607021409.9637,2183
1607021410.3597,2169
1607021410.3604,2162
1607021410.3629,2157
1607021410.3656,2152
1607021410.3675,2148
1607021410.3695,2145
1607021410.3715,2145
1607021410.3735,2150
1607021410.3755,2148
1607021410.3775,2138
1607021410.3795,2141
1607021410.3815,2143
1607021410.3835,2131
1607021410.3855,2112
1607021410.3874,2091
1607021410.3894,2057
1607021410.3914,2000
1607021410.3935,1924
1607021410.3954,1822
1607021410.3974,1710
1607021410.3994,1611
1607021410.4014,1530
1607021410.4034,1470
1607021410.4055,1428
1607021410.4074,1399
1607021410.4094,1383
1607021410.4114,1375
1607021410.4134,1363
1607021410.4155,1347
1607021410.4174,1335
1607021410.4194,1328
1607021410.4214,1323
1607021410.4234,1316
1607021410.4255,1306
1607021410.4274,1299
1607021410.4297,1295
1607021410.4315,1280
1607021410.4334,1266
1607021410.4355,1261
1607021410.4374,1259
1607021410.4394,1247
1607021410.4414,1233
1607021410.4434,1221
1607021410.4454,1207
1607021410.4474,1192
1607021410.4494,1183
1607021410.4514,1173
1607021410.4534,1154
1607021410.4555,1145
1607021410.4574,1138
1607021410.4594,1126
1607021410.4614,1112
1607021410.4634,1104
1607021410.4655,1097
1607021410.4674,1083
1607021410.4694,1074
1607021410.4714,1066
1607021410.4734,1055
1607021410.4755,1045
1607021410.4774,1036
1607021410.4794,1021
1607021410.4814,1009
1607021410.4834,1007
1607021410.4855,1000
1607021410.4874,983
1607021410.4894,969
1607021410.4914,964
1607021410.4934,952
1607021410.4955,938
1607021410.4974,926
1607021410.4994,919
1607021410.5014,926
1607021410.5034,952
1607021410.9300,969
1607021410.9308,957
1607021410.9321,936
1607021410.9341,912
1607021410.9362,879
1607021410.9381,848
1607021410.9401,836
1607021410.9421,834
1607021410.9441,829
1607021410.9461,819
1607021410.9481,812
1607021410.9501,807
1607021410.9521,803
1607021410.9543,791
1607021410.9562,741
1607021410.9581,670
1607021410.9601,708
1607021410.9621,1005
1607021410.9641,1580
1607021410.9661,2129
1607021410.9682,1817
1607021410.9701,541
1607021410.9721,-130
1607021410.9741,411
1607021410.9761,822
1607021410.9781,677
1607021410.9801,651
1607021410.9821,748
1607021410.9841,724
1607021410.9861,701
1607021410.9881,736
1607021410.9901,741
1607021410.9921,739
1607021410.9941,753
1607021410.9961,760
1607021410.9981,765
1607021411.0001,772
1607021411.0021,779
1607021411.0041,800
1607021411.0061,822
1607021411.0081,826
1607021411.0101,834
1607021411.0121,860
1607021411.0141,888
1607021411.0161,900
1607021411.0181,910
1607021411.0201,926
1607021411.0221,938
1607021411.0242,933
1607021411.0261,924
1607021411.0281,919
1607021411.0301,891
1607021411.0321,822
1607021411.0341,731
1607021411.0361,636
1607021411.0381,541
1607021411.0401,458
1607021411.0421,401
1607021411.0442,370
1607021411.0462,349
1607021411.0481,332
1607021411.0501,330
1607021411.0521,335
1607021411.0541,337
1607021411.0563,339
1607021411.0581,349
1607021411.0601,361
1607021411.0621,368
1607021411.0641,375
1607021411.0661,375
1607021411.0681,370
1607021411.0701,370
1607021411.0721,375
1607021411.4697,375
1607021411.4705,377
1607021411.4729,382
1607021411.4756,377
1607021411.4775,370
1607021411.4795,375
1607021411.4815,370
1607021411.4835,354
1607021411.4855,354
1607021411.4875,358
1607021411.4895,351
1607021411.4915,346
1607021411.4935,344
1607021411.4955,342
1607021411.4975,344
1607021411.4995,342
1607021411.5014,335
1607021411.5034,332
1607021411.5055,337
1607021411.5074,337
1607021411.5095,335
1607021411.5114,335
1607021411.5134,332
1607021411.5155,330
1607021411.5175,332
1607021411.5194,332
1607021411.5215,327
1607021411.5245,323
1607021411.5255,318
1607021411.5275,318
1607021411.5295,318
1607021411.5315,332
1607021411.5334,370
1607021411.5355,396
1607021411.5374,394
1607021411.5395,377
1607021411.5415,356
1607021411.5435,332
1607021411.5455,313
1607021411.5475,308
1607021411.5495,311
1607021411.5514,313
1607021411.5537,306
1607021411.5556,304
1607021411.5575,308
1607021411.5594,308
1607021411.5615,304
1607021411.5634,270
1607021411.5655,197
1607021411.5675,199
1607021411.5695,465
1607021411.5714,1038
1607021411.5735,1649
1607021411.5755,1518
1607021411.5775,299
1607021411.5795,-598
1607021411.5815,-175
1607021411.5834,361
1607021411.5855,282
1607021411.5875,223
1607021411.5895,323
1607021411.5915,318
1607021411.5935,297
1607021411.5955,337
1607021411.5975,351
1607021411.5994,342
1607021411.6015,358
1607021411.6035,380
1607021411.6055,387
1607021411.6075,396
1607021411.6094,413
1607021411.6114,430
1607021411.6135,449
1607021412.0697,472
1607021412.0707,491
1607021412.0732,506
1607021412.0758,525
1607021412.0778,541
1607021412.0797,551
1607021412.0817,570
1607021412.0837,591
1607021412.0858,596
1607021412.0877,586
1607021412.0897,572
1607021412.0917,548
1607021412.0938,491
1607021412.0957,411
1607021412.0977,320
1607021412.0997,230
1607021412.1017,152
1607021412.1037,97
1607021412.1057,66
1607021412.1077,47
1607021412.1099,40
1607021412.1117,45
1607021412.1137,47
1607021412.1157,54
1607021412.1177,66
1607021412.1197,76
1607021412.1217,85
1607021412.1237,95
1607021412.1257,104
1607021412.1277,114
1607021412.1298,118
1607021412.1317,118
1607021412.1338,121
1607021412.1358,128
1607021412.1377,133
1607021412.1397,133
1607021412.1417,135
1607021412.1437,140
1607021412.1457,142
1607021412.1477,137
1607021412.1497,140
1607021412.1516,147
1607021412.1537,147
1607021412.1557,142
1607021412.1577,142
1607021412.1597,147
1607021412.1617,149
1607021412.1637,149
1607021412.1657,149
1607021412.1677,152
1607021412.1697,152
1607021412.1717,154
1607021412.1737,156
1607021412.1757,154
1607021412.1777,154
1607021412.1797,154
1607021412.1817,156
1607021412.1837,159
1607021412.1857,159
1607021412.1877,156
1607021412.1897,161
1607021412.1917,163
1607021412.1937,161
1607021412.1957,159
1607021412.1977,156
1607021412.1996,156
1607021412.2017,156
1607021412.2037,171
1607021412.2057,204
1607021412.2076,230
1607021412.2097,225
1607021412.2119,209
1607021412.2137,197
1607021412.6396,180
1607021412.6404,163
1607021412.6428,154
1607021412.6455,154
1607021412.6476,161
1607021412.6494,163
1607021412.6515,161
1607021412.6534,166
1607021412.6555,163
1607021412.6574,149
1607021412.6594,111
1607021412.6614,42
1607021412.6634,35
1607021412.6655,259
1607021412.6674,810
1607021412.6694,1511
1607021412.6714,1525
1607021412.6734,356
1607021412.6754,-586
1607021412.6774,-211
1607021412.6794,266
1607021412.6814,121
1607021412.6834,59
1607021412.6854,185
1607021412.6874,175
1607021412.6894,142
1607021412.6914,190
1607021412.6935,206
1607021412.6954,199
1607021412.6974,218
1607021412.6994,240
1607021412.7014,244
1607021412.7034,259
1607021412.7054,280
1607021412.7074,299
1607021412.7094,316
1607021412.7114,335
1607021412.7135,356
1607021412.7154,380
1607021412.7174,403
1607021412.7194,430
1607021412.7214,456
1607021412.7234,480
1607021412.7255,494
1607021412.7274,499
1607021412.7294,499
1607021412.7314,487
1607021412.7334,456
1607021412.7355,406
1607021412.7376,337
1607021412.7394,249
1607021412.7414,156
1607021412.7434,78
1607021412.7455,23
1607021412.7474,-9
1607021412.7493,-28
1607021412.7514,-38
1607021412.7534,-40
1607021412.7554,-33
1607021412.7575,-23
1607021412.7595,-14
1607021412.7614,-2
1607021412.7634,7
1607021412.7654,14
1607021412.7674,19
1607021412.7693,26
1607021412.7714,33
1607021412.7734,38
1607021412.7755,40
1607021412.7774,49
1607021412.7794,54
1607021412.7814,59
1607021412.7834,64
1607021413.2094,66
1607021413.2101,68
1607021413.2115,71
1607021413.2132,73
1607021413.2152,76
1607021413.2172,78
1607021413.2192,78
1607021413.2212,80
1607021413.2232,83
1607021413.2252,83
1607021413.2271,78
1607021413.2292,76
1607021413.2311,80
1607021413.2332,78
1607021413.2353,78
1607021413.2378,83
1607021413.2392,87
1607021413.2412,87
1607021413.2432,87
1607021413.2452,87
1607021413.2472,92
1607021413.2492,95
1607021413.2512,97
1607021413.2532,99
1607021413.2551,102
1607021413.2572,102
1607021413.2592,102
1607021413.2613,106
1607021413.2632,109
1607021413.2652,109
1607021413.2659,111
1607021413.2682,109
1607021413.2702,106
1607021413.2721,102
1607021413.2742,99
1607021413.2762,102
1607021413.2782,111
1607021413.2802,133
1607021413.2822,166
1607021413.2842,180
1607021413.2862,168
1607021413.2882,152
1607021413.2902,137
1607021413.2922,121
1607021413.2942,111
1607021413.2962,114
1607021413.2969,116
1607021413.2992,114
1607021413.3012,109
1607021413.3032,109
1607021413.3051,116
1607021413.3072,121
1607021413.3092,104
1607021413.3112,42
1607021413.3131,-14
1607021413.3152,83
1607021413.3172,456
1607021413.3192,1107
1607021413.3212,1568
1607021413.3231,933
1607021413.3252,-323
1607021413.3271,-525
1607021413.3279,92
1607021413.3302,194
1607021413.3321,11
1607021413.3342,95
1607021413.3362,163
1607021413.3382,114
1607021413.3402,130
1607021413.3422,171
1607021413.3441,166
1607021413.3462,173
1607021413.3482,197
1607021413.7508,206
1607021413.7516,216
1607021413.7540,235
1607021413.7567,249
1607021413.7587,266
1607021413.7596,285
1607021413.7617,301
1607021413.7637,320
1607021413.7657,344
1607021413.7676,370
1607021413.7696,392
1607021413.7716,406
1607021413.7736,420
1607021413.7756,437
1607021413.7776,446
1607021413.7796,439
1607021413.7816,425
1607021413.7836,396
1607021413.7856,339
1607021413.7876,261
1607021413.7896,173
1607021413.7903,87
1607021413.7926,19
1607021413.7946,-28
1607021413.7966,-57
1607021413.7987,-71
1607021413.8006,-76
1607021413.8026,-73
1607021413.8046,-66
1607021413.8066,-57
1607021413.8086,-52
1607021413.8106,-42
1607021413.8126,-28
1607021413.8146,-16
1607021413.8166,-9
1607021413.8186,-4
1607021413.8206,2
1607021413.8213,7
1607021413.8236,14
1607021413.8256,16
1607021413.8276,21
1607021413.8296,26
1607021413.8316,28
1607021413.8336,30
1607021413.8356,33
1607021413.8376,35
1607021413.8397,33
1607021413.8416,33
1607021413.8436,33
1607021413.8456,30
1607021413.8475,33
1607021413.8497,40
1607021413.8504,42
1607021413.8526,40
1607021413.8546,42
1607021413.8566,45
1607021413.8588,47
1607021413.8607,49
1607021413.8626,54
1607021413.8646,57
1607021413.8666,57
1607021413.8686,61
1607021413.8706,64
1607021413.8726,66
1607021413.8746,66
1607021413.8766,64
1607021413.8786,64
1607021413.8807,71
1607021413.8813,76
1607021413.8836,71
1607021413.8856,66
1607021413.8876,71
1607021413.8896,76
1607021414.2899,71
1607021414.2907,68
1607021414.2931,76
1607021414.2957,80
1607021414.2977,76
1607021414.2997,71
1607021414.3017,78
1607021414.3037,85
1607021414.3044,83
1607021414.3067,78
1607021414.3087,76
1607021414.3106,68
1607021414.3127,66
1607021414.3147,78
1607021414.3167,92
1607021414.3187,118
1607021414.3207,144
1607021414.3227,149
1607021414.3248,140
1607021414.3267,123
1607021414.3286,106
1607021414.3307,97
1607021414.3327,92
1607021414.3346,87
1607021414.3354,90
1607021414.3377,97
1607021414.3397,97
1607021414.3418,95
1607021414.3437,102
1607021414.3457,104
1607021414.3476,68
1607021414.3496,-4
1607021414.3517,-11
1607021414.3536,197
1607021414.3559,698
1607021414.3577,1352
1607021414.3597,1440
1607021414.3617,370
1607021414.3637,-670
1607021414.3657,-394
1607021414.3664,178
1607021414.3687,109
1607021414.3707,4
1607021414.3726,116
1607021414.3748,128
1607021414.3766,87
1607021414.3787,125
1607021414.3807,152
1607021414.3826,152
1607021414.3847,178
1607021414.3867,197
1607021414.3887,194
1607021414.3907,206
1607021414.3927,235
1607021414.3947,251
1607021414.3967,266
1607021414.3974,285
1607021414.3997,304
1607021414.4017,323
1607021414.4037,351
1607021414.4057,382
1607021414.4077,408
1607021414.4097,422
1607021414.4117,430
1607021414.4136,439
1607021414.4157,451
1607021414.4176,449
1607021414.4197,425
1607021414.4217,387
1607021414.4237,327
1607021414.4257,240
1607021414.4277,149
1607021414.4284,66
1607021414.8297,-7
1607021414.8305,-61
1607021414.8329,-95
1607021414.8355,-109
1607021414.8382,-102
1607021414.8401,-95
1607021414.8415,-104
1607021414.8435,-95
1607021414.8455,-76
1607021414.8474,-76
1607021414.8494,-73
1607021414.8514,-54
1607021414.8536,-42
1607021414.8556,-42
1607021414.8574,-30
1607021414.8594,-9
1607021414.8614,-7
1607021414.8634,-16
1607021414.8654,-14
1607021414.8674,-2
1607021414.8694,0
1607021414.8714,0
1607021414.8734,2
1607021414.8755,2
1607021414.8775,4
1607021414.8794,11
1607021414.8814,16
1607021414.8834,14
1607021414.8855,14
1607021414.8876,14
1607021414.8894,11
1607021414.8915,9
1607021414.8934,19
1607021414.8955,21
1607021414.8974,14
1607021414.8994,11
1607021414.9014,23
1607021414.9034,23
1607021414.9055,21
1607021414.9074,21
1607021414.9094,26
1607021414.9114,30
1607021414.9134,35
1607021414.9154,33
1607021414.9174,40
1607021414.9194,42
1607021414.9215,38
1607021414.9234,35
1607021414.9255,45
1607021414.9274,52
1607021414.9295,52
1607021414.9314,52
1607021414.9334,49
1607021414.9355,45
1607021414.9374,42
1607021414.9394,49
1607021414.9415,66
1607021414.9434,85
1607021414.9455,111
1607021414.9474,128
1607021414.9494,125
1607021414.9514,109
1607021414.9534,87
1607021414.9557,73
1607021414.9575,68
1607021414.9594,71
1607021414.9614,68
1607021414.9634,73
1607021414.9654,78
1607021414.9674,76
1607021414.9694,73
1607021414.9714,76
1607021414.9734,68
1607021415.4300,16
1607021415.4310,-35
1607021415.4334,83
1607021415.4361,496
1607021415.4380,1135
1607021415.4400,1504
1607021415.4420,774
1607021415.4440,-527
1607021415.4461,-712
1607021415.4480,-35
1607021415.4500,140
1607021415.4520,-4
1607021415.4540,61
1607021415.4561,123
1607021415.4580,83
1607021415.4600,95
1607021415.4620,135
1607021415.4640,137
1607021415.4660,142
1607021415.4680,163
1607021415.4700,178
1607021415.4720,190
1607021415.4740,206
1607021415.4760,223
1607021415.4780,244
1607021415.4801,266
1607021415.4820,282
1607021415.4840,299
1607021415.4860,323
1607021415.4881,354
1607021415.4900,382
1607021415.4920,401
1607021415.4940,420
1607021415.4960,434
1607021415.4980,434
1607021415.4999,427
1607021415.5020,411
1607021415.5040,373
1607021415.5060,313
1607021415.5079,230
1607021415.5099,133
1607021415.5121,40
1607021415.5140,-33
1607021415.5161,-80
1607021415.5180,-114
1607021415.5200,-133
1607021415.5219,-137
1607021415.5240,-130
1607021415.5260,-123
1607021415.5280,-114
1607021415.5299,-104
1607021415.5320,-90
1607021415.5340,-76
1607021415.5360,-64
1607021415.5380,-59
1607021415.5400,-52
1607021415.5420,-42
1607021415.5439,-38
1607021415.5460,-30
1607021415.5480,-21
1607021415.5500,-19
1607021415.5520,-19
1607021415.5540,-14
1607021415.5560,-9
1607021415.5579,-7
1607021415.5600,-7
1607021415.5620,-7
1607021415.5639,-2
1607021415.5660,2
1607021415.5679,2
1607021415.5699,2
1607021415.5719,4
1607021415.5740,9
1607021415.9996,11
1607021416.0002,14
1607021416.0032,14
1607021416.0052,14
1607021416.0075,14
1607021416.0095,16
1607021416.0115,21
1607021416.0135,16
1607021416.0156,9
1607021416.0175,11
1607021416.0195,21
1607021416.0215,23
1607021416.0235,23
1607021416.0256,28
1607021416.0275,30
1607021416.0295,30
1607021416.0315,33
1607021416.0335,35
1607021416.0356,30
1607021416.0377,26
1607021416.0396,21
1607021416.0415,23
1607021416.0435,35
1607021416.0456,61
1607021416.0475,97
1607021416.0495,114
1607021416.0515,104
1607021416.0535,87
1607021416.0556,73
1607021416.0576,61
1607021416.0595,52
1607021416.0615,49
1607021416.0635,52
1607021416.0656,54
1607021416.0675,54
1607021416.0695,57
1607021416.0715,59
1607021416.0735,61
1607021416.0755,47
1607021416.0776,-14
1607021416.0795,-68
1607021416.0815,28
1607021416.0835,408
1607021416.0856,1076
1607021416.0875,1554
1607021416.0895,907
1607021416.0915,-387
1607021416.0935,-601
1607021416.0956,35
1607021416.0975,140
1607021416.0995,-47
1607021416.1015,38
1607021416.1035,109
1607021416.1055,57
1607021416.1075,73
1607021416.1095,118
1607021416.1115,116
1607021416.1135,123
1607021416.1155,147
1607021416.1175,156
1607021416.1195,168
1607021416.1215,187
1607021416.1235,199
1607021416.1256,213
1607021416.1275,237
1607021416.1295,261
1607021416.1315,282
1607021416.1335,304
1607021416.1357,327
1607021416.1375,354
1607021416.1397,377
1607021416.1416,396
1607021416.1435,411
1607021416.5398,418
1607021416.5405,413
1607021416.5430,394
1607021416.5457,358
1607021416.5476,299
1607021416.5496,216
1607021416.5516,121
1607021416.5536,30
1607021416.5556,-40
1607021416.5575,-97
1607021416.5596,-133
1607021416.5615,-144
1607021416.5636,-154
1607021416.5656,-156
1607021416.5675,-147
1607021416.5695,-130
1607021416.5715,-121
1607021416.5735,-111
1607021416.5756,-97
1607021416.5775,-87
1607021416.5795,-80
1607021416.5815,-73
1607021416.5835,-61
1607021416.5856,-54
1607021416.5875,-49
1607021416.5895,-47
1607021416.5915,-45
1607021416.5935,-42
1607021416.5956,-40
1607021416.5975,-35
1607021416.5995,-33
1607021416.6016,-30
1607021416.6035,-28
1607021416.6056,-23
1607021416.6075,-19
1607021416.6095,-19
1607021416.6115,-19
1607021416.6135,-16
1607021416.6156,-11
1607021416.6175,-9
1607021416.6195,-7
1607021416.6215,-4
1607021416.6235,-2
1607021416.6255,2
1607021416.6275,2
1607021416.6295,4
1607021416.6315,9
1607021416.6335,14
1607021416.6358,14
1607021416.6376,14
1607021416.6395,19
1607021416.6415,21
1607021416.6435,21
1607021416.6456,19
1607021416.6476,16
1607021416.6496,16
1607021416.6515,21
1607021416.6535,35
1607021416.6555,66
1607021416.6576,97
1607021416.6596,102
1607021416.6615,87
1607021416.6635,73
1607021416.6655,57
1607021416.6675,40
1607021416.6695,35
1607021416.6715,40
1607021416.6735,40
1607021416.6755,40
1607021416.6775,40
1607021416.6796,45
1607021416.6815,49
1607021416.6835,47
1607021417.1398,21
1607021417.1410,-42
1607021417.1435,-59
1607021417.1461,123
1607021417.1480,591
1607021417.1500,1228
1607021417.1521,1356
1607021417.1540,354
1607021417.1561,-670
1607021417.1582,-434
1607021417.1601,116
1607021417.1620,47
1607021417.1640,-54
1607021417.1661,64
1607021417.1681,76
1607021417.1700,38
1607021417.1720,78
1607021417.1740,102
1607021417.1761,90
1607021417.1780,106
1607021417.1800,130
1607021417.1820,135
1607021417.1840,149
1607021417.1860,168
1607021417.1880,185
1607021417.1900,204
1607021417.1923,225
1607021417.1940,244
1607021417.1960,268
1607021417.1980,294
1607021417.2000,316
1607021417.2020,339
1607021417.2039,363
1607021417.2060,380
1607021417.2080,389
1607021417.2100,394
1607021417.2120,389
1607021417.2140,365
1607021417.2160,323
1607021417.2180,261
1607021417.2200,178
1607021417.2220,85
1607021417.2241,0
1607021417.2260,-61
1607021417.2280,-99
1607021417.2300,-123
1607021417.2320,-137
1607021417.2340,-140
1607021417.2360,-135
1607021417.2380,-130
1607021417.2400,-123
1607021417.2421,-109
1607021417.2440,-99
1607021417.2460,-92
1607021417.2480,-83
1607021417.2500,-73
1607021417.2520,-64
1607021417.2540,-59
1607021417.2560,-54
1607021417.2581,-47
1607021417.2600,-40
1607021417.2620,-38
1607021417.2640,-35
1607021417.2660,-28
1607021417.2680,-26
1607021417.2700,-26
1607021417.2720,-26
1607021417.2740,-23
1607021417.2761,-21
1607021417.2780,-19
1607021417.2800,-21
1607021417.2820,-26
1607021417.2840,-28
1607021417.6496,-26
1607021417.6504,-21
1607021417.6528,-16
1607021417.6554,-14
1607021417.6577,-14
1607021417.6595,-14
1607021417.6614,-9
1607021417.6634,-2
1607021417.6655,4
1607021417.6674,2
1607021417.6694,-2
1607021417.6714,-7
1607021417.6735,-14
1607021417.6811,-19
1607021417.6834,-14
1607021417.6854,0
1607021417.6874,30
1607021417.6895,66
1607021417.6914,80
1607021417.6934,73
1607021417.6954,61
1607021417.6974,45
1607021417.6994,28
1607021417.7014,19
1607021417.7034,21
1607021417.7055,19
1607021417.7074,14
1607021417.7094,21
1607021417.7114,35
1607021417.7133,40
1607021417.7154,40
1607021417.7174,30
1607021417.7194,-23
1607021417.7214,-76
1607021417.7235,38
1607021417.7255,434
1607021417.7274,1062
1607021417.7294,1447
1607021417.7314,769
1607021417.7334,-491
1607021417.7354,-696
1607021417.7374,-45
1607021417.7395,125
1607021417.7414,-30
1607021417.7434,35
1607021417.7454,102
1607021417.7474,54
1607021417.7494,68
1607021417.7514,106
1607021417.7534,102
1607021417.7555,109
1607021417.7574,137
1607021417.7594,152
1607021417.7614,161
1607021417.7634,182
1607021417.7656,201
1607021417.7674,213
1607021417.7695,232
1607021417.7715,256
1607021417.7734,275
1607021417.7754,297
1607021417.7774,323
1607021417.7794,351
1607021417.7814,375
1607021417.7834,387
1607021417.7854,394
1607021417.7874,406
1607021417.7895,406
1607021417.7914,389
1607021417.7934,354
1607021417.7954,292
1607021417.7974,206
1607021417.7994,114
1607021418.2199,21
1607021418.2213,-57
1607021418.2238,-104
1607021418.2263,-125
1607021418.2284,-149
1607021418.2303,-163
1607021418.2324,-159
1607021418.2343,-147
1607021418.2364,-142
1607021418.2383,-130
1607021418.2402,-109
1607021418.2422,-90
1607021418.2442,-85
1607021418.2462,-87
1607021418.2482,-83
1607021418.2502,-61
1607021418.2522,-47
1607021418.2543,-57
1607021418.2562,-57
1607021418.2582,-40
1607021418.2602,-35
1607021418.2622,-40
1607021418.2642,-30
1607021418.2662,-26
1607021418.2682,-33
1607021418.2703,-33
1607021418.2722,-19
1607021418.2742,-14
1607021418.2763,-21
1607021418.2782,-19
1607021418.2802,-7
1607021418.2822,-7
1607021418.2841,-14
1607021418.2864,-9
1607021418.2882,4
1607021418.2902,4
1607021418.2922,0
1607021418.2942,0
1607021418.2962,2
1607021418.2982,0
1607021418.3002,-2
1607021418.3022,19
1607021418.3043,64
1607021418.3062,85
1607021418.3082,87
1607021418.3102,83
1607021418.3122,61
1607021418.3142,28
1607021418.3162,14
1607021418.3181,21
1607021418.3203,23
1607021418.3221,23
1607021418.3242,23
1607021418.3262,21
1607021418.3282,28
1607021418.3302,38
1607021418.3322,28
1607021418.3342,0
1607021418.3363,-54
1607021418.3382,-57
1607021418.3402,168
1607021418.3422,693
1607021418.3442,1304
1607021418.3462,1325
1607021418.3481,232
1607021418.3502,-869
1607021418.3523,-632
1607021418.3542,26
1607021418.3562,66
1607021418.3581,-19
1607021418.3602,73
1607021418.3622,90
1607021418.3642,64
1607021418.8197,102
1607021418.8207,125
1607021418.8232,118
1607021418.8258,130
1607021418.8277,149
1607021418.8298,154
1607021418.8318,163
1607021418.8337,187
1607021418.8358,197
1607021418.8378,201
1607021418.8397,232
1607021418.8419,278
1607021418.8438,301
1607021418.8458,311
1607021418.8477,337
1607021418.8497,368
1607021418.8518,387
1607021418.8538,399
1607021418.8557,408
1607021418.8577,408
1607021418.8597,394
1607021418.8617,370
1607021418.8637,323
1607021418.8657,240
1607021418.8678,140
1607021418.8697,45
1607021418.8717,-33
1607021418.8737,-87
1607021418.8758,-130
1607021418.8777,-156
1607021418.8797,-159
1607021418.8817,-152
1607021418.8837,-154
1607021418.8858,-152
1607021418.8877,-135
1607021418.8897,-114
1607021418.8917,-106
1607021418.8937,-102
1607021418.8957,-92
1607021418.8977,-76
1607021418.8997,-68
1607021418.9018,-68
1607021418.9037,-64
1607021418.9058,-52
1607021418.9077,-42
1607021418.9097,-42
1607021418.9118,-45
1607021418.9137,-42
1607021418.9158,-38
1607021418.9178,-35
1607021418.9197,-30
1607021418.9217,-30
1607021418.9237,-33
1607021418.9257,-26
1607021418.9277,-23
1607021418.9297,-26
1607021418.9317,-26
1607021418.9337,-23
1607021418.9358,-21
1607021418.9377,-23
1607021418.9397,-28
1607021418.9417,-14
1607021418.9439,16
1607021418.9458,45
1607021418.9477,64
1607021418.9497,68
1607021418.9518,52
1607021418.9537,28
1607021418.9557,9
1607021418.9577,-4
1607021418.9597,-2
1607021418.9617,7
1607021418.9636,4
1607021419.3595,4
1607021419.3603,11
1607021419.3627,11
1607021419.3654,11
1607021419.3674,11
1607021419.3693,-14
1607021419.3715,-78
1607021419.3734,-87
1607021419.3754,133
1607021419.3773,681
1607021419.3793,1361
1607021419.3813,1375
1607021419.3834,209
1607021419.3853,-807
1607021419.3873,-470
1607021419.3893,83
1607021419.3913,-4
1607021419.3933,-85
1607021419.3953,30
1607021419.3973,33
1607021419.3994,2
1607021419.4013,49
1607021419.4033,71
1607021419.4053,66
1607021419.4073,90
1607021419.4093,109
1607021419.4113,111
1607021419.4133,125
1607021419.4153,152
1607021419.4174,171
1607021419.4193,187
1607021419.4213,206
1607021419.4234,230
1607021419.4253,261
1607021419.4273,287
1607021419.4293,308
1607021419.4314,335
1607021419.4333,358
1607021419.4353,373
1607021419.4373,377
1607021419.4395,377
1607021419.4413,358
1607021419.4433,318
1607021419.4453,259
1607021419.4473,182
1607021419.4495,95
1607021419.4513,2
1607021419.4533,-68
1607021419.4553,-118
1607021419.4573,-152
1607021419.4593,-168
1607021419.4613,-171
1607021419.4633,-166
1607021419.4654,-161
1607021419.4673,-152
1607021419.4693,-137
1607021419.4713,-121
1607021419.4733,-104
1607021419.4754,-97
1607021419.4760,-95
1607021419.4783,-87
1607021419.4803,-78
1607021419.4824,-71
1607021419.4844,-64
1607021419.4863,-57
1607021419.4883,-54
1607021419.4903,-54
1607021419.4924,-49
1607021419.4943,-40
1607021419.4963,-35
1607021419.4983,-40
1607021419.5004,-33
1607021419.5023,-23
1607021419.9298,-26
1607021419.9309,-26
1607021419.9334,-23
1607021419.9360,-23
1607021419.9379,-30
1607021419.9399,-35
1607021419.9420,-33
1607021419.9440,-30
1607021419.9459,-21
1607021419.9479,2
1607021419.9499,38
1607021419.9519,54
1607021419.9539,52
1607021419.9558,35
1607021419.9578,7
1607021419.9598,-7
1607021419.9605,-4
1607021419.9628,0
1607021419.9651,0
1607021419.9669,2
1607021419.9688,4
1607021419.9708,9
1607021419.9728,14
1607021419.9749,14
1607021419.9768,-9
1607021419.9788,-80
1607021419.9809,-118
1607021419.9828,54
1607021419.9849,541
1607021419.9868,1259
1607021419.9888,1508
1607021419.9908,515
1607021419.9915,-665
1607021419.9938,-510
1607021419.9958,83
1607021419.9980,16
1607021419.9998,-116
1607021420.0018,7
1607021420.0038,30
1607021420.0059,-14
1607021420.0078,28
1607021420.0098,59
1607021420.0118,54
1607021420.0139,68
1607021420.0159,90
1607021420.0178,99
1607021420.0198,116
1607021420.0219,133
1607021420.0225,149
1607021420.0250,171
1607021420.0268,190
1607021420.0289,209
1607021420.0309,232
1607021420.0328,259
1607021420.0349,282
1607021420.0368,304
1607021420.0388,323
1607021420.0409,339
1607021420.0428,351
1607021420.0449,349
1607021420.0469,337
1607021420.0488,311
1607021420.0508,261
1607021420.0528,185
1607021420.0535,95
1607021420.0559,0
1607021420.0578,-73
1607021420.0599,-123
1607021420.0619,-154
1607021420.0641,-173
1607021420.0659,-178
1607021420.0678,-173
1607021420.0698,-166
1607021420.4698,-156
1607021420.4707,-147
1607021420.4732,-135
1607021420.4759,-121
1607021420.4778,-106
1607021420.4799,-99
1607021420.4818,-97
1607021420.4826,-90
1607021420.4848,-80
1607021420.4868,-80
1607021420.4887,-80
1607021420.4907,-73
1607021420.4927,-66
1607021420.4948,-64
1607021420.4967,-59
1607021420.4987,-52
1607021420.5007,-49
1607021420.5027,-47
1607021420.5047,-40
1607021420.5067,-35
1607021420.5086,-38
1607021420.5108,-35
1607021420.5128,-28
1607021420.5134,-23
1607021420.5157,-21
1607021420.5177,-23
1607021420.5197,-30
1607021420.5217,-33
1607021420.5237,-30
1607021420.5257,-30
1607021420.5278,-21
1607021420.5297,7
1607021420.5317,45
1607021420.5337,64
1607021420.5357,59
1607021420.5377,45
1607021420.5397,26
1607021420.5417,7
1607021420.5438,2
1607021420.5445,4
1607021420.5467,4
1607021420.5487,4
1607021420.5507,4
1607021420.5527,11
1607021420.5547,16
1607021420.5567,16
1607021420.5587,9
1607021420.5609,-30
1607021420.5628,-106
1607021420.5647,-73
1607021420.5667,228
1607021420.5687,831
1607021420.5707,1442
1607021420.5727,1157
1607021420.5734,-116
1607021420.5757,-729
1607021420.5778,-178
1607021420.5797,140
1607021420.5817,-54
1607021420.5837,-47
1607021420.5857,61
1607021420.5877,23
1607021420.5897,16
1607021420.5917,66
1607021420.5937,71
1607021420.5958,68
1607021420.5977,92
1607021420.5997,106
1607021420.6017,116
1607021420.6037,133
1607021420.6044,154
1607021420.6067,168
1607021420.6087,185
1607021421.0093,206
1607021421.0103,230
1607021421.0114,251
1607021421.0134,275
1607021421.0153,299
1607021421.0173,320
1607021421.0192,335
1607021421.0214,339
1607021421.0233,344
1607021421.0253,346
1607021421.0260,335
1607021421.0273,299
1607021421.0292,244
1607021421.0313,168
1607021421.0333,76
1607021421.0353,-11
1607021421.0373,-78
1607021421.0393,-123
1607021421.0413,-156
1607021421.0433,-173
1607021421.0453,-178
1607021421.0472,-171
1607021421.0492,-159
1607021421.0512,-149
1607021421.0532,-137
1607021421.0554,-125
1607021421.0561,-114
1607021421.0583,-104
1607021421.0603,-95
1607021421.0622,-85
1607021421.0642,-80
1607021421.0662,-73
1607021421.0683,-61
1607021421.0703,-57
1607021421.0723,-54
1607021421.0742,-52
1607021421.0763,-49
1607021421.0782,-42
1607021421.0802,-38
1607021421.0822,-33
1607021421.0842,-28
1607021421.0862,-28
1607021421.0882,-28
1607021421.0902,-26
1607021421.0923,-21
1607021421.0943,-19
1607021421.0963,-16
1607021421.0982,-14
1607021421.1002,-9
1607021421.1022,-9
1607021421.1042,-7
1607021421.1062,-7
1607021421.1083,-4
1607021421.1103,-4
1607021421.1122,-2
1607021421.1142,2
1607021421.1163,9
1607021421.1182,11
1607021421.1202,7
1607021421.1222,2
1607021421.1243,2
1607021421.1264,4
1607021421.1282,9
1607021421.1303,14
1607021421.1322,33
1607021421.1342,64
1607021421.1362,92
1607021421.1382,95
1607021421.1402,78
1607021421.1423,61
1607021421.1442,47
1607021421.1463,38
1607021421.1482,35
1607021421.6403,33
1607021421.6416,33
1607021421.6440,35
1607021421.6470,33
1607021421.6486,23
1607021421.6506,28
1607021421.6527,33
1607021421.6547,-4
1607021421.6566,-76
1607021421.6587,-64
1607021421.6606,178
1607021421.6626,715
1607021421.6648,1347
1607021421.6667,1259
1607021421.6687,83
1607021421.6706,-746
1607021421.6726,-311
1607021421.6747,147
1607021421.6767,4
1607021421.6787,-45
1607021421.6807,73
1607021421.6827,61
1607021421.6847,35
1607021421.6866,80
1607021421.6886,95
1607021421.6907,90
1607021421.6926,111
1607021421.6946,130
1607021421.6967,137
1607021421.6987,156
1607021421.7006,173
1607021421.7026,185
1607021421.7048,206
1607021421.7066,232
1607021421.7087,244
1607021421.7107,259
1607021421.7127,285
1607021421.7147,313
1607021421.7166,339
1607021421.7186,361
1607021421.7206,373
1607021421.7226,375
1607021421.7247,375
1607021421.7266,363
1607021421.7286,344
1607021421.7306,301
1607021421.7326,228
1607021421.7346,133
1607021421.7366,42
1607021421.7386,-26
1607021421.7406,-80
1607021421.7425,-123
1607021421.7445,-144
1607021421.7465,-152
1607021421.7487,-154
1607021421.7506,-147
1607021421.7526,-128
1607021421.7546,-118
1607021421.7567,-111
1607021421.7586,-99
1607021421.7606,-87
1607021421.7625,-80
1607021421.7646,-78
1607021421.7665,-71
1607021421.7685,-54
1607021421.7705,-47
1607021421.7727,-52
1607021421.7746,-49
1607021421.7765,-38
1607021421.7785,-35
1607021421.7805,-38
1607021421.7825,-35
1607021421.7846,-26
1607021422.1792,-21
1607021422.1802,-26
1607021422.1826,-26
1607021422.1853,-21
1607021422.1872,-21
1607021422.1893,-23
1607021422.1913,-16
1607021422.1932,-11
1607021422.1953,-16
1607021422.1972,-23
1607021422.1992,-16
1607021422.2012,-7
1607021422.2032,-11
1607021422.2053,-19
1607021422.2072,-16
1607021422.2092,-7
1607021422.2112,-7
1607021422.2132,-9
1607021422.2153,0
1607021422.2172,4
1607021422.2192,0
1607021422.2213,2
1607021422.2232,14
1607021422.2252,21
1607021422.2272,19
1607021422.2292,19
1607021422.2312,16
1607021422.2332,21
1607021422.2351,26
1607021422.2372,23
1607021422.2392,23
1607021422.2411,26
1607021422.2433,19
1607021422.2452,16
1607021422.2471,26
1607021422.2491,38
1607021422.2512,57
1607021422.2532,87
1607021422.2552,99
1607021422.2572,90
1607021422.2592,76
1607021422.2611,59
1607021422.2632,42
1607021422.2652,35
1607021422.2672,35
1607021422.2692,40
1607021422.2712,45
1607021422.2732,45
1607021422.2752,38
1607021422.2772,45
1607021422.2791,54
1607021422.2813,35
1607021422.2832,-28
1607021422.2852,-76
1607021422.2872,52
1607021422.2892,470
1607021422.2912,1097
1607021422.2931,1442
1607021422.2952,701
1607021422.2971,-586
1607021422.2992,-746
1607021422.3011,-66
1607021422.3031,109
1607021422.3053,-35
1607021422.3071,28
1607021422.3091,87
1607021422.3112,49
1607021422.3131,64
1607021422.3152,99
1607021422.3171,97
1607021422.3191,92
1607021422.3212,109
1607021422.3232,125
1607021422.7198,140
1607021422.7208,152
1607021422.7233,161
1607021422.7259,180
1607021422.7279,206
1607021422.7298,228
1607021422.7318,247
1607021422.7338,266
1607021422.7359,285
1607021422.7379,304
1607021422.7401,318
1607021422.7419,330
1607021422.7438,342
1607021422.7459,346
1607021422.7478,339
1607021422.7498,327
1607021422.7518,301
1607021422.7539,251
1607021422.7559,171
1607021422.7578,78
1607021422.7598,-4
1607021422.7618,-68
1607021422.7639,-118
1607021422.7658,-147
1607021422.7679,-166
1607021422.7699,-178
1607021422.7718,-173
1607021422.7738,-161
1607021422.7758,-149
1607021422.7778,-140
1607021422.7798,-125
1607021422.7818,-114
1607021422.7838,-106
1607021422.7859,-99
1607021422.7878,-90
1607021422.7898,-85
1607021422.7918,-80
1607021422.7938,-78
1607021422.7958,-73
1607021422.7978,-64
1607021422.7998,-59
1607021422.8019,-57
1607021422.8039,-54
1607021422.8058,-49
1607021422.8079,-47
1607021422.8098,-49
1607021422.8118,-47
1607021422.8138,-40
1607021422.8158,-35
1607021422.8178,-38
1607021422.8199,-38
1607021422.8219,-35
1607021422.8239,-30
1607021422.8259,-26
1607021422.8278,-26
1607021422.8298,-23
1607021422.8318,-19
1607021422.8338,-19
1607021422.8359,-23
1607021422.8378,-21
1607021422.8398,-11
1607021422.8419,-11
1607021422.8438,-19
1607021422.8459,-21
1607021422.8478,-14
1607021422.8498,-7
1607021422.8519,-7
1607021422.8538,-4
1607021422.8558,-4
1607021422.8578,0
1607021422.8598,2
1607021422.8618,2
1607021422.8638,0
1607021423.2897,2
1607021423.2906,4
1607021423.2931,4
1607021423.2958,4
1607021423.2977,9
1607021423.2998,16
1607021423.3018,11
1607021423.3037,0
1607021423.3058,-2
1607021423.3077,-2
1607021423.3097,-7
1607021423.3117,-4
1607021423.3137,11
1607021423.3157,42
1607021423.3177,73
1607021423.3196,80
1607021423.3216,66
1607021423.3236,52
1607021423.3256,35
1607021423.3276,19
1607021423.3296,9
1607021423.3316,11
1607021423.3337,16
1607021423.3356,11
1607021423.3376,11
1607021423.3396,16
1607021423.3416,21
1607021423.3436,21
1607021423.3456,0
1607021423.3476,-64
1607021423.3497,-109
1607021423.3517,23
1607021423.3536,461
1607021423.3557,1157
1607021423.3576,1506
1607021423.3596,660
1607021423.3616,-563
1607021423.3636,-556
1607021423.3657,47
1607021423.3678,52
1607021423.3697,-97
1607021423.3716,9
1607021423.3736,47
1607021423.3756,2
1607021423.3776,33
1607021423.3796,68
1607021423.3816,64
1607021423.3837,76
1607021423.3856,95
1607021423.3878,102
1607021423.3897,114
1607021423.3916,135
1607021423.3936,149
1607021423.3957,168
1607021423.3977,185
1607021423.3997,199
1607021423.4017,223
1607021423.4036,249
1607021423.4057,270
1607021423.4076,297
1607021423.4096,320
1607021423.4116,337
1607021423.4136,346
1607021423.4157,354
1607021423.4177,351
1607021423.4196,332
1607021423.4216,297
1607021423.4236,242
1607021423.4257,166
1607021423.4276,80
1607021423.4296,-4
1607021423.4316,-73
1607021423.4337,-118
1607021423.8293,-147
1607021423.8303,-163
1607021423.8328,-168
1607021423.8354,-163
1607021423.8374,-156
1607021423.8394,-149
1607021423.8414,-142
1607021423.8434,-135
1607021423.8454,-130
1607021423.8473,-125
1607021423.8494,-116
1607021423.8513,-106
1607021423.8533,-99
1607021423.8553,-92
1607021423.8573,-85
1607021423.8593,-78
1607021423.8613,-73
1607021423.8635,-68
1607021423.8653,-66
1607021423.8673,-64
1607021423.8692,-61
1607021423.8712,-57
1607021423.8732,-54
1607021423.8753,-54
1607021423.8773,-52
1607021423.8792,-47
1607021423.8813,-42
1607021423.8833,-40
1607021423.8853,-40
1607021423.8873,-38
1607021423.8893,-33
1607021423.8912,-30
1607021423.8932,-28
1607021423.8953,-26
1607021423.8973,-23
1607021423.8993,-21
1607021423.9013,-19
1607021423.9032,-16
1607021423.9052,-16
1607021423.9072,-21
1607021423.9092,-21
1607021423.9112,-21
1607021423.9133,-21
1607021423.9153,-16
1607021423.9173,-14
1607021423.9192,-14
1607021423.9213,-11
1607021423.9232,-11
1607021423.9253,-14
1607021423.9272,-9
1607021423.9292,-4
1607021423.9313,-4
1607021423.9333,-4
1607021423.9352,0
1607021423.9372,2
1607021423.9392,0
1607021423.9412,-2
1607021423.9432,0
1607021423.9453,0
1607021423.9473,0
1607021423.9493,4
1607021423.9512,21
1607021423.9532,52
1607021423.9553,78
1607021423.9572,83
1607021423.9592,68
1607021423.9612,52
1607021423.9634,35
1607021423.9655,21
1607021423.9673,19
1607021423.9692,19
1607021423.9712,19
1607021423.9732,21
1607021424.3996,23
1607021424.4006,26
1607021424.4031,26
1607021424.4058,28
1607021424.4077,2
1607021424.4097,-68
1607021424.4117,-97
1607021424.4138,80
1607021424.4157,546
1607021424.4176,1200
1607021424.4196,1371
1607021424.4216,406
1607021424.4238,-627
1607021424.4257,-420
1607021424.4276,109
1607021424.4298,28
1607021424.4316,-76
1607021424.4336,40
1607021424.4356,52
1607021424.4376,16
1607021424.4396,59
1607021424.4416,80
1607021424.4436,71
1607021424.4457,90
1607021424.4477,111
1607021424.4496,118
1607021424.4516,133
1607021424.4536,154
1607021424.4556,166
1607021424.4576,180
1607021424.4596,199
1607021424.4616,220
1607021424.4637,242
1607021424.4656,266
1607021424.4676,287
1607021424.4696,311
1607021424.4716,332
1607021424.4736,349
1607021424.4756,358
1607021424.4776,365
1607021424.4797,363
1607021424.4816,342
1607021424.4836,301
1607021424.4856,244
1607021424.4876,168
1607021424.4896,78
1607021424.4918,-2
1607021424.4936,-68
1607021424.4957,-116
1607021424.4976,-140
1607021424.4996,-154
1607021424.5016,-159
1607021424.5036,-154
1607021424.5056,-147
1607021424.5076,-142
1607021424.5096,-135
1607021424.5116,-121
1607021424.5137,-104
1607021424.5156,-99
1607021424.5176,-97
1607021424.5196,-87
1607021424.5217,-78
1607021424.5236,-76
1607021424.5256,-76
1607021424.5276,-73
1607021424.5297,-66
1607021424.5316,-57
1607021424.5336,-54
1607021424.5356,-54
1607021424.5376,-49
1607021424.5396,-45
1607021424.5416,-49
1607021424.5436,-49
1607021424.9398,-40
1607021424.9408,-33
1607021424.9432,-35
1607021424.9459,-33
1607021424.9478,-33
1607021424.9498,-28
1607021424.9519,-26
1607021424.9538,-30
1607021424.9558,-33
1607021424.9578,-30
1607021424.9598,-26
1607021424.9618,-23
1607021424.9638,-21
1607021424.9657,-19
1607021424.9677,-11
1607021424.9698,-11
1607021424.9718,-14
1607021424.9737,-9
1607021424.9759,-2
1607021424.9779,-2
1607021424.9797,-4
1607021424.9817,-2
1607021424.9837,4
1607021424.9857,2
1607021424.9879,0
1607021424.9898,2
1607021424.9917,7
1607021424.9937,4
1607021424.9958,2
1607021424.9977,7
1607021424.9998,4
1607021425.0017,4
1607021425.0038,16
1607021425.0058,33
1607021425.0077,54
1607021425.0097,78
1607021425.0117,85
1607021425.0137,68
1607021425.0157,38
1607021425.0177,14
1607021425.0197,16
1607021425.0217,21
1607021425.0237,16
1607021425.0257,16
1607021425.0277,30
1607021425.0297,35
1607021425.0317,28
1607021425.0338,30
1607021425.0358,28
1607021425.0377,-23
1607021425.0397,-78
1607021425.0417,19
1607021425.0437,370
1607021425.0458,948
1607021425.0479,1394
1607021425.0498,883
1607021425.0517,-403
1607021425.0537,-803
1607021425.0558,-156
1607021425.0577,128
1607021425.0599,-33
1607021425.0617,2
1607021425.0637,95
1607021425.0657,54
1607021425.0677,52
1607021425.0698,95
1607021425.0717,99
1607021425.0737,106
1607021425.0757,133
1607021425.0777,137
1607021425.0797,144
1607021425.0817,168
1607021425.0837,182
1607021425.5397,190
1607021425.5410,209
1607021425.5438,237
1607021425.5461,254
1607021425.5481,263
1607021425.5500,287
1607021425.5521,318
1607021425.5541,339
1607021425.5560,361
1607021425.5580,382
1607021425.5600,387
1607021425.5620,382
1607021425.5640,373
1607021425.5660,342
1607021425.5679,287
1607021425.5699,216
1607021425.5719,123
1607021425.5739,26
1607021425.5760,-49
1607021425.5779,-106
1607021425.5799,-152
1607021425.5819,-175
1607021425.5839,-182
1607021425.5859,-190
1607021425.5879,-185
1607021425.5900,-168
1607021425.5919,-161
1607021425.5939,-163
1607021425.5960,-149
1607021425.5979,-125
1607021425.5999,-118
1607021425.6019,-118
1607021425.6039,-106
1607021425.6059,-97
1607021425.6079,-97
1607021425.6099,-90
1607021425.6119,-80
1607021425.6139,-76
1607021425.6159,-68
1607021425.6179,-64
1607021425.6199,-64
1607021425.6220,-61
1607021425.6239,-59
1607021425.6260,-57
1607021425.6279,-57
1607021425.6299,-52
1607021425.6319,-45
1607021425.6339,-45
1607021425.6359,-42
1607021425.6379,-35
1607021425.6399,-33
1607021425.6419,-33
1607021425.6439,-28
1607021425.6461,-28
1607021425.6480,-30
1607021425.6499,-26
1607021425.6519,-19
1607021425.6539,-14
1607021425.6560,-14
1607021425.6579,-9
1607021425.6599,-7
1607021425.6619,-9
1607021425.6639,-9
1607021425.6660,-4
1607021425.6679,0
1607021425.6699,-2
1607021425.6719,-11
1607021425.6739,-14
1607021425.6760,2
1607021425.6779,38
1607021425.6799,66
1607021425.6819,76
1607021425.6839,71
1607021426.1397,54
1607021426.1407,30
1607021426.1439,9
1607021426.1455,2
1607021426.1475,7
1607021426.1495,9
1607021426.1515,9
1607021426.1535,9
1607021426.1542,4
1607021426.1564,4
1607021426.1584,9
1607021426.1604,-2
1607021426.1624,-57
1607021426.1644,-97
1607021426.1664,33
1607021426.1684,456
1607021426.1704,1078
1607021426.1724,1390
1607021426.1744,620
1607021426.1764,-634
1607021426.1784,-758
1607021426.1805,-87
1607021426.1824,73
1607021426.1844,-61
1607021426.1852,7
1607021426.1874,66
1607021426.1894,28
1607021426.1914,47
1607021426.1934,85
1607021426.1954,80
1607021426.1974,85
1607021426.1996,106
1607021426.2015,118
1607021426.2034,128
1607021426.2054,147
1607021426.2075,163
1607021426.2094,175
1607021426.2114,194
1607021426.2134,218
1607021426.2154,242
1607021426.2161,266
1607021426.2185,287
1607021426.2205,311
1607021426.2224,339
1607021426.2244,356
1607021426.2264,365
1607021426.2284,370
1607021426.2304,363
1607021426.2324,339
1607021426.2344,304
1607021426.2364,247
1607021426.2384,163
1607021426.2404,66
1607021426.2424,-23
1607021426.2444,-90
1607021426.2464,-135
1607021426.2471,-163
1607021426.2494,-180
1607021426.2514,-182
1607021426.2535,-180
1607021426.2556,-175
1607021426.2576,-166
1607021426.2594,-152
1607021426.2614,-140
1607021426.2634,-130
1607021426.2654,-121
1607021426.2674,-114
1607021426.2694,-114
1607021426.2714,-109
1607021426.2734,-102
1607021426.2754,-95
1607021426.2774,-92
1607021426.2781,-87
1607021426.6501,-80
1607021426.6511,-73
1607021426.6536,-71
1607021426.6562,-68
1607021426.6581,-64
1607021426.6601,-59
1607021426.6621,-57
1607021426.6642,-57
1607021426.6661,-54
1607021426.6682,-49
1607021426.6702,-49
1607021426.6720,-49
1607021426.6740,-47
1607021426.6761,-47
1607021426.6780,-47
1607021426.6788,-47
1607021426.6810,-45
1607021426.6831,-40
1607021426.6851,-38
1607021426.6872,-35
1607021426.6892,-33
1607021426.6911,-28
1607021426.6931,-28
1607021426.6950,-28
1607021426.6971,-30
1607021426.6992,-33
1607021426.7012,-35
1607021426.7031,-28
1607021426.7052,-4
1607021426.7071,30
1607021426.7078,54
1607021426.7092,54
1607021426.7112,45
1607021426.7131,28
1607021426.7151,9
1607021426.7170,-2
1607021426.7190,-2
1607021426.7210,-2
1607021426.7230,-2
1607021426.7251,0
1607021426.7270,2
1607021426.7290,4
1607021426.7310,7
1607021426.7330,4
1607021426.7351,-35
1607021426.7371,-104
1607021426.7378,-80
1607021426.7400,182
1607021426.7420,748
1607021426.7440,1373
1607021426.7461,1188
1607021426.7480,-38
1607021426.7500,-746
1607021426.7521,-244
1607021426.7540,130
1607021426.7561,-47
1607021426.7581,-64
1607021426.7600,54
1607021426.7620,23
1607021426.7640,4
1607021426.7662,57
1607021426.7681,64
1607021426.7688,59
1607021426.7710,83
1607021426.7730,99
1607021426.7751,104
1607021426.7770,121
1607021426.7790,140
1607021426.7811,154
1607021426.7830,168
1607021426.7851,190
1607021426.7870,211
1607021426.7890,235
1607021427.1898,256
1607021427.1908,280
1607021427.1932,306
1607021427.1945,325
1607021427.1958,335
1607021427.1978,344
1607021427.1998,349
1607021427.2020,335
1607021427.2038,299
1607021427.2058,254
1607021427.2077,187
1607021427.2097,97
1607021427.2117,2
1607021427.2137,-71
1607021427.2158,-125
1607021427.2178,-159
1607021427.2198,-180
1607021427.2217,-190
1607021427.2237,-190
1607021427.2244,-180
1607021427.2268,-171
1607021427.2287,-161
1607021427.2307,-152
1607021427.2327,-142
1607021427.2348,-135
1607021427.2367,-125
1607021427.2387,-116
1607021427.2407,-111
1607021427.2427,-104
1607021427.2448,-97
1607021427.2467,-90
1607021427.2487,-85
1607021427.2507,-78
1607021427.2527,-73
1607021427.2549,-68
1607021427.2555,-68
1607021427.2568,-66
1607021427.2587,-61
1607021427.2609,-57
1607021427.2628,-57
1607021427.2648,-54
1607021427.2668,-47
1607021427.2688,-47
1607021427.2707,-49
1607021427.2727,-45
1607021427.2748,-42
1607021427.2767,-45
1607021427.2787,-42
1607021427.2807,-40
1607021427.2827,-40
1607021427.2848,-40
1607021427.2854,-35
1607021427.2867,-30
1607021427.2887,-30
1607021427.2908,-38
1607021427.2927,-38
1607021427.2948,-30
1607021427.2967,-23
1607021427.2987,-9
1607021427.3007,21
1607021427.3028,52
1607021427.3048,54
1607021427.3067,40
1607021427.3087,26
1607021427.3107,7
1607021427.3127,-7
1607021427.3148,-9
1607021427.3167,-7
1607021427.3187,-2
1607021427.3207,-4
1607021427.3227,-7
1607021427.3248,-4
1607021427.3267,0
1607021427.7898,-2
1607021427.7907,-30
1607021427.7932,-92
1607021427.7959,-90
1607021427.7978,123
1607021427.7998,613
1607021427.8020,1223
1607021427.8038,1216
1607021427.8059,130
1607021427.8078,-753
1607021427.8098,-389
1607021427.8118,102
1607021427.8139,-11
1607021427.8158,-83
1607021427.8178,40
1607021427.8197,40
1607021427.8220,4
1607021427.8238,42
1607021427.8258,66
1607021427.8278,66
1607021427.8298,83
1607021427.8318,97
1607021427.8337,102
1607021427.8357,118
1607021427.8377,142
1607021427.8397,156
1607021427.8417,171
1607021427.8437,192
1607021427.8458,211
1607021427.8479,232
1607021427.8497,259
1607021427.8517,287
1607021427.8537,308
1607021427.8558,327
1607021427.8577,344
1607021427.8597,358
1607021427.8617,363
1607021427.8637,356
1607021427.8657,335
1607021427.8677,294
1607021427.8697,220
1607021427.8717,130
1607021427.8737,42
1607021427.8759,-35
1607021427.8777,-95
1607021427.8797,-133
1607021427.8817,-159
1607021427.8837,-166
1607021427.8857,-161
1607021427.8877,-159
1607021427.8897,-156
1607021427.8917,-140
1607021427.8937,-128
1607021427.8957,-116
1607021427.8977,-106
1607021427.8997,-99
1607021427.9017,-97
1607021427.9037,-85
1607021427.9058,-73
1607021427.9077,-71
1607021427.9097,-71
1607021427.9117,-64
1607021427.9138,-61
1607021427.9158,-59
1607021427.9177,-57
1607021427.9197,-57
1607021427.9217,-54
1607021427.9239,-47
1607021427.9258,-45
1607021427.9277,-42
1607021427.9297,-35
1607021427.9317,-38
1607021427.9337,-45
1607021428.2995,-38
1607021428.3002,-23
1607021428.3027,-28
1607021428.3054,-38
1607021428.3073,-30
1607021428.3093,-21
1607021428.3114,-26
1607021428.3133,-30
1607021428.3153,-26
1607021428.3173,-28
1607021428.3193,-35
1607021428.3213,-30
1607021428.3233,-28
1607021428.3253,-35
1607021428.3273,-33
1607021428.3293,-26
1607021428.3313,-14
1607021428.3333,14
1607021428.3353,42
1607021428.3373,52
1607021428.3393,45
1607021428.3413,30
1607021428.3433,9
1607021428.3453,-2
1607021428.3473,-7
1607021428.3493,-11
1607021428.3513,-11
1607021428.3533,-7
1607021428.3553,0
1607021428.3572,4
1607021428.3593,4
1607021428.3612,0
1607021428.3633,-19
1607021428.3652,-61
1607021428.3672,-90
1607021428.3693,45
1607021428.3713,453
1607021428.3732,1055
1607021428.3753,1368
1607021428.3772,622
1607021428.3792,-643
1607021428.3812,-798
1607021428.3833,-109
1607021428.3852,85
1607021428.3872,-47
1607021428.3894,14
1607021428.3913,73
1607021428.3932,42
1607021428.3953,61
1607021428.3973,87
1607021428.3992,80
1607021428.4012,95
1607021428.4032,123
1607021428.4053,130
1607021428.4073,135
1607021428.4092,159
1607021428.4112,182
1607021428.4133,192
1607021428.4153,201
1607021428.4173,225
1607021428.4193,256
1607021428.4212,278
1607021428.4232,297
1607021428.4253,323
1607021428.4272,344
1607021428.4292,363
1607021428.4313,377
1607021428.4332,382
1607021428.4352,375
1607021428.4373,354
1607021428.4392,320
1607021428.4412,263
1607021428.4433,180
1607021428.8995,80
1607021428.9003,-14
1607021428.9021,-90
1607021428.9040,-137
1607021428.9060,-171
1607021428.9080,-190
1607021428.9100,-192
1607021428.9121,-185
1607021428.9141,-178
1607021428.9161,-166
1607021428.9180,-156
1607021428.9200,-142
1607021428.9220,-130
1607021428.9241,-116
1607021428.9260,-106
1607021428.9280,-102
1607021428.9300,-95
1607021428.9320,-83
1607021428.9340,-78
1607021428.9360,-78
1607021428.9380,-76
1607021428.9400,-68
1607021428.9420,-66
1607021428.9442,-68
1607021428.9460,-61
1607021428.9480,-54
1607021428.9499,-57
1607021428.9519,-59
1607021428.9540,-52
1607021428.9559,-49
1607021428.9580,-49
1607021428.9600,-42
1607021428.9620,-38
1607021428.9640,-40
1607021428.9659,-40
1607021428.9679,-35
1607021428.9699,-33
1607021428.9719,-28
1607021428.9739,-26
1607021428.9760,-23
1607021428.9779,-26
1607021428.9799,-28
1607021428.9819,-33
1607021428.9839,-35
1607021428.9859,-28
1607021428.9879,-11
1607021428.9899,16
1607021428.9920,42
1607021428.9940,49
1607021428.9960,40
1607021428.9979,21
1607021428.9999,0
1607021429.0019,-9
1607021429.0040,-9
1607021429.0060,-9
1607021429.0080,-11
1607021429.0100,-9
1607021429.0120,-7
1607021429.0139,-4
1607021429.0160,0
1607021429.0179,2
1607021429.0200,-21
1607021429.0219,-90
1607021429.0240,-125
1607021429.0260,35
1607021429.0280,499
1607021429.0299,1171
1607021429.0320,1428
1607021429.0339,506
1607021429.0359,-691
1607021429.0379,-617
1607021429.0399,14
1607021429.0419,35
1607021429.4699,-95
1607021429.4714,7
1607021429.4736,42
1607021429.4762,2
1607021429.4782,30
1607021429.4801,59
1607021429.4822,54
1607021429.4842,68
1607021429.4861,83
1607021429.4881,85
1607021429.4901,97
1607021429.4921,118
1607021429.4941,135
1607021429.4961,152
1607021429.4981,171
1607021429.5001,192
1607021429.5021,216
1607021429.5041,242
1607021429.5061,268
1607021429.5080,294
1607021429.5101,316
1607021429.5121,335
1607021429.5141,346
1607021429.5160,349
1607021429.5181,342
1607021429.5200,320
1607021429.5220,278
1607021429.5240,211
1607021429.5261,128
1607021429.5280,35
1607021429.5301,-47
1607021429.5321,-109
1607021429.5340,-149
1607021429.5361,-175
1607021429.5381,-185
1607021429.5400,-182
1607021429.5421,-178
1607021429.5441,-168
1607021429.5461,-156
1607021429.5480,-149
1607021429.5502,-140
1607021429.5520,-128
1607021429.5541,-118
1607021429.5560,-116
1607021429.5581,-114
1607021429.5600,-104
1607021429.5620,-92
1607021429.5640,-87
1607021429.5661,-87
1607021429.5680,-83
1607021429.5700,-76
1607021429.5720,-71
1607021429.5742,-66
1607021429.5761,-61
1607021429.5781,-61
1607021429.5800,-59
1607021429.5820,-57
1607021429.5840,-52
1607021429.5860,-47
1607021429.5880,-45
1607021429.5900,-42
1607021429.5920,-40
1607021429.5940,-42
1607021429.5961,-38
1607021429.5981,-30
1607021429.6000,-30
1607021429.6020,-30
1607021429.6040,-28
1607021429.6061,-26
1607021429.6080,-23
1607021429.6100,-21
1607021429.6120,-19
1607021429.6141,-16
1607021430.0090,-14
1607021430.0097,-16
1607021430.0122,-16
1607021430.0148,-19
1607021430.0167,-21
1607021430.0187,-26
1607021430.0208,-26
1607021430.0227,-11
1607021430.0248,19
1607021430.0267,47
1607021430.0287,47
1607021430.0307,35
1607021430.0327,26
1607021430.0349,7
1607021430.0367,-9
1607021430.0387,-14
1607021430.0407,-9
1607021430.0427,-9
1607021430.0448,-7
1607021430.0467,-4
1607021430.0487,-2
1607021430.0507,0
1607021430.0527,2
1607021430.0547,-21
1607021430.0567,-92
1607021430.0587,-123
1607021430.0607,45
1607021430.0627,515
1607021430.0646,1195
1607021430.0667,1399
1607021430.0689,422
1607021430.0707,-672
1607021430.0727,-499
1607021430.0748,64
1607021430.0767,2
1607021430.0788,-111
1607021430.0807,7
1607021430.0827,21
1607021430.0847,-21
1607021430.0867,23
1607021430.0887,52
1607021430.0907,40
1607021430.0927,57
1607021430.0947,78
1607021430.0967,85
1607021430.0987,97
1607021430.1007,118
1607021430.1027,133
1607021430.1047,147
1607021430.1067,166
1607021430.1087,190
1607021430.1108,211
1607021430.1128,237
1607021430.1147,263
1607021430.1167,287
1607021430.1187,306
1607021430.1207,323
1607021430.1227,335
1607021430.1247,342
1607021430.1267,339
1607021430.1287,318
1607021430.1307,278
1607021430.1327,218
1607021430.1348,142
1607021430.1367,49
1607021430.1387,-35
1607021430.1407,-95
1607021430.1427,-135
1607021430.1447,-163
1607021430.1467,-178
1607021430.1487,-175
1607021430.1507,-171
1607021430.1527,-166
1607021430.5794,-156
1607021430.5804,-142
1607021430.5828,-133
1607021430.5854,-123
1607021430.5875,-114
1607021430.5895,-104
1607021430.5916,-104
1607021430.5935,-104
1607021430.5957,-95
1607021430.5975,-85
1607021430.5994,-83
1607021430.6014,-80
1607021430.6035,-76
1607021430.6055,-71
1607021430.6075,-66
1607021430.6094,-64
1607021430.6114,-61
1607021430.6134,-59
1607021430.6154,-54
1607021430.6174,-52
1607021430.6195,-47
1607021430.6214,-45
1607021430.6233,-42
1607021430.6254,-42
1607021430.6274,-42
1607021430.6294,-42
1607021430.6314,-45
1607021430.6334,-45
1607021430.6354,-42
1607021430.6374,-40
1607021430.6394,-38
1607021430.6414,-38
1607021430.6434,-33
1607021430.6454,-28
1607021430.6475,-26
1607021430.6494,-23
1607021430.6514,-23
1607021430.6535,-21
1607021430.6554,-19
1607021430.6574,-16
1607021430.6594,-14
1607021430.6615,-14
1607021430.6634,-14
1607021430.6654,-11
1607021430.6674,-9
1607021430.6694,-7
1607021430.6714,-9
1607021430.6733,-14
1607021430.6754,-19
1607021430.6774,-16
1607021430.6794,-4
1607021430.6814,21
1607021430.6834,54
1607021430.6854,71
1607021430.6874,64
1607021430.6894,52
1607021430.6914,40
1607021430.6934,14
1607021430.6954,-4
1607021430.6975,-2
1607021430.6994,0
1607021430.7013,-2
1607021430.7034,-2
1607021430.7054,0
1607021430.7074,2
1607021430.7094,7
1607021430.7114,-2
1607021430.7134,-59
1607021430.7154,-121
1607021430.7174,-42
1607021430.7194,289
1607021430.7214,895
1607021430.7234,1418
1607021431.1193,957
1607021431.1203,-306
1607021431.1227,-703
1607021431.1254,-109
1607021431.1273,104
1607021431.1293,-83
1607021431.1313,-40
1607021431.1333,49
1607021431.1352,0
1607021431.1373,-2
1607021431.1392,45
1607021431.1412,52
1607021431.1433,52
1607021431.1453,73
1607021431.1472,90
1607021431.1492,99
1607021431.1512,114
1607021431.1532,128
1607021431.1553,144
1607021431.1572,166
1607021431.1592,185
1607021431.1612,199
1607021431.1632,218
1607021431.1652,251
1607021431.1672,280
1607021431.1692,297
1607021431.1712,316
1607021431.1732,337
1607021431.1753,346
1607021431.1772,346
1607021431.1792,335
1607021431.1812,311
1607021431.1832,268
1607021431.1852,201
1607021431.1872,116
1607021431.1892,23
1607021431.1912,-52
1607021431.1934,-106
1607021431.1953,-149
1607021431.1972,-171
1607021431.1992,-173
1607021431.2013,-173
1607021431.2032,-173
1607021431.2053,-161
1607021431.2072,-144
1607021431.2092,-135
1607021431.2112,-128
1607021431.2132,-116
1607021431.2152,-102
1607021431.2172,-97
1607021431.2192,-95
1607021431.2212,-87
1607021431.2232,-87
1607021431.2253,-90
1607021431.2272,-78
1607021431.2292,-61
1607021431.2312,-57
1607021431.2332,-59
1607021431.2353,-57
1607021431.2372,-57
1607021431.2392,-57
1607021431.2412,-52
1607021431.2433,-42
1607021431.2453,-42
1607021431.2472,-40
1607021431.2492,-35
1607021431.2512,-35
1607021431.2532,-42
1607021431.2552,-38
1607021431.2572,-26
1607021431.2592,-28
1607021431.2612,-38
1607021431.2632,-26
1607021431.6897,-11
1607021431.6907,-19
1607021431.6932,-26
1607021431.6958,-21
1607021431.6978,-19
1607021431.6998,-23
1607021431.7019,-21
1607021431.7038,-7
1607021431.7057,-7
1607021431.7077,-14
1607021431.7098,-16
1607021431.7117,-21
1607021431.7138,-21
1607021431.7157,-11
1607021431.7177,-9
1607021431.7198,-11
1607021431.7217,-11
1607021431.7236,-11
1607021431.7257,-11
1607021431.7276,-7
1607021431.7297,-7
1607021431.7317,-14
1607021431.7338,-14
1607021431.7357,-9
1607021431.7377,-9
1607021431.7396,-4
1607021431.7417,23
1607021431.7437,57
1607021431.7457,66
1607021431.7476,59
1607021431.7497,45
1607021431.7517,26
1607021431.7536,7
1607021431.7557,4
1607021431.7576,9
1607021431.7596,11
1607021431.7617,11
1607021431.7638,14
1607021431.7657,16
1607021431.7677,19
1607021431.7696,21
1607021431.7716,2
1607021431.7737,-61
1607021431.7757,-92
1607021431.7776,68
1607021431.7796,520
1607021431.7817,1154
1607021431.7836,1416
1607021431.7857,541
1607021431.7877,-693
1607021431.7897,-693
1607021431.7916,-26
1607021431.7936,68
1607021431.7957,-54
1607021431.7977,28
1607021431.7997,59
1607021431.8017,16
1607021431.8037,49
1607021431.8057,87
1607021431.8077,78
1607021431.8097,85
1607021431.8117,111
1607021431.8137,123
1607021431.8157,128
1607021431.8177,147
1607021431.8197,166
1607021431.8218,182
1607021431.8237,197
1607021431.8257,218
1607021431.8276,240
1607021431.8297,261
1607021431.8318,285
1607021431.8337,308
1607021432.2897,327
1607021432.2907,344
1607021432.2931,356
1607021432.2958,358
1607021432.2978,351
1607021432.2997,335
1607021432.3019,299
1607021432.3038,237
1607021432.3058,163
1607021432.3077,73
1607021432.3097,-21
1607021432.3117,-90
1607021432.3137,-135
1607021432.3157,-168
1607021432.3177,-185
1607021432.3197,-192
1607021432.3217,-190
1607021432.3237,-182
1607021432.3257,-168
1607021432.3277,-156
1607021432.3297,-147
1607021432.3317,-137
1607021432.3339,-128
1607021432.3357,-118
1607021432.3377,-109
1607021432.3397,-104
1607021432.3416,-99
1607021432.3437,-95
1607021432.3457,-90
1607021432.3477,-87
1607021432.3496,-83
1607021432.3517,-78
1607021432.3537,-76
1607021432.3557,-80
1607021432.3576,-78
1607021432.3584,-71
1607021432.3607,-66
1607021432.3627,-66
1607021432.3647,-64
1607021432.3667,-59
1607021432.3687,-54
1607021432.3707,-52
1607021432.3727,-49
1607021432.3747,-47
1607021432.3768,-42
1607021432.3787,-42
1607021432.3807,-42
1607021432.3827,-42
1607021432.3847,-38
1607021432.3867,-35
1607021432.3887,-38
1607021432.3894,-38
1607021432.3916,-38
1607021432.3937,-33
1607021432.3958,-28
1607021432.3977,-26
1607021432.3997,-23
1607021432.4017,-26
1607021432.4037,-23
1607021432.4057,-19
1607021432.4077,-16
1607021432.4097,-19
1607021432.4117,-16
1607021432.4137,-11
1607021432.4157,-7
1607021432.4177,-7
1607021432.4197,-9
1607021432.4204,-9
1607021432.4227,-11
1607021432.4247,-21
1607021432.4267,-23
1607021432.4287,-14
1607021432.4307,-2
1607021432.8297,21
1607021432.8307,52
1607021432.8333,64
1607021432.8357,54
1607021432.8377,40
1607021432.8397,28
1607021432.8417,14
1607021432.8437,4
1607021432.8445,2
1607021432.8466,4
1607021432.8486,7
1607021432.8506,4
1607021432.8526,0
1607021432.8547,2
1607021432.8566,4
1607021432.8586,-11
1607021432.8606,-66
1607021432.8626,-116
1607021432.8646,-11
1607021432.8666,373
1607021432.8686,1036
1607021432.8706,1482
1607021432.8728,803
1607021432.8747,-458
1607021432.8753,-617
1607021432.8766,-4
1607021432.8787,68
1607021432.8806,-106
1607021432.8826,-14
1607021432.8847,47
1607021432.8867,0
1607021432.8886,19
1607021432.8906,59
1607021432.8926,54
1607021432.8947,61
1607021432.8966,85
1607021432.8986,97
1607021432.9006,106
1607021432.9026,123
1607021432.9047,140
1607021432.9129,156
1607021432.9146,178
1607021432.9166,197
1607021432.9186,216
1607021432.9206,240
1607021432.9226,263
1607021432.9247,289
1607021432.9266,311
1607021432.9287,332
1607021432.9306,346
1607021432.9326,354
1607021432.9347,351
1607021432.9367,339
1607021432.9386,308
1607021432.9406,259
1607021432.9413,185
1607021432.9436,92
1607021432.9456,2
1607021432.9476,-73
1607021432.9496,-128
1607021432.9517,-159
1607021432.9536,-182
1607021432.9557,-197
1607021432.9576,-194
1607021432.9596,-185
1607021432.9616,-178
1607021432.9636,-166
1607021432.9656,-152
1607021432.9676,-142
1607021432.9696,-133
1607021432.9716,-125
1607021432.9723,-116
1607021432.9747,-104
1607021433.3999,-102
1607021433.4010,-102
1607021433.4034,-97
1607021433.4060,-90
1607021433.4080,-85
1607021433.4100,-85
1607021433.4120,-83
1607021433.4140,-78
1607021433.4159,-78
1607021433.4179,-83
1607021433.4199,-80
1607021433.4219,-73
1607021433.4227,-71
1607021433.4249,-71
1607021433.4269,-68
1607021433.4289,-66
1607021433.4309,-66
1607021433.4329,-64
1607021433.4349,-59
1607021433.4369,-57
1607021433.4389,-54
1607021433.4409,-49
1607021433.4429,-47
1607021433.4449,-47
1607021433.4469,-42
1607021433.4489,-38
1607021433.4509,-38
1607021433.4529,-35
1607021433.4537,-30
1607021433.4559,-28
1607021433.4579,-23
1607021433.4599,-23
1607021433.4619,-23
1607021433.4639,-21
1607021433.4659,-19
1607021433.4679,-16
1607021433.4699,-14
1607021433.4719,-11
1607021433.4739,-9
1607021433.4759,-4
1607021433.4779,-4
1607021433.4799,-4
1607021433.4819,-4
1607021433.4839,-7
1607021433.4847,-11
1607021433.4869,-11
1607021433.4889,-4
1607021433.4909,7
1607021433.4929,33
1607021433.4949,61
1607021433.4969,68
1607021433.4990,57
1607021433.5009,40
1607021433.5029,23
1607021433.5049,4
1607021433.5069,-7
1607021433.5089,-2
1607021433.5109,4
1607021433.5129,2
1607021433.5149,2
1607021433.5156,7
1607021433.5179,11
1607021433.5199,11
1607021433.5219,-16
1607021433.5239,-80
1607021433.5259,-97
1607021433.5279,92
1607021433.5299,565
1607021433.5319,1197
1607021433.5339,1306
1607021433.5359,304
1607021433.5380,-674
1607021433.5399,-413
1607021433.9392,104
1607021433.9401,11
1607021433.9426,-83
1607021433.9453,35
1607021433.9472,45
1607021433.9492,7
1607021433.9513,45
1607021433.9533,66
1607021433.9553,61
1607021433.9571,76
1607021433.9593,85
1607021433.9611,90
1607021433.9631,106
1607021433.9651,125
1607021433.9671,140
1607021433.9691,156
1607021433.9711,175
1607021433.9731,192
1607021433.9752,211
1607021433.9771,235
1607021433.9791,259
1607021433.9811,282
1607021433.9831,304
1607021433.9851,323
1607021433.9871,337
1607021433.9891,342
1607021433.9911,337
1607021433.9931,325
1607021433.9952,292
1607021433.9973,235
1607021433.9992,159
1607021434.0011,73
1607021434.0031,-11
1607021434.0051,-83
1607021434.0071,-128
1607021434.0091,-159
1607021434.0111,-178
1607021434.0131,-185
1607021434.0151,-185
1607021434.0171,-178
1607021434.0191,-171
1607021434.0211,-163
1607021434.0231,-154
1607021434.0251,-137
1607021434.0271,-130
1607021434.0291,-125
1607021434.0311,-121
1607021434.0331,-116
1607021434.0352,-111
1607021434.0372,-104
1607021434.0391,-97
1607021434.0411,-92
1607021434.0431,-85
1607021434.0451,-80
1607021434.0471,-78
1607021434.0491,-76
1607021434.0511,-71
1607021434.0531,-66
1607021434.0552,-64
1607021434.0571,-61
1607021434.0591,-61
1607021434.0611,-54
1607021434.0631,-49
1607021434.0651,-49
1607021434.0671,-45
1607021434.0691,-42
1607021434.0711,-45
1607021434.0731,-40
1607021434.0751,-35
1607021434.0771,-35
1607021434.0791,-35
1607021434.0811,-33
1607021434.0831,-35
1607021434.4791,-33
1607021434.4800,-28
1607021434.4825,-23
1607021434.4851,-23
1607021434.4871,-26
1607021434.4891,-21
1607021434.4912,-21
1607021434.4934,-26
1607021434.4952,-26
1607021434.4971,-16
1607021434.4991,-16
1607021434.5011,-21
1607021434.5031,-21
1607021434.5051,-19
1607021434.5071,-21
1607021434.5091,-16
1607021434.5111,7
1607021434.5131,40
1607021434.5150,61
1607021434.5170,64
1607021434.5191,49
1607021434.5210,30
1607021434.5230,11
1607021434.5251,2
1607021434.5271,7
1607021434.5290,11
1607021434.5310,7
1607021434.5331,4
1607021434.5351,7
1607021434.5370,7
1607021434.5390,9
1607021434.5410,4
1607021434.5430,-38
1607021434.5450,-90
1607021434.5470,-11
1607021434.5490,323
1607021434.5510,900
1607021434.5530,1378
1607021434.5550,945
1607021434.5571,-323
1607021434.5590,-822
1607021434.5610,-225
1607021434.5630,106
1607021434.5650,-42
1607021434.5670,-30
1607021434.5690,66
1607021434.5710,35
1607021434.5730,26
1607021434.5751,71
1607021434.5770,78
1607021434.5791,76
1607021434.5810,102
1607021434.5830,121
1607021434.5851,125
1607021434.5870,137
1607021434.5890,159
1607021434.5910,175
1607021434.5930,192
1607021434.5952,209
1607021434.5971,225
1607021434.5990,247
1607021434.6010,273
1607021434.6030,299
1607021434.6050,320
1607021434.6070,337
1607021434.6090,354
1607021434.6110,365
1607021434.6130,365
1607021434.6150,358
1607021434.6170,339
1607021434.6190,294
1607021434.6211,218
1607021434.6230,128
1607021435.0497,33
1607021435.0505,-57
1607021435.0530,-123
1607021435.0556,-161
1607021435.0576,-185
1607021435.0596,-204
1607021435.0616,-206
1607021435.0635,-194
1607021435.0655,-190
1607021435.0675,-187
1607021435.0695,-173
1607021435.0715,-159
1607021435.0736,-149
1607021435.0756,-142
1607021435.0775,-128
1607021435.0795,-114
1607021435.0815,-114
1607021435.0835,-111
1607021435.0855,-99
1607021435.0875,-92
1607021435.0895,-95
1607021435.0915,-90
1607021435.0935,-83
1607021435.0956,-83
1607021435.0975,-78
1607021435.0995,-73
1607021435.1015,-73
1607021435.1035,-68
1607021435.1056,-61
1607021435.1075,-59
1607021435.1095,-57
1607021435.1115,-57
1607021435.1135,-64
1607021435.1155,-64
1607021435.1175,-52
1607021435.1196,-47
1607021435.1218,-47
1607021435.1235,-42
1607021435.1255,-38
1607021435.1275,-35
1607021435.1295,-33
1607021435.1315,-35
1607021435.1335,-35
1607021435.1355,-28
1607021435.1375,-21
1607021435.1395,-23
1607021435.1415,-26
1607021435.1435,-33
1607021435.1455,-38
1607021435.1475,-23
1607021435.1495,7
1607021435.1515,35
1607021435.1536,49
1607021435.1552,47
1607021435.1565,38
1607021435.1585,19
1607021435.1605,0
1607021435.1625,-7
1607021435.1645,-11
1607021435.1665,-14
1607021435.1685,-11
1607021435.1705,-4
1607021435.1725,-2
1607021435.1746,-2
1607021435.1765,2
1607021435.1785,2
1607021435.1805,-42
1607021435.1825,-102
1607021435.1846,-35
1607021435.1866,304
1607021435.1881,888
1607021435.1895,1375
1607021435.1915,971
1607021435.6492,-306
1607021435.6501,-872
1607021435.6513,-292
1607021435.6532,87
1607021435.6552,-35
1607021435.6572,-38
1607021435.6592,49
1607021435.6612,28
1607021435.6632,23
1607021435.6651,61
1607021435.6671,68
1607021435.6691,64
1607021435.6711,83
1607021435.6732,102
1607021435.6753,109
1607021435.6758,121
1607021435.6771,140
1607021435.6792,159
1607021435.6811,180
1607021435.6831,201
1607021435.6852,223
1607021435.6871,244
1607021435.6891,268
1607021435.6911,294
1607021435.6931,311
1607021435.6951,327
1607021435.6971,344
1607021435.6991,354
1607021435.7011,349
1607021435.7031,339
1607021435.7052,316
1607021435.7058,268
1607021435.7071,192
1607021435.7091,97
1607021435.7111,2
1607021435.7131,-76
1607021435.7151,-135
1607021435.7171,-175
1607021435.7191,-197
1607021435.7211,-201
1607021435.7231,-201
1607021435.7251,-199
1607021435.7271,-185
1607021435.7291,-173
1607021435.7311,-168
1607021435.7331,-159
1607021435.7352,-144
1607021435.7358,-137
1607021435.7371,-130
1607021435.7391,-116
1607021435.7411,-109
1607021435.7431,-106
1607021435.7451,-99
1607021435.7471,-90
1607021435.7491,-87
1607021435.7511,-85
1607021435.7532,-83
1607021435.7552,-80
1607021435.7572,-76
1607021435.7591,-76
1607021435.7611,-76
1607021435.7631,-73
1607021435.7638,-66
1607021435.7652,-66
1607021435.7671,-68
1607021435.7693,-64
1607021435.7712,-57
1607021435.7731,-52
1607021435.7752,-52
1607021435.7771,-49
1607021435.7791,-47
1607021435.7811,-45
1607021435.7832,-40
1607021436.1896,-35
1607021436.1904,-35
1607021436.1920,-40
1607021436.1946,-45
1607021436.1964,-42
1607021436.1984,-40
1607021436.2004,-38
1607021436.2024,-23
1607021436.2045,4
1607021436.2064,38
1607021436.2084,42
1607021436.2104,26
1607021436.2124,14
1607021436.2145,-2
1607021436.2164,-21
1607021436.2184,-26
1607021436.2204,-23
1607021436.2223,-26
1607021436.2230,-26
1607021436.2244,-23
1607021436.2264,-19
1607021436.2283,-11
1607021436.2303,-9
1607021436.2323,-30
1607021436.2344,-97
1607021436.2364,-121
1607021436.2384,61
1607021436.2404,546
1607021436.2423,1204
1607021436.2444,1359
1607021436.2464,351
1607021436.2483,-743
1607021436.2504,-544
1607021436.2523,49
1607021436.2531,16
1607021436.2545,-95
1607021436.2564,14
1607021436.2583,33
1607021436.2603,-7
1607021436.2624,33
1607021436.2644,61
1607021436.2663,54
1607021436.2683,71
1607021436.2705,90
1607021436.2725,95
1607021436.2745,104
1607021436.2764,125
1607021436.2783,142
1607021436.2803,163
1607021436.2824,185
1607021436.2831,204
1607021436.2844,223
1607021436.2864,249
1607021436.2883,275
1607021436.2904,297
1607021436.2923,323
1607021436.2944,342
1607021436.2964,354
1607021436.2984,358
1607021436.3003,346
1607021436.3023,325
1607021436.3045,285
1607021436.3063,218
1607021436.3083,135
1607021436.3104,40
1607021436.3124,-42
1607021436.3130,-109
1607021436.3144,-156
1607021436.3164,-182
1607021436.3184,-192
1607021436.3204,-192
1607021436.3224,-190
1607021436.3244,-180
1607021436.7593,-171
1607021436.7603,-159
1607021436.7628,-147
1607021436.7654,-137
1607021436.7673,-128
1607021436.7693,-118
1607021436.7715,-109
1607021436.7733,-106
1607021436.7754,-109
1607021436.7759,-109
1607021436.7773,-104
1607021436.7793,-97
1607021436.7813,-92
1607021436.7833,-87
1607021436.7853,-83
1607021436.7872,-78
1607021436.7892,-76
1607021436.7912,-71
1607021436.7932,-68
1607021436.7952,-66
1607021436.7972,-61
1607021436.7994,-57
1607021436.8013,-52
1607021436.8033,-52
1607021436.8052,-52
1607021436.8059,-52
1607021436.8072,-52
1607021436.8092,-49
1607021436.8112,-42
1607021436.8132,-42
1607021436.8152,-45
1607021436.8172,-49
1607021436.8192,-52
1607021436.8212,-47
1607021436.8232,-42
1607021436.8253,-23
1607021436.8272,7
1607021436.8292,35
1607021436.8312,38
1607021436.8332,23
1607021436.8352,7
1607021436.8359,-9
1607021436.8372,-23
1607021436.8392,-26
1607021436.8413,-21
1607021436.8433,-16
1607021436.8453,-16
1607021436.8472,-19
1607021436.8492,-11
1607021436.8512,-7
1607021436.8532,-11
1607021436.8552,-42
1607021436.8572,-109
1607021436.8592,-106
1607021436.8612,125
1607021436.8632,662
1607021436.8652,1309
1607021436.8659,1271
1607021436.8672,118
1607021436.8692,-777
1607021436.8712,-389
1607021436.8732,95
1607021436.8752,-28
1607021436.8772,-90
1607021436.8792,30
1607021436.8812,23
1607021436.8832,-4
1607021436.8853,38
1607021436.8872,59
1607021436.8893,54
1607021436.8913,71
1607021436.8932,87
1607021436.8954,97
1607021437.2996,111
1607021437.3005,125
1607021437.3024,140
1607021437.3043,156
1607021437.3063,178
1607021437.3083,199
1607021437.3103,218
1607021437.3123,242
1607021437.3143,268
1607021437.3162,287
1607021437.3182,304
1607021437.3202,325
1607021437.3222,335
1607021437.3229,335
1607021437.3243,327
1607021437.3262,306
1607021437.3282,263
1607021437.3302,192
1607021437.3322,102
1607021437.3342,11
1607021437.3362,-66
1607021437.3382,-125
1607021437.3402,-163
1607021437.3422,-182
1607021437.3442,-192
1607021437.3462,-194
1607021437.3482,-187
1607021437.3503,-178
1607021437.3522,-168
1607021437.3528,-156
1607021437.3542,-147
1607021437.3562,-137
1607021437.3582,-125
1607021437.3602,-116
1607021437.3622,-109
1607021437.3642,-99
1607021437.3662,-95
1607021437.3682,-90
1607021437.3702,-80
1607021437.3722,-76
1607021437.3742,-71
1607021437.3762,-68
1607021437.3782,-64
1607021437.3802,-61
1607021437.3822,-59
1607021437.3828,-57
1607021437.3842,-52
1607021437.3862,-49
1607021437.3882,-49
1607021437.3902,-47
1607021437.3923,-42
1607021437.3942,-42
1607021437.3962,-42
1607021437.3982,-38
1607021437.4002,-35
1607021437.4022,-35
1607021437.4042,-35
1607021437.4062,-33
1607021437.4082,-30
1607021437.4101,-30
1607021437.4122,-35
1607021437.4128,-38
1607021437.4142,-35
1607021437.4162,-30
1607021437.4183,-23
1607021437.4202,-4
1607021437.4222,30
1607021437.4242,52
1607021437.4262,47
1607021437.4282,30
1607021437.4302,19
1607021437.4322,4
1607021437.4342,-9
1607021437.8693,-11
1607021437.8705,-11
1607021437.8729,-14
1607021437.8756,-11
1607021437.8763,-7
1607021437.8775,-7
1607021437.8796,-14
1607021437.8816,-26
1607021437.8835,-59
1607021437.8856,-123
1607021437.8875,-114
1607021437.8895,133
1607021437.8915,679
1607021437.8935,1299
1607021437.8955,1183
1607021437.8975,9
1607021437.8995,-781
1607021437.9014,-337
1607021437.9035,102
1607021437.9041,-40
1607021437.9054,-87
1607021437.9074,28
1607021437.9094,14
1607021437.9114,-11
1607021437.9134,35
1607021437.9154,54
1607021437.9174,47
1607021437.9194,68
1607021437.9216,90
1607021437.9235,97
1607021437.9254,109
1607021437.9274,125
1607021437.9294,142
1607021437.9315,163
1607021437.9334,185
1607021437.9341,201
1607021437.9354,223
1607021437.9374,249
1607021437.9394,275
1607021437.9415,297
1607021437.9434,308
1607021437.9454,325
1607021437.9474,349
1607021437.9494,354
1607021437.9514,339
1607021437.9534,316
1607021437.9555,280
1607021437.9574,213
1607021437.9594,121
1607021437.9614,23
1607021437.9634,-54
1607021437.9641,-114
1607021437.9654,-149
1607021437.9675,-168
1607021437.9694,-180
1607021437.9714,-182
1607021437.9734,-173
1607021437.9754,-161
1607021437.9774,-154
1607021437.9794,-147
1607021437.9814,-137
1607021437.9834,-123
1607021437.9855,-109
1607021437.9874,-106
1607021437.9894,-99
1607021437.9914,-92
1607021437.9934,-85
1607021437.9941,-76
1607021437.9954,-71
1607021437.9974,-68
1607021437.9994,-61
1607021438.0014,-57
1607021438.0034,-57
1607021438.4398,-57
1607021438.4411,-49
1607021438.4435,-47
1607021438.4462,-47
1607021438.4482,-42
1607021438.4502,-35
1607021438.4525,-38
1607021438.4542,-47
1607021438.4548,-49
1607021438.4561,-42
1607021438.4581,-38
1607021438.4601,-40
1607021438.4621,-33
1607021438.4641,-21
1607021438.4661,-21
1607021438.4681,-30
1607021438.4701,-28
1607021438.4721,-16
1607021438.4741,-14
1607021438.4761,-11
1607021438.4781,-14
1607021438.4801,-21
1607021438.4821,-16
1607021438.4841,-7
1607021438.4848,0
1607021438.4861,28
1607021438.4881,64
1607021438.4901,66
1607021438.4921,52
1607021438.4941,42
1607021438.4961,21
1607021438.4981,0
1607021438.5001,-2
1607021438.5021,2
1607021438.5041,0
1607021438.5061,0
1607021438.5081,4
1607021438.5101,11
1607021438.5122,19
1607021438.5141,16
1607021438.5147,-14
1607021438.5161,-78
1607021438.5181,-78
1607021438.5201,147
1607021438.5222,660
1607021438.5242,1278
1607021438.5261,1306
1607021438.5281,199
1607021438.5301,-872
1607021438.5321,-601
1607021438.5341,28
1607021438.5361,23
1607021438.5381,-68
1607021438.5401,28
1607021438.5420,42
1607021438.5441,11
1607021438.5447,49
1607021438.5462,76
1607021438.5482,68
1607021438.5501,80
1607021438.5520,104
1607021438.5541,118
1607021438.5561,128
1607021438.5581,142
1607021438.5601,159
1607021438.5620,180
1607021438.5641,199
1607021438.5661,218
1607021438.5680,242
1607021438.5701,263
1607021438.5721,285
1607021438.5741,308
1607021438.5747,330
1607021439.0095,349
1607021439.0104,363
1607021439.0129,363
1607021439.0154,351
1607021439.0175,327
1607021439.0195,282
1607021439.0215,213
1607021439.0235,128
1607021439.0254,28
1607021439.0274,-68
1607021439.0294,-133
1607021439.0301,-166
1607021439.0314,-194
1607021439.0334,-213
1607021439.0354,-211
1607021439.0375,-199
1607021439.0394,-190
1607021439.0414,-180
1607021439.0434,-166
1607021439.0454,-152
1607021439.0474,-144
1607021439.0494,-137
1607021439.0514,-128
1607021439.0534,-121
1607021439.0554,-114
1607021439.0574,-106
1607021439.0593,-97
1607021439.0600,-95
1607021439.0613,-92
1607021439.0634,-85
1607021439.0654,-78
1607021439.0673,-71
1607021439.0694,-66
1607021439.0713,-68
1607021439.0733,-71
1607021439.0756,-64
1607021439.0774,-57
1607021439.0795,-54
1607021439.0815,-54
1607021439.0835,-54
1607021439.0855,-49
1607021439.0875,-45
1607021439.0895,-45
1607021439.0901,-45
1607021439.0915,-38
1607021439.0935,-38
1607021439.0954,-42
1607021439.0974,-45
1607021439.0995,-35
1607021439.1015,-30
1607021439.1035,-30
1607021439.1054,-30
1607021439.1075,-28
1607021439.1095,-28
1607021439.1115,-30
1607021439.1135,-35
1607021439.1154,-35
1607021439.1175,-30
1607021439.1195,-23
1607021439.1200,0
1607021439.1215,35
1607021439.1235,57
1607021439.1254,52
1607021439.1275,33
1607021439.1295,19
1607021439.1315,2
1607021439.1334,-9
1607021439.1354,-14
1607021439.1374,-9
1607021439.1393,-4
1607021439.1414,-7
1607021439.1433,-7
1607021439.1454,-4
1607021439.5494,2
1607021439.5503,0
1607021439.5509,-47
1607021439.5525,-121
1607021439.5546,-78
1607021439.5565,235
1607021439.5585,855
1607021439.5605,1463
1607021439.5625,1143
1607021439.5645,-175
1607021439.5665,-815
1607021439.5685,-254
1607021439.5705,90
1607021439.5726,-85
1607021439.5746,-83
1607021439.5765,23
1607021439.5785,-7
1607021439.5805,-14
1607021439.5811,38
1607021439.5825,42
1607021439.5845,38
1607021439.5865,64
1607021439.5885,80
1607021439.5905,87
1607021439.5925,106
1607021439.5945,125
1607021439.5965,137
1607021439.5985,156
1607021439.6005,180
1607021439.6025,201
1607021439.6045,228
1607021439.6066,254
1607021439.6085,275
1607021439.6105,299
1607021439.6111,325
1607021439.6125,339
1607021439.6145,344
1607021439.6165,342
1607021439.6185,330
1607021439.6205,304
1607021439.6225,254
1607021439.6245,180
1607021439.6265,92
1607021439.6284,2
1607021439.6305,-78
1607021439.6325,-137
1607021439.6345,-168
1607021439.6365,-187
1607021439.6385,-197
1607021439.6392,-197
1607021439.6405,-187
1607021439.6425,-175
1607021439.6445,-163
1607021439.6465,-154
1607021439.6485,-142
1607021439.6505,-130
1607021439.6525,-123
1607021439.6545,-116
1607021439.6565,-106
1607021439.6585,-99
1607021439.6605,-92
1607021439.6626,-87
1607021439.6645,-80
1607021439.6665,-76
1607021439.6686,-73
1607021439.6693,-68
1607021439.6705,-61
1607021439.6725,-59
1607021439.6745,-61
1607021439.6765,-59
1607021439.6785,-52
1607021439.6805,-47
1607021439.6825,-49
1607021440.1197,-47
1607021440.1205,-45
1607021440.1229,-40
1607021440.1257,-35
1607021440.1276,-38
1607021440.1295,-40
1607021440.1302,-40
1607021440.1316,-42
1607021440.1336,-40
1607021440.1356,-35
1607021440.1375,-35
1607021440.1395,-40
1607021440.1415,-40
1607021440.1435,-35
1607021440.1455,-30
1607021440.1475,-30
1607021440.1495,-30
1607021440.1515,-30
1607021440.1535,-33
1607021440.1555,-28
1607021440.1575,-26
1607021440.1595,-26
1607021440.1602,-30
1607021440.1615,-30
1607021440.1635,-21
1607021440.1655,-2
1607021440.1675,28
1607021440.1695,54
1607021440.1715,54
1607021440.1723,40
1607021440.1745,23
1607021440.1765,7
1607021440.1785,-9
1607021440.1806,-14
1607021440.1825,-11
1607021440.1845,-9
1607021440.1866,-14
1607021440.1871,-16
1607021440.1885,-14
1607021440.1905,-7
1607021440.1925,-9
1607021440.1946,-45
1607021440.1967,-118
1607021440.1986,-128
1607021440.2005,83
1607021440.2025,603
1607021440.2045,1278
1607021440.2065,1335
1607021440.2085,235
1607021440.2105,-727
1607021440.2125,-401
1607021440.2146,95
1607021440.2165,-30
1607021440.2171,-106
1607021440.2185,16
1607021440.2205,11
1607021440.2225,-16
1607021440.2245,28
1607021440.2265,47
1607021440.2285,40
1607021440.2305,59
1607021440.2325,80
1607021440.2345,85
1607021440.2365,99
1607021440.2385,121
1607021440.2405,135
1607021440.2425,149
1607021440.2445,171
1607021440.2465,190
1607021440.2471,209
1607021440.2485,232
1607021440.2505,256
1607021440.2525,280
1607021440.6594,301
1607021440.6601,320
1607021440.6625,332
1607021440.6652,337
1607021440.6672,332
1607021440.6692,313
1607021440.6712,278
1607021440.6731,218
1607021440.6752,133
1607021440.6771,35
1607021440.6791,-49
1607021440.6798,-109
1607021440.6811,-154
1607021440.6832,-180
1607021440.6852,-190
1607021440.6871,-190
1607021440.6891,-187
1607021440.6911,-180
1607021440.6931,-168
1607021440.6951,-156
1607021440.6973,-144
1607021440.6992,-133
1607021440.7011,-123
1607021440.7031,-116
1607021440.7052,-111
1607021440.7071,-106
1607021440.7087,-102
1607021440.7093,-97
1607021440.7112,-90
1607021440.7132,-83
1607021440.7151,-78
1607021440.7171,-76
1607021440.7191,-71
1607021440.7211,-66
1607021440.7231,-59
1607021440.7251,-59
1607021440.7271,-59
1607021440.7291,-54
1607021440.7311,-49
1607021440.7331,-52
1607021440.7352,-47
1607021440.7371,-42
1607021440.7391,-40
1607021440.7397,-38
1607021440.7411,-35
1607021440.7431,-38
1607021440.7452,-38
1607021440.7471,-35
1607021440.7491,-35
1607021440.7511,-33
1607021440.7532,-28
1607021440.7551,-26
1607021440.7571,-21
1607021440.7592,-19
1607021440.7611,-21
1607021440.7631,-21
1607021440.7651,-16
1607021440.7671,-11
1607021440.7691,-9
1607021440.7697,-9
1607021440.7711,-11
1607021440.7731,-9
1607021440.7751,-4
1607021440.7771,-4
1607021440.7791,-2
1607021440.7811,-2
1607021440.7831,-4
1607021440.7851,-7
1607021440.7871,-9
1607021440.7891,-11
1607021440.7911,-14
1607021440.7933,-14
1607021440.7952,-2
1607021441.2297,23
1607021441.2306,54
1607021441.2330,66
1607021441.2358,59
1607021441.2377,42
1607021441.2396,16
1607021441.2418,-4
1607021441.2437,-9
1607021441.2457,-4
1607021441.2477,-4
1607021441.2496,-4
1607021441.2517,-2
1607021441.2537,0
1607021441.2557,2
1607021441.2576,7
1607021441.2596,-2
1607021441.2602,-54
1607021441.2616,-125
1607021441.2636,-59
1607021441.2656,282
1607021441.2676,907
1607021441.2696,1416
1607021441.2716,919
1607021441.2736,-330
1607021441.2756,-681
1607021441.2776,-92
1607021441.2796,95
1607021441.2816,-85
1607021441.2836,-35
1607021441.2856,45
1607021441.2876,2
1607021441.2896,11
1607021441.2902,57
1607021441.2916,54
1607021441.2936,57
1607021441.2955,78
1607021441.2975,90
1607021441.2995,99
1607021441.3016,118
1607021441.3036,137
1607021441.3056,149
1607021441.3075,166
1607021441.3095,187
1607021441.3116,209
1607021441.3136,228
1607021441.3155,251
1607021441.3175,275
1607021441.3195,297
1607021441.3202,316
1607021441.3217,332
1607021441.3236,342
1607021441.3256,339
1607021441.3275,327
1607021441.3296,306
1607021441.3315,266
1607021441.3335,201
1607021441.3356,118
1607021441.3376,28
1607021441.3395,-49
1607021441.3416,-106
1607021441.3435,-147
1607021441.3456,-168
1607021441.3477,-175
1607021441.3496,-178
1607021441.3502,-175
1607021441.3515,-166
1607021441.3535,-154
1607021441.3556,-142
1607021441.3575,-130
1607021441.3595,-121
1607021441.3616,-114
1607021441.3636,-106
1607021441.3655,-99
1607021441.7698,-90
1607021441.7707,-85
1607021441.7722,-83
1607021441.7740,-78
1607021441.7762,-73
1607021441.7779,-68
1607021441.7799,-73
1607021441.7806,-76
1607021441.7820,-71
1607021441.7839,-71
1607021441.7860,-76
1607021441.7880,-73
1607021441.7900,-64
1607021441.7920,-61
1607021441.7940,-61
1607021441.7960,-57
1607021441.7980,-54
1607021441.7999,-54
1607021441.8019,-49
1607021441.8039,-45
1607021441.8061,-42
1607021441.8079,-40
1607021441.8099,-40
1607021441.8105,-40
1607021441.8118,-35
1607021441.8139,-35
1607021441.8158,-35
1607021441.8181,-33
1607021441.8199,-30
1607021441.8218,-28
1607021441.8238,-28
1607021441.8258,-23
1607021441.8278,-21
1607021441.8298,-21
1607021441.8318,-21
1607021441.8338,-16
1607021441.8359,-14
1607021441.8378,-11
1607021441.8398,-9
1607021441.8404,-9
1607021441.8419,-9
1607021441.8438,-9
1607021441.8459,-7
1607021441.8478,-4
1607021441.8498,-2
1607021441.8518,-2
1607021441.8538,-4
1607021441.8559,0
1607021441.8578,4
1607021441.8598,2
1607021441.8618,2
1607021441.8638,2
1607021441.8658,0
1607021441.8678,-2
1607021441.8698,0
1607021441.8705,14
1607021441.8718,38
1607021441.8738,64
1607021441.8758,76
1607021441.8778,73
1607021441.8798,59
1607021441.8818,38
1607021441.8838,21
1607021441.8859,14
1607021441.8879,16
1607021441.8898,19
1607021441.8918,19
1607021441.8938,19
1607021441.8959,21
1607021441.8978,23
1607021441.8998,23
1607021441.9004,16
1607021441.9018,-28
1607021442.3699,-92
1607021442.3710,-30
1607021442.3734,289
1607021442.3761,895
1607021442.3781,1411
1607021442.3803,950
1607021442.3823,-299
1607021442.3841,-698
1607021442.3861,-114
1607021442.3881,102
1607021442.3901,-76
1607021442.3908,-35
1607021442.3921,54
1607021442.3941,16
1607021442.3960,19
1607021442.3980,61
1607021442.4000,61
1607021442.4020,64
1607021442.4040,85
1607021442.4060,99
1607021442.4081,114
1607021442.4100,130
1607021442.4120,142
1607021442.4140,152
1607021442.4160,173
1607021442.4180,201
1607021442.4200,220
1607021442.4206,242
1607021442.4220,263
1607021442.4240,287
1607021442.4260,311
1607021442.4280,330
1607021442.4300,344
1607021442.4320,354
1607021442.4340,354
1607021442.4360,346
1607021442.4380,335
1607021442.4400,299
1607021442.4420,230
1607021442.4440,144
1607021442.4460,57
1607021442.4480,-23
1607021442.4500,-87
1607021442.4506,-130
1607021442.4520,-159
1607021442.4540,-175
1607021442.4560,-175
1607021442.4580,-168
1607021442.4600,-161
1607021442.4620,-149
1607021442.4640,-137
1607021442.4660,-130
1607021442.4680,-118
1607021442.4700,-104
1607021442.4720,-104
1607021442.4740,-102
1607021442.4761,-87
1607021442.4780,-83
1607021442.4800,-85
1607021442.4806,-80
1607021442.4820,-71
1607021442.4840,-71
1607021442.4860,-71
1607021442.4880,-64
1607021442.4900,-59
1607021442.4920,-59
1607021442.4940,-59
1607021442.4960,-61
1607021442.4980,-61
1607021442.5000,-57
1607021442.5020,-54
1607021442.5040,-54
1607021442.5060,-49
1607021442.9396,-45
1607021442.9405,-45
1607021442.9429,-40
1607021442.9457,-33
1607021442.9475,-30
1607021442.9496,-33
1607021442.9516,-28
1607021442.9536,-23
1607021442.9556,-26
1607021442.9575,-30
1607021442.9595,-28
1607021442.9615,-23
1607021442.9635,-21
1607021442.9655,-19
1607021442.9675,-16
1607021442.9695,-14
1607021442.9701,-11
1607021442.9715,-7
1607021442.9735,-4
1607021442.9755,-7
1607021442.9775,-4
1607021442.9795,0
1607021442.9815,2
1607021442.9834,0
1607021442.9855,-4
1607021442.9875,0
1607021442.9896,7
1607021442.9915,2
1607021442.9935,-4
1607021442.9955,-4
1607021442.9974,2
1607021442.9994,7
1607021443.0001,21
1607021443.0016,54
1607021443.0037,78
1607021443.0055,78
1607021443.0074,64
1607021443.0094,38
1607021443.0115,21
1607021443.0134,16
1607021443.0155,14
1607021443.0176,11
1607021443.0194,16
1607021443.0214,19
1607021443.0235,19
1607021443.0255,21
1607021443.0274,28
1607021443.0281,23
1607021443.0294,-19
1607021443.0315,-76
1607021443.0335,-21
1607021443.0355,287
1607021443.0374,855
1607021443.0394,1373
1607021443.0414,1064
1607021443.0434,-197
1607021443.0455,-883
1607021443.0474,-337
1607021443.0494,109
1607021443.0514,-4
1607021443.0535,-26
1607021443.0555,68
1607021443.0574,47
1607021443.0581,33
1607021443.0595,76
1607021443.0614,95
1607021443.0634,92
1607021443.0655,102
1607021443.0674,111
1607021443.0694,121
1607021443.0714,135
1607021443.0734,152
1607021443.0755,171
1607021443.4792,192
1607021443.4801,206
1607021443.4825,223
1607021443.4843,247
1607021443.4862,270
1607021443.4881,292
1607021443.4888,311
1607021443.4901,332
1607021443.4921,354
1607021443.4941,358
1607021443.4961,354
1607021443.4981,344
1607021443.5003,325
1607021443.5022,287
1607021443.5043,223
1607021443.5061,137
1607021443.5081,42
1607021443.5101,-45
1607021443.5121,-116
1607021443.5141,-166
1607021443.5161,-190
1607021443.5181,-201
1607021443.5187,-206
1607021443.5201,-201
1607021443.5221,-190
1607021443.5241,-180
1607021443.5261,-173
1607021443.5281,-161
1607021443.5301,-149
1607021443.5321,-137
1607021443.5341,-125
1607021443.5361,-123
1607021443.5381,-118
1607021443.5401,-106
1607021443.5421,-99
1607021443.5441,-97
1607021443.5461,-92
1607021443.5481,-85
1607021443.5487,-78
1607021443.5501,-73
1607021443.5521,-76
1607021443.5541,-73
1607021443.5561,-71
1607021443.5581,-71
1607021443.5601,-64
1607021443.5621,-57
1607021443.5641,-57
1607021443.5661,-57
1607021443.5681,-54
1607021443.5701,-54
1607021443.5721,-54
1607021443.5741,-47
1607021443.5761,-45
1607021443.5781,-45
1607021443.5787,-42
1607021443.5801,-40
1607021443.5821,-42
1607021443.5841,-40
1607021443.5861,-33
1607021443.5881,-30
1607021443.5901,-28
1607021443.5921,-23
1607021443.5941,-23
1607021443.5962,-23
1607021443.5981,-21
1607021443.6001,-21
1607021443.6021,-21
1607021443.6041,-23
1607021443.6061,-26
1607021443.6081,-21
1607021443.6087,-4
1607021443.6101,28
1607021443.6121,57
1607021444.0492,61
1607021444.0501,49
1607021444.0526,33
1607021444.0552,14
1607021444.0572,-2
1607021444.0591,-4
1607021444.0613,-7
1607021444.0631,-14
1607021444.0651,-16
1607021444.0672,-9
1607021444.0677,-4
1607021444.0691,-2
1607021444.0711,-7
1607021444.0731,-33
1607021444.0752,-92
1607021444.0771,-97
1607021444.0791,104
1607021444.0811,596
1607021444.0831,1228
1607021444.0852,1311
1607021444.0871,266
1607021444.0891,-758
1607021444.0911,-501
1607021444.0931,64
1607021444.0951,11
1607021444.0971,-80
1607021444.0977,30
1607021444.0990,42
1607021444.1011,7
1607021444.1031,45
1607021444.1051,68
1607021444.1071,61
1607021444.1091,78
1607021444.1111,97
1607021444.1131,104
1607021444.1150,114
1607021444.1170,130
1607021444.1190,144
1607021444.1210,159
1607021444.1230,175
1607021444.1251,199
1607021444.1272,223
1607021444.1278,242
1607021444.1290,266
1607021444.1311,292
1607021444.1331,316
1607021444.1351,330
1607021444.1370,342
1607021444.1390,349
1607021444.1410,344
1607021444.1430,325
1607021444.1450,287
1607021444.1471,230
1607021444.1490,149
1607021444.1510,54
1607021444.1530,-38
1607021444.1551,-106
1607021444.1570,-154
1607021444.1577,-187
1607021444.1590,-204
1607021444.1610,-206
1607021444.1630,-204
1607021444.1650,-199
1607021444.1670,-187
1607021444.1690,-173
1607021444.1710,-163
1607021444.1730,-154
1607021444.1751,-144
1607021444.1770,-133
1607021444.1790,-125
1607021444.1811,-121
1607021444.1830,-114
1607021444.1851,-106
1607021444.5897,-99
1607021444.5906,-95
1607021444.5922,-87
1607021444.5940,-80
1607021444.5959,-78
1607021444.5979,-76
1607021444.5999,-73
1607021444.6019,-68
1607021444.6039,-73
1607021444.6059,-78
1607021444.6079,-73
1607021444.6099,-66
1607021444.6119,-66
1607021444.6139,-61
1607021444.6159,-57
1607021444.6179,-54
1607021444.6199,-52
1607021444.6205,-49
1607021444.6218,-47
1607021444.6240,-42
1607021444.6259,-40
1607021444.6279,-40
1607021444.6299,-33
1607021444.6319,-33
1607021444.6339,-38
1607021444.6359,-40
1607021444.6379,-38
1607021444.6399,-33
1607021444.6418,-26
1607021444.6438,-9
1607021444.6458,26
1607021444.6478,52
1607021444.6499,45
1607021444.6505,30
1607021444.6518,16
1607021444.6538,0
1607021444.6559,-11
1607021444.6578,-14
1607021444.6598,-11
1607021444.6618,-11
1607021444.6638,-16
1607021444.6658,-14
1607021444.6678,-7
1607021444.6698,-4
1607021444.6718,-11
1607021444.6738,-52
1607021444.6759,-111
1607021444.6779,-66
1607021444.6798,240
1607021444.6804,826
1607021444.6818,1371
1607021444.6838,1024
1607021444.6859,-216
1607021444.6878,-760
1607021444.6898,-201
1607021444.6918,114
1607021444.6938,-59
1607021444.6959,-52
1607021444.6979,49
1607021444.6998,16
1607021444.7018,7
1607021444.7038,52
1607021444.7059,54
1607021444.7078,54
1607021444.7099,78
1607021444.7105,90
1607021444.7118,99
1607021444.7138,116
1607021444.7158,133
1607021444.7178,147
1607021444.7200,166
1607021444.7219,185
1607021444.7238,204
1607021445.1297,228
1607021445.1306,251
1607021445.1330,275
1607021445.1358,299
1607021445.1377,320
1607021445.1397,335
1607021445.1403,339
1607021445.1418,342
1607021445.1436,335
1607021445.1456,306
1607021445.1476,259
1607021445.1496,194
1607021445.1516,109
1607021445.1536,14
1607021445.1556,-68
1607021445.1576,-123
1607021445.1596,-163
1607021445.1616,-185
1607021445.1636,-192
1607021445.1656,-194
1607021445.1676,-192
1607021445.1696,-182
1607021445.1702,-171
1607021445.1716,-161
1607021445.1737,-149
1607021445.1756,-137
1607021445.1776,-130
1607021445.1796,-121
1607021445.1816,-114
1607021445.1836,-106
1607021445.1856,-102
1607021445.1876,-97
1607021445.1896,-97
1607021445.1915,-95
1607021445.1935,-90
1607021445.1956,-83
1607021445.1975,-78
1607021445.1995,-78
1607021445.2002,-76
1607021445.2016,-71
1607021445.2035,-71
1607021445.2056,-66
1607021445.2075,-64
1607021445.2095,-59
1607021445.2115,-57
1607021445.2135,-57
1607021445.2156,-57
1607021445.2175,-52
1607021445.2197,-47
1607021445.2216,-47
1607021445.2235,-45
1607021445.2255,-40
1607021445.2276,-42
1607021445.2295,-45
1607021445.2301,-40
1607021445.2315,-38
1607021445.2335,-38
1607021445.2356,-33
1607021445.2375,-19
1607021445.2395,9
1607021445.2415,40
1607021445.2435,52
1607021445.2455,45
1607021445.2476,28
1607021445.2496,4
1607021445.2516,-11
1607021445.2536,-14
1607021445.2556,-9
1607021445.2575,-4
1607021445.2595,-4
1607021445.2602,-7
1607021445.2615,-7
1607021445.2635,2
1607021445.7297,4
1607021445.7306,-14
1607021445.7331,-80
1607021445.7357,-118
1607021445.7377,49
1607021445.7397,506
1607021445.7417,1135
1607021445.7437,1347
1607021445.7457,446
1607021445.7477,-679
1607021445.7497,-582
1607021445.7517,33
1607021445.7526,47
1607021445.7538,-87
1607021445.7557,14
1607021445.7576,52
1607021445.7596,9
1607021445.7616,42
1607021445.7636,73
1607021445.7657,66
1607021445.7676,76
1607021445.7696,92
1607021445.7716,104
1607021445.7736,118
1607021445.7756,135
1607021445.7776,147
1607021445.7798,161
1607021445.7816,180
1607021445.7822,201
1607021445.7836,223
1607021445.7857,249
1607021445.7876,275
1607021445.7896,297
1607021445.7916,320
1607021445.7937,344
1607021445.7956,358
1607021445.7976,361
1607021445.7996,358
1607021445.8016,344
1607021445.8036,311
1607021445.8056,259
1607021445.8076,180
1607021445.8095,83
1607021445.8116,-9
1607021445.8122,-78
1607021445.8136,-130
1607021445.8156,-161
1607021445.8175,-171
1607021445.8196,-173
1607021445.8215,-178
1607021445.8236,-175
1607021445.8256,-156
1607021445.8275,-137
1607021445.8295,-130
1607021445.8315,-121
1607021445.8335,-106
1607021445.8356,-99
1607021445.8376,-92
1607021445.8396,-87
1607021445.8415,-83
1607021445.8422,-76
1607021445.8435,-71
1607021445.8456,-61
1607021445.8476,-54
1607021445.8496,-54
1607021445.8516,-52
1607021445.8536,-42
1607021445.8556,-40
1607021445.8576,-49
1607021445.8596,-52
1607021445.8616,-42
1607021445.8636,-40
1607021445.8656,-40
1607021446.3297,-33
1607021446.3306,-26
1607021446.3331,-28
1607021446.3339,-35
1607021446.3360,-33
1607021446.3377,-28
1607021446.3397,-28
1607021446.3417,-28
1607021446.3437,-33
1607021446.3456,-30
1607021446.3477,-28
1607021446.3496,-35
1607021446.3516,-38
1607021446.3536,-33
1607021446.3557,-30
1607021446.3576,-9
1607021446.3596,23
1607021446.3616,40
1607021446.3636,38
1607021446.3643,33
1607021446.3657,16
1607021446.3676,-7
1607021446.3696,-19
1607021446.3716,-21
1607021446.3736,-21
1607021446.3756,-16
1607021446.3776,-14
1607021446.3796,-16
1607021446.3816,-11
1607021446.3836,-2
1607021446.3856,-2
1607021446.3877,-28
1607021446.3898,-92
1607021446.3916,-95
1607021446.3923,135
1607021446.3936,662
1607021446.3956,1254
1607021446.3976,1230
1607021446.3996,125
1607021446.4016,-900
1607021446.4037,-615
1607021446.4057,14
1607021446.4077,26
1607021446.4096,-57
1607021446.4116,33
1607021446.4136,52
1607021446.4156,26
1607021446.4176,59
1607021446.4196,78
1607021446.4216,73
1607021446.4222,87
1607021446.4228,106
1607021446.4246,118
1607021446.4266,133
1607021446.4286,149
1607021446.4308,161
1607021446.4326,180
1607021446.4347,204
1607021446.4366,223
1607021446.4386,240
1607021446.4406,266
1607021446.4426,294
1607021446.4446,316
1607021446.4466,335
1607021446.4486,354
1607021446.4492,361
1607021446.4506,358
1607021446.4526,351
1607021446.4546,332
1607021446.4566,297
1607021446.4586,235
1607021446.4606,147
1607021446.4627,47
1607021446.8394,-42
1607021446.8402,-114
1607021446.8426,-154
1607021446.8453,-175
1607021446.8472,-187
1607021446.8492,-192
1607021446.8513,-187
1607021446.8532,-178
1607021446.8553,-171
1607021446.8572,-161
1607021446.8592,-154
1607021446.8612,-137
1607021446.8632,-123
1607021446.8652,-128
1607021446.8659,-133
1607021446.8672,-118
1607021446.8692,-104
1607021446.8712,-104
1607021446.8732,-102
1607021446.8752,-92
1607021446.8772,-85
1607021446.8792,-80
1607021446.8812,-76
1607021446.8832,-76
1607021446.8852,-73
1607021446.8872,-68
1607021446.8892,-68
1607021446.8912,-73
1607021446.8932,-71
1607021446.8952,-64
1607021446.8958,-59
1607021446.8972,-57
1607021446.8992,-54
1607021446.9014,-52
1607021446.9032,-52
1607021446.9052,-47
1607021446.9072,-40
1607021446.9092,-40
1607021446.9112,-40
1607021446.9132,-33
1607021446.9152,-35
1607021446.9172,-42
1607021446.9192,-42
1607021446.9212,-40
1607021446.9233,-45
1607021446.9252,-40
1607021446.9335,-28
1607021446.9352,-7
1607021446.9372,23
1607021446.9392,42
1607021446.9412,40
1607021446.9432,28
1607021446.9452,11
1607021446.9472,-9
1607021446.9492,-19
1607021446.9512,-19
1607021446.9532,-16
1607021446.9552,-19
1607021446.9572,-19
1607021446.9592,-19
1607021446.9612,-14
1607021446.9618,-14
1607021446.9631,-21
1607021446.9652,-61
1607021446.9672,-133
1607021446.9692,-95
1607021446.9712,216
1607021446.9732,826
1607021446.9752,1402
1607021446.9772,1069
1607021446.9792,-218
1607021446.9812,-829
1607021446.9832,-273
1607021447.4395,80
1607021447.4404,-76
1607021447.4428,-76
1607021447.4456,21
1607021447.4475,-4
1607021447.4495,-14
1607021447.4515,23
1607021447.4535,26
1607021447.4555,28
1607021447.4574,52
1607021447.4594,61
1607021447.4616,71
1607021447.4635,95
1607021447.4654,114
1607021447.4674,123
1607021447.4695,140
1607021447.4714,163
1607021447.4721,185
1607021447.4734,204
1607021447.4754,230
1607021447.4774,259
1607021447.4795,282
1607021447.4814,304
1607021447.4834,320
1607021447.4854,332
1607021447.4874,332
1607021447.4894,320
1607021447.4914,292
1607021447.4934,247
1607021447.4954,178
1607021447.4974,87
1607021447.4994,-2
1607021447.5014,-76
1607021447.5020,-130
1607021447.5034,-171
1607021447.5054,-190
1607021447.5074,-199
1607021447.5094,-197
1607021447.5114,-190
1607021447.5134,-178
1607021447.5154,-166
1607021447.5174,-156
1607021447.5194,-147
1607021447.5214,-135
1607021447.5234,-123
1607021447.5254,-116
1607021447.5274,-109
1607021447.5294,-106
1607021447.5314,-102
1607021447.5320,-97
1607021447.5334,-92
1607021447.5354,-87
1607021447.5374,-83
1607021447.5394,-78
1607021447.5414,-76
1607021447.5434,-71
1607021447.5454,-68
1607021447.5474,-66
1607021447.5494,-64
1607021447.5514,-59
1607021447.5534,-57
1607021447.5554,-54
1607021447.5575,-52
1607021447.5594,-49
1607021447.5614,-45
1607021447.5620,-42
1607021447.5634,-42
1607021447.5654,-45
1607021447.5674,-47
1607021447.5694,-47
1607021447.5714,-40
1607021447.5734,-35
1607021447.5754,-38
1607021447.9488,-35
1607021447.9495,-28
1607021447.9519,-23
1607021447.9546,-28
1607021447.9565,-35
1607021447.9585,-38
1607021447.9592,-35
1607021447.9606,-35
1607021447.9625,-30
1607021447.9646,-7
1607021447.9665,28
1607021447.9685,38
1607021447.9705,26
1607021447.9725,16
1607021447.9746,7
1607021447.9765,-11
1607021447.9785,-26
1607021447.9805,-23
1607021447.9825,-21
1607021447.9845,-21
1607021447.9865,-21
1607021447.9885,-16
1607021447.9892,-11
1607021447.9905,-11
1607021447.9925,-16
1607021447.9945,-52
1607021447.9965,-125
1607021447.9985,-114
1607021448.0006,140
1607021448.0027,703
1607021448.0046,1340
1607021448.0065,1190
1607021448.0085,-21
1607021448.0105,-777
1607021448.0125,-304
1607021448.0145,95
1607021448.0165,-66
1607021448.0185,-90
1607021448.0191,26
1607021448.0205,2
1607021448.0226,-19
1607021448.0246,30
1607021448.0265,40
1607021448.0285,35
1607021448.0305,59
1607021448.0325,76
1607021448.0345,83
1607021448.0366,95
1607021448.0385,114
1607021448.0405,128
1607021448.0425,144
1607021448.0445,166
1607021448.0465,187
1607021448.0485,206
1607021448.0491,230
1607021448.0505,256
1607021448.0525,282
1607021448.0545,301
1607021448.0565,318
1607021448.0586,327
1607021448.0605,330
1607021448.0625,320
1607021448.0645,294
1607021448.0665,256
1607021448.0685,194
1607021448.0705,109
1607021448.0725,14
1607021448.0745,-64
1607021448.0765,-123
1607021448.0785,-163
1607021448.0791,-190
1607021448.0805,-204
1607021448.0824,-204
1607021448.5196,-197
1607021448.5205,-187
1607021448.5230,-178
1607021448.5247,-168
1607021448.5266,-161
1607021448.5286,-156
1607021448.5306,-149
1607021448.5326,-135
1607021448.5347,-125
1607021448.5366,-121
1607021448.5386,-114
1607021448.5406,-102
1607021448.5426,-95
1607021448.5432,-92
1607021448.5446,-85
1607021448.5466,-78
1607021448.5486,-78
1607021448.5506,-76
1607021448.5528,-71
1607021448.5547,-66
1607021448.5565,-61
1607021448.5585,-59
1607021448.5605,-57
1607021448.5625,-54
1607021448.5645,-54
1607021448.5665,-52
1607021448.5685,-47
1607021448.5705,-45
1607021448.5725,-45
1607021448.5731,-45
1607021448.5747,-40
1607021448.5765,-40
1607021448.5785,-38
1607021448.5805,-33
1607021448.5825,-33
1607021448.5846,-30
1607021448.5865,-26
1607021448.5885,-26
1607021448.5905,-26
1607021448.5925,-23
1607021448.5945,-23
1607021448.5965,-21
1607021448.5985,-19
1607021448.6005,-16
1607021448.6025,-16
1607021448.6031,-14
1607021448.6046,-9
1607021448.6065,-11
1607021448.6085,-14
1607021448.6105,-16
1607021448.6125,-14
1607021448.6145,-14
1607021448.6165,-9
1607021448.6185,9
1607021448.6205,38
1607021448.6225,57
1607021448.6245,57
1607021448.6265,45
1607021448.6285,26
1607021448.6305,4
1607021448.6325,-4
1607021448.6331,-7
1607021448.6346,-11
1607021448.6365,-14
1607021448.6385,-11
1607021448.6406,-7
1607021448.6425,-2
1607021448.6445,-2
1607021448.6465,-7
1607021448.6487,-33
1607021448.6506,-102
1607021448.6525,-114
1607021448.6546,95
1607021449.1197,608
1607021449.1206,1257
1607021449.1231,1273
1607021449.1258,185
1607021449.1278,-705
1607021449.1297,-363
1607021449.1318,97
1607021449.1337,-30
1607021449.1357,-92
1607021449.1377,23
1607021449.1397,14
1607021449.1417,-11
1607021449.1437,35
1607021449.1457,54
1607021449.1477,47
1607021449.1497,66
1607021449.1517,85
1607021449.1523,90
1607021449.1537,104
1607021449.1556,123
1607021449.1576,137
1607021449.1596,149
1607021449.1616,166
1607021449.1636,187
1607021449.1656,213
1607021449.1676,235
1607021449.1696,256
1607021449.1718,278
1607021449.1737,301
1607021449.1757,320
1607021449.1777,337
1607021449.1797,342
1607021449.1816,339
1607021449.1822,323
1607021449.1836,292
1607021449.1857,240
1607021449.1876,161
1607021449.1896,73
1607021449.1916,-9
1607021449.1936,-80
1607021449.1957,-130
1607021449.1976,-156
1607021449.1996,-168
1607021449.2016,-173
1607021449.2037,-171
1607021449.2057,-168
1607021449.2076,-163
1607021449.2098,-152
1607021449.2117,-140
1607021449.2122,-130
1607021449.2136,-123
1607021449.2156,-114
1607021449.2176,-104
1607021449.2196,-99
1607021449.2216,-95
1607021449.2236,-87
1607021449.2257,-80
1607021449.2276,-78
1607021449.2296,-73
1607021449.2316,-66
1607021449.2336,-66
1607021449.2357,-64
1607021449.2376,-59
1607021449.2396,-57
1607021449.2416,-54
1607021449.2422,-52
1607021449.2436,-47
1607021449.2457,-47
1607021449.2476,-47
1607021449.2496,-47
1607021449.2517,-42
1607021449.2536,-40
1607021449.2557,-38
1607021449.6596,-33
1607021449.6605,-33
1607021449.6629,-33
1607021449.6646,-30
1607021449.6665,-26
1607021449.6685,-23
1607021449.6705,-21
1607021449.6725,-21
1607021449.6731,-21
1607021449.6745,-16
1607021449.6765,-16
1607021449.6785,-23
1607021449.6805,-26
1607021449.6825,-23
1607021449.6845,-23
1607021449.6865,-23
1607021449.6885,-21
1607021449.6905,-21
1607021449.6925,-19
1607021449.6945,-19
1607021449.6965,-16
1607021449.6985,-14
1607021449.7005,-14
1607021449.7025,-14
1607021449.7031,-9
1607021449.7047,-7
1607021449.7065,-7
1607021449.7085,-9
1607021449.7105,-9
1607021449.7125,-7
1607021449.7145,-9
1607021449.7164,-4
1607021449.7184,9
1607021449.7204,38
1607021449.7224,66
1607021449.7245,73
1607021449.7265,61
1607021449.7285,42
1607021449.7304,23
1607021449.7325,7
1607021449.7330,0
1607021449.7345,2
1607021449.7364,7
1607021449.7384,4
1607021449.7404,2
1607021449.7424,4
1607021449.7445,9
1607021449.7464,14
1607021449.7484,0
1607021449.7504,-64
1607021449.7525,-116
1607021449.7545,2
1607021449.7565,406
1607021449.7585,1047
1607021449.7604,1397
1607021449.7624,648
1607021449.7630,-525
1607021449.7645,-575
1607021449.7664,23
1607021449.7684,73
1607021449.7704,-83
1607021449.7724,7
1607021449.7745,57
1607021449.7764,7
1607021449.7784,28
1607021449.7804,68
1607021449.7825,68
1607021449.7845,73
1607021449.7864,92
1607021449.7884,102
1607021449.7904,116
1607021449.7924,137
1607021449.7930,152
1607021450.2297,159
1607021450.2305,175
1607021450.2329,197
1607021450.2359,218
1607021450.2376,240
1607021450.2396,261
1607021450.2417,280
1607021450.2436,301
1607021450.2455,323
1607021450.2475,335
1607021450.2495,339
1607021450.2516,344
1607021450.2536,337
1607021450.2542,318
1607021450.2556,273
1607021450.2575,206
1607021450.2595,121
1607021450.2615,33
1607021450.2635,-47
1607021450.2655,-109
1607021450.2675,-149
1607021450.2695,-171
1607021450.2715,-175
1607021450.2735,-175
1607021450.2755,-180
1607021450.2775,-178
1607021450.2795,-161
1607021450.2815,-147
1607021450.2835,-140
1607021450.2842,-133
1607021450.2855,-118
1607021450.2875,-111
1607021450.2895,-109
1607021450.2915,-99
1607021450.2935,-95
1607021450.2955,-90
1607021450.2975,-83
1607021450.2995,-83
1607021450.3015,-80
1607021450.3035,-73
1607021450.3055,-66
1607021450.3075,-66
1607021450.3095,-68
1607021450.3115,-61
1607021450.3135,-54
1607021450.3142,-59
1607021450.3155,-64
1607021450.3175,-61
1607021450.3195,-54
1607021450.3215,-45
1607021450.3235,-45
1607021450.3255,-45
1607021450.3275,-45
1607021450.3295,-45
1607021450.3316,-42
1607021450.3335,-42
1607021450.3355,-40
1607021450.3375,-33
1607021450.3395,-28
1607021450.3415,-28
1607021450.3435,-23
1607021450.3441,-19
1607021450.3455,-23
1607021450.3475,-26
1607021450.3495,-23
1607021450.3515,-16
1607021450.3535,-9
1607021450.3555,-7
1607021450.3575,-7
1607021450.3595,-7
1607021450.3615,-9
1607021450.3635,-9
1607021450.3655,-4
1607021450.7694,0
1607021450.7701,0
1607021450.7725,-4
1607021450.7737,-2
1607021450.7751,4
1607021450.7771,4
1607021450.7791,-7
1607021450.7812,-7
1607021450.7831,2
1607021450.7852,14
1607021450.7871,35
1607021450.7891,59
1607021450.7911,66
1607021450.7931,57
1607021450.7952,38
1607021450.7971,23
1607021450.7992,9
1607021450.8011,-2
1607021450.8031,2
1607021450.8037,14
1607021450.8051,11
1607021450.8071,7
1607021450.8091,16
1607021450.8111,28
1607021450.8133,14
1607021450.8151,-23
1607021450.8171,-78
1607021450.8191,-76
1607021450.8211,156
1607021450.8231,686
1607021450.8251,1295
1607021450.8271,1276
1607021450.8293,130
1607021450.8311,-902
1607021450.8317,-577
1607021450.8331,49
1607021450.8351,33
1607021450.8371,-40
1607021450.8391,59
1607021450.8411,66
1607021450.8431,33
1607021450.8451,71
1607021450.8471,95
1607021450.8491,87
1607021450.8511,102
1607021450.8531,123
1607021450.8551,130
1607021450.8571,142
1607021450.8591,161
1607021450.8611,178
1607021450.8617,197
1607021450.8631,218
1607021450.8651,235
1607021450.8671,251
1607021450.8691,273
1607021450.8711,299
1607021450.8731,325
1607021450.8751,344
1607021450.8771,361
1607021450.8791,375
1607021450.8811,380
1607021450.8831,373
1607021450.8851,354
1607021450.8871,325
1607021450.8891,275
1607021450.8911,190
1607021450.8917,87
1607021450.8931,-2
1607021450.8951,-80
1607021450.8971,-147
1607021450.8992,-185
1607021450.9011,-199
1607021450.9031,-206
1607021451.3096,-204
1607021451.3105,-199
1607021451.3130,-192
1607021451.3156,-178
1607021451.3175,-163
1607021451.3195,-163
1607021451.3216,-156
1607021451.3222,-147
1607021451.3235,-140
1607021451.3256,-133
1607021451.3277,-125
1607021451.3296,-121
1607021451.3315,-109
1607021451.3335,-102
1607021451.3355,-106
1607021451.3375,-106
1607021451.3395,-99
1607021451.3415,-99
1607021451.3435,-97
1607021451.3455,-95
1607021451.3475,-87
1607021451.3495,-83
1607021451.3515,-80
1607021451.3521,-83
1607021451.3535,-78
1607021451.3555,-68
1607021451.3575,-66
1607021451.3595,-68
1607021451.3615,-68
1607021451.3635,-61
1607021451.3655,-52
1607021451.3675,-49
1607021451.3695,-52
1607021451.3715,-49
1607021451.3735,-47
1607021451.3756,-42
1607021451.3775,-38
1607021451.3795,-35
1607021451.3815,-38
1607021451.3821,-33
1607021451.3835,-26
1607021451.3855,-28
1607021451.3875,-30
1607021451.3895,-30
1607021451.3915,-33
1607021451.3935,-30
1607021451.3955,-7
1607021451.3975,26
1607021451.3995,49
1607021451.4015,49
1607021451.4035,40
1607021451.4055,23
1607021451.4075,4
1607021451.4095,-9
1607021451.4115,-14
1607021451.4121,-9
1607021451.4135,-4
1607021451.4155,-4
1607021451.4175,-7
1607021451.4195,-2
1607021451.4215,2
1607021451.4237,2
1607021451.4256,-19
1607021451.4275,-78
1607021451.4295,-114
1607021451.4315,47
1607021451.4335,515
1607021451.4355,1183
1607021451.4375,1425
1607021451.4395,503
1607021451.4415,-691
1607021451.4421,-629
1607021451.4435,7
1607021451.8793,47
1607021451.8803,-78
1607021451.8828,19
1607021451.8854,47
1607021451.8873,-2
1607021451.8893,28
1607021451.8915,66
1607021451.8933,59
1607021451.8954,61
1607021451.8973,80
1607021451.8994,90
1607021451.9013,102
1607021451.9034,121
1607021451.9054,137
1607021451.9059,156
1607021451.9073,175
1607021451.9093,194
1607021451.9113,216
1607021451.9133,247
1607021451.9153,268
1607021451.9173,285
1607021451.9193,311
1607021451.9213,337
1607021451.9233,354
1607021451.9253,361
1607021451.9273,358
1607021451.9293,342
1607021451.9313,308
1607021451.9333,251
1607021451.9353,171
1607021451.9359,76
1607021451.9373,-21
1607021451.9393,-97
1607021451.9413,-149
1607021451.9433,-182
1607021451.9453,-201
1607021451.9472,-206
1607021451.9493,-201
1607021451.9512,-192
1607021451.9534,-187
1607021451.9553,-185
1607021451.9572,-173
1607021451.9592,-163
1607021451.9613,-159
1607021451.9632,-149
1607021451.9652,-137
1607021451.9659,-130
1607021451.9672,-121
1607021451.9692,-111
1607021451.9712,-106
1607021451.9732,-102
1607021451.9753,-95
1607021451.9772,-87
1607021451.9792,-85
1607021451.9812,-80
1607021451.9832,-76
1607021451.9852,-73
1607021451.9872,-76
1607021451.9892,-73
1607021451.9912,-68
1607021451.9932,-64
1607021451.9953,-59
1607021451.9958,-54
1607021451.9972,-57
1607021451.9993,-54
1607021452.0012,-52
1607021452.0032,-47
1607021452.0053,-45
1607021452.0072,-40
1607021452.0092,-40
1607021452.0112,-38
1607021452.0132,-35
1607021452.0152,-33
1607021452.4791,-35
1607021452.4800,-38
1607021452.4817,-40
1607021452.4842,-42
1607021452.4861,-47
1607021452.4881,-54
1607021452.4901,-52
1607021452.4921,-30
1607021452.4941,7
1607021452.4960,35
1607021452.4980,35
1607021452.5000,26
1607021452.5020,11
1607021452.5041,-4
1607021452.5060,-19
1607021452.5080,-21
1607021452.5100,-19
1607021452.5122,-14
1607021452.5127,-14
1607021452.5142,-11
1607021452.5160,-9
1607021452.5180,-7
1607021452.5200,-7
1607021452.5220,-26
1607021452.5241,-92
1607021452.5260,-116
1607021452.5280,66
1607021452.5300,548
1607021452.5320,1219
1607021452.5340,1383
1607021452.5360,370
1607021452.5380,-710
1607021452.5400,-501
1607021452.5420,68
1607021452.5426,7
1607021452.5441,-99
1607021452.5460,19
1607021452.5480,33
1607021452.5500,-7
1607021452.5520,35
1607021452.5540,61
1607021452.5560,52
1607021452.5580,68
1607021452.5600,87
1607021452.5620,90
1607021452.5640,106
1607021452.5660,128
1607021452.5680,142
1607021452.5700,156
1607021452.5720,178
1607021452.5726,199
1607021452.5740,220
1607021452.5760,242
1607021452.5780,268
1607021452.5800,292
1607021452.5820,316
1607021452.5840,337
1607021452.5860,351
1607021452.5880,358
1607021452.5900,358
1607021452.5920,339
1607021452.5940,304
1607021452.5960,242
1607021452.5980,159
1607021452.6000,61
1607021452.6020,-30
1607021452.6026,-106
1607021452.6040,-161
1607021452.6061,-192
1607021452.6081,-204
1607021452.6100,-206
1607021452.6107,-206
1607021452.6130,-199
1607021453.0194,-187
1607021453.0201,-178
1607021453.0225,-168
1607021453.0252,-156
1607021453.0271,-144
1607021453.0291,-135
1607021453.0298,-128
1607021453.0312,-121
1607021453.0333,-111
1607021453.0352,-106
1607021453.0371,-109
1607021453.0391,-104
1607021453.0411,-97
1607021453.0431,-97
1607021453.0452,-95
1607021453.0471,-90
1607021453.0491,-85
1607021453.0511,-83
1607021453.0531,-78
1607021453.0551,-76
1607021453.0571,-71
1607021453.0591,-68
1607021453.0597,-68
1607021453.0611,-68
1607021453.0631,-64
1607021453.0651,-61
1607021453.0671,-61
1607021453.0691,-57
1607021453.0711,-54
1607021453.0731,-52
1607021453.0751,-47
1607021453.0771,-45
1607021453.0791,-45
1607021453.0811,-45
1607021453.0831,-45
1607021453.0851,-45
1607021453.0871,-40
1607021453.0891,-30
1607021453.0897,-11
1607021453.0911,26
1607021453.0931,49
1607021453.0951,40
1607021453.0971,19
1607021453.0990,7
1607021453.1011,-9
1607021453.1031,-19
1607021453.1053,-19
1607021453.1071,-14
1607021453.1091,-14
1607021453.1111,-14
1607021453.1131,-11
1607021453.1151,-9
1607021453.1171,-4
1607021453.1191,-9
1607021453.1197,-52
1607021453.1211,-118
1607021453.1231,-83
1607021453.1251,204
1607021453.1271,777
1607021453.1291,1347
1607021453.1311,1064
1607021453.1331,-161
1607021453.1351,-779
1607021453.1371,-247
1607021453.1391,102
1607021453.1411,-66
1607021453.1431,-66
1607021453.1451,42
1607021453.1471,9
1607021453.1491,-2
1607021453.1497,47
1607021453.1511,54
1607021453.1531,49
1607021453.5896,71
1607021453.5905,87
1607021453.5929,95
1607021453.5957,111
1607021453.5975,128
1607021453.5995,144
1607021453.6016,159
1607021453.6035,171
1607021453.6055,187
1607021453.6076,211
1607021453.6095,237
1607021453.6115,261
1607021453.6135,282
1607021453.6141,306
1607021453.6157,320
1607021453.6175,332
1607021453.6196,337
1607021453.6215,330
1607021453.6235,308
1607021453.6255,266
1607021453.6274,197
1607021453.6295,114
1607021453.6315,21
1607021453.6335,-64
1607021453.6357,-125
1607021453.6375,-163
1607021453.6395,-185
1607021453.6415,-194
1607021453.6435,-194
1607021453.6441,-190
1607021453.6454,-180
1607021453.6474,-171
1607021453.6494,-161
1607021453.6515,-149
1607021453.6534,-137
1607021453.6555,-128
1607021453.6574,-118
1607021453.6594,-109
1607021453.6615,-104
1607021453.6634,-97
1607021453.6654,-90
1607021453.6674,-83
1607021453.6694,-80
1607021453.6714,-78
1607021453.6734,-73
1607021453.6741,-66
1607021453.6754,-68
1607021453.6774,-68
1607021453.6794,-66
1607021453.6814,-64
1607021453.6834,-64
1607021453.6855,-59
1607021453.6874,-57
1607021453.6894,-59
1607021453.6914,-59
1607021453.6934,-59
1607021453.6955,-54
1607021453.6974,-52
1607021453.6994,-49
1607021453.7014,-42
1607021453.7034,-40
1607021453.7041,-40
1607021453.7054,-40
1607021453.7074,-38
1607021453.7094,-40
1607021453.7114,-45
1607021453.7134,-47
1607021453.7155,-47
1607021453.7174,-40
1607021453.7194,-26
1607021453.7214,4
1607021453.7234,35
1607021453.7255,45
1607021454.1290,33
1607021454.1296,14
1607021454.1322,0
1607021454.1348,-11
1607021454.1367,-21
1607021454.1387,-23
1607021454.1407,-23
1607021454.1427,-21
1607021454.1447,-23
1607021454.1467,-28
1607021454.1487,-19
1607021454.1507,-11
1607021454.1527,-33
1607021454.1547,-87
1607021454.1567,-121
1607021454.1587,2
1607021454.1607,401
1607021454.1613,1033
1607021454.1627,1373
1607021454.1647,622
1607021454.1667,-589
1607021454.1686,-672
1607021454.1707,-28
1607021454.1727,66
1607021454.1747,-95
1607021454.1767,-2
1607021454.1788,54
1607021454.1807,0
1607021454.1827,19
1607021454.1847,66
1607021454.1866,59
1607021454.1886,61
1607021454.1906,87
1607021454.1912,106
1607021454.1927,118
1607021454.1947,130
1607021454.1967,140
1607021454.1986,152
1607021454.2006,166
1607021454.2026,190
1607021454.2047,216
1607021454.2066,242
1607021454.2086,266
1607021454.2106,289
1607021454.2126,313
1607021454.2147,325
1607021454.2166,332
1607021454.2186,342
1607021454.2206,344
1607021454.2212,335
1607021454.2226,313
1607021454.2246,263
1607021454.2266,192
1607021454.2288,99
1607021454.2307,-7
1607021454.2327,-92
1607021454.2347,-140
1607021454.2366,-168
1607021454.2386,-192
1607021454.2406,-197
1607021454.2426,-187
1607021454.2447,-180
1607021454.2466,-178
1607021454.2487,-163
1607021454.2507,-144
1607021454.2513,-128
1607021454.2526,-125
1607021454.2547,-123
1607021454.2566,-111
1607021454.2586,-104
1607021454.2606,-102
1607021454.2626,-92
1607021454.2647,-80
1607021454.6996,-78
1607021454.7004,-78
1607021454.7028,-78
1607021454.7047,-68
1607021454.7066,-61
1607021454.7085,-61
1607021454.7105,-68
1607021454.7112,-66
1607021454.7125,-59
1607021454.7145,-57
1607021454.7165,-57
1607021454.7185,-57
1607021454.7205,-52
1607021454.7225,-45
1607021454.7245,-42
1607021454.7265,-42
1607021454.7285,-35
1607021454.7305,-35
1607021454.7325,-35
1607021454.7345,-30
1607021454.7364,-28
1607021454.7384,-33
1607021454.7404,-33
1607021454.7410,-26
1607021454.7424,-23
1607021454.7445,-30
1607021454.7464,-30
1607021454.7484,-26
1607021454.7505,-9
1607021454.7525,23
1607021454.7545,52
1607021454.7566,54
1607021454.7585,40
1607021454.7604,19
1607021454.7625,0
1607021454.7645,-9
1607021454.7664,-7
1607021454.7684,-7
1607021454.7704,-9
1607021454.7710,-16
1607021454.7724,-16
1607021454.7745,-7
