Time,ECG
1601464663.6671,9192
1601464663.6676,10225
1601464663.6693,11432
1601464663.6713,12102
1601464663.6733,12617
1601464663.6753,13210
1601464663.6773,13617
1601464663.6793,13918
1601464663.6813,14265
1601464663.6833,14542
1601464663.6853,14713
1601464663.6873,14886
1601464663.6893,15072
1601464663.6913,15199
1601464663.6933,15291
1601464663.6953,15385
1601464663.6972,15464
1601464663.6993,15520
1601464663.7013,15563
1601464663.7032,15604
1601464663.7053,15643
1601464663.7072,15667
1601464663.7092,15667
1601464663.7113,15667
1601464663.7133,15669
1601464663.7153,15657
1601464663.7173,15635
1601464663.7193,15616
1601464663.7213,15587
1601464663.7232,15553
1601464663.7253,15517
1601464663.7273,15486
1601464663.7293,15460
1601464663.7313,15407
1601464663.7333,15344
1601464663.7352,15313
1601464663.7372,15296
1601464663.7393,15238
1601464663.7413,15151
1601464663.7432,15074
1601464663.7453,15007
1601464663.7472,14939
1601464663.7492,14874
1601464663.7513,14812
1601464663.7533,14742
1601464663.7552,14657
1601464663.7573,14583
1601464663.7593,14515
1601464663.7612,14429
1601464663.7633,14351
1601464663.7653,14296
1601464663.7672,14221
1601464663.7693,14188
1601464663.7713,14323
1601464663.7732,14484
1601464663.7753,14209
1601464663.7772,13501
1601464663.7792,13169
1601464663.7813,13417
1601464663.7832,13537
1601464663.7853,13410
1601464663.7873,13361
1601464663.7893,13318
1601464663.7913,13202
1601464663.7933,13108
1601464663.7953,13039
1601464663.7973,12957
1601464663.7993,12865
1601464663.8013,12778
1601464663.8033,12685
1601464663.8053,12583
1601464663.8073,12494
1601464663.8093,12405
1601464664.2066,12316
1601464664.2072,12246
1601464664.2096,12169
1601464664.2123,12058
1601464664.2142,11957
1601464664.2162,11899
1601464664.2182,11827
1601464664.2202,11719
1601464664.2223,11627
1601464664.2242,11569
1601464664.2262,11499
1601464664.2282,11377
1601464664.2302,11271
1601464664.2322,11208
1601464664.2342,11126
1601464664.2362,11015
1601464664.2382,10933
1601464664.2402,10863
1601464664.2422,10769
1601464664.2442,10659
1601464664.2462,10555
1601464664.2482,10454
1601464664.2502,10346
1601464664.2522,10232
1601464664.2542,10141
1601464664.2564,10056
1601464664.2582,9941
1601464664.2602,9835
1601464664.2624,9755
1601464664.2642,9664
1601464664.2662,9567
1601464664.2682,9486
1601464664.2702,9404
1601464664.2722,9317
1601464664.2742,9237
1601464664.2762,9165
1601464664.2782,9088
1601464664.2802,9025
1601464664.2822,8941
1601464664.2842,8833
1601464664.2863,8763
1601464664.2882,8700
1601464664.2903,8611
1601464664.2922,8544
1601464664.2942,8486
1601464664.2962,8390
1601464664.2982,8291
1601464664.3002,8233
1601464664.3022,8180
1601464664.3042,8105
1601464664.3062,8023
1601464664.3082,7932
1601464664.3102,7855
1601464664.3122,7792
1601464664.3142,7705
1601464664.3163,7626
1601464664.3183,7575
1601464664.3204,7510
1601464664.3223,7424
1601464664.3242,7361
1601464664.3262,7320
1601464664.3282,7241
1601464664.3302,7151
1601464664.3322,7086
1601464664.3342,7036
1601464664.3362,6978
1601464664.3382,6908
1601464664.3402,6841
1601464664.3422,6785
1601464664.3442,6725
1601464664.3462,6653
1601464664.3482,6595
1601464664.3502,6542
1601464664.7773,6479
1601464664.7779,6422
1601464664.7804,6371
1601464664.7831,6311
1601464664.7850,6238
1601464664.7870,6183
1601464664.7890,6147
1601464664.7910,6099
1601464664.7930,6022
1601464664.7949,5947
1601464664.7970,5896
1601464664.7990,5855
1601464664.8010,5812
1601464664.8030,5764
1601464664.8050,5718
1601464664.8071,5677
1601464664.8089,5617
1601464664.8110,5545
1601464664.8130,5511
1601464664.8149,5482
1601464664.8169,5415
1601464664.8189,5350
1601464664.8210,5306
1601464664.8230,5248
1601464664.8249,5191
1601464664.8269,5150
1601464664.8289,5111
1601464664.8310,5068
1601464664.8329,5024
1601464664.8349,4976
1601464664.8370,4950
1601464664.8389,5027
1601464664.8410,5232
1601464664.8429,5311
1601464664.8449,4877
1601464664.8470,4256
1601464664.8490,4241
1601464664.8510,4576
1601464664.8529,4603
1601464664.8549,4519
1601464664.8569,4543
1601464664.8589,4523
1601464664.8610,4458
1601464664.8629,4420
1601464664.8649,4381
1601464664.8670,4345
1601464664.8689,4321
1601464664.8710,4285
1601464664.8730,4244
1601464664.8749,4210
1601464664.8769,4181
1601464664.8789,4140
1601464664.8810,4099
1601464664.8829,4085
1601464664.8849,4061
1601464664.8869,4010
1601464664.8889,3979
1601464664.8910,3964
1601464664.8929,3933
1601464664.8949,3897
1601464664.8970,3873
1601464664.8989,3854
1601464664.9010,3830
1601464664.9029,3803
1601464664.9049,3784
1601464664.9070,3760
1601464664.9090,3726
1601464664.9110,3697
1601464664.9129,3675
1601464664.9149,3647
1601464664.9170,3601
1601464664.9189,3553
1601464664.9210,3512
1601464665.3170,3471
1601464665.3176,3422
1601464665.3200,3374
1601464665.3226,3341
1601464665.3246,3297
1601464665.3266,3247
1601464665.3286,3220
1601464665.3306,3203
1601464665.3326,3172
1601464665.3346,3136
1601464665.3366,3097
1601464665.3386,3071
1601464665.3406,3052
1601464665.3426,3027
1601464665.3446,3006
1601464665.3466,2986
1601464665.3486,2970
1601464665.3506,2948
1601464665.3527,2924
1601464665.3546,2912
1601464665.3566,2897
1601464665.3586,2868
1601464665.3607,2840
1601464665.3626,2832
1601464665.3646,2811
1601464665.3666,2782
1601464665.3686,2765
1601464665.3706,2748
1601464665.3726,2717
1601464665.3746,2690
1601464665.3766,2676
1601464665.3786,2661
1601464665.3806,2632
1601464665.3826,2606
1601464665.3846,2589
1601464665.3866,2572
1601464665.3886,2538
1601464665.3906,2507
1601464665.3926,2495
1601464665.3946,2485
1601464665.3966,2473
1601464665.3986,2457
1601464665.4006,2430
1601464665.4026,2404
1601464665.4046,2389
1601464665.4066,2372
1601464665.4086,2355
1601464665.4106,2348
1601464665.4126,2329
1601464665.4146,2300
1601464665.4166,2290
1601464665.4186,2283
1601464665.4206,2259
1601464665.4226,2240
1601464665.4246,2230
1601464665.4266,2208
1601464665.4286,2196
1601464665.4306,2189
1601464665.4326,2170
1601464665.4346,2143
1601464665.4366,2134
1601464665.4386,2124
1601464665.4406,2105
1601464665.4426,2083
1601464665.4446,2083
1601464665.4466,2090
1601464665.4486,2081
1601464665.4506,2049
1601464665.4526,2025
1601464665.4546,2018
1601464665.4566,2011
1601464665.4586,1984
1601464665.4606,1953
1601464665.9174,1934
1601464665.9179,1919
1601464665.9190,1900
1601464665.9210,1886
1601464665.9231,1886
1601464665.9250,1874
1601464665.9270,1850
1601464665.9290,1823
1601464665.9311,1842
1601464665.9330,1996
1601464665.9350,2259
1601464665.9370,2264
1601464665.9390,1691
1601464665.9410,1177
1601464665.9430,1397
1601464665.9450,1731
1601464665.9470,1695
1601464665.9490,1676
1601464665.9510,1739
1601464665.9530,1710
1601464665.9550,1678
1601464665.9570,1698
1601464665.9590,1693
1601464665.9610,1671
1601464665.9630,1666
1601464665.9650,1657
1601464665.9670,1640
1601464665.9690,1633
1601464665.9710,1625
1601464665.9730,1609
1601464665.9750,1597
1601464665.9771,1592
1601464665.9790,1587
1601464665.9811,1577
1601464665.9830,1570
1601464665.9850,1565
1601464665.9870,1563
1601464665.9890,1556
1601464665.9910,1551
1601464665.9930,1553
1601464665.9950,1551
1601464665.9970,1544
1601464665.9990,1544
1601464666.0010,1539
1601464666.0030,1527
1601464666.0050,1519
1601464666.0070,1512
1601464666.0090,1493
1601464666.0110,1479
1601464666.0130,1457
1601464666.0150,1421
1601464666.0170,1394
1601464666.0190,1377
1601464666.0210,1351
1601464666.0230,1327
1601464666.0250,1308
1601464666.0270,1293
1601464666.0290,1276
1601464666.0310,1257
1601464666.0330,1245
1601464666.0350,1245
1601464666.0370,1242
1601464666.0390,1230
1601464666.0410,1221
1601464666.0430,1226
1601464666.0450,1218
1601464666.0470,1209
1601464666.0490,1209
1601464666.0510,1211
1601464666.0530,1204
1601464666.0550,1194
1601464666.0570,1194
1601464666.0590,1189
1601464666.4270,1180
1601464666.4276,1173
1601464666.4290,1163
1601464666.4310,1153
1601464666.4329,1158
1601464666.4349,1149
1601464666.4369,1132
1601464666.4389,1127
1601464666.4409,1120
1601464666.4429,1108
1601464666.4449,1100
1601464666.4469,1086
1601464666.4489,1064
1601464666.4510,1064
1601464666.4529,1071
1601464666.4549,1062
1601464666.4569,1045
1601464666.4589,1045
1601464666.4610,1047
1601464666.4629,1035
1601464666.4649,1028
1601464666.4669,1040
1601464666.4688,1035
1601464666.4710,1011
1601464666.4729,1009
1601464666.4749,1018
1601464666.4769,1011
1601464666.4789,992
1601464666.4810,990
1601464666.4829,997
1601464666.4849,990
1601464666.4869,975
1601464666.4889,973
1601464666.4909,977
1601464666.4929,982
1601464666.4949,987
1601464666.4969,997
1601464666.4983,1009
1601464666.5000,994
1601464666.5019,965
1601464666.5039,956
1601464666.5059,956
1601464666.5079,956
1601464666.5099,951
1601464666.5119,932
1601464666.5139,920
1601464666.5159,922
1601464666.5179,920
1601464666.5199,917
1601464666.5219,917
1601464666.5239,912
1601464666.5259,898
1601464666.5279,934
1601464666.5299,1132
1601464666.5319,1423
1601464666.5339,1377
1601464666.5359,741
1601464666.5379,264
1601464666.5399,554
1601464666.5420,876
1601464666.5439,821
1601464666.5459,833
1601464666.5479,912
1601464666.5499,874
1601464666.5519,855
1601464666.5539,888
1601464666.5559,879
1601464666.5579,867
1601464666.5599,874
1601464666.5619,872
1601464666.5639,864
1601464666.5659,864
1601464666.5679,862
1601464667.0275,859
1601464667.0283,864
1601464667.0308,864
1601464667.0334,855
1601464667.0354,843
1601464667.0374,843
1601464667.0394,850
1601464667.0414,855
1601464667.0433,852
1601464667.0453,862
1601464667.0473,872
1601464667.0493,869
1601464667.0514,869
1601464667.0533,872
1601464667.0553,872
1601464667.0573,867
1601464667.0593,850
1601464667.0613,843
1601464667.0633,843
1601464667.0653,828
1601464667.0673,811
1601464667.0693,794
1601464667.0714,780
1601464667.0733,763
1601464667.0753,737
1601464667.0774,717
1601464667.0793,705
1601464667.0814,691
1601464667.0833,679
1601464667.0853,672
1601464667.0873,669
1601464667.0893,657
1601464667.0914,652
1601464667.0933,662
1601464667.0953,667
1601464667.0973,660
1601464667.0993,657
1601464667.1014,667
1601464667.1033,664
1601464667.1053,652
1601464667.1073,660
1601464667.1093,672
1601464667.1113,669
1601464667.1133,664
1601464667.1153,667
1601464667.1173,667
1601464667.1194,662
1601464667.1213,664
1601464667.1233,657
1601464667.1253,647
1601464667.1273,645
1601464667.1293,640
1601464667.1313,640
1601464667.1333,640
1601464667.1353,633
1601464667.1373,631
1601464667.1393,631
1601464667.1414,631
1601464667.1433,626
1601464667.1453,621
1601464667.1473,619
1601464667.1493,619
1601464667.1514,621
1601464667.1533,619
1601464667.1553,619
1601464667.1573,619
1601464667.1593,614
1601464667.1613,616
1601464667.1633,616
1601464667.1653,609
1601464667.1673,599
1601464667.1694,597
1601464667.1714,604
1601464667.5968,607
1601464667.5976,599
1601464667.6000,604
1601464667.6026,607
1601464667.6046,602
1601464667.6066,607
1601464667.6086,609
1601464667.6106,599
1601464667.6126,582
1601464667.6146,566
1601464667.6166,558
1601464667.6185,561
1601464667.6205,549
1601464667.6225,541
1601464667.6246,556
1601464667.6266,556
1601464667.6287,544
1601464667.6306,544
1601464667.6326,546
1601464667.6346,549
1601464667.6366,561
1601464667.6386,635
1601464667.6405,862
1601464667.6426,1083
1601464667.6445,840
1601464667.6466,185
1601464667.6486,-9
1601464667.6506,378
1601464667.6526,549
1601464667.6546,481
1601464667.6565,539
1601464667.6586,585
1601464667.6606,544
1601464667.6625,546
1601464667.6645,575
1601464667.6666,570
1601464667.6686,556
1601464667.6705,556
1601464667.6726,554
1601464667.6745,551
1601464667.6766,558
1601464667.6785,556
1601464667.6806,551
1601464667.6825,556
1601464667.6845,556
1601464667.6866,566
1601464667.6885,585
1601464667.6906,580
1601464667.6926,573
1601464667.6946,578
1601464667.6966,568
1601464667.6985,585
1601464667.7006,609
1601464667.7026,599
1601464667.7046,611
1601464667.7066,640
1601464667.7086,623
1601464667.7106,604
1601464667.7126,614
1601464667.7146,616
1601464667.7166,602
1601464667.7186,587
1601464667.7205,568
1601464667.7226,541
1601464667.7245,513
1601464667.7266,493
1601464667.7286,481
1601464667.7305,472
1601464667.7326,460
1601464667.7346,450
1601464667.7365,436
1601464667.7385,419
1601464667.7406,416
1601464668.1373,414
1601464668.1379,395
1601464668.1403,397
1601464668.1430,436
1601464668.1450,455
1601464668.1470,414
1601464668.1491,375
1601464668.1511,402
1601464668.1529,414
1601464668.1550,404
1601464668.1570,414
1601464668.1590,419
1601464668.1610,411
1601464668.1629,387
1601464668.1650,361
1601464668.1669,370
1601464668.1690,404
1601464668.1697,383
1601464668.1721,351
1601464668.1740,395
1601464668.1760,411
1601464668.1780,356
1601464668.1800,354
1601464668.1820,392
1601464668.1840,383
1601464668.1859,351
1601464668.1880,346
1601464668.1899,358
1601464668.1920,385
1601464668.1939,395
1601464668.1960,378
1601464668.1979,366
1601464668.2000,366
1601464668.2006,354
1601464668.2020,373
1601464668.2040,416
1601464668.2060,404
1601464668.2080,380
1601464668.2100,390
1601464668.2120,387
1601464668.2139,375
1601464668.2160,383
1601464668.2180,395
1601464668.2200,414
1601464668.2220,402
1601464668.2239,370
1601464668.2260,378
1601464668.2280,399
1601464668.2300,402
1601464668.2383,419
1601464668.2399,431
1601464668.2419,419
1601464668.2440,407
1601464668.2460,411
1601464668.2480,414
1601464668.2500,409
1601464668.2520,392
1601464668.2540,354
1601464668.2560,344
1601464668.2580,380
1601464668.2599,395
1601464668.2620,383
1601464668.2640,370
1601464668.2660,392
1601464668.2666,414
1601464668.2679,414
1601464668.2700,554
1601464668.2720,845
1601464668.2740,809
1601464668.2759,199
1601464668.2780,-207
1601464668.2800,77
1601464668.2820,361
1601464668.7070,337
1601464668.7076,368
1601464668.7089,421
1601464668.7108,363
1601464668.7129,351
1601464668.7149,411
1601464668.7169,411
1601464668.7189,375
1601464668.7209,383
1601464668.7229,390
1601464668.7249,373
1601464668.7269,373
1601464668.7289,385
1601464668.7310,378
1601464668.7329,375
1601464668.7336,397
1601464668.7359,409
1601464668.7379,402
1601464668.7399,395
1601464668.7419,397
1601464668.7439,407
1601464668.7459,419
1601464668.7479,436
1601464668.7499,438
1601464668.7518,431
1601464668.7539,436
1601464668.7559,448
1601464668.7579,452
1601464668.7599,450
1601464668.7619,436
1601464668.7639,428
1601464668.7646,423
1601464668.7669,414
1601464668.7690,431
1601464668.7710,436
1601464668.7729,383
1601464668.7749,334
1601464668.7769,342
1601464668.7789,344
1601464668.7809,313
1601464668.7829,284
1601464668.7849,293
1601464668.7869,305
1601464668.7889,289
1601464668.7910,267
1601464668.7929,269
1601464668.7949,281
1601464668.7956,291
1601464668.7979,291
1601464668.7999,291
1601464668.8018,293
1601464668.8039,289
1601464668.8059,286
1601464668.8079,308
1601464668.8099,305
1601464668.8119,279
1601464668.8139,284
1601464668.8159,277
1601464668.8179,260
1601464668.8199,264
1601464668.8219,264
1601464668.8238,267
1601464668.8259,272
1601464668.8266,262
1601464668.8289,269
1601464668.8309,284
1601464668.8328,260
1601464668.8349,231
1601464668.8369,248
1601464668.8389,277
1601464668.8409,269
1601464668.8429,255
1601464668.8449,267
1601464669.2472,267
1601464669.2478,236
1601464669.2489,238
1601464669.2510,286
1601464669.2530,291
1601464669.2550,248
1601464669.2570,240
1601464669.2590,267
1601464669.2609,260
1601464669.2629,250
1601464669.2649,267
1601464669.2669,248
1601464669.2689,224
1601464669.2709,245
1601464669.2729,248
1601464669.2749,219
1601464669.2769,231
1601464669.2776,269
1601464669.2799,264
1601464669.2819,240
1601464669.2839,248
1601464669.2858,272
1601464669.2879,277
1601464669.2899,264
1601464669.2919,262
1601464669.2939,267
1601464669.2959,262
1601464669.2979,257
1601464669.2999,257
1601464669.3019,255
1601464669.3039,255
1601464669.3059,248
1601464669.3079,233
1601464669.3086,233
1601464669.3109,245
1601464669.3128,255
1601464669.3148,260
1601464669.3170,243
1601464669.3189,224
1601464669.3210,260
1601464669.3231,385
1601464669.3249,638
1601464669.3269,792
1601464669.3296,361
1601464669.3308,-289
1601464669.3330,-226
1601464669.3336,199
1601464669.3349,231
1601464669.3369,158
1601464669.3389,250
1601464669.3409,284
1601464669.3429,243
1601464669.3449,243
1601464669.3469,262
1601464669.3489,257
1601464669.3509,250
1601464669.3529,245
1601464669.3549,248
1601464669.3569,272
1601464669.3589,291
1601464669.3610,286
1601464669.3629,277
1601464669.3636,269
1601464669.3650,267
1601464669.3669,274
1601464669.3672,279
1601464669.3689,293
1601464669.3709,313
1601464669.3728,315
1601464669.3748,310
1601464669.3768,305
1601464669.3788,301
1601464669.3809,322
1601464669.7869,337
1601464669.7875,337
1601464669.7888,354
1601464669.7908,346
1601464669.7928,310
1601464669.7948,303
1601464669.7968,317
1601464669.7988,305
1601464669.8009,269
1601464669.8029,233
1601464669.8048,228
1601464669.8068,231
1601464669.8088,199
1601464669.8109,185
1601464669.8128,202
1601464669.8148,183
1601464669.8168,158
1601464669.8189,183
1601464669.8209,195
1601464669.8228,171
1601464669.8248,161
1601464669.8268,171
1601464669.8288,175
1601464669.8309,173
1601464669.8328,166
1601464669.8348,175
1601464669.8368,192
1601464669.8388,190
1601464669.8408,185
1601464669.8428,202
1601464669.8448,209
1601464669.8469,197
1601464669.8488,202
1601464669.8509,197
1601464669.8528,183
1601464669.8548,190
1601464669.8568,197
1601464669.8588,187
1601464669.8608,180
1601464669.8628,187
1601464669.8648,195
1601464669.8668,168
1601464669.8688,146
1601464669.8709,173
1601464669.8728,183
1601464669.8748,173
1601464669.8768,178
1601464669.8788,175
1601464669.8808,171
1601464669.8828,178
1601464669.8848,180
1601464669.8868,185
1601464669.8888,190
1601464669.8908,190
1601464669.8928,178
1601464669.8948,166
1601464669.8968,178
1601464669.8988,195
1601464669.9009,199
1601464669.9028,211
1601464669.9048,204
1601464669.9068,183
1601464669.9088,178
1601464669.9109,183
1601464669.9128,183
1601464669.9148,190
1601464669.9168,204
1601464669.9188,214
1601464669.9209,214
1601464669.9228,221
1601464669.9248,214
1601464669.9268,187
1601464669.9288,190
1601464670.3872,216
1601464670.3878,221
1601464670.3902,211
1601464670.3928,199
1601464670.3948,178
1601464670.3968,163
1601464670.3990,171
1601464670.4009,192
1601464670.4029,195
1601464670.4048,183
1601464670.4068,209
1601464670.4088,207
1601464670.4109,175
1601464670.4129,313
1601464670.4148,640
1601464670.4168,763
1601464670.4188,260
1601464670.4209,-370
1601464670.4228,-245
1601464670.4248,173
1601464670.4268,183
1601464670.4288,137
1601464670.4309,224
1601464670.4328,226
1601464670.4348,202
1601464670.4368,226
1601464670.4388,231
1601464670.4408,219
1601464670.4428,219
1601464670.4448,216
1601464670.4468,211
1601464670.4488,221
1601464670.4508,233
1601464670.4528,243
1601464670.4548,243
1601464670.4568,221
1601464670.4588,221
1601464670.4609,260
1601464670.4628,267
1601464670.4648,240
1601464670.4668,245
1601464670.4688,281
1601464670.4708,286
1601464670.4728,264
1601464670.4748,274
1601464670.4768,301
1601464670.4788,298
1601464670.4809,296
1601464670.4829,315
1601464670.4848,327
1601464670.4868,317
1601464670.4888,293
1601464670.4908,281
1601464670.4928,289
1601464670.4948,269
1601464670.4968,238
1601464670.4988,233
1601464670.5008,221
1601464670.5028,195
1601464670.5048,178
1601464670.5068,166
1601464670.5088,154
1601464670.5109,149
1601464670.5128,163
1601464670.5148,173
1601464670.5168,156
1601464670.5188,163
1601464670.5208,185
1601464670.5228,158
1601464670.5248,137
1601464670.5269,163
1601464670.5288,183
1601464670.5308,178
1601464670.9569,178
1601464670.9575,187
1601464670.9600,190
1601464670.9626,187
1601464670.9646,190
1601464670.9666,192
1601464670.9687,185
1601464670.9706,171
1601464670.9725,166
1601464670.9746,166
1601464670.9766,154
1601464670.9786,151
1601464670.9806,163
1601464670.9825,156
1601464670.9845,154
1601464670.9865,175
1601464670.9885,173
1601464670.9905,149
1601464670.9925,142
1601464670.9945,149
1601464670.9966,142
1601464670.9986,144
1601464671.0005,175
1601464671.0026,183
1601464671.0045,168
1601464671.0066,171
1601464671.0085,154
1601464671.0106,130
1601464671.0125,146
1601464671.0145,158
1601464671.0166,146
1601464671.0185,149
1601464671.0206,168
1601464671.0225,171
1601464671.0245,161
1601464671.0265,166
1601464671.0285,175
1601464671.0305,173
1601464671.0326,161
1601464671.0345,154
1601464671.0365,166
1601464671.0385,171
1601464671.0406,166
1601464671.0426,161
1601464671.0447,163
1601464671.0466,180
1601464671.0485,190
1601464671.0505,185
1601464671.0526,187
1601464671.0545,185
1601464671.0567,185
1601464671.0585,185
1601464671.0605,166
1601464671.0625,158
1601464671.0645,175
1601464671.0666,168
1601464671.0686,151
1601464671.0706,154
1601464671.0725,158
1601464671.0745,158
1601464671.0765,166
1601464671.0785,183
1601464671.0805,173
1601464671.0825,166
1601464671.0845,281
1601464671.0865,554
1601464671.0885,700
1601464671.0905,298
1601464671.0925,-320
1601464671.0945,-298
1601464671.0966,96
1601464671.0985,154
1601464671.1005,118
1601464671.4966,192
1601464671.4973,187
1601464671.4997,171
1601464671.5023,214
1601464671.5043,214
1601464671.5063,187
1601464671.5083,183
1601464671.5103,173
1601464671.5123,171
1601464671.5143,187
1601464671.5163,197
1601464671.5183,185
1601464671.5203,178
1601464671.5223,192
1601464671.5243,207
1601464671.5263,192
1601464671.5282,180
1601464671.5302,202
1601464671.5323,231
1601464671.5342,226
1601464671.5363,216
1601464671.5382,224
1601464671.5402,233
1601464671.5423,243
1601464671.5443,243
1601464671.5463,240
1601464671.5483,260
1601464671.5503,279
1601464671.5522,257
1601464671.5542,238
1601464671.5563,245
1601464671.5583,240
1601464671.5602,216
1601464671.5623,204
1601464671.5642,195
1601464671.5663,187
1601464671.5683,166
1601464671.5703,132
1601464671.5723,122
1601464671.5742,127
1601464671.5762,105
1601464671.5782,98
1601464671.5803,115
1601464671.5823,108
1601464671.5843,103
1601464671.5863,127
1601464671.5882,127
1601464671.5902,122
1601464671.5923,134
1601464671.5943,130
1601464671.5962,108
1601464671.5982,125
1601464671.6002,134
1601464671.6022,108
1601464671.6043,118
1601464671.6063,149
1601464671.6083,151
1601464671.6102,130
1601464671.6123,113
1601464671.6143,125
1601464671.6163,146
1601464671.6183,139
1601464671.6202,130
1601464671.6223,137
1601464671.6242,132
1601464671.6263,122
1601464671.6283,134
1601464671.6303,132
1601464671.6323,113
1601464671.6342,118
1601464671.6363,130
1601464671.6382,127
1601464671.6403,125
1601464672.0666,122
1601464672.0672,122
1601464672.0689,127
1601464672.0709,137
1601464672.0729,134
1601464672.0749,122
1601464672.0769,118
1601464672.0788,98
1601464672.0809,91
1601464672.0828,127
1601464672.0848,149
1601464672.0868,122
1601464672.0888,89
1601464672.0909,89
1601464672.0928,120
1601464672.0948,130
1601464672.0968,110
1601464672.0988,98
1601464672.1009,113
1601464672.1029,134
1601464672.1048,134
1601464672.1068,110
1601464672.1088,93
1601464672.1109,122
1601464672.1128,146
1601464672.1148,122
1601464672.1168,105
1601464672.1188,130
1601464672.1209,144
1601464672.1228,130
1601464672.1248,132
1601464672.1268,149
1601464672.1288,146
1601464672.1309,137
1601464672.1328,144
1601464672.1348,158
1601464672.1368,154
1601464672.1388,130
1601464672.1409,98
1601464672.1428,96
1601464672.1448,113
1601464672.1468,120
1601464672.1488,125
1601464672.1509,134
1601464672.1528,139
1601464672.1548,125
1601464672.1568,132
1601464672.1588,274
1601464672.1609,549
1601464672.1628,623
1601464672.1648,146
1601464672.1668,-404
1601464672.1688,-284
1601464672.1709,72
1601464672.1728,91
1601464672.1748,89
1601464672.1769,173
1601464672.1788,154
1601464672.1809,125
1601464672.1828,146
1601464672.1848,146
1601464672.1868,137
1601464672.1888,132
1601464672.1908,130
1601464672.1928,142
1601464672.1948,156
1601464672.1968,154
1601464672.1988,154
1601464672.2008,163
1601464672.2028,151
1601464672.2048,156
1601464672.2069,173
1601464672.2088,158
1601464672.6063,151
1601464672.6070,171
1601464672.6089,180
1601464672.6109,178
1601464672.6129,180
1601464672.6149,183
1601464672.6169,195
1601464672.6189,199
1601464672.6209,180
1601464672.6229,175
1601464672.6250,199
1601464672.6269,185
1601464672.6289,158
1601464672.6309,180
1601464672.6329,185
1601464672.6349,158
1601464672.6369,151
1601464672.6389,137
1601464672.6409,96
1601464672.6428,81
1601464672.6449,93
1601464672.6469,74
1601464672.6488,48
1601464672.6509,52
1601464672.6528,60
1601464672.6548,67
1601464672.6568,74
1601464672.6589,50
1601464672.6609,33
1601464672.6628,65
1601464672.6648,79
1601464672.6668,67
1601464672.6689,77
1601464672.6709,86
1601464672.6729,65
1601464672.6748,57
1601464672.6768,81
1601464672.6789,93
1601464672.6809,89
1601464672.6829,89
1601464672.6849,89
1601464672.6869,89
1601464672.6889,93
1601464672.6909,101
1601464672.6929,105
1601464672.6949,98
1601464672.6970,79
1601464672.6989,60
1601464672.7009,50
1601464672.7030,57
1601464672.7049,77
1601464672.7069,91
1601464672.7088,91
1601464672.7109,91
1601464672.7129,101
1601464672.7149,91
1601464672.7169,55
1601464672.7188,67
1601464672.7209,96
1601464672.7229,79
1601464672.7249,72
1601464672.7269,77
1601464672.7288,69
1601464672.7309,74
1601464672.7329,86
1601464672.7349,91
1601464672.7368,89
1601464672.7389,79
1601464672.7409,91
1601464672.7429,118
1601464672.7449,101
1601464672.7468,77
1601464672.7488,91
1601464673.1765,96
1601464673.1771,77
1601464673.1782,77
1601464673.1802,93
1601464673.1823,67
1601464673.1842,16
1601464673.1863,28
1601464673.1883,79
1601464673.1903,91
1601464673.1922,84
1601464673.1942,93
1601464673.1962,93
1601464673.1982,50
1601464673.2002,7
1601464673.2022,7
1601464673.2042,24
1601464673.2062,33
1601464673.2082,55
1601464673.2102,72
1601464673.2122,50
1601464673.2142,24
1601464673.2162,19
1601464673.2182,38
1601464673.2202,50
1601464673.2222,14
1601464673.2242,24
1601464673.2262,81
1601464673.2282,142
1601464673.2302,315
1601464673.2323,522
1601464673.2342,310
1601464673.2363,-349
1601464673.2382,-602
1601464673.2402,-175
1601464673.2423,77
1601464673.2442,2
1601464673.2462,38
1601464673.2482,45
1601464673.2502,-60
1601464673.2522,-65
1601464673.2542,16
1601464673.2562,38
1601464673.2582,28
1601464673.2602,60
1601464673.2623,98
1601464673.2642,98
1601464673.2662,48
1601464673.2682,38
1601464673.2702,93
1601464673.2722,108
1601464673.2742,84
1601464673.2762,93
1601464673.2782,96
1601464673.2802,81
1601464673.2823,130
1601464673.2842,110
1601464673.2862,-16
1601464673.2882,14
1601464673.2902,204
1601464673.2923,291
1601464673.2942,238
1601464673.2962,146
1601464673.2982,91
1601464673.3002,146
1601464673.3022,209
1601464673.3042,151
1601464673.3062,125
1601464673.3082,142
1601464673.3102,72
1601464673.3123,38
1601464673.3142,127
1601464673.3162,166
1601464673.3182,57
1601464673.7771,-24
1601464673.7778,7
1601464673.7802,33
1601464673.7829,26
1601464673.7848,16
1601464673.7868,24
1601464673.7889,55
1601464673.7909,57
1601464673.7928,57
1601464673.7948,69
1601464673.7968,55
1601464673.7988,144
1601464673.8008,245
1601464673.8028,173
1601464673.8048,98
1601464673.8067,91
1601464673.8088,91
1601464673.8108,163
1601464673.8128,178
1601464673.8148,48
1601464673.8167,38
1601464673.8187,214
1601464673.8208,197
1601464673.8228,-14
1601464673.8247,9
1601464673.8267,154
1601464673.8288,158
1601464673.8309,115
1601464673.8327,28
1601464673.8347,-21
1601464673.8368,48
1601464673.8387,72
1601464673.8408,-43
1601464673.8428,-108
1601464673.8447,40
1601464673.8469,168
1601464673.8488,79
1601464673.8508,52
1601464673.8528,187
1601464673.8548,130
1601464673.8568,-96
1601464673.8589,-93
1601464673.8609,38
1601464673.8628,65
1601464673.8647,62
1601464673.8668,62
1601464673.8687,62
1601464673.8708,86
1601464673.8728,62
1601464673.8747,-26
1601464673.8768,-7
1601464673.8787,146
1601464673.8809,151
1601464673.8828,-9
1601464673.8848,-67
1601464673.8868,-7
1601464673.8888,19
1601464673.8908,38
1601464673.8928,91
1601464673.8948,103
1601464673.8968,60
1601464673.8988,0
1601464673.9008,-69
1601464673.9028,-91
1601464673.9048,-19
1601464673.9068,43
1601464673.9087,-31
1601464673.9108,-108
1601464673.9128,-65
1601464673.9148,-21
1601464673.9167,-43
1601464673.9187,31
1601464673.9208,390
1601464674.3170,647
1601464674.3177,236
1601464674.3202,-354
1601464674.3228,-325
1601464674.3247,0
1601464674.3267,19
1601464674.3287,-24
1601464674.3308,40
1601464674.3327,62
1601464674.3346,113
1601464674.3367,144
1601464674.3387,9
1601464674.3407,-93
1601464674.3427,-74
1601464674.3446,-134
1601464674.3467,-277
1601464674.3486,-363
1601464674.3507,-455
1601464674.3527,-597
1601464674.3547,-722
1601464674.3567,-864
1601464674.3586,-1023
1601464674.3608,-1120
1601464674.3627,-1156
1601464674.3647,-1194
1601464674.3667,-1358
1601464674.3686,-1611
1601464674.3707,-1676
1601464674.3727,-1507
1601464674.3746,-1361
1601464674.3766,-1267
1601464674.3787,-1040
1601464674.3807,-717
1601464674.3827,-484
1601464674.3846,-330
1601464674.3866,-192
1601464674.3886,-108
1601464674.3893,-67
1601464674.3907,0
1601464674.3927,57
1601464674.3946,72
1601464674.3966,74
1601464674.3986,57
1601464674.4007,55
1601464674.4026,113
1601464674.4048,130
1601464674.4066,110
1601464674.4086,142
1601464674.4107,168
1601464674.4126,137
1601464674.4146,108
1601464674.4166,115
1601464674.4174,154
1601464674.4186,190
1601464674.4207,195
1601464674.4226,190
1601464674.4246,209
1601464674.4267,214
1601464674.4286,204
1601464674.4308,240
1601464674.4326,245
1601464674.4346,171
1601464674.4366,156
1601464674.4387,255
1601464674.4407,293
1601464674.4426,202
1601464674.4446,173
1601464674.4466,233
1601464674.4473,231
1601464674.4486,187
1601464674.4507,204
1601464674.4526,255
1601464674.4546,264
1601464674.9170,175
1601464674.9176,98
1601464674.9191,171
1601464674.9198,240
1601464674.9222,216
1601464674.9241,209
1601464674.9261,226
1601464674.9281,214
1601464674.9301,202
1601464674.9321,192
1601464674.9341,175
1601464674.9361,183
1601464674.9381,228
1601464674.9401,216
1601464674.9421,173
1601464674.9441,214
1601464674.9460,233
1601464674.9481,190
1601464674.9501,173
1601464674.9508,156
1601464674.9521,171
1601464674.9541,219
1601464674.9561,195
1601464674.9581,137
1601464674.9601,154
1601464674.9621,185
1601464674.9641,168
1601464674.9661,161
1601464674.9681,171
1601464674.9701,130
1601464674.9721,103
1601464674.9741,171
1601464674.9761,175
1601464674.9781,62
1601464674.9801,52
1601464674.9808,243
1601464674.9821,513
1601464674.9841,619
1601464674.9861,240
1601464674.9881,-354
1601464674.9901,-385
1601464674.9921,-50
1601464674.9941,4
1601464674.9961,-28
1601464674.9981,-2
1601464675.0001,-74
1601464675.0021,-132
1601464675.0041,-166
1601464675.0061,-279
1601464675.0081,-303
1601464675.0101,-195
1601464675.0108,-185
1601464675.0121,-279
1601464675.0141,-257
1601464675.0161,-175
1601464675.0181,-226
1601464675.0201,-269
1601464675.0221,-166
1601464675.0241,-91
1601464675.0261,-120
1601464675.0281,-130
1601464675.0301,-113
1601464675.0321,-120
1601464675.0341,-158
1601464675.0361,-224
1601464675.0381,-332
1601464675.0401,-537
1601464675.0408,-676
1601464675.0421,-587
1601464675.0441,-438
1601464675.0461,-269
1601464675.0481,-43
1601464675.0501,-9
1601464675.4265,-69
1601464675.4271,91
1601464675.4289,337
1601464675.4310,501
1601464675.4329,623
1601464675.4336,744
1601464675.4359,862
1601464675.4379,990
1601464675.4399,1074
1601464675.4419,1074
1601464675.4439,1100
1601464675.4459,1158
1601464675.4479,1136
1601464675.4499,1115
1601464675.4519,1218
1601464675.4539,1245
1601464675.4559,1050
1601464675.4579,903
1601464675.4599,874
1601464675.4619,802
1601464675.4640,727
1601464675.4659,703
1601464675.4679,672
1601464675.4699,664
1601464675.4719,691
1601464675.4739,710
1601464675.4759,838
1601464675.4779,1014
1601464675.4799,1018
1601464675.4819,975
1601464675.4839,1040
1601464675.4859,1052
1601464675.4879,932
1601464675.4899,852
1601464675.4919,915
1601464675.4939,958
1601464675.4946,790
1601464675.4959,626
1601464675.4979,604
1601464675.4999,491
1601464675.5019,286
1601464675.5039,158
1601464675.5059,65
1601464675.5079,-21
1601464675.5099,-55
1601464675.5119,-81
1601464675.5139,-125
1601464675.5159,-151
1601464675.5179,-154
1601464675.5199,-154
1601464675.5219,-161
1601464675.5239,-166
1601464675.5246,-183
1601464675.5259,-243
1601464675.5279,-277
1601464675.5299,-252
1601464675.5319,-238
1601464675.5339,-236
1601464675.5359,-214
1601464675.5379,-207
1601464675.5399,-197
1601464675.5419,-43
1601464675.5439,262
1601464675.5459,342
1601464675.5479,-207
1601464675.5499,-811
1601464675.5519,-643
1601464675.5539,-231
1601464675.5546,-204
1601464675.5559,-209
1601464675.5579,-120
1601464675.5599,-139
1601464675.5619,-178
1601464675.9965,-146
1601464675.9971,-137
1601464675.9975,-151
1601464675.9992,-139
1601464676.0012,-125
1601464676.0032,-125
1601464676.0051,-127
1601464676.0071,-127
1601464676.0091,-120
1601464676.0112,-108
1601464676.0131,-105
1601464676.0152,-105
1601464676.0171,-91
1601464676.0191,-77
1601464676.0212,-72
1601464676.0231,-65
1601464676.0251,-50
1601464676.0271,-36
1601464676.0291,-21
1601464676.0311,-9
1601464676.0331,0
1601464676.0351,9
1601464676.0371,16
1601464676.0391,21
1601464676.0411,24
1601464676.0431,14
1601464676.0451,7
1601464676.0472,4
1601464676.0491,-14
1601464676.0512,-40
1601464676.0531,-55
1601464676.0551,-74
1601464676.0571,-101
1601464676.0591,-118
1601464676.0611,-132
1601464676.0631,-139
1601464676.0651,-137
1601464676.0671,-132
1601464676.0692,-132
1601464676.0712,-130
1601464676.0731,-127
1601464676.0751,-118
1601464676.0771,-110
1601464676.0791,-105
1601464676.0812,-93
1601464676.0831,-79
1601464676.0851,-74
1601464676.0871,-77
1601464676.0891,-72
1601464676.0912,-62
1601464676.0931,-55
1601464676.0951,-52
1601464676.0971,-52
1601464676.0991,-57
1601464676.1012,-60
1601464676.1031,-55
1601464676.1051,-60
1601464676.1071,-65
1601464676.1091,-62
1601464676.1111,-67
1601464676.1131,-69
1601464676.1151,-72
1601464676.1171,-74
1601464676.1191,-74
1601464676.1212,-74
1601464676.1231,-65
1601464676.1251,-55
1601464676.1271,-62
1601464676.1291,-65
1601464676.1311,-50
1601464676.1331,-57
1601464676.1351,-79
1601464676.1371,-84
1601464676.5370,-86
1601464676.5376,-91
1601464676.5391,-91
1601464676.5411,-93
1601464676.5432,-96
1601464676.5452,-91
1601464676.5471,-84
1601464676.5492,-91
1601464676.5512,-31
1601464676.5532,216
1601464676.5558,481
1601464676.5572,236
1601464676.5592,-484
1601464676.5612,-720
1601464676.5631,-293
1601464676.5651,-77
1601464676.5671,-139
1601464676.5691,-74
1601464676.5712,-24
1601464676.5731,-65
1601464676.5751,-57
1601464676.5771,-24
1601464676.5791,-33
1601464676.5812,-40
1601464676.5831,-31
1601464676.5851,-26
1601464676.5871,-21
1601464676.5891,-19
1601464676.5912,-16
1601464676.5931,-12
1601464676.5951,-4
1601464676.5971,-2
1601464676.5991,7
1601464676.6012,14
1601464676.6032,19
1601464676.6051,24
1601464676.6071,33
1601464676.6091,45
1601464676.6112,62
1601464676.6131,77
1601464676.6151,81
1601464676.6172,89
1601464676.6191,101
1601464676.6212,103
1601464676.6232,103
1601464676.6251,103
1601464676.6272,96
1601464676.6291,86
1601464676.6312,77
1601464676.6332,67
1601464676.6351,45
1601464676.6371,24
1601464676.6391,4
1601464676.6411,-14
1601464676.6431,-28
1601464676.6451,-40
1601464676.6471,-40
1601464676.6492,-28
1601464676.6511,-26
1601464676.6532,-36
1601464676.6551,-48
1601464676.6571,-43
1601464676.6591,-31
1601464676.6611,-31
1601464676.6631,-31
1601464676.6651,-14
1601464676.6671,-7
1601464676.6691,-16
1601464676.6711,-7
1601464676.6731,2
1601464676.6751,-2
1601464676.6771,-2
1601464676.6791,4
1601464677.1371,4
1601464677.1380,2
1601464677.1404,2
1601464677.1430,4
1601464677.1450,4
1601464677.1470,-7
1601464677.1490,-14
1601464677.1510,-9
1601464677.1530,-2
1601464677.1550,0
1601464677.1570,-7
1601464677.1590,-16
1601464677.1611,-9
1601464677.1630,9
1601464677.1650,16
1601464677.1670,2
1601464677.1690,-4
1601464677.1710,7
1601464677.1730,9
1601464677.1750,0
1601464677.1770,-9
1601464677.1790,-7
1601464677.1810,2
1601464677.1830,4
1601464677.1850,0
1601464677.1870,2
1601464677.1890,9
1601464677.1910,14
1601464677.1930,14
1601464677.1950,67
1601464677.1970,277
1601464677.1990,537
1601464677.2010,426
1601464677.2029,-207
1601464677.2049,-599
1601464677.2070,-284
1601464677.2090,12
1601464677.2110,-21
1601464677.2130,7
1601464677.2149,72
1601464677.2169,36
1601464677.2189,24
1601464677.2210,52
1601464677.2230,50
1601464677.2249,40
1601464677.2269,52
1601464677.2289,55
1601464677.2310,45
1601464677.2330,48
1601464677.2349,62
1601464677.2369,69
1601464677.2389,67
1601464677.2410,72
1601464677.2429,74
1601464677.2450,67
1601464677.2470,67
1601464677.2489,79
1601464677.2510,91
1601464677.2529,98
1601464677.2549,105
1601464677.2570,110
1601464677.2589,120
1601464677.2610,134
1601464677.2629,139
1601464677.2649,137
1601464677.2669,139
1601464677.2690,134
1601464677.2710,122
1601464677.2729,115
1601464677.2749,105
1601464677.2769,91
1601464677.2789,86
1601464677.2810,81
1601464677.6769,52
1601464677.6776,24
1601464677.6799,0
1601464677.6826,-24
1601464677.6846,-21
1601464677.6866,-19
1601464677.6885,-28
1601464677.6906,-26
1601464677.6925,-14
1601464677.6945,-14
1601464677.6965,-26
1601464677.6985,-28
1601464677.7006,-14
1601464677.7025,-2
1601464677.7045,2
1601464677.7065,0
1601464677.7085,-2
1601464677.7106,-4
1601464677.7126,2
1601464677.7145,12
1601464677.7166,24
1601464677.7185,21
1601464677.7206,12
1601464677.7225,12
1601464677.7245,19
1601464677.7265,19
1601464677.7285,9
1601464677.7306,9
1601464677.7325,12
1601464677.7345,14
1601464677.7365,16
1601464677.7385,19
1601464677.7406,14
1601464677.7425,14
1601464677.7446,16
1601464677.7465,21
1601464677.7485,24
1601464677.7506,21
1601464677.7525,26
1601464677.7545,43
1601464677.7565,55
1601464677.7585,45
1601464677.7606,33
1601464677.7626,31
1601464677.7645,26
1601464677.7665,24
1601464677.7685,26
1601464677.7706,24
1601464677.7725,26
1601464677.7745,26
1601464677.7765,21
1601464677.7785,16
1601464677.7806,19
1601464677.7825,21
1601464677.7845,28
1601464677.7866,101
1601464677.7885,313
1601464677.7906,546
1601464677.7925,356
1601464677.7945,-298
1601464677.7966,-580
1601464677.7985,-207
1601464677.8006,33
1601464677.8025,-12
1601464677.8045,36
1601464677.8065,89
1601464677.8085,48
1601464677.8106,45
1601464677.8125,69
1601464677.8145,55
1601464677.8165,40
1601464677.8185,45
1601464677.8206,50
1601464678.2464,50
1601464678.2469,55
1601464678.2488,55
1601464678.2508,55
1601464678.2528,62
1601464678.2548,69
1601464678.2568,74
1601464678.2588,69
1601464678.2609,55
1601464678.2628,65
1601464678.2648,79
1601464678.2668,81
1601464678.2688,93
1601464678.2708,105
1601464678.2728,105
1601464678.2748,113
1601464678.2768,125
1601464678.2788,122
1601464678.2808,115
1601464678.2828,115
1601464678.2848,110
1601464678.2868,105
1601464678.2888,101
1601464678.2908,91
1601464678.2928,72
1601464678.2948,45
1601464678.2968,21
1601464678.2988,4
1601464678.3008,-7
1601464678.3028,-14
1601464678.3048,-19
1601464678.3068,-24
1601464678.3088,-24
1601464678.3108,-19
1601464678.3128,-16
1601464678.3148,-14
1601464678.3168,-9
1601464678.3188,-4
1601464678.3208,-2
1601464678.3228,0
1601464678.3248,-2
1601464678.3268,2
1601464678.3288,19
1601464678.3308,16
1601464678.3328,4
1601464678.3348,9
1601464678.3368,24
1601464678.3388,26
1601464678.3408,19
1601464678.3428,9
1601464678.3448,7
1601464678.3468,7
1601464678.3488,14
1601464678.3508,21
1601464678.3528,16
1601464678.3548,9
1601464678.3568,9
1601464678.3588,16
1601464678.3608,19
1601464678.3628,16
1601464678.3648,14
1601464678.3668,12
1601464678.3688,14
1601464678.3708,7
1601464678.3728,2
1601464678.3748,21
1601464678.3768,33
1601464678.3789,26
1601464678.3809,28
1601464678.3828,28
1601464678.3848,16
1601464678.3868,12
1601464678.3888,12
1601464678.7865,4
1601464678.7871,4
1601464678.7888,19
1601464678.7908,19
1601464678.7928,9
1601464678.7948,16
1601464678.7968,26
1601464678.7988,38
1601464678.8009,139
1601464678.8028,390
1601464678.8048,525
1601464678.8068,98
1601464678.8088,-525
1601464678.8109,-481
1601464678.8128,-62
1601464678.8148,12
1601464678.8168,-26
1601464678.8188,52
1601464678.8208,57
1601464678.8228,24
1601464678.8248,45
1601464678.8268,52
1601464678.8288,40
1601464678.8308,48
1601464678.8328,48
1601464678.8348,50
1601464678.8368,67
1601464678.8388,67
1601464678.8408,55
1601464678.8428,57
1601464678.8448,72
1601464678.8468,77
1601464678.8488,77
1601464678.8508,81
1601464678.8528,89
1601464678.8548,103
1601464678.8568,110
1601464678.8588,105
1601464678.8608,110
1601464678.8628,127
1601464678.8648,132
1601464678.8668,139
1601464678.8688,142
1601464678.8708,137
1601464678.8728,130
1601464678.8748,122
1601464678.8768,113
1601464678.8788,98
1601464678.8808,91
1601464678.8828,84
1601464678.8848,69
1601464678.8868,48
1601464678.8888,28
1601464678.8908,12
1601464678.8928,7
1601464678.8948,0
1601464678.8968,-14
1601464678.8988,-14
1601464678.9008,-7
1601464678.9028,-9
1601464678.9048,-14
1601464678.9068,-12
1601464678.9088,-4
1601464678.9108,-2
1601464678.9128,-7
1601464678.9148,-4
1601464678.9168,4
1601464678.9188,4
1601464678.9208,2
1601464678.9228,7
1601464678.9248,7
1601464678.9268,7
1601464678.9288,9
1601464679.3568,7
1601464679.3575,7
1601464679.3584,12
1601464679.3604,12
1601464679.3624,7
1601464679.3644,-4
1601464679.3664,-9
1601464679.3684,-4
1601464679.3704,-7
1601464679.3724,-4
1601464679.3744,0
1601464679.3764,-7
1601464679.3784,-9
1601464679.3804,-7
1601464679.3824,-4
1601464679.3844,9
1601464679.3864,26
1601464679.3884,33
1601464679.3904,28
1601464679.3924,21
1601464679.3944,24
1601464679.3964,24
1601464679.3984,7
1601464679.4004,2
1601464679.4024,12
1601464679.4044,12
1601464679.4065,9
1601464679.4084,14
1601464679.4104,19
1601464679.4124,19
1601464679.4144,19
1601464679.4164,26
1601464679.4184,57
1601464679.4204,219
1601464679.4224,472
1601464679.4244,433
1601464679.4264,-130
1601464679.4284,-554
1601464679.4304,-301
1601464679.4324,7
1601464679.4344,0
1601464679.4364,19
1601464679.4384,79
1601464679.4404,50
1601464679.4424,38
1601464679.4444,60
1601464679.4464,52
1601464679.4484,45
1601464679.4504,52
1601464679.4524,48
1601464679.4544,52
1601464679.4564,60
1601464679.4584,60
1601464679.4604,60
1601464679.4624,72
1601464679.4644,77
1601464679.4664,79
1601464679.4684,89
1601464679.4704,93
1601464679.4724,93
1601464679.4744,101
1601464679.4764,105
1601464679.4784,113
1601464679.4804,120
1601464679.4824,122
1601464679.4844,130
1601464679.4864,134
1601464679.4884,137
1601464679.4904,137
1601464679.4924,130
1601464679.4944,125
1601464679.4964,115
1601464679.4984,101
1601464679.8967,86
1601464679.8975,77
1601464679.8994,60
1601464679.9013,36
1601464679.9034,21
1601464679.9053,12
1601464679.9073,-4
1601464679.9094,-24
1601464679.9113,-24
1601464679.9134,-19
1601464679.9153,-21
1601464679.9173,-24
1601464679.9194,-16
1601464679.9214,-4
1601464679.9233,-4
1601464679.9253,-14
1601464679.9273,-7
1601464679.9293,2
1601464679.9313,-2
1601464679.9333,-12
1601464679.9353,-4
1601464679.9373,7
1601464679.9393,0
1601464679.9413,-9
1601464679.9433,-2
1601464679.9453,0
1601464679.9473,-4
1601464679.9493,-7
1601464679.9513,-7
1601464679.9533,-12
1601464679.9553,-12
1601464679.9574,-7
1601464679.9594,-4
1601464679.9613,-4
1601464679.9633,-9
1601464679.9653,-19
1601464679.9673,-12
1601464679.9693,0
1601464679.9713,-2
1601464679.9733,-9
1601464679.9753,-9
1601464679.9773,-12
1601464679.9793,-14
1601464679.9813,-12
1601464679.9833,-19
1601464679.9853,-24
1601464679.9873,-12
1601464679.9893,12
1601464679.9913,24
1601464679.9933,16
1601464679.9953,2
1601464679.9973,-4
1601464679.9993,-12
1601464680.0014,-12
1601464680.0034,-12
1601464680.0054,-14
1601464680.0081,-12
1601464680.0093,-12
1601464680.0114,-16
1601464680.0133,-12
1601464680.0153,0
1601464680.0173,0
1601464680.0193,-9
1601464680.0213,43
1601464680.0233,250
1601464680.0253,496
1601464680.0273,356
1601464680.0293,-284
1601464680.0313,-626
1601464680.0333,-284
1601464680.0353,-19
1601464680.0373,-57
1601464680.0393,-4
1601464680.4963,55
1601464680.4969,4
1601464680.4993,-7
1601464680.5019,14
1601464680.5039,0
1601464680.5059,-7
1601464680.5079,9
1601464680.5099,4
1601464680.5119,0
1601464680.5139,14
1601464680.5159,19
1601464680.5179,14
1601464680.5200,24
1601464680.5219,26
1601464680.5239,21
1601464680.5259,33
1601464680.5279,45
1601464680.5300,43
1601464680.5320,45
1601464680.5339,50
1601464680.5359,55
1601464680.5379,52
1601464680.5399,60
1601464680.5420,69
1601464680.5439,69
1601464680.5459,62
1601464680.5479,57
1601464680.5499,50
1601464680.5519,40
1601464680.5539,36
1601464680.5559,26
1601464680.5579,16
1601464680.5599,12
1601464680.5619,-4
1601464680.5639,-33
1601464680.5659,-55
1601464680.5679,-65
1601464680.5700,-67
1601464680.5719,-74
1601464680.5739,-79
1601464680.5760,-81
1601464680.5779,-84
1601464680.5799,-81
1601464680.5819,-72
1601464680.5839,-67
1601464680.5859,-67
1601464680.5879,-60
1601464680.5899,-65
1601464680.5919,-57
1601464680.5939,-43
1601464680.5959,-45
1601464680.5979,-50
1601464680.5999,-50
1601464680.6020,-50
1601464680.6039,-52
1601464680.6060,-57
1601464680.6079,-62
1601464680.6099,-65
1601464680.6119,-67
1601464680.6139,-69
1601464680.6159,-72
1601464680.6179,-72
1601464680.6200,-72
1601464680.6220,-65
1601464680.6239,-65
1601464680.6259,-69
1601464680.6279,-65
1601464680.6299,-60
1601464680.6319,-65
1601464680.6339,-69
1601464680.6359,-67
1601464680.6379,-65
1601464680.6399,-74
1601464681.0665,-72
1601464681.0671,-57
1601464681.0689,-55
1601464681.0708,-55
1601464681.0729,-36
1601464681.0750,-31
1601464681.0769,-52
1601464681.0789,-62
1601464681.0808,-69
1601464681.0828,-91
1601464681.0848,-98
1601464681.0868,-86
1601464681.0888,-86
1601464681.0895,-89
1601464681.0909,-79
1601464681.0928,-69
1601464681.0948,-72
1601464681.0968,-69
1601464681.0988,-52
1601464681.1008,69
1601464681.1028,370
1601464681.1048,556
1601464681.1068,101
1601464681.1088,-628
1601464681.1108,-621
1601464681.1128,-137
1601464681.1148,-40
1601464681.1168,-98
1601464681.1188,-9
1601464681.1195,12
1601464681.1208,-36
1601464681.1228,-14
1601464681.1248,9
1601464681.1268,0
1601464681.1288,0
1601464681.1308,4
1601464681.1328,2
1601464681.1348,12
1601464681.1368,21
1601464681.1388,16
1601464681.1409,16
1601464681.1428,26
1601464681.1448,36
1601464681.1468,36
1601464681.1488,33
1601464681.1495,40
1601464681.1508,52
1601464681.1528,62
1601464681.1549,65
1601464681.1568,65
1601464681.1588,77
1601464681.1608,89
1601464681.1627,93
1601464681.1648,93
1601464681.1667,93
1601464681.1688,96
1601464681.1708,81
1601464681.1728,57
1601464681.1748,43
1601464681.1768,40
1601464681.1775,28
1601464681.1788,9
1601464681.1808,0
1601464681.1828,-4
1601464681.1848,-16
1601464681.1868,-28
1601464681.1888,-36
1601464681.1908,-48
1601464681.1928,-57
1601464681.1948,-48
1601464681.1968,-43
1601464681.1988,-45
1601464681.2009,-43
1601464681.6069,-33
1601464681.6075,-21
1601464681.6088,-19
1601464681.6109,-21
1601464681.6128,-14
1601464681.6148,-4
1601464681.6168,-4
1601464681.6188,-16
1601464681.6208,-19
1601464681.6228,-9
1601464681.6248,-19
1601464681.6267,-26
1601464681.6288,-16
1601464681.6308,-19
1601464681.6315,-31
1601464681.6328,-26
1601464681.6348,-16
1601464681.6368,-24
1601464681.6388,-31
1601464681.6408,-24
1601464681.6429,-16
1601464681.6448,-28
1601464681.6468,-31
1601464681.6488,-16
1601464681.6508,-19
1601464681.6528,-28
1601464681.6548,-19
1601464681.6569,-14
1601464681.6588,-14
1601464681.6608,-4
1601464681.6614,7
1601464681.6628,19
1601464681.6648,19
1601464681.6668,2
1601464681.6688,-2
1601464681.6708,7
1601464681.6728,0
1601464681.6748,-14
1601464681.6768,-9
1601464681.6788,-9
1601464681.6808,-19
1601464681.6828,-12
1601464681.6848,-4
1601464681.6868,-4
1601464681.6888,-4
1601464681.6908,0
1601464681.6915,67
1601464681.6928,298
1601464681.6948,561
1601464681.6968,387
1601464681.6988,-305
1601464681.7008,-638
1601464681.7028,-248
1601464681.7048,14
1601464681.7068,-52
1601464681.7088,0
1601464681.7108,74
1601464681.7128,26
1601464681.7148,9
1601464681.7168,43
1601464681.7188,43
1601464681.7208,33
1601464681.7215,45
1601464681.7228,48
1601464681.7248,43
1601464681.7268,43
1601464681.7288,40
1601464681.7308,45
1601464681.7328,57
1601464681.7348,57
1601464681.7368,48
1601464681.7388,52
1601464681.7408,67
1601464682.1770,72
1601464682.1778,77
1601464682.1792,89
1601464682.1812,91
1601464682.1832,93
1601464682.1852,101
1601464682.1872,101
1601464682.1892,98
1601464682.1911,93
1601464682.1931,91
1601464682.1951,89
1601464682.1971,77
1601464682.1991,62
1601464682.2012,52
1601464682.2031,36
1601464682.2038,16
1601464682.2051,-2
1601464682.2071,-16
1601464682.2091,-26
1601464682.2111,-21
1601464682.2131,-26
1601464682.2151,-38
1601464682.2171,-48
1601464682.2191,-45
1601464682.2212,-38
1601464682.2231,-38
1601464682.2251,-40
1601464682.2271,-31
1601464682.2291,-24
1601464682.2312,-24
1601464682.2331,-24
1601464682.2338,-19
1601464682.2351,-16
1601464682.2372,-7
1601464682.2391,-4
1601464682.2412,-9
1601464682.2431,-7
1601464682.2451,-7
1601464682.2471,-9
1601464682.2491,-4
1601464682.2511,0
1601464682.2531,4
1601464682.2551,4
1601464682.2571,-9
1601464682.2591,-16
1601464682.2611,2
1601464682.2633,7
1601464682.2638,-7
1601464682.2652,-12
1601464682.2671,-7
1601464682.2691,-4
1601464682.2711,-2
1601464682.2732,2
1601464682.2752,2
1601464682.2773,2
1601464682.2791,4
1601464682.2812,2
1601464682.2831,2
1601464682.2851,9
1601464682.2871,9
1601464682.2891,2
1601464682.2911,-2
1601464682.2931,-2
1601464682.2951,7
1601464682.2971,31
1601464682.2991,43
1601464682.3012,31
1601464682.3031,19
1601464682.3051,21
1601464682.3072,19
1601464682.3091,12
1601464682.3111,4
1601464682.3131,2
1601464682.7162,-2
1601464682.7166,-2
1601464682.7185,9
1601464682.7205,14
1601464682.7225,9
1601464682.7245,4
1601464682.7265,2
1601464682.7285,31
1601464682.7306,185
1601464682.7325,455
1601464682.7345,481
1601464682.7365,-77
1601464682.7385,-614
1601464682.7405,-397
1601464682.7425,-19
1601464682.7445,-28
1601464682.7465,-40
1601464682.7485,40
1601464682.7506,31
1601464682.7525,9
1601464682.7546,31
1601464682.7565,28
1601464682.7585,14
1601464682.7606,16
1601464682.7625,24
1601464682.7645,26
1601464682.7665,36
1601464682.7685,40
1601464682.7706,38
1601464682.7724,40
1601464682.7745,52
1601464682.7765,60
1601464682.7785,60
1601464682.7805,60
1601464682.7825,62
1601464682.7845,62
1601464682.7865,67
1601464682.7885,72
1601464682.7905,74
1601464682.7925,84
1601464682.7945,96
1601464682.7965,103
1601464682.7985,103
1601464682.8006,96
1601464682.8025,91
1601464682.8045,86
1601464682.8065,77
1601464682.8085,62
1601464682.8106,55
1601464682.8125,45
1601464682.8145,28
1601464682.8165,9
1601464682.8185,-2
1601464682.8205,-9
1601464682.8225,-24
1601464682.8245,-38
1601464682.8265,-36
1601464682.8285,-31
1601464682.8306,-38
1601464682.8325,-40
1601464682.8345,-33
1601464682.8365,-26
1601464682.8385,-26
1601464682.8405,-19
1601464682.8425,-9
1601464682.8445,-12
1601464682.8465,-16
1601464682.8485,-16
1601464682.8506,-12
1601464682.8525,-12
1601464682.8545,-9
1601464682.8565,-12
1601464682.8585,-19
1601464683.2868,-21
1601464683.2873,-24
1601464683.2897,-26
1601464683.2923,-19
1601464683.2943,-19
1601464683.2963,-36
1601464683.2983,-48
1601464683.3003,-43
1601464683.3023,-36
1601464683.3043,-40
1601464683.3064,-43
1601464683.3083,-38
1601464683.3103,-43
1601464683.3123,-43
1601464683.3143,-36
1601464683.3163,-33
1601464683.3183,-36
1601464683.3203,-40
1601464683.3223,-36
1601464683.3243,-28
1601464683.3263,-28
1601464683.3283,-33
1601464683.3303,-33
1601464683.3323,-28
1601464683.3343,-31
1601464683.3363,-31
1601464683.3383,-28
1601464683.3403,-28
1601464683.3423,-28
1601464683.3443,-24
1601464683.3463,-12
1601464683.3483,2
1601464683.3503,4
1601464683.3523,-2
1601464683.3543,-14
1601464683.3563,-26
1601464683.3583,-21
1601464683.3603,-16
1601464683.3623,-31
1601464683.3643,-40
1601464683.3663,-36
1601464683.3683,-31
1601464683.3703,-36
1601464683.3723,-36
1601464683.3743,-31
1601464683.3763,-33
1601464683.3783,-24
1601464683.3803,98
1601464683.3823,387
1601464683.3843,554
1601464683.3863,103
1601464683.3883,-597
1601464683.3903,-580
1601464683.3923,-127
1601464683.3943,-52
1601464683.3963,-101
1601464683.3983,0
1601464683.4003,14
1601464683.4023,-38
1601464683.4043,-24
1601464683.4063,-4
1601464683.4083,-24
1601464683.4103,-26
1601464683.4123,-9
1601464683.4143,-12
1601464683.4163,-21
1601464683.4183,-21
1601464683.4203,-19
1601464683.4223,-12
1601464683.4243,-9
1601464683.4263,-7
1601464683.4283,2
1601464683.4303,4
1601464683.8869,2
1601464683.8875,16
1601464683.8891,31
1601464683.8911,26
1601464683.8931,26
1601464683.8951,43
1601464683.8971,48
1601464683.8991,36
1601464683.9011,38
1601464683.9031,48
1601464683.9051,40
1601464683.9071,31
1601464683.9091,31
1601464683.9111,31
1601464683.9131,19
1601464683.9151,-2
1601464683.9171,-14
1601464683.9190,-24
1601464683.9211,-36
1601464683.9232,-45
1601464683.9251,-52
1601464683.9271,-65
1601464683.9291,-77
1601464683.9311,-74
1601464683.9331,-62
1601464683.9351,-62
1601464683.9371,-69
1601464683.9391,-62
1601464683.9411,-48
1601464683.9430,-48
1601464683.9450,-43
1601464683.9471,-36
1601464683.9491,-36
1601464683.9511,-36
1601464683.9530,-31
1601464683.9550,-26
1601464683.9571,-33
1601464683.9591,-33
1601464683.9611,-21
1601464683.9630,-21
1601464683.9651,-24
1601464683.9671,-28
1601464683.9692,-33
1601464683.9711,-31
1601464683.9730,-24
1601464683.9751,-28
1601464683.9770,-36
1601464683.9790,-31
1601464683.9811,-26
1601464683.9831,-36
1601464683.9850,-43
1601464683.9870,-28
1601464683.9890,-24
1601464683.9910,-28
1601464683.9930,-21
1601464683.9951,-16
1601464683.9971,-31
1601464683.9990,-36
1601464684.0011,-26
1601464684.0031,-24
1601464684.0051,-31
1601464684.0071,-21
1601464684.0090,-14
1601464684.0111,-24
1601464684.0131,-24
1601464684.0151,-21
1601464684.0170,-21
1601464684.0191,-21
1601464684.0211,-24
1601464684.0231,-21
1601464684.0251,-16
1601464684.0270,-9
1601464684.0291,2
1601464684.4269,2
1601464684.4275,-12
1601464684.4292,-7
1601464684.4312,-2
1601464684.4332,-14
1601464684.4352,-31
1601464684.4372,-33
1601464684.4392,-26
1601464684.4412,-21
1601464684.4432,-19
1601464684.4451,-16
1601464684.4471,-21
1601464684.4491,-36
1601464684.4512,-33
1601464684.4531,43
1601464684.4551,274
1601464684.4571,546
1601464684.4591,390
1601464684.4612,-315
1601464684.4631,-686
1601464684.4651,-308
1601464684.4672,-24
1601464684.4691,-77
1601464684.4712,-38
1601464684.4731,24
1601464684.4751,-9
1601464684.4771,-16
1601464684.4791,0
1601464684.4812,-7
1601464684.4831,0
1601464684.4851,14
1601464684.4871,9
1601464684.4891,7
1601464684.4911,14
1601464684.4931,14
1601464684.4951,14
1601464684.4971,26
1601464684.4991,33
1601464684.5012,31
1601464684.5031,33
1601464684.5051,45
1601464684.5072,57
1601464684.5091,65
1601464684.5112,67
1601464684.5131,74
1601464684.5151,86
1601464684.5171,93
1601464684.5191,96
1601464684.5212,98
1601464684.5231,98
1601464684.5251,101
1601464684.5271,91
1601464684.5291,79
1601464684.5312,79
1601464684.5331,67
1601464684.5351,50
1601464684.5371,36
1601464684.5391,24
1601464684.5411,9
1601464684.5431,-4
1601464684.5451,-12
1601464684.5471,-26
1601464684.5491,-38
1601464684.5512,-33
1601464684.5531,-26
1601464684.5551,-33
1601464684.5571,-33
1601464684.5592,-26
1601464684.5611,-26
1601464684.5631,-28
1601464684.5651,-21
1601464684.5672,-7
1601464684.5692,-4
1601464684.9664,-9
1601464684.9670,-7
1601464684.9687,0
1601464684.9707,4
1601464684.9728,7
1601464684.9748,7
1601464684.9768,2
1601464684.9788,4
1601464684.9808,0
1601464684.9827,-16
1601464684.9848,-16
1601464684.9868,-2
1601464684.9887,-7
1601464684.9907,-24
1601464684.9927,-21
1601464684.9947,-12
1601464684.9967,-9
1601464684.9987,-14
1601464685.0008,-21
1601464685.0027,-12
1601464685.0047,0
1601464685.0068,-9
1601464685.0087,-19
1601464685.0108,-9
1601464685.0127,-4
1601464685.0147,-4
1601464685.0167,-7
1601464685.0187,-7
1601464685.0208,-4
1601464685.0227,-4
1601464685.0247,-2
1601464685.0267,-4
1601464685.0287,-9
1601464685.0308,-7
1601464685.0327,-2
1601464685.0347,-4
1601464685.0367,-9
1601464685.0387,-7
1601464685.0407,-4
1601464685.0427,-4
1601464685.0447,0
1601464685.0468,2
1601464685.0487,-7
1601464685.0508,-16
1601464685.0527,-2
1601464685.0547,14
1601464685.0567,14
1601464685.0587,4
1601464685.0608,-7
1601464685.0628,-16
1601464685.0647,-16
1601464685.0668,-14
1601464685.0687,-19
1601464685.0708,-24
1601464685.0727,-26
1601464685.0747,-31
1601464685.0767,-28
1601464685.0788,-12
1601464685.0808,-7
1601464685.0827,-14
1601464685.0847,21
1601464685.0867,204
1601464685.0887,496
1601464685.0907,479
1601464685.0927,-139
1601464685.0947,-640
1601464685.0967,-354
1601464685.0987,-4
1601464685.1008,-52
1601464685.1027,-43
1601464685.1047,50
1601464685.1067,26
1601464685.1087,2
1601464685.5364,26
1601464685.5371,28
1601464685.5381,21
1601464685.5401,31
1601464685.5421,36
1601464685.5441,24
1601464685.5461,14
1601464685.5481,21
1601464685.5501,26
1601464685.5520,24
1601464685.5540,24
1601464685.5560,33
1601464685.5580,45
1601464685.5600,48
1601464685.5620,55
1601464685.5640,67
1601464685.5660,67
1601464685.5680,77
1601464685.5700,89
1601464685.5721,91
1601464685.5740,96
1601464685.5760,103
1601464685.5780,113
1601464685.5801,113
1601464685.5820,103
1601464685.5840,98
1601464685.5860,91
1601464685.5880,81
1601464685.5900,69
1601464685.5920,60
1601464685.5940,45
1601464685.5960,26
1601464685.5980,14
1601464685.6000,2
1601464685.6021,-9
1601464685.6040,-19
1601464685.6061,-26
1601464685.6080,-31
1601464685.6101,-31
1601464685.6121,-28
1601464685.6140,-31
1601464685.6161,-36
1601464685.6181,-28
1601464685.6200,-16
1601464685.6221,-14
1601464685.6240,-12
1601464685.6261,0
1601464685.6281,7
1601464685.6301,-2
1601464685.6321,-7
1601464685.6340,0
1601464685.6361,7
1601464685.6381,7
1601464685.6401,2
1601464685.6421,-2
1601464685.6440,2
1601464685.6460,-2
1601464685.6480,-12
1601464685.6501,-12
1601464685.6521,0
1601464685.6540,-4
1601464685.6561,-16
1601464685.6581,-12
1601464685.6600,-2
1601464685.6621,-4
1601464685.6641,-12
1601464685.6660,-9
1601464685.6680,-7
1601464685.6701,-9
1601464685.6720,-12
1601464685.6740,-2
1601464685.6761,0
1601464685.6780,-14
1601464686.0769,-19
1601464686.0775,-14
1601464686.0791,-12
1601464686.0811,-16
1601464686.0831,-14
1601464686.0851,-7
1601464686.0871,-12
1601464686.0891,-24
1601464686.0911,-31
1601464686.0931,-28
1601464686.0950,-24
1601464686.0970,-26
1601464686.0991,-26
1601464686.1011,-16
1601464686.1030,-14
1601464686.1051,-14
1601464686.1071,-14
1601464686.1090,-9
1601464686.1111,12
1601464686.1131,26
1601464686.1151,16
1601464686.1171,0
1601464686.1190,-2
1601464686.1211,0
1601464686.1231,-4
1601464686.1251,-7
1601464686.1271,-12
1601464686.1291,-21
1601464686.1311,-26
1601464686.1330,-24
1601464686.1350,-16
1601464686.1370,-12
1601464686.1391,-12
1601464686.1411,-14
1601464686.1430,31
1601464686.1451,228
1601464686.1470,501
1601464686.1490,423
1601464686.1511,-209
1601464686.1531,-619
1601464686.1550,-298
1601464686.1570,-2
1601464686.1591,-52
1601464686.1611,-21
1601464686.1630,52
1601464686.1651,14
1601464686.1670,-4
1601464686.1691,26
1601464686.1712,28
1601464686.1730,24
1601464686.1751,33
1601464686.1771,31
1601464686.1790,26
1601464686.1811,33
1601464686.1830,36
1601464686.1850,33
1601464686.1870,43
1601464686.1890,55
1601464686.1910,50
1601464686.1931,48
1601464686.1950,67
1601464686.1971,69
1601464686.1991,60
1601464686.2010,69
1601464686.2030,89
1601464686.2051,89
1601464686.2070,84
1601464686.2090,93
1601464686.2110,105
1601464686.2130,105
1601464686.2151,105
1601464686.2171,101
1601464686.2191,89
1601464686.6469,77
1601464686.6475,69
1601464686.6493,67
1601464686.6514,52
1601464686.6534,19
1601464686.6554,-2
1601464686.6573,-7
1601464686.6593,-24
1601464686.6614,-43
1601464686.6633,-45
1601464686.6653,-43
1601464686.6673,-48
1601464686.6693,-50
1601464686.6713,-45
1601464686.6733,-40
1601464686.6753,-43
1601464686.6773,-45
1601464686.6793,-43
1601464686.6814,-38
1601464686.6833,-28
1601464686.6853,-33
1601464686.6873,-45
1601464686.6893,-38
1601464686.6913,-28
1601464686.6933,-31
1601464686.6953,-40
1601464686.6973,-43
1601464686.6993,-36
1601464686.7014,-33
1601464686.7033,-38
1601464686.7053,-33
1601464686.7073,-33
1601464686.7093,-40
1601464686.7114,-43
1601464686.7133,-38
1601464686.7153,-43
1601464686.7173,-57
1601464686.7193,-65
1601464686.7214,-60
1601464686.7233,-52
1601464686.7253,-52
1601464686.7273,-50
1601464686.7293,-45
1601464686.7314,-48
1601464686.7333,-57
1601464686.7353,-57
1601464686.7373,-50
1601464686.7393,-52
1601464686.7413,-52
1601464686.7433,-43
1601464686.7453,-36
1601464686.7473,-48
1601464686.7493,-50
1601464686.7513,-38
1601464686.7533,-43
1601464686.7553,-57
1601464686.7573,-55
1601464686.7593,-48
1601464686.7614,-52
1601464686.7633,-52
1601464686.7653,-40
1601464686.7673,-31
1601464686.7693,-21
1601464686.7714,-7
1601464686.7733,-9
1601464686.7753,-36
1601464686.7773,-43
1601464686.7793,-36
1601464686.7813,-33
1601464686.7833,-36
1601464686.7853,-43
1601464686.7873,-43
1601464686.7893,-40
1601464687.2464,-52
1601464687.2471,-57
1601464687.2481,-45
1601464687.2501,-40
1601464687.2522,-55
1601464687.2541,-40
1601464687.2561,108
1601464687.2582,423
1601464687.2601,539
1601464687.2621,-2
1601464687.2641,-676
1601464687.2661,-549
1601464687.2681,-98
1601464687.2701,-72
1601464687.2721,-122
1601464687.2740,-33
1601464687.2760,-28
1601464687.2780,-57
1601464687.2802,-33
1601464687.2821,-24
1601464687.2840,-38
1601464687.2860,-33
1601464687.2881,-21
1601464687.2901,-16
1601464687.2920,-12
1601464687.2941,-14
1601464687.2961,-19
1601464687.2982,-14
1601464687.3000,-4
1601464687.3021,4
1601464687.3040,9
1601464687.3061,9
1601464687.3080,16
1601464687.3100,28
1601464687.3121,33
1601464687.3141,38
1601464687.3161,48
1601464687.3180,57
1601464687.3187,67
1601464687.3200,74
1601464687.3221,69
1601464687.3240,69
1601464687.3260,84
1601464687.3281,84
1601464687.3301,67
1601464687.3320,48
1601464687.3340,38
1601464687.3360,36
1601464687.3380,16
1601464687.3400,-7
1601464687.3421,-24
1601464687.3440,-36
1601464687.3461,-48
1601464687.3480,-52
1601464687.3487,-57
1601464687.3500,-67
1601464687.3520,-67
1601464687.3541,-67
1601464687.3561,-65
1601464687.3580,-57
1601464687.3600,-57
1601464687.3621,-60
1601464687.3640,-52
1601464687.3661,-43
1601464687.3681,-40
1601464687.3701,-31
1601464687.3721,-24
1601464687.3740,-28
1601464687.3761,-28
1601464687.3781,-21
1601464687.3788,-12
1601464687.3801,-14
1601464687.3821,-26
1601464687.7868,-28
1601464687.7875,-21
1601464687.7891,-28
1601464687.7911,-45
1601464687.7931,-48
1601464687.7938,-45
1601464687.7961,-50
1601464687.7981,-60
1601464687.8001,-52
1601464687.8021,-48
1601464687.8041,-60
1601464687.8061,-69
1601464687.8081,-62
1601464687.8101,-55
1601464687.8122,-57
1601464687.8141,-55
1601464687.8161,-45
1601464687.8181,-45
1601464687.8201,-50
1601464687.8221,-43
1601464687.8241,-31
1601464687.8248,-36
1601464687.8261,-43
1601464687.8281,-38
1601464687.8301,-28
1601464687.8321,-28
1601464687.8341,-33
1601464687.8361,-28
1601464687.8381,-24
1601464687.8401,-24
1601464687.8421,-14
1601464687.8441,-12
1601464687.8461,-21
1601464687.8481,-19
1601464687.8501,-16
1601464687.8521,-14
1601464687.8541,-4
1601464687.8547,4
1601464687.8561,12
1601464687.8581,9
1601464687.8601,-2
1601464687.8621,-4
1601464687.8641,-4
1601464687.8661,-4
1601464687.8681,-7
1601464687.8700,-16
1601464687.8721,-21
1601464687.8740,-16
1601464687.8761,-12
1601464687.8781,-12
1601464687.8801,-9
1601464687.8821,-7
1601464687.8841,-4
1601464687.8848,52
1601464687.8861,284
1601464687.8881,573
1601464687.8901,426
1601464687.8921,-284
1601464687.8941,-647
1601464687.8961,-257
1601464687.8981,9
1601464687.9001,-69
1601464687.9021,-16
1601464687.9041,60
1601464687.9061,9
1601464687.9081,0
1601464687.9101,36
1601464687.9123,28
1601464687.9128,12
1601464687.9150,16
1601464687.9171,24
1601464687.9192,24
1601464687.9211,16
1601464688.3564,12
1601464688.3571,21
1601464688.3595,38
1601464688.3622,38
1601464688.3641,31
1601464688.3661,43
1601464688.3668,60
1601464688.3691,55
1601464688.3711,50
1601464688.3731,57
1601464688.3751,67
1601464688.3771,77
1601464688.3791,84
1601464688.3813,86
1601464688.3831,89
1601464688.3850,98
1601464688.3871,110
1601464688.3891,110
1601464688.3911,98
1601464688.3931,84
1601464688.3951,77
1601464688.3971,69
1601464688.3978,52
1601464688.3991,31
1601464688.4011,14
1601464688.4031,-7
1601464688.4051,-19
1601464688.4071,-21
1601464688.4091,-33
1601464688.4112,-40
1601464688.4131,-38
1601464688.4151,-43
1601464688.4171,-52
1601464688.4191,-45
1601464688.4211,-36
1601464688.4231,-36
1601464688.4251,-33
1601464688.4271,-24
1601464688.4278,-21
1601464688.4301,-21
1601464688.4321,-14
1601464688.4341,-9
1601464688.4361,-12
1601464688.4381,-19
1601464688.4401,-21
1601464688.4421,-16
1601464688.4441,-14
1601464688.4461,-19
1601464688.4481,-14
1601464688.4501,-7
1601464688.4521,-12
1601464688.4541,-21
1601464688.4561,-19
1601464688.4581,-16
1601464688.4588,-24
1601464688.4601,-26
1601464688.4621,-19
1601464688.4641,-16
1601464688.4661,-24
1601464688.4681,-24
1601464688.4701,-26
1601464688.4721,-24
1601464688.4741,-16
1601464688.4761,-16
1601464688.4781,-24
1601464688.4801,-31
1601464688.4821,-33
1601464688.4841,-28
1601464688.4861,-19
1601464688.4881,-21
1601464688.4888,-24
1601464688.4911,-16
1601464688.4931,-9
1601464688.8964,-16
1601464688.8970,-14
1601464688.8994,-7
1601464688.9021,-9
1601464688.9041,-12
1601464688.9060,-9
1601464688.9068,-9
1601464688.9091,-12
1601464688.9111,-14
1601464688.9131,-21
1601464688.9150,-26
1601464688.9170,-19
1601464688.9191,-9
1601464688.9210,-2
1601464688.9230,2
1601464688.9250,21
1601464688.9270,26
1601464688.9291,2
1601464688.9310,-12
1601464688.9331,-2
1601464688.9351,2
1601464688.9370,-9
1601464688.9390,-14
1601464688.9410,-12
1601464688.9430,-16
1601464688.9450,-16
1601464688.9470,-14
1601464688.9490,-7
1601464688.9511,0
1601464688.9530,-7
1601464688.9550,-2
1601464688.9570,103
1601464688.9590,368
1601464688.9611,568
1601464688.9630,216
1601464688.9650,-472
1601464688.9670,-551
1601464688.9690,-115
1601464688.9711,7
1601464688.9730,-57
1601464688.9750,16
1601464688.9770,48
1601464688.9791,4
1601464688.9811,12
1601464688.9830,28
1601464688.9850,21
1601464688.9870,28
1601464688.9891,33
1601464688.9911,26
1601464688.9931,24
1601464688.9950,33
1601464688.9971,38
1601464688.9991,33
1601464689.0010,33
1601464689.0030,45
1601464689.0051,60
1601464689.0070,52
1601464689.0090,45
1601464689.0111,60
1601464689.0130,69
1601464689.0151,67
1601464689.0171,74
1601464689.0191,89
1601464689.0210,96
1601464689.0230,103
1601464689.0250,108
1601464689.0270,108
1601464689.0291,110
1601464689.0310,108
1601464689.0331,103
1601464689.0350,91
1601464689.0370,72
1601464689.0390,50
1601464689.4665,43
1601464689.4671,33
1601464689.4695,9
1601464689.4721,-4
1601464689.4741,-12
1601464689.4761,-31
1601464689.4781,-50
1601464689.4801,-50
1601464689.4821,-52
1601464689.4841,-52
1601464689.4861,-48
1601464689.4881,-48
1601464689.4901,-45
1601464689.4921,-38
1601464689.4941,-38
1601464689.4961,-38
1601464689.4981,-33
1601464689.5001,-28
1601464689.5021,-28
1601464689.5041,-31
1601464689.5061,-26
1601464689.5082,-19
1601464689.5101,-19
1601464689.5121,-24
1601464689.5141,-21
1601464689.5161,-12
1601464689.5181,-12
1601464689.5201,-21
1601464689.5221,-24
1601464689.5240,-21
1601464689.5261,-21
1601464689.5281,-24
1601464689.5301,-19
1601464689.5321,-19
1601464689.5341,-21
1601464689.5361,-21
1601464689.5381,-16
1601464689.5401,-16
1601464689.5421,-16
1601464689.5441,-19
1601464689.5461,-24
1601464689.5481,-24
1601464689.5501,-21
1601464689.5521,-14
1601464689.5541,-14
1601464689.5561,-16
1601464689.5581,-16
1601464689.5601,-14
1601464689.5621,-12
1601464689.5641,-16
1601464689.5661,-21
1601464689.5681,-14
1601464689.5701,-12
1601464689.5721,-24
1601464689.5741,-24
1601464689.5761,-12
1601464689.5781,-16
1601464689.5801,-14
1601464689.5821,-2
1601464689.5841,-4
1601464689.5861,-9
1601464689.5881,-9
1601464689.5901,-12
1601464689.5921,-12
1601464689.5941,-4
1601464689.5961,2
1601464689.5981,12
1601464689.6001,26
1601464689.6021,33
1601464689.6041,16
1601464689.6061,-4
1601464689.6081,2
1601464689.6101,16
1601464690.0068,7
1601464690.0075,-16
1601464690.0099,-28
1601464690.0125,-19
1601464690.0145,-14
1601464690.0165,-14
1601464690.0185,-9
1601464690.0205,-19
1601464690.0225,-33
1601464690.0245,-26
1601464690.0265,33
1601464690.0285,238
1601464690.0306,517
1601464690.0325,411
1601464690.0345,-257
1601464690.0365,-650
1601464690.0385,-296
1601464690.0405,-9
1601464690.0425,-74
1601464690.0445,-38
1601464690.0465,33
1601464690.0485,-4
1601464690.0505,-19
1601464690.0525,12
1601464690.0545,12
1601464690.0565,2
1601464690.0584,4
1601464690.0605,7
1601464690.0625,9
1601464690.0645,16
1601464690.0665,14
1601464690.0684,9
1601464690.0704,12
1601464690.0724,14
1601464690.0744,16
1601464690.0764,28
1601464690.0785,38
1601464690.0805,33
1601464690.0824,38
1601464690.0846,55
1601464690.0865,60
1601464690.0885,60
1601464690.0905,67
1601464690.0924,72
1601464690.0944,74
1601464690.0965,79
1601464690.0985,77
1601464690.1005,72
1601464690.1025,65
1601464690.1044,57
1601464690.1064,50
1601464690.1085,36
1601464690.1105,14
1601464690.1124,0
1601464690.1144,-7
1601464690.1164,-21
1601464690.1184,-38
1601464690.1205,-50
1601464690.1224,-60
1601464690.1244,-65
1601464690.1265,-69
1601464690.1284,-77
1601464690.1305,-81
1601464690.1324,-81
1601464690.1345,-81
1601464690.1365,-81
1601464690.1385,-79
1601464690.1405,-77
1601464690.1424,-65
1601464690.1444,-57
1601464690.1465,-67
1601464690.1484,-69
1601464690.1505,-57
1601464690.6064,-48
1601464690.6070,-52
1601464690.6081,-52
1601464690.6100,-48
1601464690.6121,-60
1601464690.6140,-72
1601464690.6160,-72
1601464690.6181,-69
1601464690.6201,-69
1601464690.6206,-69
1601464690.6220,-65
1601464690.6240,-60
1601464690.6260,-72
1601464690.6280,-77
1601464690.6300,-67
1601464690.6320,-67
1601464690.6340,-74
1601464690.6360,-67
1601464690.6380,-62
1601464690.6400,-62
1601464690.6420,-65
1601464690.6441,-69
1601464690.6460,-65
1601464690.6480,-62
1601464690.6500,-67
1601464690.6507,-69
1601464690.6520,-65
1601464690.6540,-65
1601464690.6560,-60
1601464690.6580,-52
1601464690.6600,-55
1601464690.6620,-60
1601464690.6640,-57
1601464690.6660,-57
1601464690.6680,-60
1601464690.6700,-67
1601464690.6720,-74
1601464690.6740,-69
1601464690.6760,-65
1601464690.6780,-65
1601464690.6800,-67
1601464690.6806,-65
1601464690.6820,-65
1601464690.6840,-60
1601464690.6859,-48
1601464690.6879,-31
1601464690.6900,-28
1601464690.6920,-48
1601464690.6940,-65
1601464690.6960,-55
1601464690.6980,-43
1601464690.7000,-50
1601464690.7020,-62
1601464690.7039,-65
1601464690.7059,-65
1601464690.7080,-67
1601464690.7100,-67
1601464690.7107,-67
1601464690.7120,-65
1601464690.7140,-60
1601464690.7160,-62
1601464690.7180,9
1601464690.7200,267
1601464690.7220,556
1601464690.7240,356
1601464690.7260,-392
1601464690.7280,-717
1601464690.7300,-296
1601464690.7321,-36
1601464690.7340,-105
1601464690.7360,-55
1601464690.7381,7
1601464690.7386,-36
1601464691.1768,-36
1601464691.1774,-12
1601464691.1790,-19
1601464691.1810,-21
1601464691.1830,-9
1601464691.1850,-9
1601464691.1871,-12
1601464691.1890,-14
1601464691.1909,-16
1601464691.1917,-16
1601464691.1930,-16
1601464691.1950,-7
1601464691.1970,2
1601464691.1990,2
1601464691.2010,4
1601464691.2029,12
1601464691.2049,12
1601464691.2070,16
1601464691.2090,36
1601464691.2110,48
1601464691.2130,48
1601464691.2149,55
1601464691.2170,62
1601464691.2190,67
1601464691.2210,69
1601464691.2216,69
1601464691.2230,65
1601464691.2250,50
1601464691.2270,31
1601464691.2290,21
1601464691.2310,14
1601464691.2330,-7
1601464691.2350,-31
1601464691.2370,-45
1601464691.2389,-55
1601464691.2409,-65
1601464691.2430,-77
1601464691.2450,-86
1601464691.2469,-91
1601464691.2490,-86
1601464691.2510,-79
1601464691.2516,-79
1601464691.2530,-79
1601464691.2550,-72
1601464691.2570,-72
1601464691.2590,-69
1601464691.2610,-65
1601464691.2629,-62
1601464691.2649,-55
1601464691.2670,-45
1601464691.2690,-48
1601464691.2710,-55
1601464691.2730,-45
1601464691.2750,-28
1601464691.2770,-28
1601464691.2790,-36
1601464691.2810,-36
1601464691.2816,-36
1601464691.2829,-31
1601464691.2850,-36
1601464691.2869,-40
1601464691.2889,-38
1601464691.2909,-40
1601464691.2930,-38
1601464691.2950,-36
1601464691.2970,-40
1601464691.2990,-43
1601464691.3010,-36
1601464691.3030,-31
1601464691.3049,-31
1601464691.3070,-31
1601464691.3089,-24
1601464691.3110,-26
1601464691.7166,-33
1601464691.7172,-33
1601464691.7196,-33
1601464691.7222,-28
1601464691.7242,-19
1601464691.7263,-21
1601464691.7283,-33
1601464691.7303,-33
1601464691.7323,-26
1601464691.7329,-24
1601464691.7343,-33
1601464691.7362,-43
1601464691.7383,-36
1601464691.7403,-31
1601464691.7422,-38
1601464691.7442,-33
1601464691.7462,-28
1601464691.7482,-28
1601464691.7503,-26
1601464691.7522,-21
1601464691.7542,-28
1601464691.7562,-21
1601464691.7582,2
1601464691.7604,9
1601464691.7622,-9
1601464691.7629,-26
1601464691.7642,-26
1601464691.7662,-14
1601464691.7682,-14
1601464691.7703,-24
1601464691.7722,-31
1601464691.7742,-26
1601464691.7762,-21
1601464691.7782,-21
1601464691.7803,-19
1601464691.7822,-16
1601464691.7842,-26
1601464691.7862,-24
1601464691.7882,67
1601464691.7903,327
1601464691.7922,575
1601464691.7929,303
1601464691.7942,-421
1601464691.7962,-621
1601464691.7982,-183
1601464691.8002,0
1601464691.8022,-79
1601464691.8042,-12
1601464691.8062,38
1601464691.8082,-12
1601464691.8103,-4
1601464691.8122,31
1601464691.8142,19
1601464691.8163,4
1601464691.8182,16
1601464691.8203,28
1601464691.8222,26
1601464691.8229,19
1601464691.8242,21
1601464691.8262,26
1601464691.8282,28
1601464691.8303,28
1601464691.8322,33
1601464691.8342,48
1601464691.8362,55
1601464691.8382,52
1601464691.8403,52
1601464691.8422,55
1601464691.8442,69
1601464691.8462,81
1601464691.8482,86
1601464691.8502,93
1601464691.8522,98
1601464692.2868,93
1601464692.2874,91
1601464692.2898,96
1601464692.2924,101
1601464692.2945,91
1601464692.2965,74
1601464692.2985,52
1601464692.3005,26
1601464692.3024,-7
1601464692.3044,-26
1601464692.3064,-28
1601464692.3071,-45
1601464692.3084,-60
1601464692.3105,-62
1601464692.3124,-74
1601464692.3144,-86
1601464692.3164,-86
1601464692.3184,-89
1601464692.3204,-79
1601464692.3224,-67
1601464692.3244,-74
1601464692.3264,-74
1601464692.3284,-52
1601464692.3305,-45
1601464692.3324,-62
1601464692.3344,-60
1601464692.3364,-38
1601464692.3370,-36
1601464692.3384,-57
1601464692.3405,-67
1601464692.3424,-55
1601464692.3444,-43
1601464692.3464,-40
1601464692.3484,-33
1601464692.3505,-24
1601464692.3524,-21
1601464692.3544,-24
1601464692.3564,-24
1601464692.3584,-38
1601464692.3605,-50
1601464692.3624,-40
1601464692.3644,-40
1601464692.3664,-50
1601464692.3670,-52
1601464692.3684,-52
1601464692.3704,-55
1601464692.3724,-57
1601464692.3744,-60
1601464692.3764,-57
1601464692.3784,-48
1601464692.3805,-52
1601464692.3824,-65
1601464692.3844,-52
1601464692.3864,-36
1601464692.3884,-38
1601464692.3905,-43
1601464692.3924,-43
1601464692.3944,-45
1601464692.3964,-45
1601464692.3971,-40
1601464692.3984,-40
1601464692.4004,-50
1601464692.4024,-52
1601464692.4044,-48
1601464692.4064,-40
1601464692.4084,-36
1601464692.4105,-50
1601464692.4124,-62
1601464692.4144,-50
1601464692.4164,-33
1601464692.4184,-36
1601464692.4203,-36
1601464692.4224,-36
1601464692.8268,-40
1601464692.8274,-31
1601464692.8297,-21
1601464692.8325,-14
1601464692.8344,-14
1601464692.8364,-31
1601464692.8384,-48
1601464692.8405,-38
1601464692.8424,-33
1601464692.8444,-52
1601464692.8451,-67
1601464692.8464,-72
1601464692.8484,-72
1601464692.8504,-69
1601464692.8524,-60
1601464692.8544,-52
1601464692.8564,-62
1601464692.8584,-72
1601464692.8605,-43
1601464692.8624,122
1601464692.8644,426
1601464692.8664,532
1601464692.8684,-9
1601464692.8704,-686
1601464692.8724,-558
1601464692.8744,-108
1601464692.8751,-91
1601464692.8764,-132
1601464692.8783,-16
1601464692.8804,-19
1601464692.8824,-72
1601464692.8844,-38
1601464692.8863,-19
1601464692.8884,-38
1601464692.8904,-33
1601464692.8924,-31
1601464692.8943,-40
1601464692.8964,-31
1601464692.8984,-28
1601464692.9004,-26
1601464692.9024,-21
1601464692.9044,-21
1601464692.9050,-26
1601464692.9064,-19
1601464692.9084,-4
1601464692.9104,0
1601464692.9124,-2
1601464692.9143,7
1601464692.9164,21
1601464692.9184,26
1601464692.9203,26
1601464692.9224,33
1601464692.9244,43
1601464692.9264,50
1601464692.9284,50
1601464692.9304,45
1601464692.9324,38
1601464692.9344,26
1601464692.9350,16
1601464692.9364,14
1601464692.9384,-2
1601464692.9404,-31
1601464692.9424,-45
1601464692.9444,-57
1601464692.9464,-81
1601464692.9484,-101
1601464692.9504,-103
1601464692.9524,-105
1601464692.9544,-113
1601464692.9564,-118
1601464692.9583,-120
1601464692.9604,-132
1601464692.9624,-132
1601464693.3664,-120
1601464693.3671,-113
1601464693.3694,-105
1601464693.3721,-96
1601464693.3741,-89
1601464693.3761,-84
1601464693.3781,-93
1601464693.3801,-98
1601464693.3820,-86
1601464693.3841,-77
1601464693.3861,-81
1601464693.3881,-77
1601464693.3888,-67
1601464693.3900,-67
1601464693.3921,-74
1601464693.3940,-74
1601464693.3960,-65
1601464693.3981,-60
1601464693.4001,-69
1601464693.4020,-77
1601464693.4041,-65
1601464693.4061,-57
1601464693.4081,-67
1601464693.4100,-72
1601464693.4121,-62
1601464693.4140,-65
1601464693.4161,-72
1601464693.4181,-65
1601464693.4187,-57
1601464693.4200,-55
1601464693.4221,-48
1601464693.4241,-48
1601464693.4260,-50
1601464693.4281,-52
1601464693.4300,-57
1601464693.4320,-48
1601464693.4341,-36
1601464693.4360,-40
1601464693.4381,-45
1601464693.4401,-43
1601464693.4421,-45
1601464693.4440,-40
1601464693.4461,-38
1601464693.4481,-40
1601464693.4487,-45
1601464693.4500,-45
1601464693.4520,-43
1601464693.4541,-40
1601464693.4561,-31
1601464693.4581,-12
1601464693.4601,4
1601464693.4621,-7
1601464693.4640,-36
1601464693.4660,-40
1601464693.4680,-19
1601464693.4700,-14
1601464693.4720,-26
1601464693.4741,-36
1601464693.4760,-52
1601464693.4781,-57
1601464693.4787,-33
1601464693.4801,-24
1601464693.4820,-31
1601464693.4840,-31
1601464693.4860,-43
1601464693.4881,-4
1601464693.4900,207
1601464693.4921,525
1601464693.4940,510
1601464693.4961,-156
1601464693.4981,-717
1601464693.5001,-419
1601464693.5020,-31
1601464693.9664,-79
1601464693.9670,-84
1601464693.9680,9
1601464693.9700,-12
1601464693.9720,-48
1601464693.9740,-24
1601464693.9760,-19
1601464693.9780,-31
1601464693.9800,-21
1601464693.9820,-9
1601464693.9840,-12
1601464693.9847,-9
1601464693.9859,-4
1601464693.9880,2
1601464693.9900,12
1601464693.9920,16
1601464693.9940,12
1601464693.9959,14
1601464693.9979,26
1601464693.9999,36
1601464694.0019,31
1601464694.0040,38
1601464694.0060,52
1601464694.0079,55
1601464694.0100,55
1601464694.0119,74
1601464694.0140,91
1601464694.0146,91
1601464694.0159,96
1601464694.0180,103
1601464694.0200,91
1601464694.0219,79
1601464694.0239,79
1601464694.0260,52
1601464694.0280,16
1601464694.0299,14
1601464694.0319,4
1601464694.0339,-24
1601464694.0359,-45
1601464694.0379,-62
1601464694.0400,-77
1601464694.0420,-74
1601464694.0439,-65
1601464694.0446,-69
1601464694.0459,-79
1601464694.0480,-84
1601464694.0500,-74
1601464694.0519,-69
1601464694.0539,-67
1601464694.0559,-67
1601464694.0579,-67
1601464694.0599,-60
1601464694.0620,-45
1601464694.0640,-45
1601464694.0660,-45
1601464694.0679,-38
1601464694.0700,-36
1601464694.0720,-43
1601464694.0740,-40
1601464694.0746,-33
1601464694.0760,-28
1601464694.0779,-28
1601464694.0800,-38
1601464694.0819,-43
1601464694.0839,-36
1601464694.0860,-31
1601464694.0880,-40
1601464694.0900,-43
1601464694.0919,-38
1601464694.0939,-38
1601464694.0959,-40
1601464694.0980,-36
1601464694.0999,-31
1601464694.5364,-38
1601464694.5370,-40
1601464694.5394,-31
1601464694.5420,-26
1601464694.5441,-33
1601464694.5461,-26
1601464694.5481,-21
1601464694.5501,-31
1601464694.5521,-38
1601464694.5540,-38
1601464694.5560,-40
1601464694.5580,-45
1601464694.5587,-40
1601464694.5601,-28
1601464694.5620,-26
1601464694.5640,-31
1601464694.5660,-26
1601464694.5680,-19
1601464694.5700,-26
1601464694.5720,-28
1601464694.5740,-21
1601464694.5760,-21
1601464694.5780,-19
1601464694.5800,-7
1601464694.5820,7
1601464694.5840,7
1601464694.5860,2
1601464694.5880,-12
1601464694.5887,-24
1601464694.5900,-9
1601464694.5920,2
1601464694.5940,-7
1601464694.5960,-19
1601464694.5980,-21
1601464694.6000,-21
1601464694.6020,-19
1601464694.6041,-21
1601464694.6060,-26
1601464694.6081,-21
1601464694.6100,-14
1601464694.6120,-7
1601464694.6140,74
1601464694.6160,325
1601464694.6180,582
1601464694.6186,342
1601464694.6200,-387
1601464694.6220,-643
1601464694.6240,-214
1601464694.6260,-4
1601464694.6280,-91
1601464694.6300,-33
1601464694.6320,28
1601464694.6340,-12
1601464694.6360,-9
1601464694.6380,16
1601464694.6399,4
1601464694.6420,-2
1601464694.6440,0
1601464694.6460,-4
1601464694.6480,4
1601464694.6486,19
1601464694.6500,16
1601464694.6520,12
1601464694.6540,21
1601464694.6560,31
1601464694.6580,33
1601464694.6600,36
1601464694.6620,43
1601464694.6640,48
1601464694.6660,52
1601464694.6680,60
1601464694.6700,65
1601464694.6720,65
1601464695.1068,74
1601464695.1074,89
1601464695.1098,96
1601464695.1124,103
1601464695.1145,105
1601464695.1165,98
1601464695.1185,91
1601464695.1204,86
1601464695.1225,79
1601464695.1244,57
1601464695.1265,28
1601464695.1285,9
1601464695.1305,-9
1601464695.1324,-31
1601464695.1331,-45
1601464695.1344,-57
1601464695.1364,-72
1601464695.1384,-77
1601464695.1405,-79
1601464695.1424,-81
1601464695.1444,-81
1601464695.1464,-79
1601464695.1484,-72
1601464695.1504,-67
1601464695.1524,-67
1601464695.1544,-62
1601464695.1564,-55
1601464695.1584,-52
1601464695.1604,-55
1601464695.1624,-45
1601464695.1630,-38
1601464695.1644,-36
1601464695.1664,-31
1601464695.1684,-26
1601464695.1704,-28
1601464695.1724,-26
1601464695.1744,-24
1601464695.1764,-26
1601464695.1784,-26
1601464695.1804,-28
1601464695.1824,-31
1601464695.1844,-33
1601464695.1864,-38
1601464695.1884,-38
1601464695.1905,-36
1601464695.1924,-36
1601464695.1931,-38
1601464695.1938,-36
1601464695.1954,-33
1601464695.1974,-40
1601464695.1994,-36
1601464695.2015,-21
1601464695.2034,-19
1601464695.2054,-28
1601464695.2074,-26
1601464695.2094,-24
1601464695.2114,-28
1601464695.2134,-26
1601464695.2154,-19
1601464695.2174,-19
1601464695.2194,-19
1601464695.2200,-19
1601464695.2214,-19
1601464695.2234,-19
1601464695.2254,-16
1601464695.2274,-12
1601464695.2294,-9
1601464695.2314,-12
1601464695.2334,-12
1601464695.2354,-4
1601464695.2374,-4
1601464695.2394,-9
1601464695.2414,-12
1601464695.6468,-4
1601464695.6473,7
1601464695.6486,21
1601464695.6507,24
1601464695.6527,12
1601464695.6546,-2
1601464695.6566,-2
1601464695.6595,2
1601464695.6601,0
1601464695.6627,-7
1601464695.6657,-21
1601464695.6685,-36
1601464695.6706,-28
1601464695.6726,-21
1601464695.6746,-26
1601464695.6752,-26
1601464695.6766,-19
1601464695.6786,-14
1601464695.6806,40
1601464695.6826,250
1601464695.6847,537
1601464695.6866,423
1601464695.6886,-262
1601464695.6907,-652
1601464695.6926,-284
1601464695.6947,2
1601464695.6967,-65
1601464695.6986,-33
1601464695.7007,43
1601464695.7014,2
1601464695.7029,-14
1601464695.7046,19
1601464695.7067,14
1601464695.7086,-4
1601464695.7107,2
1601464695.7126,14
1601464695.7146,14
1601464695.7166,14
1601464695.7186,9
1601464695.7206,14
1601464695.7226,24
1601464695.7246,26
1601464695.7266,24
1601464695.7272,26
1601464695.7286,33
1601464695.7307,45
1601464695.7326,57
1601464695.7343,57
1601464695.7366,60
1601464695.7386,72
1601464695.7407,81
1601464695.7427,86
1601464695.7446,93
1601464695.7466,101
1601464695.7488,101
1601464695.7507,103
1601464695.7526,103
1601464695.7546,93
1601464695.7566,74
1601464695.7572,57
1601464695.7586,52
1601464695.7606,38
1601464695.7626,4
1601464695.7647,-12
1601464695.7667,-16
1601464695.7683,-36
1601464695.7734,-55
1601464695.7766,-62
1601464695.7786,-62
1601464695.7807,-62
1601464695.7826,-65
1601464695.7846,-67
1601464695.7866,-67
1601464696.1864,-62
1601464696.1870,-62
1601464696.1894,-60
1601464696.1920,-52
1601464696.1941,-45
1601464696.1960,-43
1601464696.1981,-38
1601464696.2001,-43
1601464696.2020,-55
1601464696.2040,-45
1601464696.2060,-33
1601464696.2080,-45
1601464696.2100,-45
1601464696.2120,-26
1601464696.2140,-26
1601464696.2160,-38
1601464696.2166,-40
1601464696.2179,-36
1601464696.2200,-31
1601464696.2220,-33
1601464696.2240,-40
1601464696.2260,-38
1601464696.2280,-31
1601464696.2300,-33
1601464696.2320,-40
1601464696.2340,-36
1601464696.2360,-36
1601464696.2380,-45
1601464696.2400,-43
1601464696.2420,-38
1601464696.2440,-40
1601464696.2460,-45
1601464696.2466,-38
1601464696.2480,-26
1601464696.2500,-31
1601464696.2520,-38
1601464696.2540,-33
1601464696.2560,-26
1601464696.2580,-26
1601464696.2600,-24
1601464696.2620,-21
1601464696.2640,-24
1601464696.2660,-26
1601464696.2680,-24
1601464696.2700,-19
1601464696.2720,-16
1601464696.2740,-21
1601464696.2760,-26
1601464696.2767,-21
1601464696.2780,-16
1601464696.2800,-16
1601464696.2820,-12
1601464696.2840,-9
1601464696.2860,-14
1601464696.2880,-12
1601464696.2900,2
1601464696.2920,14
1601464696.2940,14
1601464696.2960,16
1601464696.2980,12
1601464696.3000,2
1601464696.3020,-4
1601464696.3040,-9
1601464696.3060,-14
1601464696.3066,-16
1601464696.3080,-19
1601464696.3100,-19
1601464696.3120,-21
1601464696.3140,-21
1601464696.3160,-16
1601464696.3180,-12
1601464696.3200,-12
1601464696.3220,-4
1601464696.7568,77
1601464696.7574,320
1601464696.7586,546
1601464696.7607,264
1601464696.7626,-433
1601464696.7646,-614
1601464696.7667,-195
1601464696.7687,-16
1601464696.7707,-81
1601464696.7727,-19
1601464696.7746,24
1601464696.7767,-16
1601464696.7786,-9
1601464696.7807,9
1601464696.7827,0
1601464696.7833,0
1601464696.7846,7
1601464696.7866,4
1601464696.7887,0
1601464696.7906,-2
1601464696.7926,-2
1601464696.7946,0
1601464696.7966,4
1601464696.7986,9
1601464696.8007,16
1601464696.8026,21
1601464696.8046,28
1601464696.8066,38
1601464696.8086,33
1601464696.8107,28
1601464696.8126,45
1601464696.8133,60
1601464696.8146,52
1601464696.8167,57
1601464696.8186,79
1601464696.8207,86
1601464696.8226,79
1601464696.8246,81
1601464696.8266,77
1601464696.8286,65
1601464696.8306,57
1601464696.8327,45
1601464696.8346,28
1601464696.8366,14
1601464696.8386,-4
1601464696.8407,-33
1601464696.8426,-52
1601464696.8432,-62
1601464696.8446,-77
1601464696.8466,-86
1601464696.8486,-81
1601464696.8506,-79
1601464696.8526,-84
1601464696.8546,-89
1601464696.8566,-84
1601464696.8586,-81
1601464696.8606,-84
1601464696.8626,-74
1601464696.8647,-67
1601464696.8667,-69
1601464696.8686,-69
1601464696.8706,-62
1601464696.8726,-57
1601464696.8733,-55
1601464696.8746,-55
1601464696.8766,-55
1601464696.8786,-55
1601464696.8807,-50
1601464696.8826,-52
1601464696.8846,-55
1601464696.8866,-45
1601464696.8886,-43
1601464696.8906,-55
1601464697.3570,-57
1601464697.3578,-55
1601464697.3602,-55
1601464697.3629,-55
1601464697.3649,-52
1601464697.3668,-62
1601464697.3690,-74
1601464697.3709,-69
1601464697.3728,-62
1601464697.3749,-67
1601464697.3769,-74
1601464697.3789,-72
1601464697.3809,-67
1601464697.3829,-69
1601464697.3849,-77
1601464697.3869,-72
1601464697.3888,-65
1601464697.3895,-65
1601464697.3909,-67
1601464697.3928,-62
1601464697.3948,-57
1601464697.3968,-57
1601464697.3988,-57
1601464697.4009,-55
1601464697.4028,-52
1601464697.4048,-50
1601464697.4068,-52
1601464697.4088,-65
1601464697.4109,-62
1601464697.4128,-52
1601464697.4148,-52
1601464697.4169,-48
1601464697.4188,-43
1601464697.4194,-48
1601464697.4208,-48
1601464697.4228,-36
1601464697.4248,-28
1601464697.4268,-21
1601464697.4288,-24
1601464697.4309,-33
1601464697.4328,-36
1601464697.4348,-36
1601464697.4368,-48
1601464697.4388,-55
1601464697.4408,-57
1601464697.4428,-62
1601464697.4448,-65
1601464697.4468,-57
1601464697.4488,-55
1601464697.4494,-57
1601464697.4509,-60
1601464697.4529,-60
1601464697.4548,-45
1601464697.4568,74
1601464697.4588,375
1601464697.4608,554
1601464697.4628,91
1601464697.4648,-626
1601464697.4668,-599
1601464697.4688,-137
1601464697.4708,-62
1601464697.4728,-113
1601464697.4748,-19
1601464697.4768,-7
1601464697.4788,-50
1601464697.4794,-31
1601464697.4809,-19
1601464697.4828,-33
1601464697.4848,-26
1601464697.4868,-21
1601464697.4888,-21
1601464697.4908,-14
1601464697.4928,-16
1601464697.8963,-24
1601464697.8969,-21
1601464697.8993,-12
1601464697.9019,-12
1601464697.9040,-19
1601464697.9060,-19
1601464697.9079,-12
1601464697.9100,-4
1601464697.9119,-4
1601464697.9140,4
1601464697.9159,21
1601464697.9179,14
1601464697.9199,9
1601464697.9219,28
1601464697.9239,38
1601464697.9259,36
1601464697.9279,48
1601464697.9285,48
1601464697.9299,36
1601464697.9319,26
1601464697.9339,14
1601464697.9359,2
1601464697.9379,-16
1601464697.9399,-40
1601464697.9419,-52
1601464697.9439,-65
1601464697.9459,-89
1601464697.9479,-98
1601464697.9499,-91
1601464697.9519,-91
1601464697.9539,-103
1601464697.9559,-110
1601464697.9579,-98
1601464697.9585,-98
1601464697.9599,-108
1601464697.9619,-98
1601464697.9639,-86
1601464697.9659,-81
1601464697.9679,-79
1601464697.9699,-72
1601464697.9719,-60
1601464697.9739,-57
1601464697.9759,-57
1601464697.9779,-55
1601464697.9799,-52
1601464697.9819,-52
1601464697.9839,-55
1601464697.9859,-52
1601464697.9879,-45
1601464697.9885,-48
1601464697.9899,-57
1601464697.9919,-55
1601464697.9939,-48
1601464697.9960,-52
1601464697.9979,-62
1601464697.9999,-57
1601464698.0019,-50
1601464698.0040,-45
1601464698.0059,-45
1601464698.0079,-50
1601464698.0099,-52
1601464698.0119,-55
1601464698.0139,-50
1601464698.0159,-43
1601464698.0179,-38
1601464698.0185,-40
1601464698.0199,-50
1601464698.0219,-57
1601464698.0239,-52
1601464698.0259,-40
1601464698.0279,-40
1601464698.0299,-55
1601464698.0319,-52
1601464698.4665,-43
1601464698.4672,-45
1601464698.4696,-43
1601464698.4706,-36
1601464698.4722,-36
1601464698.4743,-36
1601464698.4762,-33
1601464698.4783,-45
1601464698.4803,-60
1601464698.4822,-50
1601464698.4842,-28
1601464698.4862,-19
1601464698.4882,-12
1601464698.4902,-24
1601464698.4922,-38
1601464698.4942,-31
1601464698.4962,-24
1601464698.4982,-28
1601464698.5003,-36
1601464698.5008,-38
1601464698.5022,-36
1601464698.5042,-40
1601464698.5062,-40
1601464698.5082,-28
1601464698.5103,-24
1601464698.5121,-33
1601464698.5142,-43
1601464698.5162,14
1601464698.5181,243
1601464698.5202,539
1601464698.5221,423
1601464698.5242,-281
1601464698.5261,-693
1601464698.5282,-317
1601464698.5303,-16
1601464698.5307,-84
1601464698.5322,-45
1601464698.5341,28
1601464698.5362,-9
1601464698.5382,-21
1601464698.5402,2
1601464698.5422,0
1601464698.5441,-2
1601464698.5462,9
1601464698.5482,9
1601464698.5502,0
1601464698.5521,12
1601464698.5541,28
1601464698.5562,21
1601464698.5581,14
1601464698.5603,28
1601464698.5608,36
1601464698.5622,26
1601464698.5642,24
1601464698.5661,38
1601464698.5681,52
1601464698.5702,57
1601464698.5722,57
1601464698.5741,60
1601464698.5762,67
1601464698.5781,77
1601464698.5803,86
1601464698.5821,93
1601464698.5842,96
1601464698.5861,86
1601464698.5881,79
1601464698.5902,77
1601464698.5907,65
1601464698.5921,48
1601464698.5941,33
1601464698.5962,14
1601464698.5981,-14
1601464698.6002,-33
1601464699.0117,-48
1601464699.0123,-57
1601464699.0147,-60
1601464699.0158,-65
1601464699.0174,-72
1601464699.0193,-74
1601464699.0213,-77
1601464699.0234,-81
1601464699.0254,-72
1601464699.0274,-65
1601464699.0294,-72
1601464699.0314,-77
1601464699.0333,-67
1601464699.0353,-60
1601464699.0373,-57
1601464699.0394,-45
1601464699.0413,-40
1601464699.0433,-48
1601464699.0453,-48
1601464699.0459,-38
1601464699.0474,-33
1601464699.0493,-33
1601464699.0514,-33
1601464699.0533,-33
1601464699.0553,-31
1601464699.0573,-36
1601464699.0593,-36
1601464699.0614,-31
1601464699.0633,-33
1601464699.0654,-33
1601464699.0673,-33
1601464699.0693,-33
1601464699.0714,-36
1601464699.0733,-40
1601464699.0753,-36
1601464699.0759,-28
1601464699.0773,-31
1601464699.0793,-33
1601464699.0814,-24
1601464699.0833,-24
1601464699.0853,-31
1601464699.0873,-21
1601464699.0893,-14
1601464699.0913,-21
1601464699.0933,-24
1601464699.0953,-24
1601464699.0973,-19
1601464699.0993,-19
1601464699.1013,-24
1601464699.1033,-21
1601464699.1053,-16
1601464699.1059,-14
1601464699.1073,-9
1601464699.1093,-14
1601464699.1114,-19
1601464699.1133,-19
1601464699.1153,-24
1601464699.1174,-26
1601464699.1193,-19
1601464699.1213,-16
1601464699.1233,-2
1601464699.1253,16
1601464699.1273,14
1601464699.1293,0
1601464699.1314,-4
1601464699.1333,-2
1601464699.1339,-2
1601464699.1353,-12
1601464699.1373,-21
1601464699.1393,-19
1601464699.1413,-19
1601464699.1433,-24
1601464699.1453,-21
1601464699.5767,-12
1601464699.5774,-9
1601464699.5786,-16
1601464699.5793,7
1601464699.5807,146
1601464699.5826,433
1601464699.5846,541
1601464699.5866,36
1601464699.5886,-599
1601464699.5906,-491
1601464699.5926,-77
1601464699.5946,-43
1601464699.5966,-77
1601464699.5986,7
1601464699.6006,9
1601464699.6026,-16
1601464699.6046,7
1601464699.6066,14
1601464699.6086,0
1601464699.6092,0
1601464699.6106,14
1601464699.6126,21
1601464699.6146,16
1601464699.6165,16
1601464699.6186,21
1601464699.6206,21
1601464699.6226,24
1601464699.6246,36
1601464699.6266,45
1601464699.6286,43
1601464699.6306,40
1601464699.6325,48
1601464699.6346,55
1601464699.6366,60
1601464699.6386,67
1601464699.6392,72
1601464699.6406,81
1601464699.6426,93
1601464699.6446,96
1601464699.6466,98
1601464699.6486,98
1601464699.6506,84
1601464699.6526,79
1601464699.6546,79
1601464699.6566,69
1601464699.6586,52
1601464699.6606,36
1601464699.6626,16
1601464699.6646,-14
1601464699.6666,-45
1601464699.6686,-50
1601464699.6692,-50
1601464699.6706,-62
1601464699.6725,-72
1601464699.6746,-67
1601464699.6766,-67
1601464699.6785,-72
1601464699.6806,-74
1601464699.6826,-67
1601464699.6846,-55
1601464699.6866,-50
1601464699.6886,-50
1601464699.6906,-48
1601464699.6926,-40
1601464699.6946,-36
1601464699.6966,-36
1601464699.6986,-33
1601464699.6992,-21
1601464699.7006,-19
1601464699.7026,-28
1601464699.7045,-28
1601464699.7066,-21
1601464699.7085,-26
1601464700.1167,-28
1601464700.1173,-28
1601464700.1187,-26
1601464700.1207,-26
1601464700.1213,-28
1601464700.1227,-28
1601464700.1246,-28
1601464700.1266,-31
1601464700.1287,-40
1601464700.1306,-52
1601464700.1326,-45
1601464700.1346,-36
1601464700.1367,-38
1601464700.1387,-40
1601464700.1407,-38
1601464700.1427,-38
1601464700.1447,-38
1601464700.1466,-33
1601464700.1487,-28
1601464700.1507,-24
1601464700.1512,-26
1601464700.1527,-24
1601464700.1547,-19
1601464700.1566,-19
1601464700.1586,-19
1601464700.1606,-16
1601464700.1626,-16
1601464700.1647,-16
1601464700.1667,-14
1601464700.1686,-14
1601464700.1706,-19
1601464700.1726,-19
1601464700.1746,-21
1601464700.1767,-19
1601464700.1787,-14
1601464700.1806,-19
1601464700.1812,-16
1601464700.1827,-4
1601464700.1847,-12
1601464700.1867,-19
1601464700.1887,-7
1601464700.1908,2
1601464700.1926,7
1601464700.1946,12
1601464700.1967,7
1601464700.1986,-7
1601464700.2007,-14
1601464700.2026,-19
1601464700.2046,-19
1601464700.2066,-19
1601464700.2086,-28
1601464700.2106,-36
1601464700.2112,-26
1601464700.2126,-26
1601464700.2146,-26
1601464700.2166,-19
1601464700.2186,-19
1601464700.2206,-9
1601464700.2227,101
1601464700.2246,370
1601464700.2267,539
1601464700.2286,139
1601464700.2306,-532
1601464700.2326,-549
1601464700.2346,-122
1601464700.2366,-33
1601464700.2386,-86
1601464700.2407,-4
1601464700.2412,16
1601464700.2426,-26
1601464700.2446,-12
1601464700.2466,7
1601464700.2487,-4
1601464700.7167,-2
1601464700.7174,2
1601464700.7187,0
1601464700.7193,0
1601464700.7207,0
1601464700.7227,-4
1601464700.7247,-4
1601464700.7267,-2
1601464700.7286,-4
1601464700.7307,4
1601464700.7327,19
1601464700.7347,14
1601464700.7367,14
1601464700.7387,19
1601464700.7408,28
1601464700.7427,45
1601464700.7447,55
1601464700.7467,55
1601464700.7487,67
1601464700.7492,74
1601464700.7507,69
1601464700.7526,65
1601464700.7546,67
1601464700.7567,62
1601464700.7587,48
1601464700.7607,40
1601464700.7626,24
1601464700.7646,4
1601464700.7667,-12
1601464700.7686,-40
1601464700.7707,-62
1601464700.7726,-67
1601464700.7746,-77
1601464700.7766,-93
1601464700.7786,-105
1601464700.7792,-105
1601464700.7806,-98
1601464700.7826,-98
1601464700.7846,-103
1601464700.7866,-103
1601464700.7886,-98
1601464700.7906,-93
1601464700.7927,-86
1601464700.7946,-81
1601464700.7966,-77
1601464700.7986,-74
1601464700.8007,-72
1601464700.8026,-74
1601464700.8046,-67
1601464700.8066,-57
1601464700.8086,-55
1601464700.8092,-62
1601464700.8106,-65
1601464700.8126,-60
1601464700.8146,-65
1601464700.8166,-74
1601464700.8186,-77
1601464700.8206,-74
1601464700.8226,-69
1601464700.8246,-67
1601464700.8266,-69
1601464700.8286,-77
1601464700.8306,-77
1601464700.8326,-72
1601464700.8346,-72
1601464700.8366,-72
1601464700.8386,-62
1601464700.8392,-62
1601464700.8407,-65
1601464700.8426,-62
1601464700.8446,-67
1601464700.8466,-69
1601464700.8486,-67
1601464701.2569,-65
1601464701.2577,-62
1601464701.2600,-62
1601464701.2627,-57
1601464701.2647,-50
1601464701.2654,-57
1601464701.2667,-65
1601464701.2688,-60
1601464701.2707,-52
1601464701.2727,-55
1601464701.2747,-65
1601464701.2767,-74
1601464701.2787,-69
1601464701.2807,-65
1601464701.2827,-77
1601464701.2847,-74
1601464701.2867,-55
1601464701.2887,-50
1601464701.2907,-40
1601464701.2927,-31
1601464701.2947,-45
1601464701.2953,-62
1601464701.2967,-45
1601464701.2987,-33
1601464701.3007,-52
1601464701.3027,-65
1601464701.3047,-67
1601464701.3067,-72
1601464701.3087,-72
1601464701.3107,-65
1601464701.3127,-62
1601464701.3147,-55
1601464701.3167,-43
1601464701.3187,-40
1601464701.3207,52
1601464701.3227,346
1601464701.3247,570
1601464701.3253,178
1601464701.3267,-561
1601464701.3287,-628
1601464701.3307,-163
1601464701.3326,-48
1601464701.3347,-110
1601464701.3367,-12
1601464701.3387,16
1601464701.3407,-36
1601464701.3427,-24
1601464701.3447,0
1601464701.3467,-21
1601464701.3487,-21
1601464701.3507,9
1601464701.3527,12
1601464701.3547,-2
1601464701.3553,7
1601464701.3567,14
1601464701.3587,9
1601464701.3607,14
1601464701.3626,24
1601464701.3647,24
1601464701.3666,28
1601464701.3687,40
1601464701.3707,50
1601464701.3727,57
1601464701.3746,62
1601464701.3767,65
1601464701.3787,69
1601464701.3807,79
1601464701.3827,86
1601464701.3846,84
1601464701.3853,91
1601464701.3867,103
1601464701.3887,103
1601464701.3907,93
1601464701.8270,89
1601464701.8278,74
1601464701.8302,55
1601464701.8328,43
1601464701.8334,24
1601464701.8358,-2
1601464701.8378,-24
1601464701.8398,-48
1601464701.8418,-69
1601464701.8438,-72
1601464701.8458,-62
1601464701.8478,-72
1601464701.8498,-86
1601464701.8518,-81
1601464701.8538,-72
1601464701.8558,-69
1601464701.8578,-62
1601464701.8598,-55
1601464701.8618,-52
1601464701.8638,-48
1601464701.8644,-48
1601464701.8658,-48
1601464701.8678,-36
1601464701.8698,-28
1601464701.8718,-33
1601464701.8738,-28
1601464701.8758,-24
1601464701.8778,-31
1601464701.8798,-33
1601464701.8818,-28
1601464701.8837,-28
1601464701.8858,-33
1601464701.8878,-31
1601464701.8898,-28
1601464701.8918,-33
1601464701.8938,-31
1601464701.8944,-21
1601464701.8958,-31
1601464701.8978,-48
1601464701.8998,-36
1601464701.9018,-24
1601464701.9038,-33
1601464701.9058,-38
1601464701.9078,-28
1601464701.9098,-26
1601464701.9118,-28
1601464701.9138,-24
1601464701.9158,-21
1601464701.9178,-24
1601464701.9198,-28
1601464701.9217,-26
1601464701.9238,-16
1601464701.9244,-12
1601464701.9258,-16
1601464701.9278,-21
1601464701.9297,-21
1601464701.9318,-14
1601464701.9338,-16
1601464701.9358,-19
1601464701.9377,-19
1601464701.9398,-19
1601464701.9418,-21
1601464701.9438,-19
1601464701.9457,-7
1601464701.9478,14
1601464701.9497,28
1601464701.9517,24
1601464701.9537,4
1601464701.9543,-7
1601464701.9557,-7
1601464701.9577,-14
1601464701.9598,-16
1601464701.9618,-12
1601464702.3664,-16
1601464702.3672,-21
1601464702.3696,-24
1601464702.3723,-24
1601464702.3742,-19
1601464702.3763,-4
1601464702.3769,0
1601464702.3783,7
1601464702.3804,118
1601464702.3822,395
1601464702.3842,566
1601464702.3863,137
1601464702.3883,-558
1601464702.3903,-558
1601464702.3922,-113
1601464702.3942,-28
1601464702.3962,-81
1601464702.3982,2
1601464702.4003,14
1601464702.4022,-24
1601464702.4042,2
1601464702.4062,19
1601464702.4068,7
1601464702.4083,9
1601464702.4102,16
1601464702.4122,14
1601464702.4142,14
1601464702.4162,16
1601464702.4182,19
1601464702.4203,24
1601464702.4222,24
1601464702.4242,26
1601464702.4262,31
1601464702.4282,40
1601464702.4302,45
1601464702.4322,48
1601464702.4342,45
1601464702.4348,52
1601464702.4362,65
1601464702.4382,77
1601464702.4402,84
1601464702.4422,86
1601464702.4442,91
1601464702.4462,96
1601464702.4482,101
1601464702.4502,91
1601464702.4522,74
1601464702.4543,60
1601464702.4562,57
1601464702.4582,52
1601464702.4602,31
1601464702.4622,4
1601464702.4642,-12
1601464702.4648,-28
1601464702.4662,-48
1601464702.4682,-57
1601464702.4702,-65
1601464702.4722,-77
1601464702.4742,-74
1601464702.4762,-69
1601464702.4782,-74
1601464702.4803,-86
1601464702.4822,-81
1601464702.4842,-72
1601464702.4862,-81
1601464702.4882,-98
1601464702.4902,-91
1601464702.4922,-72
1601464702.4942,-69
1601464702.4948,-65
1601464702.4962,-50
1601464702.4982,-50
1601464702.5002,-52
1601464702.9363,-50
1601464702.9368,-50
1601464702.9379,-45
1601464702.9399,-40
1601464702.9406,-48
1601464702.9419,-65
1601464702.9439,-81
1601464702.9459,-86
1601464702.9480,-84
1601464702.9500,-84
1601464702.9520,-77
1601464702.9540,-72
1601464702.9560,-77
1601464702.9580,-74
1601464702.9600,-69
1601464702.9619,-67
1601464702.9639,-67
1601464702.9659,-77
1601464702.9679,-81
1601464702.9699,-77
1601464702.9705,-81
1601464702.9719,-84
1601464702.9739,-77
1601464702.9759,-72
1601464702.9779,-72
1601464702.9800,-74
1601464702.9820,-69
1601464702.9839,-62
1601464702.9859,-55
1601464702.9879,-60
1601464702.9899,-62
1601464702.9919,-50
1601464702.9939,-52
1601464702.9959,-57
1601464702.9979,-50
1601464702.9999,-55
1601464703.0005,-65
1601464703.0019,-55
1601464703.0039,-48
1601464703.0059,-55
1601464703.0079,-62
1601464703.0099,-62
1601464703.0119,-52
1601464703.0139,-38
1601464703.0159,-21
1601464703.0179,-7
1601464703.0199,-19
1601464703.0219,-48
1601464703.0239,-38
1601464703.0259,-16
1601464703.0279,-45
1601464703.0300,-81
1601464703.0305,-72
1601464703.0319,-40
1601464703.0339,-28
1601464703.0359,-57
1601464703.0379,-103
1601464703.0399,-108
1601464703.0419,-79
1601464703.0439,-65
1601464703.0459,-31
1601464703.0479,130
1601464703.0499,409
1601464703.0519,460
1601464703.0539,-57
1601464703.0559,-604
1601464703.0579,-440
1601464703.0599,-72
1601464703.0605,-62
1601464703.0619,-89
1601464703.0639,-24
1601464703.0659,-28
1601464703.0679,-48
1601464703.4767,-28
1601464703.4773,-21
1601464703.4786,-28
1601464703.4806,-33
1601464703.4826,-26
1601464703.4846,-9
1601464703.4853,-9
1601464703.4866,-45
1601464703.4886,-55
1601464703.4907,-21
1601464703.4926,-14
1601464703.4946,-26
1601464703.4966,-24
1601464703.4987,-24
1601464703.5007,-21
1601464703.5026,0
1601464703.5046,9
1601464703.5066,-4
1601464703.5086,2
1601464703.5106,26
1601464703.5126,31
1601464703.5146,28
1601464703.5152,31
1601464703.5166,24
1601464703.5186,19
1601464703.5206,26
1601464703.5226,26
1601464703.5246,21
1601464703.5266,12
1601464703.5286,-12
1601464703.5306,-48
1601464703.5326,-62
1601464703.5346,-55
1601464703.5366,-69
1601464703.5386,-115
1601464703.5406,-144
1601464703.5426,-142
1601464703.5446,-139
1601464703.5452,-134
1601464703.5466,-130
1601464703.5486,-134
1601464703.5507,-125
1601464703.5526,-110
1601464703.5546,-108
1601464703.5566,-113
1601464703.5586,-105
1601464703.5607,-101
1601464703.5626,-105
1601464703.5646,-105
1601464703.5667,-96
1601464703.5686,-79
1601464703.5706,-69
1601464703.5726,-74
1601464703.5746,-84
1601464703.5752,-86
1601464703.5766,-86
1601464703.5786,-86
1601464703.5806,-77
1601464703.5826,-72
1601464703.5846,-81
1601464703.5866,-81
1601464703.5886,-72
1601464703.5906,-79
1601464703.5926,-89
1601464703.5946,-86
1601464703.5966,-86
1601464703.5986,-89
1601464703.6006,-81
1601464703.6026,-81
1601464703.6046,-81
1601464703.6052,-77
1601464703.6066,-74
1601464703.6086,-74
1601464704.0767,-74
1601464704.0773,-79
1601464704.0796,-81
1601464704.0823,-89
1601464704.0843,-96
1601464704.0863,-96
1601464704.0869,-96
1601464704.0883,-86
1601464704.0904,-77
1601464704.0924,-86
1601464704.0943,-86
1601464704.0963,-69
1601464704.0983,-65
1601464704.1004,-77
1601464704.1023,-84
1601464704.1043,-96
1601464704.1063,-91
1601464704.1083,-72
1601464704.1103,-81
1601464704.1123,-79
1601464704.1143,-40
1601464704.1163,-26
1601464704.1169,-55
1601464704.1183,-69
1601464704.1204,-65
1601464704.1223,-79
1601464704.1243,-89
1601464704.1263,-77
1601464704.1283,-79
1601464704.1303,-89
1601464704.1323,-84
1601464704.1343,-74
1601464704.1363,-67
1601464704.1383,-69
1601464704.1403,-77
1601464704.1423,-62
1601464704.1443,91
1601464704.1463,421
1601464704.1470,529
1601464704.1483,-65
1601464704.1503,-739
1601464704.1523,-554
1601464704.1544,-105
1601464704.1564,-108
1601464704.1583,-130
1601464704.1603,-14
1601464704.1623,-21
1601464704.1643,-77
1601464704.1663,-50
1601464704.1683,-21
1601464704.1703,-36
1601464704.1723,-36
1601464704.1743,-14
1601464704.1763,-19
1601464704.1769,-31
1601464704.1783,-26
1601464704.1802,-31
1601464704.1823,-55
1601464704.1843,-38
1601464704.1863,12
1601464704.1883,26
1601464704.1903,14
1601464704.1923,9
1601464704.1943,2
1601464704.1963,2
1601464704.1983,14
1601464704.2003,26
1601464704.2023,31
1601464704.2044,33
1601464704.2064,40
1601464704.2069,57
1601464704.2083,60
1601464704.2103,57
1601464704.6468,60
1601464704.6477,45
1601464704.6488,24
1601464704.6507,19
1601464704.6527,14
1601464704.6546,-7
1601464704.6553,-24
1601464704.6567,-48
1601464704.6587,-67
1601464704.6607,-77
1601464704.6626,-93
1601464704.6647,-105
1601464704.6667,-108
1601464704.6686,-120
1601464704.6707,-127
1601464704.6727,-120
1601464704.6747,-113
1601464704.6766,-105
1601464704.6787,-103
1601464704.6807,-101
1601464704.6827,-93
1601464704.6846,-93
1601464704.6852,-98
1601464704.6866,-91
1601464704.6887,-93
1601464704.6907,-98
1601464704.6926,-81
1601464704.6947,-77
1601464704.6967,-79
1601464704.6987,-69
1601464704.7007,-65
1601464704.7026,-67
1601464704.7046,-57
1601464704.7066,-60
1601464704.7086,-69
1601464704.7106,-57
1601464704.7128,-60
1601464704.7146,-72
1601464704.7152,-67
1601464704.7166,-67
1601464704.7186,-72
1601464704.7207,-72
1601464704.7226,-69
1601464704.7247,-69
1601464704.7266,-74
1601464704.7286,-69
1601464704.7307,-60
1601464704.7327,-74
1601464704.7346,-96
1601464704.7366,-91
1601464704.7386,-79
1601464704.7407,-84
1601464704.7426,-84
1601464704.7446,-65
1601464704.7452,-55
1601464704.7466,-57
1601464704.7486,-57
1601464704.7506,-69
1601464704.7526,-89
1601464704.7546,-91
1601464704.7567,-74
1601464704.7586,-55
1601464704.7607,-45
1601464704.7626,-38
1601464704.7646,-21
1601464704.7666,0
1601464704.7687,-9
1601464704.7706,-33
1601464704.7726,-28
1601464704.7747,-19
1601464704.7752,-45
1601464704.7766,-74
1601464704.7786,-72
1601464705.1863,-67
1601464705.1870,-65
1601464705.1893,-38
1601464705.1920,-31
1601464705.1940,-36
1601464705.1960,-9
1601464705.1981,0
1601464705.2001,16
1601464705.2005,197
1601464705.2020,496
1601464705.2040,467
1601464705.2060,-185
1601464705.2080,-693
1601464705.2101,-411
1601464705.2120,-79
1601464705.2140,-103
1601464705.2160,-62
1601464705.2179,12
1601464705.2200,-14
1601464705.2220,2
1601464705.2240,28
1601464705.2259,-9
1601464705.2279,-21
1601464705.2300,7
1601464705.2306,2
1601464705.2319,-16
1601464705.2340,-4
1601464705.2360,16
1601464705.2379,21
1601464705.2400,7
1601464705.2420,-9
1601464705.2440,4
1601464705.2459,26
1601464705.2480,24
1601464705.2500,31
1601464705.2520,55
1601464705.2540,57
1601464705.2559,50
1601464705.2580,69
1601464705.2601,86
1601464705.2605,84
1601464705.2619,93
1601464705.2640,108
1601464705.2660,98
1601464705.2679,84
1601464705.2700,86
1601464705.2719,79
1601464705.2740,55
1601464705.2760,33
1601464705.2779,19
1601464705.2800,4
1601464705.2820,-9
1601464705.2840,-24
1601464705.2860,-40
1601464705.2879,-57
1601464705.2900,-60
1601464705.2905,-52
1601464705.2920,-60
1601464705.2939,-79
1601464705.2960,-84
1601464705.2979,-77
1601464705.3001,-74
1601464705.3020,-69
1601464705.3040,-50
1601464705.3059,-38
1601464705.3080,-36
1601464705.3100,-43
1601464705.3120,-55
1601464705.3140,-55
1601464705.3160,-52
1601464705.3180,-65
1601464705.3186,-69
1601464705.3200,-74
1601464705.7566,-77
1601464705.7572,-50
1601464705.7588,-28
1601464705.7609,-45
1601464705.7629,-50
1601464705.7649,-16
1601464705.7654,-9
1601464705.7668,-65
1601464705.7688,-81
1601464705.7709,-48
1601464705.7729,-55
1601464705.7748,-74
1601464705.7768,-67
1601464705.7788,-89
1601464705.7808,-115
1601464705.7828,-108
1601464705.7848,-74
1601464705.7868,-69
1601464705.7888,-118
1601464705.7908,-137
1601464705.7928,-79
1601464705.7948,-33
1601464705.7954,-55
1601464705.7968,-67
1601464705.7988,-72
1601464705.8009,-89
1601464705.8028,-79
1601464705.8048,-69
1601464705.8068,-81
1601464705.8088,-74
1601464705.8108,-89
1601464705.8128,-96
1601464705.8148,-57
1601464705.8168,-67
1601464705.8188,-86
1601464705.8208,-52
1601464705.8228,-60
1601464705.8248,-103
1601464705.8254,-84
1601464705.8268,-14
1601464705.8288,4
1601464705.8308,-50
1601464705.8328,-62
1601464705.8348,-40
1601464705.8368,-57
1601464705.8388,-74
1601464705.8409,-55
1601464705.8428,9
1601464705.8448,122
1601464705.8468,231
1601464705.8488,327
1601464705.8508,496
1601464705.8528,693
1601464705.8548,840
1601464705.8554,1014
1601464705.8568,1194
1601464705.8588,1365
1601464705.8608,1529
1601464705.8628,1303
1601464705.8648,561
1601464705.8668,161
1601464705.8688,440
1601464705.8708,602
1601464705.8728,484
1601464705.8748,472
1601464705.8768,464
1601464705.8788,375
1601464705.8808,334
1601464705.8828,310
1601464705.8848,245
1601464705.8854,211
1601464705.8868,211
1601464705.8888,187
1601464706.2962,149
1601464706.2968,130
1601464706.2986,122
1601464706.3006,120
1601464706.3026,118
1601464706.3046,115
1601464706.3066,108
1601464706.3086,108
1601464706.3092,108
1601464706.3107,101
1601464706.3125,98
1601464706.3146,98
1601464706.3166,98
1601464706.3185,113
1601464706.3206,134
1601464706.3226,134
1601464706.3246,115
1601464706.3266,122
1601464706.3286,137
1601464706.3306,125
1601464706.3326,115
1601464706.3345,120
1601464706.3367,110
1601464706.3386,89
1601464706.3392,74
1601464706.3406,57
1601464706.3426,28
1601464706.3446,9
1601464706.3465,-7
1601464706.3486,-33
1601464706.3506,-52
1601464706.3526,-60
1601464706.3546,-55
1601464706.3565,-48
1601464706.3585,-45
1601464706.3606,-52
1601464706.3626,-55
1601464706.3646,-48
1601464706.3666,-43
1601464706.3685,-43
1601464706.3691,-45
1601464706.3705,-43
1601464706.3726,-40
1601464706.3746,-38
1601464706.3765,-33
1601464706.3786,-24
1601464706.3806,-4
1601464706.3825,4
1601464706.3846,-16
1601464706.3866,-40
1601464706.3885,-40
1601464706.3906,-38
1601464706.3926,-28
1601464706.3946,-12
1601464706.3965,-21
1601464706.3986,-38
1601464706.3991,-26
1601464706.4006,-24
1601464706.4025,-45
1601464706.4045,-50
1601464706.4066,-40
1601464706.4086,-40
1601464706.4106,-38
1601464706.4126,-38
1601464706.4146,-43
1601464706.4165,-38
1601464706.4186,-31
1601464706.4206,-36
1601464706.4226,-40
1601464706.4246,-36
1601464706.4266,-33
1601464706.4285,-40
1601464706.4291,-43
1601464706.8662,-38
1601464706.8668,-43
1601464706.8679,-50
1601464706.8701,-50
1601464706.8720,-48
1601464706.8740,-52
1601464706.8760,-65
1601464706.8766,-60
1601464706.8780,-45
1601464706.8800,-43
1601464706.8820,-43
1601464706.8839,-26
1601464706.8860,-24
1601464706.8880,-52
1601464706.8900,-72
1601464706.8920,-55
1601464706.8940,-62
1601464706.8960,-103
1601464706.8980,-118
1601464706.9000,-110
1601464706.9019,-110
1601464706.9039,-118
1601464706.9060,-125
1601464706.9065,-132
1601464706.9079,-132
1601464706.9100,-137
1601464706.9119,-118
1601464706.9139,52
1601464706.9159,361
1601464706.9179,375
1601464706.9200,-272
1601464706.9219,-872
1601464706.9239,-638
1601464706.9259,-252
1601464706.9279,-272
1601464706.9300,-262
1601464706.9320,-163
1601464706.9339,-185
1601464706.9359,-209
1601464706.9365,-173
1601464706.9379,-180
1601464706.9399,-197
1601464706.9419,-173
1601464706.9439,-156
1601464706.9459,-158
1601464706.9479,-149
1601464706.9500,-146
1601464706.9519,-161
1601464706.9539,-166
1601464706.9559,-151
1601464706.9579,-132
1601464706.9600,-120
1601464706.9619,-118
1601464706.9639,-113
1601464706.9659,-101
1601464706.9665,-86
1601464706.9679,-79
1601464706.9699,-67
1601464706.9719,-50
1601464706.9739,-40
1601464706.9759,-40
1601464706.9779,-36
1601464706.9799,-21
1601464706.9819,-24
1601464706.9839,-40
1601464706.9859,-43
1601464706.9879,-40
1601464706.9900,-48
1601464706.9919,-60
1601464706.9939,-77
1601464706.9959,-96
1601464706.9966,-113
1601464706.9979,-127
1601464707.4662,-137
1601464707.4668,-139
1601464707.4686,-142
1601464707.4706,-151
1601464707.4726,-163
1601464707.4746,-158
1601464707.4766,-151
1601464707.4786,-158
1601464707.4792,-166
1601464707.4807,-163
1601464707.4826,-151
1601464707.4846,-139
1601464707.4866,-132
1601464707.4885,-127
1601464707.4906,-125
1601464707.4925,-118
1601464707.4946,-118
1601464707.4966,-120
1601464707.4985,-113
1601464707.5006,-105
1601464707.5026,-118
1601464707.5046,-125
1601464707.5065,-113
1601464707.5085,-110
1601464707.5091,-115
1601464707.5106,-110
1601464707.5125,-108
1601464707.5146,-115
1601464707.5165,-113
1601464707.5186,-105
1601464707.5206,-103
1601464707.5225,-105
1601464707.5245,-105
1601464707.5265,-98
1601464707.5286,-98
1601464707.5306,-96
1601464707.5325,-91
1601464707.5345,-93
1601464707.5365,-93
1601464707.5386,-91
1601464707.5392,-84
1601464707.5406,-79
1601464707.5426,-79
1601464707.5445,-86
1601464707.5465,-91
1601464707.5486,-86
1601464707.5506,-77
1601464707.5527,-67
1601464707.5546,-45
1601464707.5566,-43
1601464707.5585,-65
1601464707.5606,-62
1601464707.5626,-45
1601464707.5646,-50
1601464707.5665,-62
1601464707.5686,-67
1601464707.5691,-69
1601464707.5705,-74
1601464707.5725,-69
1601464707.5745,-57
1601464707.5766,-55
1601464707.5785,-55
1601464707.5806,-52
1601464707.5825,-48
1601464707.5845,16
1601464707.5865,260
1601464707.5885,525
1601464707.5906,298
1601464707.5925,-414
1601464707.5945,-679
1601464707.5965,-260
1601464707.5985,-28
1601464707.5992,-103
1601464708.0066,-52
1601464708.0072,4
1601464708.0086,-43
1601464708.0108,-45
1601464708.0126,-16
1601464708.0146,-26
1601464708.0166,-31
1601464708.0186,-21
1601464708.0192,-21
1601464708.0205,-19
1601464708.0226,-9
1601464708.0245,-14
1601464708.0265,-26
1601464708.0285,-24
1601464708.0306,-9
1601464708.0325,-7
1601464708.0346,-9
1601464708.0365,2
1601464708.0385,19
1601464708.0406,24
1601464708.0425,26
1601464708.0445,43
1601464708.0458,57
1601464708.0464,52
1601464708.0486,55
1601464708.0506,69
1601464708.0526,77
1601464708.0545,77
1601464708.0565,81
1601464708.0586,74
1601464708.0606,67
1601464708.0626,57
1601464708.0646,40
1601464708.0665,16
1601464708.0685,-4
1601464708.0706,-21
1601464708.0725,-33
1601464708.0746,-50
1601464708.0766,-69
1601464708.0771,-77
1601464708.0785,-72
1601464708.0806,-67
1601464708.0826,-67
1601464708.0846,-69
1601464708.0865,-72
1601464708.0885,-72
1601464708.0906,-72
1601464708.0925,-69
1601464708.0946,-65
1601464708.0965,-65
1601464708.0985,-60
1601464708.1006,-48
1601464708.1025,-43
1601464708.1046,-45
1601464708.1065,-48
1601464708.1072,-45
1601464708.1085,-38
1601464708.1106,-33
1601464708.1126,-36
1601464708.1146,-38
1601464708.1166,-33
1601464708.1186,-36
1601464708.1205,-40
1601464708.1225,-48
1601464708.1246,-50
1601464708.1265,-50
1601464708.1286,-52
1601464708.1306,-57
1601464708.1326,-62
1601464708.1346,-67
1601464708.1365,-67
1601464708.1371,-62
1601464708.1386,-60
1601464708.5466,-60
1601464708.5472,-65
1601464708.5496,-62
1601464708.5522,-50
1601464708.5542,-55
1601464708.5562,-62
1601464708.5583,-57
1601464708.5602,-52
1601464708.5623,-50
1601464708.5629,-55
1601464708.5642,-60
1601464708.5662,-57
1601464708.5682,-62
1601464708.5702,-69
1601464708.5722,-50
1601464708.5742,-19
1601464708.5762,-16
1601464708.5782,-33
1601464708.5803,-33
1601464708.5822,-28
1601464708.5842,-36
1601464708.5862,-45
1601464708.5882,-50
1601464708.5903,-50
1601464708.5922,-48
1601464708.5929,-50
1601464708.5942,-52
1601464708.5962,-40
1601464708.5982,-33
1601464708.6002,-31
1601464708.6022,-24
1601464708.6043,45
1601464708.6056,255
1601464708.6072,486
1601464708.6092,289
1601464708.6112,-373
1601464708.6133,-633
1601464708.6152,-250
1601464708.6172,-26
1601464708.6193,-77
1601464708.6212,-26
1601464708.6219,21
1601464708.6232,-24
1601464708.6252,-19
1601464708.6272,16
1601464708.6292,4
1601464708.6312,-12
1601464708.6332,2
1601464708.6352,9
1601464708.6372,4
1601464708.6392,4
1601464708.6413,9
1601464708.6432,7
1601464708.6452,12
1601464708.6472,24
1601464708.6492,28
1601464708.6512,31
1601464708.6518,38
1601464708.6532,38
1601464708.6552,36
1601464708.6572,38
1601464708.6592,50
1601464708.6612,60
1601464708.6632,55
1601464708.6652,55
1601464708.6672,67
1601464708.6692,74
1601464708.6712,77
1601464708.6732,81
1601464708.6752,72
1601464708.6772,60
1601464708.6792,52
1601464708.6813,38
1601464709.1462,16
1601464709.1468,2
1601464709.1479,-9
1601464709.1499,-26
1601464709.1519,-43
1601464709.1539,-57
1601464709.1559,-77
1601464709.1579,-91
1601464709.1599,-86
1601464709.1605,-79
1601464709.1619,-93
1601464709.1639,-96
1601464709.1658,-77
1601464709.1679,-72
1601464709.1700,-79
1601464709.1719,-77
1601464709.1739,-72
1601464709.1759,-79
1601464709.1778,-77
1601464709.1799,-67
1601464709.1818,-62
1601464709.1839,-65
1601464709.1859,-69
1601464709.1879,-69
1601464709.1899,-69
1601464709.1904,-60
1601464709.1918,-50
1601464709.1938,-52
1601464709.1958,-65
1601464709.1978,-62
1601464709.1999,-60
1601464709.2018,-67
1601464709.2038,-69
1601464709.2058,-67
1601464709.2078,-74
1601464709.2098,-77
1601464709.2118,-79
1601464709.2139,-81
1601464709.2158,-79
1601464709.2179,-77
1601464709.2198,-79
1601464709.2204,-81
1601464709.2218,-86
1601464709.2238,-81
1601464709.2258,-77
1601464709.2278,-77
1601464709.2299,-74
1601464709.2318,-72
1601464709.2338,-74
1601464709.2358,-79
1601464709.2378,-77
1601464709.2398,-77
1601464709.2419,-81
1601464709.2438,-86
1601464709.2458,-84
1601464709.2478,-84
1601464709.2499,-79
1601464709.2504,-77
1601464709.2518,-69
1601464709.2539,-52
1601464709.2558,-52
1601464709.2579,-62
1601464709.2599,-67
1601464709.2618,-74
1601464709.2638,-74
1601464709.2658,-79
1601464709.2678,-89
1601464709.2698,-81
1601464709.2718,-74
1601464709.2738,-79
1601464709.2758,-79
1601464709.2778,-69
1601464709.2799,-67
1601464709.6564,-72
1601464709.6569,-31
1601464709.6583,161
1601464709.6603,467
1601464709.6623,460
1601464709.6643,-185
1601464709.6663,-734
1601464709.6683,-467
1601464709.6703,-89
1601464709.6709,-115
1601464709.6723,-115
1601464709.6743,-40
1601464709.6763,-69
1601464709.6783,-79
1601464709.6803,-43
1601464709.6822,-50
1601464709.6843,-60
1601464709.6863,-50
1601464709.6882,-45
1601464709.6903,-43
1601464709.6923,-36
1601464709.6943,-31
1601464709.6962,-26
1601464709.6983,-31
1601464709.7003,-33
1601464709.7008,-28
1601464709.7023,-19
1601464709.7043,-14
1601464709.7062,-4
1601464709.7083,7
1601464709.7103,9
1601464709.7122,12
1601464709.7143,26
1601464709.7162,33
1601464709.7183,24
1601464709.7203,28
1601464709.7223,45
1601464709.7243,50
1601464709.7262,50
1601464709.7283,45
1601464709.7303,31
1601464709.7309,21
1601464709.7322,14
1601464709.7342,-2
1601464709.7363,-14
1601464709.7383,-26
1601464709.7403,-55
1601464709.7422,-81
1601464709.7443,-86
1601464709.7463,-84
1601464709.7482,-93
1601464709.7503,-96
1601464709.7522,-89
1601464709.7542,-98
1601464709.7562,-115
1601464709.7583,-108
1601464709.7603,-91
1601464709.7608,-84
1601464709.7622,-77
1601464709.7643,-65
1601464709.7662,-60
1601464709.7682,-57
1601464709.7702,-50
1601464709.7723,-52
1601464709.7743,-67
1601464709.7763,-69
1601464709.7783,-57
1601464709.7803,-48
1601464709.7823,-48
1601464709.7843,-45
