Time,ECG
1604668920.8745,70
1604668920.8750,248
1604668920.8774,956
1604668920.8801,1739
1604668920.8820,2236
1604668920.8840,2754
1604668920.8861,3306
1604668920.8881,3752
1604668920.8901,4226
1604668920.8921,4669
1604668920.8941,5036
1604668920.8960,5462
1604668920.8980,5834
1604668920.9000,6085
1604668920.9021,6384
1604668920.9041,6759
1604668920.9060,7105
1604668920.9080,7338
1604668920.9101,7538
1604668920.9120,7837
1604668920.9141,8107
1604668920.9160,8282
1604668920.9181,8475
1604668920.9200,8667
1604668920.9221,8861
1604668920.9240,9039
1604668920.9260,9141
1604668920.9281,9273
1604668920.9301,9543
1604668920.9321,9747
1604668920.9340,9789
1604668920.9361,9883
1604668920.9381,10010
1604668920.9400,10032
1604668920.9421,10175
1604668920.9440,10416
1604668920.9461,10448
1604668920.9480,10433
1604668920.9502,10565
1604668920.9520,10633
1604668920.9540,10601
1604668920.9561,10635
1604668920.9581,10713
1604668920.9601,10745
1604668920.9621,10764
1604668920.9640,10811
1604668920.9661,10842
1604668920.9681,10845
1604668920.9700,10837
1604668920.9721,10874
1604668920.9746,11068
1604668920.9761,11392
1604668920.9780,11713
1604668920.9800,11823
1604668920.9821,11390
1604668920.9840,10699
1604668920.9860,10460
1604668920.9880,10628
1604668920.9900,10713
1604668920.9921,10686
1604668920.9941,10657
1604668920.9960,10647
1604668920.9980,10628
1604668921.0001,10582
1604668921.0020,10589
1604668921.0040,10557
1604668921.0060,10426
1604668921.0080,10368
1604668921.0100,10402
1604668921.0120,10397
1604668921.0140,10321
1604668921.0160,10261
1604668921.0181,10236
1604668921.3834,10183
1604668921.3838,10115
1604668921.3862,10078
1604668921.3888,10000
1604668921.3908,9942
1604668921.3928,9978
1604668921.3949,9915
1604668921.3968,9772
1604668921.3988,9735
1604668921.4009,9679
1604668921.4028,9497
1604668921.4048,9380
1604668921.4068,9360
1604668921.4088,9278
1604668921.4108,9139
1604668921.4128,8986
1604668921.4148,8869
1604668921.4169,8859
1604668921.4189,8837
1604668921.4208,8711
1604668921.4228,8630
1604668921.4248,8591
1604668921.4268,8482
1604668921.4289,8382
1604668921.4309,8324
1604668921.4329,8236
1604668921.4349,8161
1604668921.4368,8119
1604668921.4389,8044
1604668921.4409,7983
1604668921.4428,7966
1604668921.4448,7866
1604668921.4469,7732
1604668921.4488,7693
1604668921.4508,7645
1604668921.4528,7511
1604668921.4549,7419
1604668921.4568,7384
1604668921.4588,7338
1604668921.4609,7280
1604668921.4628,7195
1604668921.4648,7107
1604668921.4668,7039
1604668921.4688,6929
1604668921.4708,6866
1604668921.4728,6878
1604668921.4748,6803
1604668921.4769,6642
1604668921.4789,6540
1604668921.4808,6479
1604668921.4829,6404
1604668921.4848,6343
1604668921.4868,6302
1604668921.4888,6229
1604668921.4908,6105
1604668921.4928,6041
1604668921.4948,6175
1604668921.4969,6448
1604668921.4989,6771
1604668921.5008,6908
1604668921.5028,6375
1604668921.5049,5423
1604668921.5069,5080
1604668921.5088,5348
1604668921.5109,5431
1604668921.5129,5345
1604668921.5149,5323
1604668921.5168,5250
1604668921.5189,5165
1604668921.5209,5151
1604668921.5228,5119
1604668921.5248,5019
1604668921.5268,4985
1604668921.9538,5017
1604668921.9542,4927
1604668921.9566,4813
1604668921.9592,4786
1604668921.9612,4757
1604668921.9632,4744
1604668921.9653,4722
1604668921.9672,4659
1604668921.9692,4576
1604668921.9712,4494
1604668921.9732,4482
1604668921.9752,4486
1604668921.9773,4421
1604668921.9792,4350
1604668921.9812,4338
1604668921.9832,4253
1604668921.9852,4117
1604668921.9873,4073
1604668921.9892,4034
1604668921.9912,3907
1604668921.9932,3803
1604668921.9952,3805
1604668921.9972,3764
1604668921.9992,3637
1604668922.0014,3610
1604668922.0032,3584
1604668922.0052,3489
1604668922.0072,3484
1604668922.0092,3494
1604668922.0112,3394
1604668922.0132,3311
1604668922.0152,3348
1604668922.0172,3340
1604668922.0192,3209
1604668922.0212,3194
1604668922.0232,3253
1604668922.0253,3151
1604668922.0272,3073
1604668922.0292,3104
1604668922.0312,3056
1604668922.0332,3002
1604668922.0352,2985
1604668922.0373,2934
1604668922.0392,2885
1604668922.0411,2863
1604668922.0432,2854
1604668922.0452,2834
1604668922.0473,2800
1604668922.0492,2766
1604668922.0512,2727
1604668922.0531,2676
1604668922.0554,2618
1604668922.0572,2593
1604668922.0592,2588
1604668922.0612,2513
1604668922.0632,2438
1604668922.0652,2455
1604668922.0673,2443
1604668922.0692,2370
1604668922.0711,2309
1604668922.0732,2311
1604668922.0752,2455
1604668922.0772,2696
1604668922.0792,3031
1604668922.0811,3314
1604668922.0832,2995
1604668922.0907,2087
1604668922.0922,1564
1604668922.0942,1786
1604668922.0962,2009
1604668922.0982,1953
1604668922.1002,1944
1604668922.1022,1992
1604668922.4939,1946
1604668922.4944,1868
1604668922.4968,1888
1604668922.4994,1883
1604668922.5014,1812
1604668922.5034,1834
1604668922.5055,1885
1604668922.5075,1854
1604668922.5093,1837
1604668922.5114,1810
1604668922.5134,1751
1604668922.5154,1761
1604668922.5174,1771
1604668922.5194,1742
1604668922.5213,1730
1604668922.5234,1761
1604668922.5254,1803
1604668922.5273,1778
1604668922.5294,1742
1604668922.5314,1725
1604668922.5334,1652
1604668922.5353,1574
1604668922.5374,1532
1604668922.5394,1484
1604668922.5414,1469
1604668922.5434,1438
1604668922.5454,1338
1604668922.5474,1326
1604668922.5494,1394
1604668922.5514,1357
1604668922.5534,1257
1604668922.5554,1279
1604668922.5574,1326
1604668922.5594,1279
1604668922.5614,1240
1604668922.5635,1219
1604668922.5654,1189
1604668922.5674,1172
1604668922.5693,1143
1604668922.5714,1158
1604668922.5733,1226
1604668922.5753,1233
1604668922.5774,1170
1604668922.5794,1126
1604668922.5814,1131
1604668922.5834,1129
1604668922.5854,1058
1604668922.5874,1014
1604668922.5894,1114
1604668922.5914,1158
1604668922.5934,1051
1604668922.5953,1056
1604668922.5974,1121
1604668922.5994,1043
1604668922.6014,970
1604668922.6034,992
1604668922.6054,1004
1604668922.6074,1039
1604668922.6093,1063
1604668922.6114,963
1604668922.6133,875
1604668922.6154,931
1604668922.6174,963
1604668922.6194,878
1604668922.6214,851
1604668922.6234,919
1604668922.6254,927
1604668922.6274,919
1604668922.6294,1102
1604668922.6314,1498
1604668922.6334,1839
1604668922.6353,1693
1604668922.6373,970
1604668923.0642,382
1604668923.0646,464
1604668923.0670,712
1604668923.0696,703
1604668923.0716,654
1604668923.0736,683
1604668923.0757,654
1604668923.0777,603
1604668923.0796,708
1604668923.0816,771
1604668923.0836,654
1604668923.0856,635
1604668923.0876,700
1604668923.0898,656
1604668923.0917,625
1604668923.0936,715
1604668923.0956,773
1604668923.0976,749
1604668923.0996,732
1604668923.1016,749
1604668923.1036,783
1604668923.1055,773
1604668923.1076,737
1604668923.1096,766
1604668923.1116,800
1604668923.1136,766
1604668923.1156,737
1604668923.1176,737
1604668923.1196,700
1604668923.1216,627
1604668923.1237,581
1604668923.1256,593
1604668923.1276,598
1604668923.1296,540
1604668923.1316,491
1604668923.1336,530
1604668923.1356,530
1604668923.1376,452
1604668923.1396,464
1604668923.1416,520
1604668923.1436,518
1604668923.1456,523
1604668923.1476,530
1604668923.1496,498
1604668923.1516,464
1604668923.1537,433
1604668923.1556,440
1604668923.1576,513
1604668923.1596,554
1604668923.1616,510
1604668923.1636,506
1604668923.1656,566
1604668923.1676,542
1604668923.1696,479
1604668923.1716,476
1604668923.1736,447
1604668923.1756,411
1604668923.1776,472
1604668923.1796,547
1604668923.1816,542
1604668923.1837,501
1604668923.1856,472
1604668923.1876,433
1604668923.1896,413
1604668923.1917,420
1604668923.1937,428
1604668923.1956,489
1604668923.1976,549
1604668923.1996,479
1604668923.2016,386
1604668923.2036,435
1604668923.2056,484
1604668923.2076,423
1604668923.6038,360
1604668923.6042,357
1604668923.6067,372
1604668923.6093,372
1604668923.6111,394
1604668923.6132,420
1604668923.6153,345
1604668923.6173,289
1604668923.6192,467
1604668923.6213,798
1604668923.6233,1124
1604668923.6253,1343
1604668923.6273,1077
1604668923.6292,291
1604668923.6313,-150
1604668923.6333,55
1604668923.6353,274
1604668923.6372,318
1604668923.6393,299
1604668923.6413,233
1604668923.6432,272
1604668923.6452,340
1604668923.6473,272
1604668923.6493,226
1604668923.6513,328
1604668923.6532,372
1604668923.6553,291
1604668923.6573,287
1604668923.6592,311
1604668923.6619,294
1604668923.6633,318
1604668923.6652,347
1604668923.6673,335
1604668923.6693,311
1604668923.6712,328
1604668923.6733,401
1604668923.6753,430
1604668923.6773,391
1604668923.6792,374
1604668923.6812,367
1604668923.6833,311
1604668923.6853,257
1604668923.6874,255
1604668923.6893,238
1604668923.6913,194
1604668923.6933,189
1604668923.6953,187
1604668923.6972,167
1604668923.6993,197
1604668923.7013,170
1604668923.7033,82
1604668923.7052,77
1604668923.7073,111
1604668923.7093,82
1604668923.7113,48
1604668923.7132,107
1604668923.7153,192
1604668923.7173,143
1604668923.7192,72
1604668923.7212,109
1604668923.7233,131
1604668923.7253,102
1604668923.7272,94
1604668923.7292,87
1604668923.7313,99
1604668923.7333,158
1604668923.7353,136
1604668923.7372,99
1604668923.7393,175
1604668923.7413,184
1604668923.7433,94
1604668923.7453,43
1604668923.7473,38
1604668924.2037,109
1604668924.2041,216
1604668924.2065,194
1604668924.2092,99
1604668924.2112,82
1604668924.2131,124
1604668924.2152,126
1604668924.2172,55
1604668924.2192,43
1604668924.2212,172
1604668924.2232,231
1604668924.2251,138
1604668924.2271,107
1604668924.2292,143
1604668924.2311,124
1604668924.2332,124
1604668924.2352,153
1604668924.2372,102
1604668924.2392,51
1604668924.2412,41
1604668924.2433,-19
1604668924.2452,4
1604668924.2472,136
1604668924.2492,145
1604668924.2511,90
1604668924.2532,233
1604668924.2551,615
1604668924.2572,1019
1604668924.2592,1112
1604668924.2612,569
1604668924.2632,-231
1604668924.2652,-423
1604668924.2671,-75
1604668924.2691,63
1604668924.2712,-51
1604668924.2732,-55
1604668924.2752,-24
1604668924.2771,-60
1604668924.2792,-58
1604668924.2812,-51
1604668924.2832,-104
1604668924.2851,-72
1604668924.2872,31
1604668924.2891,26
1604668924.2911,-17
1604668924.2931,36
1604668924.2952,58
1604668924.2972,34
1604668924.2991,65
1604668924.3012,68
1604668924.3032,77
1604668924.3052,143
1604668924.3071,119
1604668924.3092,43
1604668924.3111,85
1604668924.3131,160
1604668924.3152,116
1604668924.3172,72
1604668924.3192,121
1604668924.3211,136
1604668924.3232,60
1604668924.3252,21
1604668924.3272,58
1604668924.3292,51
1604668924.3311,-7
1604668924.3332,-43
1604668924.3352,-60
1604668924.3372,-36
1604668924.3392,-4
1604668924.3411,-34
1604668924.3431,-43
1604668924.3453,0
1604668924.3473,48
1604668924.8038,63
1604668924.8042,31
1604668924.8066,0
1604668924.8092,-14
1604668924.8112,9
1604668924.8133,53
1604668924.8153,19
1604668924.8172,-17
1604668924.8193,43
1604668924.8212,31
1604668924.8232,-43
1604668924.8252,17
1604668924.8272,87
1604668924.8292,26
1604668924.8313,19
1604668924.8332,77
1604668924.8353,63
1604668924.8372,-2
1604668924.8392,-9
1604668924.8412,55
1604668924.8433,48
1604668924.8452,-34
1604668924.8472,-7
1604668924.8492,46
1604668924.8513,19
1604668924.8532,60
1604668924.8552,119
1604668924.8573,99
1604668924.8593,58
1604668924.8612,9
1604668924.8633,-12
1604668924.8652,17
1604668924.8673,43
1604668924.8692,19
1604668924.8712,-38
1604668924.8732,-24
1604668924.8753,12
1604668924.8772,9
1604668924.8793,51
1604668924.8813,58
1604668924.8832,121
1604668924.8853,445
1604668924.8872,883
1604668924.8893,1031
1604668924.8912,513
1604668924.8933,-218
1604668924.8952,-321
1604668924.8972,-48
1604668924.8993,-55
1604668924.9014,-155
1604668924.9033,-51
1604668924.9053,24
1604668924.9072,-19
1604668924.9092,-38
1604668924.9113,-24
1604668924.9133,12
1604668924.9152,21
1604668924.9172,-26
1604668924.9192,-29
1604668924.9212,38
1604668924.9233,75
1604668924.9252,48
1604668924.9272,29
1604668924.9292,75
1604668924.9313,102
1604668924.9332,82
1604668924.9352,114
1604668924.9372,148
1604668924.9392,124
1604668924.9412,114
1604668924.9432,141
1604668924.9452,141
1604668924.9473,82
1604668925.3448,82
1604668925.3452,136
1604668925.3477,97
1604668925.3502,21
1604668925.3522,2
1604668925.3543,17
1604668925.3563,31
1604668925.3582,4
1604668925.3602,-55
1604668925.3622,-26
1604668925.3642,46
1604668925.3663,19
1604668925.3682,-7
1604668925.3702,17
1604668925.3723,-2
1604668925.3742,-24
1604668925.3762,-9
1604668925.3782,-17
1604668925.3802,-55
1604668925.3823,-21
1604668925.3842,82
1604668925.3862,77
1604668925.3882,7
1604668925.3902,29
1604668925.3923,51
1604668925.3942,-31
1604668925.3962,-55
1604668925.3984,38
1604668925.4003,68
1604668925.4022,41
1604668925.4042,51
1604668925.4062,26
1604668925.4082,-9
1604668925.4089,4
1604668925.4102,0
1604668925.4122,7
1604668925.4142,60
1604668925.4162,63
1604668925.4182,24
1604668925.4202,41
1604668925.4222,87
1604668925.4242,77
1604668925.4262,55
1604668925.4282,63
1604668925.4302,31
1604668925.4322,-17
1604668925.4342,-7
1604668925.4362,14
1604668925.4382,14
1604668925.4389,17
1604668925.4402,31
1604668925.4422,2
1604668925.4443,-58
1604668925.4462,-43
1604668925.4482,24
1604668925.4502,199
1604668925.4522,571
1604668925.4542,900
1604668925.4562,895
1604668925.4582,413
1604668925.4602,-214
1604668925.4622,-335
1604668925.4642,-75
1604668925.4662,-17
1604668925.4669,-99
1604668925.4682,-63
1604668925.4702,-7
1604668925.4722,-26
1604668925.4742,-53
1604668925.4762,-26
1604668925.4782,34
1604668925.4802,51
1604668925.4822,19
1604668925.8539,-12
1604668925.8543,31
1604668925.8567,104
1604668925.8594,63
1604668925.8613,19
1604668925.8635,82
1604668925.8654,107
1604668925.8661,104
1604668925.8683,136
1604668925.8703,138
1604668925.8723,107
1604668925.8743,87
1604668925.8764,102
1604668925.8783,131
1604668925.8803,148
1604668925.8823,119
1604668925.8843,63
1604668925.8863,38
1604668925.8883,17
1604668925.8903,-14
1604668925.8923,-38
1604668925.8943,-48
1604668925.8963,2
1604668925.8970,19
1604668925.8983,-31
1604668925.9003,-29
1604668925.9023,-19
1604668925.9043,-53
1604668925.9063,-24
1604668925.9083,-7
1604668925.9103,-36
1604668925.9123,17
1604668925.9143,63
1604668925.9163,2
1604668925.9183,-17
1604668925.9203,19
1604668925.9223,-17
1604668925.9243,-19
1604668925.9263,55
1604668925.9270,51
1604668925.9283,2
1604668925.9303,-17
1604668925.9323,-7
1604668925.9342,58
1604668925.9363,82
1604668925.9383,17
1604668925.9403,-14
1604668925.9423,24
1604668925.9443,48
1604668925.9463,31
1604668925.9483,2
1604668925.9503,38
1604668925.9523,97
1604668925.9543,68
1604668925.9563,29
1604668925.9570,36
1604668925.9585,46
1604668925.9604,21
1604668925.9623,-14
1604668925.9643,0
1604668925.9663,34
1604668925.9683,14
1604668925.9703,-12
1604668925.9723,-2
1604668925.9743,4
1604668925.9763,19
1604668925.9783,38
1604668925.9803,51
1604668925.9823,233
1604668925.9842,642
1604668925.9863,1004
1604668925.9870,863
1604668925.9883,150
1604668926.4248,-355
1604668926.4252,-199
1604668926.4276,2
1604668926.4303,-72
1604668926.4323,-87
1604668926.4342,-17
1604668926.4363,-34
1604668926.4383,-46
1604668926.4403,9
1604668926.4423,-19
1604668926.4442,-72
1604668926.4450,4
1604668926.4473,70
1604668926.4492,29
1604668926.4512,31
1604668926.4532,58
1604668926.4553,43
1604668926.4573,55
1604668926.4593,85
1604668926.4613,87
1604668926.4633,97
1604668926.4653,124
1604668926.4672,133
1604668926.4692,160
1604668926.4713,184
1604668926.4733,143
1604668926.4752,116
1604668926.4759,116
1604668926.4772,72
1604668926.4793,58
1604668926.4813,82
1604668926.4833,53
1604668926.4854,-2
1604668926.4872,-19
1604668926.4894,4
1604668926.4913,36
1604668926.4932,14
1604668926.4953,-36
1604668926.4973,-21
1604668926.4992,2
1604668926.5013,-14
1604668926.5033,-7
1604668926.5039,-4
1604668926.5053,-12
1604668926.5073,26
1604668926.5092,58
1604668926.5112,14
1604668926.5133,-21
1604668926.5152,7
1604668926.5172,36
1604668926.5193,53
1604668926.5213,51
1604668926.5232,46
1604668926.5252,60
1604668926.5273,41
1604668926.5293,14
1604668926.5313,31
1604668926.5332,48
1604668926.5339,26
1604668926.5353,24
1604668926.5373,38
1604668926.5392,34
1604668926.5412,29
1604668926.5433,41
1604668926.5453,41
1604668926.5472,43
1604668926.5492,82
1604668926.5513,90
1604668926.5533,34
1604668926.5552,4
1604668926.5572,34
1604668926.5592,53
1604668926.5613,38
1604668926.9638,21
1604668926.9642,-2
1604668926.9666,7
1604668926.9693,46
1604668926.9713,24
1604668926.9733,4
1604668926.9753,65
1604668926.9772,187
1604668926.9793,442
1604668926.9813,863
1604668926.9833,1014
1604668926.9852,447
1604668926.9875,-240
1604668926.9893,-282
1604668926.9913,-51
1604668926.9932,-46
1604668926.9953,-53
1604668926.9973,-2
1604668926.9993,-26
1604668927.0013,-19
1604668927.0032,14
1604668927.0053,4
1604668927.0073,9
1604668927.0093,58
1604668927.0113,58
1604668927.0133,31
1604668927.0153,70
1604668927.0172,80
1604668927.0193,36
1604668927.0212,82
1604668927.0233,167
1604668927.0252,158
1604668927.0273,116
1604668927.0293,155
1604668927.0313,211
1604668927.0333,187
1604668927.0353,141
1604668927.0373,153
1604668927.0393,182
1604668927.0412,163
1604668927.0433,111
1604668927.0453,90
1604668927.0473,85
1604668927.0493,55
1604668927.0513,36
1604668927.0533,55
1604668927.0553,58
1604668927.0572,7
1604668927.0593,-17
1604668927.0612,2
1604668927.0632,-12
1604668927.0652,-21
1604668927.0672,-7
1604668927.0693,-31
1604668927.0713,-38
1604668927.0733,-4
1604668927.0752,0
1604668927.0773,-14
1604668927.0793,-19
1604668927.0812,-17
1604668927.0833,-2
1604668927.0853,14
1604668927.0873,12
1604668927.0894,0
1604668927.0913,-31
1604668927.0933,-68
1604668927.0952,-19
1604668927.0973,26
1604668927.0993,-19
1604668927.1013,-46
1604668927.1033,-43
1604668927.1052,-48
1604668927.1073,-19
1604668927.5641,-19
1604668927.5644,-65
1604668927.5669,-51
1604668927.5695,-19
1604668927.5715,-87
1604668927.5735,-124
1604668927.5755,-63
1604668927.5775,-55
1604668927.5795,-104
1604668927.5815,-128
1604668927.5835,-163
1604668927.5854,-165
1604668927.5875,-109
1604668927.5895,-109
1604668927.5915,-158
1604668927.5935,-155
1604668927.5955,-155
1604668927.5975,-145
1604668927.5995,-24
1604668927.6015,226
1604668927.6035,571
1604668927.6055,805
1604668927.6075,542
1604668927.6095,-148
1604668927.6115,-564
1604668927.6135,-391
1604668927.6155,-194
1604668927.6175,-262
1604668927.6195,-274
1604668927.6215,-206
1604668927.6235,-226
1604668927.6255,-262
1604668927.6275,-218
1604668927.6295,-189
1604668927.6315,-214
1604668927.6335,-221
1604668927.6355,-233
1604668927.6375,-216
1604668927.6395,-170
1604668927.6415,-158
1604668927.6435,-155
1604668927.6457,-170
1604668927.6476,-158
1604668927.6495,-92
1604668927.6515,-109
1604668927.6535,-167
1604668927.6555,-131
1604668927.6575,-104
1604668927.6595,-138
1604668927.6615,-107
1604668927.6635,-94
1604668927.6655,-189
1604668927.6675,-221
1604668927.6695,-180
1604668927.6715,-226
1604668927.6736,-277
1604668927.6755,-248
1604668927.6775,-257
1604668927.6795,-299
1604668927.6815,-279
1604668927.6835,-282
1604668927.6855,-328
1604668927.6876,-318
1604668927.6895,-291
1604668927.6915,-296
1604668927.6935,-289
1604668927.6955,-289
1604668927.6975,-277
1604668927.6995,-260
1604668927.7015,-274
1604668927.7035,-257
1604668927.7055,-233
1604668927.7075,-294
1604668928.1339,-309
1604668928.1345,-238
1604668928.1358,-231
1604668928.1378,-260
1604668928.1398,-255
1604668928.1418,-243
1604668928.1438,-270
1604668928.1458,-306
1604668928.1479,-287
1604668928.1499,-243
1604668928.1518,-255
1604668928.1539,-284
1604668928.1559,-233
1604668928.1578,-177
1604668928.1598,-216
1604668928.1618,-255
1604668928.1638,-248
1604668928.1658,-233
1604668928.1678,-228
1604668928.1701,-216
1604668928.1718,-201
1604668928.1738,-236
1604668928.1758,-284
1604668928.1778,-272
1604668928.1798,-257
1604668928.1818,-267
1604668928.1838,-238
1604668928.1858,-221
1604668928.1878,-236
1604668928.1899,-206
1604668928.1918,-65
1604668928.1938,248
1604668928.1957,627
1604668928.1977,747
1604668928.1998,291
1604668928.2018,-411
1604668928.2037,-591
1604668928.2058,-335
1604668928.2077,-270
1604668928.2097,-326
1604668928.2117,-248
1604668928.2137,-201
1604668928.2158,-245
1604668928.2177,-260
1604668928.2197,-238
1604668928.2217,-189
1604668928.2237,-141
1604668928.2258,-148
1604668928.2277,-180
1604668928.2297,-180
1604668928.2317,-143
1604668928.2337,-99
1604668928.2358,-104
1604668928.2377,-107
1604668928.2397,-82
1604668928.2417,-87
1604668928.2437,-65
1604668928.2457,-31
1604668928.2477,-14
1604668928.2497,-2
1604668928.2517,-19
1604668928.2537,-26
1604668928.2558,-19
1604668928.2577,-68
1604668928.2597,-111
1604668928.2617,-94
1604668928.2637,-111
1604668928.2658,-172
1604668928.2677,-204
1604668928.2697,-167
1604668928.2719,-111
1604668928.2738,-119
1604668928.2758,-150
1604668928.6748,-150
1604668928.6754,-155
1604668928.6779,-170
1604668928.6805,-150
1604668928.6825,-126
1604668928.6844,-131
1604668928.6865,-111
1604668928.6885,-104
1604668928.6905,-124
1604668928.6924,-80
1604668928.6945,-65
1604668928.6964,-128
1604668928.6984,-126
1604668928.7005,-85
1604668928.7024,-87
1604668928.7044,-82
1604668928.7064,-68
1604668928.7084,-68
1604668928.7105,-68
1604668928.7124,-65
1604668928.7144,-70
1604668928.7164,-85
1604668928.7184,-90
1604668928.7204,-60
1604668928.7224,-24
1604668928.7244,-41
1604668928.7264,-41
1604668928.7284,4
1604668928.7304,-4
1604668928.7324,-34
1604668928.7344,-19
1604668928.7364,-48
1604668928.7384,-68
1604668928.7404,-4
1604668928.7424,-2
1604668928.7444,-63
1604668928.7464,-80
1604668928.7484,-68
1604668928.7504,-43
1604668928.7524,-12
1604668928.7544,-38
1604668928.7564,-63
1604668928.7584,43
1604668928.7604,311
1604668928.7624,717
1604668928.7644,1014
1604668928.7664,744
1604668928.7684,12
1604668928.7706,-384
1604668928.7725,-223
1604668928.7744,-58
1604668928.7764,-72
1604668928.7784,-87
1604668928.7805,-75
1604668928.7824,-63
1604668928.7844,-31
1604668928.7864,-17
1604668928.7884,-21
1604668928.7904,2
1604668928.7924,31
1604668928.7944,36
1604668928.7964,24
1604668928.7984,31
1604668928.8004,72
1604668928.8024,85
1604668928.8044,80
1604668928.8064,116
1604668928.8084,145
1604668928.8104,143
1604668928.8124,136
1604668928.8144,136
1604668928.8164,160
1604668928.8184,180
1604668929.2436,170
1604668929.2442,158
1604668929.2466,138
1604668929.2493,107
1604668929.2513,75
1604668929.2533,80
1604668929.2554,97
1604668929.2573,38
1604668929.2593,-21
1604668929.2613,12
1604668929.2633,34
1604668929.2653,-31
1604668929.2673,-36
1604668929.2693,41
1604668929.2713,55
1604668929.2732,31
1604668929.2753,48
1604668929.2772,58
1604668929.2792,43
1604668929.2812,51
1604668929.2832,63
1604668929.2852,53
1604668929.2872,51
1604668929.2892,60
1604668929.2912,85
1604668929.2932,94
1604668929.2954,58
1604668929.2972,53
1604668929.2992,128
1604668929.3012,163
1604668929.3032,107
1604668929.3052,70
1604668929.3072,68
1604668929.3093,55
1604668929.3114,60
1604668929.3133,82
1604668929.3153,102
1604668929.3173,128
1604668929.3192,114
1604668929.3213,85
1604668929.3232,116
1604668929.3252,143
1604668929.3272,94
1604668929.3292,80
1604668929.3312,155
1604668929.3326,143
1604668929.3342,75
1604668929.3362,94
1604668929.3384,90
1604668929.3403,31
1604668929.3423,26
1604668929.3442,65
1604668929.3462,90
1604668929.3482,94
1604668929.3502,68
1604668929.3522,68
1604668929.3542,155
1604668929.3562,330
1604668929.3582,642
1604668929.3602,992
1604668929.3622,956
1604668929.3642,330
1604668929.3662,-245
1604668929.3682,-211
1604668929.3702,14
1604668929.3722,14
1604668929.3742,-12
1604668929.3762,38
1604668929.3782,55
1604668929.3802,53
1604668929.3822,53
1604668929.3842,58
1604668929.3862,75
1604668929.7838,109
1604668929.7846,124
1604668929.7870,104
1604668929.7897,90
1604668929.7918,92
1604668929.7937,116
1604668929.7957,172
1604668929.7976,197
1604668929.7996,150
1604668929.8016,158
1604668929.8036,245
1604668929.8056,250
1604668929.8076,165
1604668929.8096,155
1604668929.8116,226
1604668929.8136,243
1604668929.8156,197
1604668929.8176,160
1604668929.8196,124
1604668929.8216,92
1604668929.8236,102
1604668929.8255,94
1604668929.8276,80
1604668929.8296,87
1604668929.8316,72
1604668929.8336,60
1604668929.8356,77
1604668929.8376,65
1604668929.8396,58
1604668929.8416,92
1604668929.8436,97
1604668929.8456,92
1604668929.8475,97
1604668929.8496,72
1604668929.8516,72
1604668929.8536,90
1604668929.8556,80
1604668929.8576,99
1604668929.8596,131
1604668929.8616,102
1604668929.8636,80
1604668929.8656,109
1604668929.8676,111
1604668929.8696,99
1604668929.8716,111
1604668929.8736,92
1604668929.8757,80
1604668929.8776,121
1604668929.8796,116
1604668929.8816,85
1604668929.8836,124
1604668929.8856,143
1604668929.8876,94
1604668929.8896,85
1604668929.8916,119
1604668929.8937,121
1604668929.8957,163
1604668929.8976,209
1604668929.8996,153
1604668929.9016,116
1604668929.9036,150
1604668929.9056,111
1604668929.9076,68
1604668929.9096,99
1604668929.9117,92
1604668929.9136,68
1604668929.9156,116
1604668929.9176,148
1604668929.9196,104
1604668929.9216,65
1604668929.9236,77
1604668929.9256,148
1604668929.9276,362
1604668930.3541,739
1604668930.3550,1048
1604668930.3575,868
1604668930.3601,177
1604668930.3620,-299
1604668930.3640,-160
1604668930.3661,60
1604668930.3679,34
1604668930.3700,-26
1604668930.3720,12
1604668930.3739,60
1604668930.3759,38
1604668930.3780,29
1604668930.3801,72
1604668930.3819,111
1604668930.3840,104
1604668930.3860,80
1604668930.3880,102
1604668930.3901,128
1604668930.3920,126
1604668930.3939,133
1604668930.3959,155
1604668930.3979,167
1604668930.4000,204
1604668930.4019,245
1604668930.4039,197
1604668930.4059,145
1604668930.4080,233
1604668930.4101,287
1604668930.4119,197
1604668930.4139,158
1604668930.4160,194
1604668930.4179,167
1604668930.4202,133
1604668930.4219,133
1604668930.4240,87
1604668930.4259,58
1604668930.4279,82
1604668930.4300,75
1604668930.4319,65
1604668930.4340,87
1604668930.4359,75
1604668930.4379,46
1604668930.4400,48
1604668930.4420,63
1604668930.4440,70
1604668930.4459,60
1604668930.4479,43
1604668930.4500,68
1604668930.4520,119
1604668930.4540,116
1604668930.4559,65
1604668930.4580,43
1604668930.4599,80
1604668930.4620,119
1604668930.4640,85
1604668930.4660,60
1604668930.4679,72
1604668930.4700,68
1604668930.4719,85
1604668930.4740,99
1604668930.4759,72
1604668930.4780,70
1604668930.4801,70
1604668930.4819,70
1604668930.4840,99
1604668930.4859,109
1604668930.4880,63
1604668930.4900,0
1604668930.4920,19
1604668930.4939,133
1604668930.4960,150
1604668930.4979,77
1604668930.9837,99
1604668930.9845,128
1604668930.9870,87
1604668930.9896,72
1604668930.9916,46
1604668930.9935,14
1604668930.9956,72
1604668930.9976,90
1604668930.9996,14
1604668931.0015,0
1604668931.0035,46
1604668931.0057,65
1604668931.0076,58
1604668931.0095,46
1604668931.0116,63
1604668931.0135,201
1604668931.0155,554
1604668931.0175,987
1604668931.0195,1024
1604668931.0215,399
1604668931.0235,-260
1604668931.0255,-296
1604668931.0275,-55
1604668931.0295,-17
1604668931.0316,-46
1604668931.0335,-14
1604668931.0355,-7
1604668931.0375,0
1604668931.0395,46
1604668931.0416,68
1604668931.0435,51
1604668931.0455,34
1604668931.0475,19
1604668931.0495,46
1604668931.0515,124
1604668931.0535,128
1604668931.0555,87
1604668931.0575,75
1604668931.0595,97
1604668931.0616,160
1604668931.0635,189
1604668931.0655,172
1604668931.0675,182
1604668931.0695,197
1604668931.0715,189
1604668931.0735,187
1604668931.0755,180
1604668931.0775,153
1604668931.0795,124
1604668931.0815,107
1604668931.0835,82
1604668931.0856,68
1604668931.0875,65
1604668931.0895,65
1604668931.0915,48
1604668931.0935,31
1604668931.0955,36
1604668931.0975,36
1604668931.0995,31
1604668931.1015,4
1604668931.1035,4
1604668931.1055,72
1604668931.1076,82
1604668931.1095,26
1604668931.1115,14
1604668931.1135,24
1604668931.1155,60
1604668931.1175,107
1604668931.1195,65
1604668931.1215,21
1604668931.1235,60
1604668931.1255,92
1604668931.1275,72
1604668931.5542,46
1604668931.5550,36
1604668931.5575,65
1604668931.5601,80
1604668931.5620,29
1604668931.5640,36
1604668931.5661,90
1604668931.5680,51
1604668931.5701,26
1604668931.5720,75
1604668931.5740,55
1604668931.5760,19
1604668931.5780,51
1604668931.5801,60
1604668931.5820,19
1604668931.5840,12
1604668931.5860,48
1604668931.5880,53
1604668931.5900,38
1604668931.5920,77
1604668931.5940,87
1604668931.5960,-12
1604668931.5980,-77
1604668931.6001,-14
1604668931.6020,36
1604668931.6040,14
1604668931.6060,-12
1604668931.6080,0
1604668931.6101,51
1604668931.6120,46
1604668931.6140,-21
1604668931.6160,0
1604668931.6180,155
1604668931.6200,399
1604668931.6220,761
1604668931.6240,1012
1604668931.6260,637
1604668931.6280,-102
1604668931.6301,-338
1604668931.6320,-109
1604668931.6341,-41
1604668931.6360,-126
1604668931.6380,-97
1604668931.6400,-75
1604668931.6419,-55
1604668931.6440,65
1604668931.6460,63
1604668931.6480,-43
1604668931.6508,-14
1604668931.6520,58
1604668931.6540,41
1604668931.6559,24
1604668931.6580,58
1604668931.6600,75
1604668931.6620,70
1604668931.6640,77
1604668931.6660,82
1604668931.6680,104
1604668931.6687,158
1604668931.6700,172
1604668931.6720,182
1604668931.6740,197
1604668931.6760,153
1604668931.6780,114
1604668931.6801,148
1604668931.6820,163
1604668931.6840,92
1604668931.6860,12
1604668931.6880,17
1604668931.6900,70
1604668931.6920,31
1604668931.6940,-14
1604668931.6960,55
1604668932.0640,60
1604668932.0647,-46
1604668932.0671,-51
1604668932.0697,4
1604668932.0717,-4
1604668932.0737,12
1604668932.0757,38
1604668932.0777,17
1604668932.0797,12
1604668932.0817,17
1604668932.0837,-7
1604668932.0856,-43
1604668932.0877,4
1604668932.0897,70
1604668932.0917,36
1604668932.0937,41
1604668932.0957,99
1604668932.0964,72
1604668932.0988,21
1604668932.1007,36
1604668932.1027,34
1604668932.1047,-53
1604668932.1067,-68
1604668932.1087,70
1604668932.1107,87
1604668932.1127,-21
1604668932.1146,41
1604668932.1167,102
1604668932.1187,4
1604668932.1207,-2
1604668932.1227,68
1604668932.1247,46
1604668932.1267,4
1604668932.1274,43
1604668932.1287,87
1604668932.1307,82
1604668932.1326,80
1604668932.1347,94
1604668932.1367,99
1604668932.1387,77
1604668932.1407,51
1604668932.1427,46
1604668932.1447,43
1604668932.1467,24
1604668932.1487,-2
1604668932.1507,-29
1604668932.1527,-2
1604668932.1547,87
1604668932.1568,99
1604668932.1575,107
1604668932.1597,362
1604668932.1617,771
1604668932.1637,983
1604668932.1656,681
1604668932.1677,7
1604668932.1697,-343
1604668932.1717,-153
1604668932.1737,-12
1604668932.1757,-77
1604668932.1776,-21
1604668932.1797,58
1604668932.1817,21
1604668932.1837,-7
1604668932.1857,2
1604668932.1877,12
1604668932.1884,7
1604668932.1897,-12
1604668932.1917,0
1604668932.1937,48
1604668932.1958,51
1604668932.1977,21
1604668932.1997,36
1604668932.2017,70
1604668932.6039,58
1604668932.6045,48
1604668932.6069,82
1604668932.6095,90
1604668932.6115,68
1604668932.6122,55
1604668932.6145,60
1604668932.6165,72
1604668932.6185,43
1604668932.6205,-7
1604668932.6225,-24
1604668932.6245,-34
1604668932.6265,-51
1604668932.6285,-97
1604668932.6305,-133
1604668932.6325,-87
1604668932.6345,-80
1604668932.6365,-160
1604668932.6385,-167
1604668932.6405,-131
1604668932.6412,-153
1604668932.6435,-165
1604668932.6455,-150
1604668932.6475,-150
1604668932.6496,-138
1604668932.6515,-131
1604668932.6535,-155
1604668932.6555,-141
1604668932.6575,-121
1604668932.6595,-170
1604668932.6615,-192
1604668932.6635,-165
1604668932.6654,-165
1604668932.6675,-145
1604668932.6694,-121
1604668932.6715,-165
1604668932.6722,-192
1604668932.6745,-172
1604668932.6765,-187
1604668932.6785,-209
1604668932.6805,-218
1604668932.6825,-209
1604668932.6845,-189
1604668932.6864,-182
1604668932.6885,-165
1604668932.6905,-170
1604668932.6925,-189
1604668932.6946,-180
1604668932.6965,-172
1604668932.6985,-192
1604668932.7005,-223
1604668932.7024,-228
1604668932.7031,-197
1604668932.7045,-211
1604668932.7065,-270
1604668932.7085,-277
1604668932.7105,-257
1604668932.7125,-284
1604668932.7145,-296
1604668932.7165,-236
1604668932.7185,-238
1604668932.7205,-272
1604668932.7224,-141
1604668932.7245,141
1604668932.7265,486
1604668932.7285,644
1604668932.7305,245
1604668932.7325,-420
1604668932.7332,-632
1604668932.7345,-418
1604668932.7365,-323
1604668932.7385,-352
1604668932.7405,-316
1604668933.1440,-321
1604668933.1446,-340
1604668933.1459,-296
1604668933.1479,-284
1604668933.1500,-316
1604668933.1519,-304
1604668933.1539,-279
1604668933.1559,-289
1604668933.1579,-279
1604668933.1586,-240
1604668933.1609,-238
1604668933.1629,-216
1604668933.1649,-180
1604668933.1669,-211
1604668933.1689,-240
1604668933.1709,-189
1604668933.1729,-131
1604668933.1749,-167
1604668933.1769,-216
1604668933.1789,-175
1604668933.1809,-131
1604668933.1829,-158
1604668933.1849,-209
1604668933.1869,-231
1604668933.1889,-218
1604668933.1897,-226
1604668933.1909,-248
1604668933.1929,-272
1604668933.1949,-294
1604668933.1969,-287
1604668933.1989,-270
1604668933.2009,-289
1604668933.2029,-284
1604668933.2049,-231
1604668933.2070,-228
1604668933.2089,-260
1604668933.2109,-262
1604668933.2129,-260
1604668933.2149,-236
1604668933.2169,-218
1604668933.2189,-231
1604668933.2209,-236
1604668933.2229,-236
1604668933.2249,-240
1604668933.2269,-240
1604668933.2289,-228
1604668933.2309,-236
1604668933.2329,-255
1604668933.2349,-245
1604668933.2369,-238
1604668933.2389,-221
1604668933.2409,-192
1604668933.2429,-206
1604668933.2449,-209
1604668933.2469,-201
1604668933.2489,-243
1604668933.2509,-233
1604668933.2529,-175
1604668933.2549,-175
1604668933.2569,-172
1604668933.2589,-133
1604668933.2609,-150
1604668933.2629,-180
1604668933.2649,-160
1604668933.2669,-170
1604668933.2689,-199
1604668933.2710,-182
1604668933.2729,-141
1604668933.2749,-155
1604668933.2769,-194
1604668933.2789,-150
1604668933.2809,-104
1604668933.2829,-155
1604668933.7137,-206
1604668933.7146,-145
1604668933.7170,87
1604668933.7199,445
1604668933.7217,744
1604668933.7236,664
1604668933.7257,77
1604668933.7276,-467
1604668933.7296,-464
1604668933.7316,-248
1604668933.7336,-192
1604668933.7356,-192
1604668933.7376,-170
1604668933.7396,-180
1604668933.7416,-182
1604668933.7436,-150
1604668933.7456,-136
1604668933.7476,-150
1604668933.7496,-150
1604668933.7516,-116
1604668933.7536,-90
1604668933.7556,-90
1604668933.7576,-102
1604668933.7596,-92
1604668933.7616,-36
1604668933.7636,17
1604668933.7656,2
1604668933.7676,-17
1604668933.7696,14
1604668933.7716,38
1604668933.7736,38
1604668933.7756,38
1604668933.7775,19
1604668933.7796,-14
1604668933.7815,-17
1604668933.7835,9
1604668933.7856,-12
1604668933.7875,-53
1604668933.7895,-26
1604668933.7916,-21
1604668933.7936,-75
1604668933.7956,-75
1604668933.7976,-63
1604668933.7995,-85
1604668933.8015,-82
1604668933.8035,-70
1604668933.8055,-85
1604668933.8075,-87
1604668933.8095,-48
1604668933.8115,-36
1604668933.8135,-63
1604668933.8155,-43
1604668933.8176,-9
1604668933.8195,-38
1604668933.8217,-68
1604668933.8236,-48
1604668933.8256,-12
1604668933.8275,-9
1604668933.8296,-31
1604668933.8316,-21
1604668933.8336,-12
1604668933.8356,-34
1604668933.8375,-26
1604668933.8395,9
1604668933.8416,-7
1604668933.8435,-36
1604668933.8455,-4
1604668933.8475,17
1604668933.8495,-17
1604668933.8515,-29
1604668933.8535,2
1604668933.8555,24
1604668933.8576,36
1604668934.3137,43
1604668934.3148,29
1604668934.3172,17
1604668934.3199,21
1604668934.3218,19
1604668934.3237,-14
1604668934.3258,-53
1604668934.3277,-51
1604668934.3297,-17
1604668934.3317,0
1604668934.3337,14
1604668934.3358,9
1604668934.3377,-9
1604668934.3398,41
1604668934.3417,204
1604668934.3437,503
1604668934.3457,883
1604668934.3477,948
1604668934.3497,401
1604668934.3517,-240
1604668934.3537,-316
1604668934.3557,-77
1604668934.3578,-26
1604668934.3597,-60
1604668934.3617,-21
1604668934.3637,-17
1604668934.3657,-21
1604668934.3677,21
1604668934.3697,48
1604668934.3717,51
1604668934.3737,51
1604668934.3758,55
1604668934.3779,77
1604668934.3797,87
1604668934.3817,82
1604668934.3837,85
1604668934.3857,80
1604668934.3877,99
1604668934.3897,145
1604668934.3917,160
1604668934.3938,172
1604668934.3957,204
1604668934.3977,180
1604668934.3997,148
1604668934.4017,177
1604668934.4037,165
1604668934.4057,128
1604668934.4077,160
1604668934.4097,155
1604668934.4117,92
1604668934.4137,68
1604668934.4157,60
1604668934.4177,38
1604668934.4197,34
1604668934.4217,41
1604668934.4237,43
1604668934.4257,24
1604668934.4277,12
1604668934.4297,53
1604668934.4317,65
1604668934.4337,34
1604668934.4357,55
1604668934.4377,80
1604668934.4397,46
1604668934.4417,26
1604668934.4437,72
1604668934.4457,90
1604668934.4477,48
1604668934.4497,55
1604668934.4517,102
1604668934.4537,90
1604668934.4557,58
1604668934.4577,70
1604668934.8839,90
1604668934.8847,87
1604668934.8857,94
1604668934.8877,99
1604668934.8897,72
1604668934.8917,53
1604668934.8937,53
1604668934.8957,82
1604668934.8977,111
1604668934.8997,77
1604668934.9018,70
1604668934.9037,121
1604668934.9056,116
1604668934.9076,72
1604668934.9096,70
1604668934.9116,82
1604668934.9136,53
1604668934.9156,41
1604668934.9176,72
1604668934.9196,48
1604668934.9216,14
1604668934.9242,60
1604668934.9256,70
1604668934.9276,31
1604668934.9296,51
1604668934.9316,104
1604668934.9336,201
1604668934.9356,457
1604668934.9376,854
1604668934.9396,1070
1604668934.9417,661
1604668934.9436,-99
1604668934.9456,-350
1604668934.9476,-77
1604668934.9496,46
1604668934.9516,-31
1604668934.9536,-7
1604668934.9556,53
1604668934.9576,21
1604668934.9596,4
1604668934.9616,46
1604668934.9636,55
1604668934.9656,51
1604668934.9676,97
1604668934.9696,128
1604668934.9716,111
1604668934.9736,99
1604668934.9756,104
1604668934.9776,116
1604668934.9796,141
1604668934.9816,160
1604668934.9836,167
1604668934.9855,194
1604668934.9876,204
1604668934.9896,194
1604668934.9916,218
1604668934.9936,206
1604668934.9956,163
1604668934.9976,163
1604668934.9996,180
1604668935.0017,155
1604668935.0039,97
1604668935.0057,72
1604668935.0076,72
1604668935.0097,53
1604668935.0116,46
1604668935.0137,63
1604668935.0156,58
1604668935.0177,36
1604668935.0197,36
1604668935.0216,46
1604668935.0236,43
1604668935.0256,55
1604668935.4241,70
1604668935.4249,65
1604668935.4274,55
1604668935.4300,51
1604668935.4320,65
1604668935.4340,92
1604668935.4360,87
1604668935.4380,55
1604668935.4400,53
1604668935.4419,72
1604668935.4439,63
1604668935.4459,43
1604668935.4479,48
1604668935.4500,55
1604668935.4519,48
1604668935.4540,34
1604668935.4559,36
1604668935.4579,46
1604668935.4600,58
1604668935.4619,55
1604668935.4639,38
1604668935.4659,51
1604668935.4679,90
1604668935.4699,102
1604668935.4719,72
1604668935.4739,51
1604668935.4759,41
1604668935.4779,19
1604668935.4799,41
1604668935.4819,65
1604668935.4839,21
1604668935.4858,7
1604668935.4879,29
1604668935.4899,4
1604668935.4919,-2
1604668935.4939,43
1604668935.4959,43
1604668935.4979,7
1604668935.4999,97
1604668935.5020,374
1604668935.5039,744
1604668935.5059,997
1604668935.5079,781
1604668935.5100,109
1604668935.5119,-333
1604668935.5139,-209
1604668935.5159,-7
1604668935.5179,-4
1604668935.5199,-14
1604668935.5219,-14
1604668935.5239,-17
1604668935.5258,24
1604668935.5279,48
1604668935.5299,36
1604668935.5319,41
1604668935.5339,60
1604668935.5358,55
1604668935.5379,55
1604668935.5399,85
1604668935.5419,114
1604668935.5439,131
1604668935.5459,150
1604668935.5479,141
1604668935.5499,109
1604668935.5518,138
1604668935.5539,204
1604668935.5559,199
1604668935.5579,160
1604668935.5599,177
1604668935.5618,206
1604668935.5639,167
1604668935.5659,121
1604668935.5679,109
1604668935.9635,90
1604668935.9642,41
1604668935.9666,31
1604668935.9692,68
1604668935.9712,51
1604668935.9732,4
1604668935.9753,21
1604668935.9772,55
1604668935.9792,19
1604668935.9813,-31
1604668935.9832,-14
1604668935.9852,24
1604668935.9872,29
1604668935.9892,19
1604668935.9912,21
1604668935.9932,34
1604668935.9952,48
1604668935.9974,51
1604668935.9993,26
1604668936.0012,19
1604668936.0032,34
1604668936.0052,41
1604668936.0072,43
1604668936.0092,43
1604668936.0112,34
1604668936.0132,38
1604668936.0152,55
1604668936.0172,36
1604668936.0192,26
1604668936.0212,60
1604668936.0232,58
1604668936.0253,36
1604668936.0272,51
1604668936.0292,34
1604668936.0312,29
1604668936.0332,85
1604668936.0352,97
1604668936.0372,58
1604668936.0392,82
1604668936.0412,109
1604668936.0432,48
1604668936.0452,4
1604668936.0472,-2
1604668936.0492,-72
1604668936.0512,-82
1604668936.0532,26
1604668936.0552,43
1604668936.0572,-12
1604668936.0592,2
1604668936.0612,17
1604668936.0632,46
1604668936.0652,184
1604668936.0672,401
1604668936.0692,708
1604668936.0712,968
1604668936.0732,749
1604668936.0752,46
1604668936.0772,-379
1604668936.0792,-221
1604668936.0812,-68
1604668936.0832,-126
1604668936.0852,-90
1604668936.0872,-12
1604668936.0892,-60
1604668936.0912,-55
1604668936.0932,36
1604668936.0952,-9
1604668936.0972,-82
1604668936.0993,12
1604668936.1013,102
1604668936.1032,55
1604668936.1052,26
1604668936.1072,51
1604668936.5335,70
1604668936.5344,104
1604668936.5368,104
1604668936.5394,72
1604668936.5414,136
1604668936.5434,206
1604668936.5455,155
1604668936.5474,90
1604668936.5494,116
1604668936.5514,172
1604668936.5534,158
1604668936.5554,116
1604668936.5574,97
1604668936.5595,72
1604668936.5613,53
1604668936.5634,29
1604668936.5653,2
1604668936.5674,2
1604668936.5693,-2
1604668936.5713,-2
1604668936.5733,29
1604668936.5753,12
1604668936.5774,-2
1604668936.5794,24
1604668936.5814,12
1604668936.5833,-7
1604668936.5853,12
1604668936.5873,24
1604668936.5893,43
1604668936.5914,53
1604668936.5934,31
1604668936.5955,19
1604668936.5973,4
1604668936.5993,-2
1604668936.6014,48
1604668936.6034,75
1604668936.6054,41
1604668936.6074,53
1604668936.6094,80
1604668936.6114,48
1604668936.6134,19
1604668936.6153,24
1604668936.6173,43
1604668936.6194,38
1604668936.6214,12
1604668936.6233,38
1604668936.6255,82
1604668936.6274,53
1604668936.6293,36
1604668936.6314,85
1604668936.6334,111
1604668936.6353,82
1604668936.6373,68
1604668936.6394,72
1604668936.6414,48
1604668936.6434,34
1604668936.6454,58
1604668936.6473,53
1604668936.6493,17
1604668936.6514,14
1604668936.6534,38
1604668936.6554,43
1604668936.6574,34
1604668936.6594,36
1604668936.6614,48
1604668936.6633,92
1604668936.6653,260
1604668936.6674,588
1604668936.6694,919
1604668936.6714,902
1604668936.6734,330
1604668936.6753,-282
1604668936.6773,-289
1604668937.1034,-36
1604668937.1043,-21
1604668937.1067,-34
1604668937.1094,21
1604668937.1113,7
1604668937.1133,-7
1604668937.1153,0
1604668937.1174,-17
1604668937.1194,-14
1604668937.1213,-9
1604668937.1233,4
1604668937.1253,53
1604668937.1273,72
1604668937.1293,68
1604668937.1313,90
1604668937.1333,104
1604668937.1353,70
1604668937.1373,53
1604668937.1393,85
1604668937.1413,133
1604668937.1433,182
1604668937.1453,192
1604668937.1473,180
1604668937.1493,180
1604668937.1515,150
1604668937.1533,102
1604668937.1553,99
1604668937.1573,72
1604668937.1593,17
1604668937.1614,34
1604668937.1633,63
1604668937.1653,34
1604668937.1673,9
1604668937.1692,19
1604668937.1713,29
1604668937.1733,17
1604668937.1753,-2
1604668937.1773,-24
1604668937.1793,0
1604668937.1814,58
1604668937.1833,34
1604668937.1853,-9
1604668937.1873,19
1604668937.1893,41
1604668937.1913,34
1604668937.1933,36
1604668937.1953,43
1604668937.1973,26
1604668937.1994,-19
1604668937.2013,-9
1604668937.2033,53
1604668937.2053,48
1604668937.2073,7
1604668937.2093,21
1604668937.2113,43
1604668937.2133,7
1604668937.2153,4
1604668937.2173,65
1604668937.2192,48
1604668937.2213,19
1604668937.2233,24
1604668937.2253,-21
1604668937.2273,-43
1604668937.2293,26
1604668937.2313,99
1604668937.2333,97
1604668937.2353,87
1604668937.2373,94
1604668937.2393,72
1604668937.2413,34
1604668937.2433,9
1604668937.2453,2
1604668937.2473,-17
1604668937.6737,-34
1604668937.6744,0
1604668937.6770,21
1604668937.6794,-4
1604668937.6814,-26
1604668937.6834,-41
1604668937.6854,-14
1604668937.6874,48
1604668937.6895,206
1604668937.6914,598
1604668937.6934,956
1604668937.6954,810
1604668937.6975,180
1604668937.6993,-330
1604668937.7014,-330
1604668937.7033,-136
1604668937.7053,-90
1604668937.7130,-97
1604668937.7144,-55
1604668937.7164,-31
1604668937.7184,-48
1604668937.7203,-38
1604668937.7224,-7
1604668937.7244,4
1604668937.7263,0
1604668937.7284,-14
1604668937.7304,-24
1604668937.7324,-21
1604668937.7344,7
1604668937.7364,77
1604668937.7384,109
1604668937.7404,77
1604668937.7424,85
1604668937.7443,94
1604668937.7464,70
1604668937.7484,143
1604668937.7504,223
1604668937.7524,165
1604668937.7544,107
1604668937.7564,109
1604668937.7583,90
1604668937.7605,65
1604668937.7624,53
1604668937.7644,26
1604668937.7663,-14
1604668937.7685,-17
1604668937.7704,19
1604668937.7724,4
1604668937.7744,-36
1604668937.7764,-38
1604668937.7784,-7
1604668937.7804,-7
1604668937.7824,-24
1604668937.7845,-29
1604668937.7864,-29
1604668937.7884,-7
1604668937.7904,-17
1604668937.7924,-70
1604668937.7944,-38
1604668937.7964,55
1604668937.7984,85
1604668937.8004,43
1604668937.8024,12
1604668937.8044,21
1604668937.8064,21
1604668937.8084,-31
1604668937.8105,-51
1604668937.8124,48
1604668937.8144,97
1604668937.8163,31
1604668937.8183,-2
1604668937.8204,-4
1604668937.8223,-29
1604668938.2438,-2
1604668938.2444,51
1604668938.2469,26
1604668938.2495,-38
1604668938.2515,-12
1604668938.2535,70
1604668938.2555,51
1604668938.2576,-26
1604668938.2595,2
1604668938.2614,85
1604668938.2634,63
1604668938.2654,-7
1604668938.2675,7
1604668938.2694,51
1604668938.2715,24
1604668938.2734,2
1604668938.2754,26
1604668938.2774,2
1604668938.2794,-36
1604668938.2814,4
1604668938.2834,29
1604668938.2842,-21
1604668938.2864,-21
1604668938.2884,14
1604668938.2905,14
1604668938.2924,116
1604668938.2944,406
1604668938.2964,783
1604668938.2984,1026
1604668938.3005,737
1604668938.3025,-26
1604668938.3046,-428
1604668938.3064,-192
1604668938.3084,-26
1604668938.3105,-94
1604668938.3124,-51
1604668938.3144,-7
1604668938.3152,-48
1604668938.3174,-24
1604668938.3194,17
1604668938.3214,-9
1604668938.3234,-21
1604668938.3255,2
1604668938.3274,21
1604668938.3294,31
1604668938.3314,63
1604668938.3334,72
1604668938.3354,58
1604668938.3374,87
1604668938.3394,116
1604668938.3414,111
1604668938.3434,109
1604668938.3454,141
1604668938.3462,148
1604668938.3484,114
1604668938.3504,131
1604668938.3524,177
1604668938.3544,145
1604668938.3565,72
1604668938.3584,41
1604668938.3605,60
1604668938.3624,38
1604668938.3644,-24
1604668938.3664,-31
1604668938.3684,-24
1604668938.3704,-36
1604668938.3724,-29
1604668938.3744,-65
1604668938.3764,-87
1604668938.3772,-19
1604668938.3794,-31
1604668938.3815,-126
1604668938.3834,-77
1604668938.7834,24
1604668938.7840,-26
1604668938.7864,-82
1604668938.7891,-17
1604668938.7911,9
1604668938.7930,-26
1604668938.7950,-31
1604668938.7970,-41
1604668938.7990,-46
1604668938.8012,-36
1604668938.8030,-65
1604668938.8038,-99
1604668938.8060,-68
1604668938.8081,-14
1604668938.8101,-21
1604668938.8120,-46
1604668938.8140,-43
1604668938.8160,-38
1604668938.8180,-46
1604668938.8200,-58
1604668938.8220,-80
1604668938.8240,-107
1604668938.8260,-87
1604668938.8280,-46
1604668938.8301,-43
1604668938.8320,-58
1604668938.8340,-65
1604668938.8347,-63
1604668938.8370,-26
1604668938.8390,2
1604668938.8411,-19
1604668938.8430,-29
1604668938.8451,0
1604668938.8470,-9
1604668938.8490,-43
1604668938.8510,-26
1604668938.8530,-12
1604668938.8550,-41
1604668938.8570,-55
1604668938.8591,-43
1604668938.8611,-43
1604668938.8630,-53
1604668938.8650,-48
1604668938.8657,-53
1604668938.8670,-60
1604668938.8690,17
1604668938.8710,274
1604668938.8730,676
1604668938.8750,973
1604668938.8770,734
1604668938.8790,21
1604668938.8810,-418
1604668938.8830,-289
1604668938.8850,-87
1604668938.8870,-111
1604668938.8890,-158
1604668938.8910,-82
1604668938.8930,-34
1604668938.8950,-75
1604668938.8957,-80
1604668938.8972,-60
1604668938.8990,-82
1604668938.9010,-72
1604668938.9030,-53
1604668938.9050,-46
1604668938.9070,7
1604668938.9090,31
1604668938.9110,-2
1604668938.9130,14
1604668938.9150,46
1604668938.9170,43
1604668938.9190,58
1604668938.9210,48
1604668939.3241,31
1604668939.3250,94
1604668939.3274,145
1604668939.3301,90
1604668939.3321,53
1604668939.3340,75
1604668939.3361,63
1604668939.3381,7
1604668939.3401,-55
1604668939.3420,-65
1604668939.3439,-41
1604668939.3459,-51
1604668939.3480,-82
1604668939.3500,-87
1604668939.3519,-63
1604668939.3526,-48
1604668939.3549,-53
1604668939.3570,-70
1604668939.3590,-92
1604668939.3610,-94
1604668939.3629,-75
1604668939.3650,-63
1604668939.3669,-65
1604668939.3689,-46
1604668939.3710,-21
1604668939.3730,-38
1604668939.3749,-63
1604668939.3769,-41
1604668939.3789,-19
1604668939.3810,-38
1604668939.3829,-31
1604668939.3836,-2
1604668939.3849,-31
1604668939.3869,-55
1604668939.3889,-36
1604668939.3910,-38
1604668939.3929,-53
1604668939.3949,-75
1604668939.3971,-63
1604668939.3990,19
1604668939.4009,24
1604668939.4029,-55
1604668939.4049,-53
1604668939.4069,-21
1604668939.4090,-29
1604668939.4109,-51
1604668939.4129,-85
1604668939.4136,-75
1604668939.4149,-12
1604668939.4169,26
1604668939.4189,9
1604668939.4210,-17
1604668939.4230,-19
1604668939.4249,-9
1604668939.4269,-9
1604668939.4289,-14
1604668939.4310,-14
1604668939.4329,-24
1604668939.4349,-46
1604668939.4369,-55
1604668939.4389,-46
1604668939.4410,-24
1604668939.4416,-21
1604668939.4429,-43
1604668939.4449,-41
1604668939.4469,87
1604668939.4489,386
1604668939.4510,766
1604668939.4529,961
1604668939.4550,632
1604668939.4569,-63
1604668939.4589,-399
1604668939.4610,-197
1604668939.8938,-29
1604668939.8946,-92
1604668939.8971,-107
1604668939.8997,-53
1604668939.9017,-53
1604668939.9036,-65
1604668939.9057,-65
1604668939.9076,-68
1604668939.9096,-38
1604668939.9116,0
1604668939.9137,0
1604668939.9157,-4
1604668939.9178,12
1604668939.9197,26
1604668939.9216,36
1604668939.9236,55
1604668939.9258,63
1604668939.9277,53
1604668939.9297,51
1604668939.9316,68
1604668939.9336,111
1604668939.9357,145
1604668939.9376,131
1604668939.9396,102
1604668939.9416,102
1604668939.9437,104
1604668939.9456,48
1604668939.9476,-19
1604668939.9496,-38
1604668939.9516,-41
1604668939.9536,-19
1604668939.9556,7
1604668939.9576,-26
1604668939.9596,-70
1604668939.9616,-80
1604668939.9636,-72
1604668939.9657,-51
1604668939.9676,-65
1604668939.9696,-104
1604668939.9716,-90
1604668939.9736,-46
1604668939.9756,-19
1604668939.9776,-29
1604668939.9796,-53
1604668939.9816,-46
1604668939.9836,-36
1604668939.9856,-58
1604668939.9876,-51
1604668939.9896,-24
1604668939.9916,-38
1604668939.9936,-58
1604668939.9956,-55
1604668939.9976,-36
1604668939.9997,-4
1604668940.0016,-14
1604668940.0036,-24
1604668940.0056,-17
1604668940.0076,-38
1604668940.0096,-41
1604668940.0116,-26
1604668940.0136,-51
1604668940.0156,-51
1604668940.0176,-9
1604668940.0196,-9
1604668940.0216,-26
1604668940.0236,-9
1604668940.0256,21
1604668940.0277,34
1604668940.0296,9
1604668940.0316,-19
1604668940.0336,-19
1604668940.0357,-2
1604668940.0376,17
1604668940.4339,12
1604668940.4345,-31
1604668940.4369,-53
1604668940.4395,-34
1604668940.4415,-31
1604668940.4435,-36
1604668940.4456,-14
1604668940.4476,-19
1604668940.4495,-65
1604668940.4515,-19
1604668940.4535,240
1604668940.4555,656
1604668940.4575,956
1604668940.4595,785
1604668940.4615,136
1604668940.4635,-367
1604668940.4655,-301
1604668940.4675,-99
1604668940.4695,-104
1604668940.4715,-116
1604668940.4735,-60
1604668940.4755,-77
1604668940.4775,-133
1604668940.4795,-97
1604668940.4815,-55
1604668940.4835,-97
1604668940.4855,-121
1604668940.4875,-82
1604668940.4895,43
1604668940.4915,136
1604668940.4935,58
1604668940.4955,12
1604668940.4975,72
1604668940.4995,72
1604668940.5015,17
1604668940.5035,7
1604668940.5055,31
1604668940.5075,82
1604668940.5095,126
1604668940.5115,131
1604668940.5135,158
1604668940.5155,126
1604668940.5175,38
1604668940.5195,4
1604668940.5215,-14
1604668940.5236,-29
1604668940.5255,-29
1604668940.5275,-34
1604668940.5296,-41
1604668940.5315,-70
1604668940.5335,-92
1604668940.5355,-63
1604668940.5375,-38
1604668940.5395,-60
1604668940.5415,-65
1604668940.5435,-53
1604668940.5455,-65
1604668940.5475,-55
1604668940.5495,-53
1604668940.5515,-82
1604668940.5535,-34
1604668940.5555,7
1604668940.5575,-34
1604668940.5595,-51
1604668940.5615,-21
1604668940.5635,9
1604668940.5655,21
1604668940.5675,-7
1604668940.5695,-55
1604668940.5715,-34
1604668940.5735,34
1604668940.5755,9
1604668940.5775,-48
1604668941.0638,-43
1604668941.0646,4
1604668941.0671,46
1604668941.0697,34
1604668941.0717,-26
1604668941.0737,-63
1604668941.0758,-38
1604668941.0777,-12
1604668941.0797,2
1604668941.0817,55
1604668941.0837,111
1604668941.0857,43
1604668941.0877,-34
1604668941.0898,9
1604668941.0917,58
1604668941.0937,26
1604668941.0957,-17
1604668941.0977,-43
1604668941.0997,-51
1604668941.1016,-24
1604668941.1036,-19
1604668941.1056,-34
1604668941.1076,-12
1604668941.1098,-17
1604668941.1117,-34
1604668941.1136,99
1604668941.1156,430
1604668941.1176,837
1604668941.1196,1026
1604668941.1216,586
1604668941.1236,-180
1604668941.1256,-416
1604668941.1276,-175
1604668941.1296,-97
1604668941.1316,-128
1604668941.1336,-51
1604668941.1356,-31
1604668941.1376,-65
1604668941.1396,-14
1604668941.1416,2
1604668941.1436,-51
1604668941.1456,-17
1604668941.1476,43
1604668941.1496,29
1604668941.1516,24
1604668941.1536,51
1604668941.1556,19
1604668941.1576,2
1604668941.1596,90
1604668941.1617,104
1604668941.1636,53
1604668941.1656,138
1604668941.1676,192
1604668941.1696,116
1604668941.1716,90
1604668941.1736,109
1604668941.1756,94
1604668941.1776,90
1604668941.1796,65
1604668941.1816,2
1604668941.1836,0
1604668941.1855,17
1604668941.1876,-53
1604668941.1897,-55
1604668941.1915,21
1604668941.1936,-41
1604668941.1956,-116
1604668941.1976,-70
1604668941.1996,-68
1604668941.2016,-94
1604668941.2035,-63
1604668941.2056,-36
1604668941.2076,-41
1604668941.6040,-53
1604668941.6050,-60
1604668941.6073,-43
1604668941.6099,-41
1604668941.6118,-58
1604668941.6138,-60
1604668941.6159,-65
1604668941.6178,-51
1604668941.6199,-12
1604668941.6218,-12
1604668941.6238,-51
1604668941.6258,-65
1604668941.6278,-38
1604668941.6300,-31
1604668941.6318,-60
1604668941.6338,-87
1604668941.6358,-104
1604668941.6378,-97
1604668941.6398,-51
1604668941.6418,-26
1604668941.6438,-41
1604668941.6458,-38
1604668941.6478,-24
1604668941.6499,-38
1604668941.6518,-72
1604668941.6538,-43
1604668941.6558,17
1604668941.6578,-4
1604668941.6598,-53
1604668941.6617,-34
1604668941.6638,-7
1604668941.6657,0
1604668941.6677,-38
1604668941.6698,-92
1604668941.6717,-97
1604668941.6737,-94
1604668941.6758,-70
1604668941.6777,0
1604668941.6798,0
1604668941.6817,-53
1604668941.6837,65
1604668941.6858,389
1604668941.6878,742
1604668941.6897,922
1604668941.6917,639
1604668941.6937,-26
1604668941.6957,-408
1604668941.6977,-253
1604668941.6998,-87
1604668941.7018,-138
1604668941.7037,-121
1604668941.7057,-31
1604668941.7079,-48
1604668941.7098,-92
1604668941.7118,-55
1604668941.7137,-24
1604668941.7157,-46
1604668941.7177,-31
1604668941.7198,21
1604668941.7217,12
1604668941.7238,-24
1604668941.7257,0
1604668941.7277,31
1604668941.7298,29
1604668941.7317,38
1604668941.7338,65
1604668941.7358,65
1604668941.7377,80
1604668941.7397,133
1604668941.7417,138
1604668941.7437,90
1604668941.7457,68
1604668941.7478,90
1604668942.1432,85
1604668942.1438,34
1604668942.1451,-9
1604668942.1471,-51
1604668942.1491,-70
1604668942.1512,-43
1604668942.1531,-48
1604668942.1551,-94
1604668942.1571,-92
1604668942.1591,-87
1604668942.1611,-102
1604668942.1631,-92
1604668942.1651,-87
1604668942.1671,-92
1604668942.1691,-87
1604668942.1711,-75
1604668942.1731,-77
1604668942.1751,-97
1604668942.1771,-80
1604668942.1792,-48
1604668942.1811,-60
1604668942.1831,-68
1604668942.1851,-36
1604668942.1871,-29
1604668942.1891,-65
1604668942.1911,-72
1604668942.1931,-58
1604668942.1951,-51
1604668942.1971,-26
1604668942.1991,-14
1604668942.2012,-38
1604668942.2032,-55
1604668942.2050,-63
1604668942.2071,-51
1604668942.2091,-19
1604668942.2112,-19
1604668942.2131,-31
1604668942.2151,-17
1604668942.2171,-4
1604668942.2191,-12
1604668942.2211,-7
1604668942.2231,-9
1604668942.2251,-14
1604668942.2271,36
1604668942.2291,43
1604668942.2311,-19
1604668942.2331,-21
1604668942.2350,-12
1604668942.2371,-51
1604668942.2391,-60
1604668942.2411,-48
1604668942.2431,-53
1604668942.2451,-26
1604668942.2471,4
1604668942.2491,-4
1604668942.2511,26
1604668942.2531,233
1604668942.2550,618
1604668942.2570,948
1604668942.2591,824
1604668942.2611,177
1604668942.2631,-357
1604668942.2651,-299
1604668942.2671,-72
1604668942.2690,-90
1604668942.2711,-124
1604668942.2731,-43
1604668942.2751,-29
1604668942.2771,-92
1604668942.2791,-111
1604668942.2811,-77
1604668942.2831,-36
1604668942.2850,-21
1604668942.7135,-26
1604668942.7142,-24
1604668942.7167,4
1604668942.7194,21
1604668942.7213,2
1604668942.7233,9
1604668942.7254,51
1604668942.7273,51
1604668942.7296,29
1604668942.7313,55
1604668942.7332,97
1604668942.7353,85
1604668942.7373,41
1604668942.7393,63
1604668942.7413,116
1604668942.7433,77
1604668942.7453,19
1604668942.7473,17
1604668942.7493,21
1604668942.7512,-24
1604668942.7532,-90
1604668942.7553,-63
1604668942.7573,-4
1604668942.7592,-21
1604668942.7613,-72
1604668942.7632,-80
1604668942.7652,-43
1604668942.7673,-36
1604668942.7693,-65
1604668942.7712,-53
1604668942.7732,-24
1604668942.7752,-29
1604668942.7774,-36
1604668942.7792,-38
1604668942.7813,-26
1604668942.7832,0
1604668942.7852,7
1604668942.7872,-12
1604668942.7892,-43
1604668942.7912,-46
1604668942.7932,0
1604668942.7952,14
1604668942.7972,-21
1604668942.7992,-26
1604668942.8013,-2
1604668942.8033,2
1604668942.8053,0
1604668942.8073,-21
1604668942.8092,-21
1604668942.8113,29
1604668942.8132,19
1604668942.8152,-29
1604668942.8172,2
1604668942.8192,51
1604668942.8212,12
1604668942.8232,-19
1604668942.8252,53
1604668942.8272,99
1604668942.8292,46
1604668942.8314,17
1604668942.8333,41
1604668942.8352,41
1604668942.8372,12
1604668942.8392,0
1604668942.8412,-4
1604668942.8432,-24
1604668942.8453,-43
1604668942.8472,-21
1604668942.8492,46
1604668942.8513,65
1604668942.8532,9
1604668942.8552,-14
1604668942.8572,85
1604668943.2539,347
1604668943.2545,725
1604668943.2569,973
1604668943.2596,700
1604668943.2616,26
1604668943.2637,-335
1604668943.2656,-197
1604668943.2675,-51
1604668943.2695,-75
1604668943.2715,-92
1604668943.2735,-55
1604668943.2755,-60
1604668943.2776,-77
1604668943.2795,-26
1604668943.2815,4
1604668943.2835,-14
1604668943.2855,-19
1604668943.2876,-4
1604668943.2895,4
1604668943.2915,24
1604668943.2935,48
1604668943.2955,38
1604668943.2975,29
1604668943.2995,82
1604668943.3015,121
1604668943.3036,94
1604668943.3055,111
1604668943.3075,177
1604668943.3095,172
1604668943.3115,136
1604668943.3135,145
1604668943.3155,150
1604668943.3175,114
1604668943.3195,72
1604668943.3215,63
1604668943.3235,43
1604668943.3255,7
1604668943.3277,9
1604668943.3295,36
1604668943.3315,14
1604668943.3335,-36
1604668943.3355,-34
1604668943.3375,4
1604668943.3395,9
1604668943.3415,-34
1604668943.3435,-43
1604668943.3455,14
1604668943.3475,34
1604668943.3495,-14
1604668943.3515,-14
1604668943.3535,29
1604668943.3555,7
1604668943.3575,-2
1604668943.3595,46
1604668943.3615,36
1604668943.3635,-12
1604668943.3655,-14
1604668943.3675,12
1604668943.3695,21
1604668943.3715,7
1604668943.3735,7
1604668943.3755,14
1604668943.3775,7
1604668943.3795,4
1604668943.3815,4
1604668943.3835,-12
1604668943.3855,-14
1604668943.3875,29
1604668943.3895,36
1604668943.3915,-7
1604668943.3935,0
1604668943.3955,38
1604668943.3975,46
1604668943.8540,55
1604668943.8548,60
1604668943.8572,21
1604668943.8600,12
1604668943.8618,46
1604668943.8638,0
1604668943.8659,-70
1604668943.8678,-51
1604668943.8699,4
1604668943.8718,31
1604668943.8738,29
1604668943.8758,-14
1604668943.8778,-36
1604668943.8799,4
1604668943.8817,53
1604668943.8839,228
1604668943.8857,622
1604668943.8877,1021
1604668943.8898,1000
1604668943.8917,343
1604668943.8937,-364
1604668943.8957,-396
1604668943.8977,-75
1604668943.8998,-12
1604668943.9017,-85
1604668943.9037,-53
1604668943.9057,-17
1604668943.9077,-41
1604668943.9098,-53
1604668943.9117,-24
1604668943.9137,2
1604668943.9157,2
1604668943.9177,24
1604668943.9198,58
1604668943.9217,21
1604668943.9237,2
1604668943.9257,60
1604668943.9277,82
1604668943.9298,82
1604668943.9317,87
1604668943.9337,82
1604668943.9357,133
1604668943.9377,197
1604668943.9398,155
1604668943.9417,107
1604668943.9437,143
1604668943.9457,141
1604668943.9477,65
1604668943.9498,65
1604668943.9517,92
1604668943.9537,36
1604668943.9557,12
1604668943.9577,31
1604668943.9598,-9
1604668943.9617,-65
1604668943.9638,-102
1604668943.9657,-77
1604668943.9677,4
1604668943.9697,-19
1604668943.9717,-80
1604668943.9738,-31
1604668943.9757,-29
1604668943.9777,-102
1604668943.9798,-48
1604668943.9817,36
1604668943.9837,-17
1604668943.9859,-43
1604668943.9878,2
1604668943.9898,-36
1604668943.9917,-68
1604668943.9937,-12
1604668943.9957,12
1604668943.9977,12
1604668944.3940,19
1604668944.3949,2
1604668944.3973,-31
1604668944.4000,-51
1604668944.4019,-26
1604668944.4039,-21
1604668944.4059,-53
1604668944.4079,-34
1604668944.4099,-4
1604668944.4119,-46
1604668944.4139,-97
1604668944.4159,-87
1604668944.4179,-58
1604668944.4199,-60
1604668944.4219,-46
1604668944.4238,0
1604668944.4259,17
1604668944.4279,-9
1604668944.4299,-24
1604668944.4318,-14
1604668944.4338,-43
1604668944.4358,-77
1604668944.4378,-72
1604668944.4399,-58
1604668944.4418,-43
1604668944.4438,-34
1604668944.4458,-38
1604668944.4479,-51
1604668944.4499,-90
1604668944.4518,-36
1604668944.4538,236
1604668944.4558,605
1604668944.4578,963
1604668944.4599,1021
1604668944.4618,425
1604668944.4638,-350
1604668944.4658,-484
1604668944.4678,-216
1604668944.4699,-116
1604668944.4719,-70
1604668944.4739,-29
1604668944.4759,-90
1604668944.4778,-124
1604668944.4799,-63
1604668944.4820,-41
1604668944.4839,-80
1604668944.4845,-60
1604668944.4858,0
1604668944.4878,2
1604668944.4899,-41
1604668944.4919,-12
1604668944.4939,38
1604668944.4959,34
1604668944.4979,77
1604668944.4999,107
1604668944.5019,63
1604668944.5039,70
1604668944.5059,150
1604668944.5079,158
1604668944.5099,111
1604668944.5119,119
1604668944.5138,143
1604668944.5146,102
1604668944.5169,21
1604668944.5189,-29
1604668944.5209,7
1604668944.5229,43
1604668944.5249,-26
1604668944.5268,-92
1604668944.5289,-75
1604668944.5309,-60
1604668944.5328,-82
1604668944.5349,-90
1604668944.9641,-85
1604668944.9649,-99
1604668944.9667,-87
1604668944.9673,-68
1604668944.9697,-87
1604668944.9717,-85
1604668944.9737,-65
1604668944.9757,-51
1604668944.9777,-65
1604668944.9798,-107
1604668944.9817,-102
1604668944.9837,-68
1604668944.9857,-72
1604668944.9876,-53
1604668944.9898,-26
1604668944.9916,-51
1604668944.9936,-68
1604668944.9956,-58
1604668944.9976,-31
1604668944.9983,-24
1604668944.9997,-60
1604668945.0016,-85
1604668945.0038,-63
1604668945.0056,-19
1604668945.0076,-21
1604668945.0097,-82
1604668945.0116,-107
1604668945.0137,-34
1604668945.0156,9
1604668945.0176,-21
1604668945.0197,-2
1604668945.0216,26
1604668945.0224,-19
1604668945.0232,-48
1604668945.0256,-29
1604668945.0276,-14
1604668945.0297,-9
1604668945.0316,-14
1604668945.0336,-58
1604668945.0356,-70
1604668945.0377,-7
1604668945.0397,-2
1604668945.0416,-63
1604668945.0423,-46
1604668945.0436,12
1604668945.0456,41
1604668945.0476,240
1604668945.0497,703
1604668945.0517,1073
1604668945.0536,897
1604668945.0556,153
1604668945.0576,-433
1604668945.0597,-311
1604668945.0617,-46
1604668945.0636,-109
1604668945.0657,-158
1604668945.0676,-72
1604668945.0696,-46
1604668945.0716,-75
1604668945.0723,-58
1604668945.0737,-14
1604668945.0756,-2
1604668945.0776,-7
1604668945.0796,2
1604668945.0816,0
1604668945.0836,-7
1604668945.0856,24
1604668945.0876,53
1604668945.0896,34
1604668945.0916,31
1604668945.0936,72
1604668945.0956,97
1604668945.0977,102
1604668945.5341,114
1604668945.5346,136
1604668945.5360,150
1604668945.5381,116
1604668945.5401,77
1604668945.5420,92
1604668945.5441,82
1604668945.5461,12
1604668945.5481,-36
1604668945.5501,-48
1604668945.5521,-94
1604668945.5541,-143
1604668945.5561,-97
1604668945.5580,-63
1604668945.5601,-107
1604668945.5608,-111
1604668945.5622,-72
1604668945.5640,-80
1604668945.5661,-104
1604668945.5681,-107
1604668945.5701,-119
1604668945.5721,-126
1604668945.5741,-68
1604668945.5761,-29
1604668945.5781,-92
1604668945.5801,-124
1604668945.5821,-72
1604668945.5841,-41
1604668945.5861,-55
1604668945.5881,-60
1604668945.5900,-55
1604668945.5907,-46
1604668945.5921,-43
1604668945.5940,-77
1604668945.5961,-85
1604668945.5980,-46
1604668945.6001,-34
1604668945.6021,-46
1604668945.6041,-72
1604668945.6061,-104
1604668945.6081,-70
1604668945.6101,-31
1604668945.6121,-53
1604668945.6141,-51
1604668945.6161,-43
1604668945.6167,-48
1604668945.6181,-26
1604668945.6201,-24
1604668945.6221,-36
1604668945.6241,4
1604668945.6261,26
1604668945.6282,-26
1604668945.6301,-55
1604668945.6321,-9
1604668945.6341,17
1604668945.6360,-4
1604668945.6380,-24
1604668945.6400,-48
1604668945.6421,-48
1604668945.6440,-9
1604668945.6461,-17
1604668945.6467,-46
1604668945.6481,-29
1604668945.6501,7
1604668945.6520,70
1604668945.6541,277
1604668945.6560,688
1604668945.6589,1053
1604668945.6593,863
1604668945.6611,121
1604668945.6630,-391
1604668945.6651,-284
1604668945.6671,-80
1604668946.0738,-85
1604668946.0744,-53
1604668946.0767,4
1604668946.0794,-51
1604668946.0814,-85
1604668946.0822,-51
1604668946.0844,-48
1604668946.0864,-55
1604668946.0884,-48
1604668946.0904,-29
1604668946.0924,-7
1604668946.0944,-7
1604668946.0964,14
1604668946.0984,60
1604668946.1004,53
1604668946.1024,19
1604668946.1044,19
1604668946.1064,51
1604668946.1084,60
1604668946.1105,77
1604668946.1124,150
1604668946.1131,153
1604668946.1145,87
1604668946.1164,87
1604668946.1184,85
1604668946.1204,43
1604668946.1225,12
1604668946.1244,-12
1604668946.1264,-4
1604668946.1285,4
1604668946.1304,-31
1604668946.1324,-60
1604668946.1344,-65
1604668946.1364,-80
1604668946.1384,-72
1604668946.1404,-46
1604668946.1424,-58
1604668946.1444,-75
1604668946.1464,-46
1604668946.1484,-19
1604668946.1504,-36
1604668946.1524,-38
1604668946.1544,-29
1604668946.1564,-43
1604668946.1584,-53
1604668946.1604,-34
1604668946.1624,-29
1604668946.1644,-46
1604668946.1664,-34
1604668946.1684,-9
1604668946.1704,-29
1604668946.1724,-29
1604668946.1744,4
1604668946.1764,-2
1604668946.1784,-46
1604668946.1804,-60
1604668946.1824,-51
1604668946.1844,-43
1604668946.1864,-46
1604668946.1884,-41
1604668946.1904,-31
1604668946.1924,-21
1604668946.1944,-17
1604668946.1964,-17
1604668946.1984,-24
1604668946.2004,-43
1604668946.2024,-43
1604668946.2044,-34
1604668946.2065,-53
1604668946.2084,-51
1604668946.2104,2
1604668946.2124,46
1604668946.2144,21
1604668946.6436,-9
1604668946.6444,2
1604668946.6469,2
1604668946.6495,-36
1604668946.6515,-55
1604668946.6535,-51
1604668946.6556,-58
1604668946.6578,-63
1604668946.6595,-38
1604668946.6615,-7
1604668946.6636,-29
1604668946.6655,-36
1604668946.6675,209
1604668946.6695,661
1604668946.6715,939
1604668946.6735,754
1604668946.6755,153
1604668946.6775,-345
1604668946.6795,-333
1604668946.6815,-138
1604668946.6835,-116
1604668946.6855,-121
1604668946.6876,-60
1604668946.6895,-63
1604668946.6915,-107
1604668946.6934,-124
1604668946.6954,-102
1604668946.6974,-46
1604668946.6994,-24
1604668946.7015,-14
1604668946.7035,17
1604668946.7054,-12
1604668946.7074,-36
1604668946.7094,-4
1604668946.7114,-4
1604668946.7134,2
1604668946.7155,43
1604668946.7175,58
1604668946.7194,85
1604668946.7214,102
1604668946.7234,87
1604668946.7254,124
1604668946.7274,141
1604668946.7294,87
1604668946.7314,48
1604668946.7334,34
1604668946.7354,0
1604668946.7374,-31
1604668946.7394,-36
1604668946.7414,-58
1604668946.7434,-87
1604668946.7454,-70
1604668946.7474,-53
1604668946.7494,-60
1604668946.7514,-72
1604668946.7534,-82
1604668946.7554,-90
1604668946.7574,-85
1604668946.7596,-65
1604668946.7615,-65
1604668946.7635,-99
1604668946.7654,-68
1604668946.7674,-26
1604668946.7694,-75
1604668946.7714,-82
1604668946.7734,-14
1604668946.7754,2
1604668946.7774,-41
1604668946.7794,-55
1604668946.7814,-17
1604668946.7834,-34
1604668946.7854,-72
1604668946.7875,-19
1604668947.2135,-21
1604668947.2143,-99
1604668947.2167,-68
1604668947.2194,-2
1604668947.2213,-46
1604668947.2233,-82
1604668947.2253,-60
1604668947.2273,-77
1604668947.2293,-104
1604668947.2313,-87
1604668947.2333,-92
1604668947.2353,-107
1604668947.2373,-51
1604668947.2393,9
1604668947.2413,-17
1604668947.2433,-38
1604668947.2453,-4
1604668947.2473,-2
1604668947.2493,-36
1604668947.2513,-48
1604668947.2533,-65
1604668947.2553,-94
1604668947.2573,-82
1604668947.2593,-48
1604668947.2613,-14
1604668947.2633,-14
1604668947.2653,-58
1604668947.2673,-63
1604668947.2693,-24
1604668947.2713,-14
1604668947.2733,58
1604668947.2753,367
1604668947.2773,817
1604668947.2793,973
1604668947.2814,540
1604668947.2833,-124
1604668947.2855,-391
1604668947.2873,-211
1604668947.2893,-82
1604668947.2913,-121
1604668947.2933,-85
1604668947.2953,-38
1604668947.2973,-87
1604668947.2993,-97
1604668947.3013,-36
1604668947.3033,-24
1604668947.3053,-51
1604668947.3073,-31
1604668947.3093,0
1604668947.3113,24
1604668947.3133,38
1604668947.3153,29
1604668947.3173,36
1604668947.3193,60
1604668947.3213,75
1604668947.3233,87
1604668947.3253,82
1604668947.3273,75
1604668947.3293,111
1604668947.3313,143
1604668947.3332,128
1604668947.3352,121
1604668947.3373,119
1604668947.3393,75
1604668947.3413,38
1604668947.3433,34
1604668947.3453,0
1604668947.3473,-24
1604668947.3493,-14
1604668947.3513,-29
1604668947.3533,-72
1604668947.3553,-82
1604668947.3573,-60
1604668947.7836,-36
1604668947.7843,-38
1604668947.7868,-63
1604668947.7894,-55
1604668947.7914,-41
1604668947.7934,-41
1604668947.7955,-24
1604668947.7974,-34
1604668947.7994,-43
1604668947.8014,-31
1604668947.8034,-63
1604668947.8054,-90
1604668947.8075,-55
1604668947.8094,-19
1604668947.8117,-12
1604668947.8134,-24
1604668947.8153,-21
1604668947.8173,-24
1604668947.8180,-24
1604668947.8194,2
1604668947.8214,-17
1604668947.8234,-55
1604668947.8253,-26
1604668947.8273,-7
1604668947.8293,-38
1604668947.8313,-41
1604668947.8334,-4
1604668947.8353,0
1604668947.8373,4
1604668947.8393,24
1604668947.8413,19
1604668947.8433,31
1604668947.8453,46
1604668947.8473,26
1604668947.8480,12
1604668947.8493,21
1604668947.8513,21
1604668947.8533,21
1604668947.8553,7
1604668947.8574,-17
1604668947.8593,-2
1604668947.8613,17
1604668947.8633,4
1604668947.8653,-9
1604668947.8673,-4
1604668947.8693,12
1604668947.8713,31
1604668947.8733,192
1604668947.8753,596
1604668947.8773,1024
1604668947.8780,1021
1604668947.8793,394
1604668947.8813,-277
1604668947.8833,-338
1604668947.8853,-99
1604668947.8873,-53
1604668947.8893,-68
1604668947.8914,-14
1604668947.8933,-7
1604668947.8953,-31
1604668947.8973,4
1604668947.8993,41
1604668947.9013,17
1604668947.9033,12
1604668947.9053,19
1604668947.9074,29
1604668947.9080,80
1604668947.9093,102
1604668947.9113,68
1604668947.9133,77
1604668947.9153,128
1604668947.9173,136
1604668947.9193,114
1604668948.3238,128
1604668948.3244,148
1604668948.3268,163
1604668948.3295,180
1604668948.3315,145
1604668948.3335,104
1604668948.3355,153
1604668948.3361,187
1604668948.3375,116
1604668948.3395,29
1604668948.3414,17
1604668948.3434,38
1604668948.3454,9
1604668948.3474,-14
1604668948.3494,17
1604668948.3514,24
1604668948.3534,-9
1604668948.3555,-43
1604668948.3575,-53
1604668948.3595,-31
1604668948.3614,0
1604668948.3635,-7
1604668948.3654,-21
1604668948.3661,-14
1604668948.3674,0
1604668948.3695,7
1604668948.3715,-7
1604668948.3734,-29
1604668948.3754,-12
1604668948.3774,14
1604668948.3794,-7
1604668948.3814,-41
1604668948.3835,-41
1604668948.3854,-26
1604668948.3874,-24
1604668948.3894,-24
1604668948.3914,-2
1604668948.3935,9
1604668948.3955,-17
1604668948.3961,-43
1604668948.3974,-31
1604668948.3994,-4
1604668948.4014,-29
1604668948.4036,-65
1604668948.4054,-53
1604668948.4074,-12
1604668948.4094,21
1604668948.4114,21
1604668948.4134,-4
1604668948.4154,-26
1604668948.4174,-21
1604668948.4195,-4
1604668948.4214,-12
1604668948.4234,-48
1604668948.4254,-77
1604668948.4260,-58
1604668948.4274,-46
1604668948.4295,-87
1604668948.4314,-99
1604668948.4334,-58
1604668948.4354,-63
1604668948.4374,-60
1604668948.4394,121
1604668948.4414,486
1604668948.4434,854
1604668948.4454,934
1604668948.4475,437
1604668948.4495,-316
1604668948.4514,-535
1604668948.4534,-255
1604668948.4540,-163
1604668948.4555,-238
1604668948.4574,-160
1604668948.8939,-82
1604668948.8948,-133
1604668948.8972,-170
1604668948.8999,-141
1604668948.9018,-150
1604668948.9038,-158
1604668948.9059,-82
1604668948.9079,-48
1604668948.9099,-107
1604668948.9118,-97
1604668948.9138,-21
1604668948.9158,-17
1604668948.9165,-51
1604668948.9178,-48
1604668948.9197,-17
1604668948.9218,24
1604668948.9237,21
1604668948.9258,-12
1604668948.9277,-7
1604668948.9298,46
1604668948.9318,36
1604668948.9339,-17
1604668948.9357,-48
1604668948.9378,-70
1604668948.9398,-80
1604668948.9418,-124
1604668948.9438,-197
1604668948.9458,-223
1604668948.9464,-194
1604668948.9478,-167
1604668948.9498,-182
1604668948.9517,-209
1604668948.9538,-226
1604668948.9557,-253
1604668948.9578,-216
1604668948.9598,-126
1604668948.9617,-167
1604668948.9638,-262
1604668948.9659,-214
1604668948.9677,-167
1604668948.9697,-206
1604668948.9718,-211
1604668948.9737,-189
1604668948.9758,-163
1604668948.9764,-160
1604668948.9777,-201
1604668948.9798,-197
1604668948.9818,-150
1604668948.9838,-172
1604668948.9858,-197
1604668948.9878,-184
1604668948.9900,-206
1604668948.9918,-192
1604668948.9938,-126
1604668948.9958,-133
1604668948.9978,-177
1604668948.9998,-172
1604668949.0017,-150
1604668949.0037,-177
1604668949.0057,-199
1604668949.0064,-177
1604668949.0077,-160
1604668949.0098,-153
1604668949.0118,-124
1604668949.0138,-109
1604668949.0157,-128
1604668949.0177,-121
1604668949.0198,-150
1604668949.0218,-214
1604668949.0238,-192
1604668949.0257,-172
1604668949.0278,-204
1604668949.0299,-172
1604668949.4340,-138
1604668949.4349,-182
1604668949.4373,-189
1604668949.4400,-87
1604668949.4419,111
1604668949.4439,455
1604668949.4460,844
1604668949.4479,858
1604668949.4500,211
1604668949.4519,-530
1604668949.4539,-591
1604668949.4559,-287
1604668949.4579,-253
1604668949.4600,-296
1604668949.4618,-197
1604668949.4638,-153
1604668949.4658,-180
1604668949.4666,-153
1604668949.4679,-150
1604668949.4699,-177
1604668949.4718,-143
1604668949.4739,-119
1604668949.4758,-138
1604668949.4778,-148
1604668949.4798,-133
1604668949.4819,-80
1604668949.4838,-38
1604668949.4858,-48
1604668949.4878,-41
1604668949.4899,-2
1604668949.4919,2
1604668949.4939,-24
1604668949.4958,-14
1604668949.4965,55
1604668949.4978,87
1604668949.4999,46
1604668949.5018,9
1604668949.5039,-31
1604668949.5058,-85
1604668949.5079,-119
1604668949.5098,-145
1604668949.5119,-163
1604668949.5139,-170
1604668949.5159,-172
1604668949.5178,-150
1604668949.5199,-136
1604668949.5218,-153
1604668949.5239,-160
1604668949.5259,-158
1604668949.5265,-158
1604668949.5280,-153
1604668949.5299,-163
1604668949.5318,-175
1604668949.5338,-138
1604668949.5358,-82
1604668949.5378,-70
1604668949.5399,-124
1604668949.5419,-170
1604668949.5438,-116
1604668949.5459,-60
1604668949.5479,-92
1604668949.5499,-138
1604668949.5519,-131
1604668949.5539,-87
1604668949.5559,-53
1604668949.5565,-65
1604668949.5579,-102
1604668949.5599,-97
1604668949.5619,-72
1604668949.5639,-85
1604668949.5659,-90
1604668949.5679,-58
1604668949.5698,-63
1604668950.0034,-99
1604668950.0039,-107
1604668950.0067,-65
1604668950.0089,-24
1604668950.0109,-46
1604668950.0129,-34
1604668950.0150,0
1604668950.0156,-48
1604668950.0170,-97
1604668950.0188,-85
1604668950.0209,-60
1604668950.0229,-46
1604668950.0248,-63
1604668950.0269,-85
1604668950.0288,-60
1604668950.0309,-41
1604668950.0329,-58
1604668950.0349,-68
1604668950.0369,-68
1604668950.0389,-51
1604668950.0409,46
1604668950.0428,313
1604668950.0449,742
1604668950.0455,1034
1604668950.0469,729
1604668950.0488,-36
1604668950.0509,-476
1604668950.0528,-333
1604668950.0551,-116
1604668950.0569,-92
1604668950.0589,-102
1604668950.0609,-85
1604668950.0629,-77
1604668950.0649,-80
1604668950.0669,-75
1604668950.0689,-43
1604668950.0709,-14
1604668950.0729,-46
1604668950.0748,-58
1604668950.0755,0
1604668950.0769,24
1604668950.0788,7
1604668950.0809,29
1604668950.0829,46
1604668950.0848,46
1604668950.0869,92
1604668950.0888,126
1604668950.0909,107
1604668950.0929,92
1604668950.0949,92
1604668950.0968,128
1604668950.0989,170
1604668950.1009,150
1604668950.1029,99
1604668950.1048,41
1604668950.1056,-2
1604668950.1068,-4
1604668950.1088,-12
1604668950.1109,-38
1604668950.1129,-46
1604668950.1148,-31
1604668950.1169,-26
1604668950.1188,-53
1604668950.1209,-70
1604668950.1229,-70
1604668950.1249,-58
1604668950.1269,-60
1604668950.1289,-72
1604668950.1309,-46
1604668950.1328,-12
1604668950.1349,-24
1604668950.1355,-46
1604668950.1368,-46
1604668950.5439,-31
1604668950.5447,-31
1604668950.5471,-19
1604668950.5498,-19
1604668950.5517,-55
1604668950.5537,-46
1604668950.5561,4
1604668950.5578,-21
1604668950.5598,-60
1604668950.5617,-24
1604668950.5637,-38
1604668950.5657,-126
1604668950.5664,-153
1604668950.5677,-99
1604668950.5697,9
1604668950.5718,77
1604668950.5737,19
1604668950.5757,-55
1604668950.5777,-43
1604668950.5798,-4
1604668950.5816,-4
1604668950.5836,-26
1604668950.5856,-34
1604668950.5876,-43
1604668950.5897,-43
1604668950.5917,-7
1604668950.5937,-17
1604668950.5944,-72
1604668950.5967,-17
1604668950.5987,48
1604668950.6007,-51
1604668950.6028,-119
1604668950.6047,-24
1604668950.6066,17
1604668950.6087,-72
1604668950.6107,-82
1604668950.6126,-2
1604668950.6147,2
1604668950.6166,-46
1604668950.6187,-41
1604668950.6206,24
1604668950.6227,201
1604668950.6246,562
1604668950.6253,934
1604668950.6267,902
1604668950.6287,304
1604668950.6307,-299
1604668950.6327,-357
1604668950.6346,-128
1604668950.6367,-43
1604668950.6387,-85
1604668950.6407,-87
1604668950.6426,-70
1604668950.6447,-58
1604668950.6466,-36
1604668950.6486,-24
1604668950.6507,-34
1604668950.6528,-31
1604668950.6547,12
1604668950.6630,31
1604668950.6646,7
1604668950.6666,21
1604668950.6687,63
1604668950.6707,55
1604668950.6726,53
1604668950.6747,104
1604668950.6767,102
1604668950.6786,99
1604668950.6807,148
1604668950.6827,128
1604668950.6847,111
1604668950.6866,167
1604668950.6887,155
1604668951.1437,99
1604668951.1444,82
1604668951.1463,29
1604668951.1482,-12
1604668951.1502,26
1604668951.1521,12
1604668951.1542,-36
1604668951.1562,-7
1604668951.1582,-24
1604668951.1602,-85
1604668951.1622,-65
1604668951.1642,-41
1604668951.1661,-48
1604668951.1682,-26
1604668951.1701,-29
1604668951.1708,-46
1604668951.1731,-4
1604668951.1751,9
1604668951.1771,-38
1604668951.1792,-53
1604668951.1811,-14
1604668951.1831,4
1604668951.1851,-29
1604668951.1871,-68
1604668951.1891,-34
1604668951.1911,14
1604668951.1931,0
1604668951.1951,-7
1604668951.1971,7
1604668951.1991,-7
1604668951.2011,-29
1604668951.2018,-21
1604668951.2041,0
1604668951.2061,-2
1604668951.2081,-7
1604668951.2103,17
1604668951.2121,14
1604668951.2141,-24
1604668951.2161,-9
1604668951.2181,41
1604668951.2201,21
1604668951.2221,-36
1604668951.2241,-31
1604668951.2261,19
1604668951.2281,26
1604668951.2301,12
1604668951.2321,21
1604668951.2328,38
1604668951.2351,63
1604668951.2371,70
1604668951.2391,38
1604668951.2411,7
1604668951.2432,9
1604668951.2451,31
1604668951.2471,2
1604668951.2491,-38
1604668951.2511,-17
1604668951.2531,-19
1604668951.2551,-55
1604668951.2571,-4
1604668951.2591,60
1604668951.2611,24
1604668951.2631,17
1604668951.2641,231
1604668951.2661,605
1604668951.2681,946
1604668951.2701,963
1604668951.2721,416
1604668951.2741,-250
1604668951.2761,-374
1604668951.2781,-143
1604668951.2801,-34
1604668951.2821,-51
1604668951.6832,-70
1604668951.6837,-31
1604668951.6848,0
1604668951.6856,-14
1604668951.6878,0
1604668951.6898,12
1604668951.6918,-19
1604668951.6938,-9
1604668951.6958,21
1604668951.6978,2
1604668951.6998,-9
1604668951.7018,-2
1604668951.7038,7
1604668951.7060,46
1604668951.7079,68
1604668951.7098,60
1604668951.7118,80
1604668951.7138,119
1604668951.7158,126
1604668951.7166,104
1604668951.7188,107
1604668951.7208,128
1604668951.7228,92
1604668951.7248,29
1604668951.7268,46
1604668951.7288,46
1604668951.7308,-19
1604668951.7328,-41
1604668951.7348,-51
1604668951.7368,-75
1604668951.7388,-48
1604668951.7408,-38
1604668951.7428,-99
1604668951.7448,-104
1604668951.7468,-34
1604668951.7475,-24
1604668951.7498,-41
1604668951.7518,-24
1604668951.7538,-43
1604668951.7559,-65
1604668951.7578,-60
1604668951.7598,-63
1604668951.7618,-63
1604668951.7638,-36
1604668951.7658,-17
1604668951.7678,-31
1604668951.7698,-36
1604668951.7718,-19
1604668951.7738,-12
1604668951.7758,-4
1604668951.7779,-24
1604668951.7786,-55
1604668951.7808,-34
1604668951.7828,-17
1604668951.7848,-43
1604668951.7868,-38
1604668951.7888,7
1604668951.7908,9
1604668951.7928,-34
1604668951.7948,-48
1604668951.7968,-21
1604668951.7988,7
1604668951.8008,-17
1604668951.8028,-55
1604668951.8049,-34
1604668951.8068,-2
1604668951.8088,-12
1604668951.8096,-24
1604668951.8108,-26
1604668951.8128,0
1604668951.8148,51
1604668951.8168,53
1604668951.8188,7
1604668952.2835,-2
1604668952.2843,19
1604668952.2867,12
1604668952.2895,-9
1604668952.2914,-19
1604668952.2934,-29
1604668952.2954,-58
1604668952.2974,-85
1604668952.2980,-43
1604668952.2994,-17
1604668952.3013,-60
1604668952.3033,-58
1604668952.3053,48
1604668952.3074,262
1604668952.3093,620
1604668952.3113,936
1604668952.3133,781
1604668952.3153,111
1604668952.3173,-369
1604668952.3193,-265
1604668952.3213,-77
1604668952.3233,-107
1604668952.3253,-107
1604668952.3273,-48
1604668952.3280,-53
1604668952.3293,-77
1604668952.3313,-75
1604668952.3333,-60
1604668952.3353,-43
1604668952.3373,-12
1604668952.3393,31
1604668952.3413,34
1604668952.3433,-2
1604668952.3453,12
1604668952.3473,41
1604668952.3493,26
1604668952.3513,21
1604668952.3532,48
1604668952.3553,65
1604668952.3573,90
1604668952.3579,126
1604668952.3593,104
1604668952.3615,65
1604668952.3633,104
1604668952.3653,119
1604668952.3673,68
1604668952.3693,51
1604668952.3713,36
1604668952.3733,-2
1604668952.3753,-36
1604668952.3765,-63
1604668952.3783,-43
1604668952.3803,-24
1604668952.3823,-53
1604668952.3843,-75
1604668952.3849,-90
1604668952.3863,-107
1604668952.3883,-87
1604668952.3903,-65
1604668952.3923,-77
1604668952.3943,-85
1604668952.3963,-60
1604668952.3983,-38
1604668952.4003,-46
1604668952.4022,-63
1604668952.4043,-63
1604668952.4063,-60
1604668952.4083,-70
1604668952.4103,-58
1604668952.4123,-41
1604668952.4143,-55
1604668952.4149,-65
1604668952.4163,-58
1604668952.7941,-72
1604668952.7949,-82
1604668952.7963,-53
1604668952.7982,-29
1604668952.8001,-36
1604668952.8022,-38
1604668952.8042,-43
1604668952.8062,-53
1604668952.8081,-70
1604668952.8101,-65
1604668952.8122,-14
1604668952.8142,-19
1604668952.8162,-77
1604668952.8182,-90
1604668952.8189,-55
1604668952.8201,-19
1604668952.8221,-34
1604668952.8241,-68
1604668952.8260,-65
1604668952.8280,-38
1604668952.8304,7
1604668952.8321,31
1604668952.8341,-17
1604668952.8361,-72
1604668952.8381,-46
1604668952.8400,-7
1604668952.8421,-46
1604668952.8440,-92
1604668952.8460,-85
1604668952.8480,-65
1604668952.8486,-65
1604668952.8501,-70
1604668952.8521,-65
1604668952.8541,-53
1604668952.8561,19
1604668952.8581,177
1604668952.8601,455
1604668952.8620,851
1604668952.8640,948
1604668952.8660,367
1604668952.8680,-318
1604668952.8700,-384
1604668952.8720,-121
1604668952.8741,-80
1604668952.8760,-143
1604668952.8780,-87
1604668952.8786,-43
1604668952.8800,-77
1604668952.8820,-60
1604668952.8840,-9
1604668952.8860,-29
1604668952.8880,-58
1604668952.8900,-24
1604668952.8920,24
1604668952.8941,21
1604668952.8960,-21
1604668952.8980,-21
1604668952.9001,38
1604668952.9020,63
1604668952.9040,31
1604668952.9060,21
1604668952.9066,41
1604668952.9080,75
1604668952.9100,107
1604668952.9120,99
1604668952.9141,60
1604668952.9160,41
1604668952.9180,34
1604668952.9200,7
1604668952.9220,0
1604668952.9240,4
1604668952.9262,-41
1604668952.9280,-70
1604668953.3637,-60
1604668953.3643,-94
1604668953.3667,-121
1604668953.3684,-102
1604668953.3703,-97
1604668953.3723,-141
1604668953.3744,-163
1604668953.3764,-94
1604668953.3784,-63
1604668953.3804,-119
1604668953.3824,-109
1604668953.3843,-46
1604668953.3849,-72
1604668953.3864,-97
1604668953.3883,-53
1604668953.3903,-72
1604668953.3923,-124
1604668953.3943,-82
1604668953.3963,-34
1604668953.3983,-58
1604668953.4003,-38
1604668953.4023,-14
1604668953.4044,-72
1604668953.4063,-75
1604668953.4083,-4
1604668953.4104,-9
1604668953.4123,-75
1604668953.4143,-75
1604668953.4149,-31
1604668953.4163,-36
1604668953.4184,-55
1604668953.4203,-24
1604668953.4223,-21
1604668953.4243,-60
1604668953.4263,-46
1604668953.4283,-24
1604668953.4303,-26
1604668953.4323,0
1604668953.4343,21
1604668953.4363,9
1604668953.4383,0
1604668953.4403,9
1604668953.4423,14
1604668953.4443,-9
1604668953.4449,-29
1604668953.4463,-48
1604668953.4483,-60
1604668953.4503,-24
1604668953.4523,2
1604668953.4544,-29
1604668953.4563,-46
1604668953.4583,-31
1604668953.4603,-26
1604668953.4623,-24
1604668953.4643,53
1604668953.4663,316
1604668953.4683,751
1604668953.4703,1036
1604668953.4723,725
1604668953.4743,-38
1604668953.4749,-450
1604668953.4763,-282
1604668953.4783,-104
1604668953.4804,-111
1604668953.4823,-92
1604668953.4843,-77
1604668953.4863,-99
1604668953.4883,-53
1604668953.4903,-14
1604668953.4923,-41
1604668953.4943,-38
1604668953.4963,-21
1604668953.4983,-41
1604668953.9340,-29
1604668953.9348,12
1604668953.9372,26
1604668953.9383,41
1604668953.9399,46
1604668953.9419,38
1604668953.9439,65
1604668953.9460,85
1604668953.9479,75
1604668953.9501,92
1604668953.9518,111
1604668953.9539,102
1604668953.9559,92
1604668953.9579,85
1604668953.9599,77
1604668953.9618,58
1604668953.9638,7
1604668953.9659,-36
1604668953.9679,-43
1604668953.9684,-34
1604668953.9698,-53
1604668953.9718,-99
1604668953.9738,-92
1604668953.9758,-53
1604668953.9778,-75
1604668953.9798,-87
1604668953.9818,-43
1604668953.9840,-58
1604668953.9859,-102
1604668953.9878,-70
1604668953.9898,-29
1604668953.9918,-29
1604668953.9938,-29
1604668953.9958,-31
1604668953.9978,-46
1604668953.9984,-46
1604668953.9998,-19
1604668954.0018,4
1604668954.0038,-7
1604668954.0058,-24
1604668954.0078,-26
1604668954.0098,-19
1604668954.0118,-2
1604668954.0138,-4
1604668954.0158,-9
1604668954.0178,-7
1604668954.0198,-17
1604668954.0218,-24
1604668954.0238,-19
1604668954.0258,-14
1604668954.0278,-12
1604668954.0284,-17
1604668954.0298,4
1604668954.0318,34
1604668954.0338,-7
1604668954.0358,-68
1604668954.0378,-24
1604668954.0398,51
1604668954.0418,41
1604668954.0438,12
1604668954.0458,41
1604668954.0478,65
1604668954.0498,19
1604668954.0518,-29
1604668954.0538,-4
1604668954.0558,4
1604668954.0578,-29
1604668954.0584,-21
1604668954.0598,17
1604668954.0618,-4
1604668954.0638,-41
1604668954.0659,-34
1604668954.0678,-19
1604668954.5040,21
1604668954.5049,223
1604668954.5073,615
1604668954.5090,956
1604668954.5110,856
1604668954.5132,236
1604668954.5150,-343
1604668954.5170,-347
1604668954.5175,-126
1604668954.5189,-126
1604668954.5209,-150
1604668954.5229,-63
1604668954.5249,-46
1604668954.5270,-92
1604668954.5289,-72
1604668954.5309,-41
1604668954.5329,-53
1604668954.5349,-63
1604668954.5369,-48
1604668954.5390,-21
1604668954.5409,2
1604668954.5429,12
1604668954.5449,-12
1604668954.5470,2
1604668954.5475,77
1604668954.5489,97
1604668954.5509,65
1604668954.5529,80
1604668954.5549,116
1604668954.5569,111
1604668954.5589,92
1604668954.5609,87
1604668954.5629,87
1604668954.5649,72
1604668954.5669,34
1604668954.5688,7
1604668954.5709,21
1604668954.5729,31
1604668954.5749,-19
1604668954.5769,-85
1604668954.5775,-97
1604668954.5789,-63
1604668954.5809,-65
1604668954.5829,-121
1604668954.5849,-109
1604668954.5869,-53
1604668954.5889,-65
1604668954.5909,-85
1604668954.5929,-43
1604668954.5949,-43
1604668954.5969,-92
1604668954.5989,-80
1604668954.6009,-26
1604668954.6029,-9
1604668954.6049,-43
1604668954.6069,-87
1604668954.6076,-53
1604668954.6089,9
1604668954.6109,-7
1604668954.6129,-46
1604668954.6149,-26
1604668954.6169,2
1604668954.6188,-2
1604668954.6209,-17
1604668954.6229,-19
1604668954.6249,-24
1604668954.6269,-43
1604668954.6289,-55
1604668954.6309,-38
1604668954.6329,-24
1604668954.6349,-9
1604668954.6369,4
1604668954.6375,-4
1604668955.1336,-7
1604668955.1347,-12
1604668955.1371,-19
1604668955.1398,-7
1604668955.1418,-2
1604668955.1438,21
1604668955.1459,34
1604668955.1478,2
1604668955.1498,9
1604668955.1518,19
1604668955.1538,-19
1604668955.1558,-31
1604668955.1578,0
1604668955.1598,-17
1604668955.1605,-58
1604668955.1618,-43
1604668955.1637,-17
1604668955.1657,-19
1604668955.1678,-21
1604668955.1697,-41
1604668955.1717,-63
1604668955.1737,55
1604668955.1757,377
1604668955.1777,764
1604668955.1798,944
1604668955.1817,601
1604668955.1837,-82
1604668955.1857,-399
1604668955.1877,-214
1604668955.1898,-72
1604668955.1902,-124
1604668955.1917,-133
1604668955.1936,-90
1604668955.1957,-75
1604668955.1978,-58
1604668955.1998,-53
1604668955.2017,-72
1604668955.2036,-60
1604668955.2056,-31
1604668955.2076,-34
1604668955.2096,-34
1604668955.2116,-24
1604668955.2136,-14
1604668955.2156,31
1604668955.2177,65
1604668955.2196,55
1604668955.2202,51
1604668955.2217,43
1604668955.2236,55
1604668955.2256,107
1604668955.2277,109
1604668955.2297,77
1604668955.2316,97
1604668955.2336,102
1604668955.2356,53
1604668955.2377,29
1604668955.2397,4
1604668955.2417,-36
1604668955.2437,-55
1604668955.2456,-60
1604668955.2476,-77
1604668955.2496,-104
1604668955.2502,-102
1604668955.2517,-90
1604668955.2537,-119
1604668955.2556,-114
1604668955.2577,-48
1604668955.2597,-31
1604668955.2616,-68
1604668955.2637,-87
1604668955.2657,-80
1604668955.2676,-68
1604668955.2697,-58
1604668955.6136,-58
1604668955.6147,-63
1604668955.6163,-51
1604668955.6187,-36
1604668955.6207,-34
1604668955.6227,-38
1604668955.6247,-41
1604668955.6268,-38
1604668955.6287,-21
1604668955.6307,-24
1604668955.6327,-43
1604668955.6347,-36
1604668955.6370,-34
1604668955.6387,-53
1604668955.6407,-36
1604668955.6427,-29
1604668955.6446,-43
1604668955.6467,-51
1604668955.6472,-70
1604668955.6487,-82
1604668955.6506,-63
1604668955.6526,-53
1604668955.6547,-65
1604668955.6566,-60
1604668955.6587,-48
1604668955.6606,-34
1604668955.6626,0
1604668955.6647,19
1604668955.6666,-7
1604668955.6686,-41
1604668955.6706,-51
1604668955.6726,-43
1604668955.6746,-26
1604668955.6766,-17
1604668955.6772,-38
1604668955.6786,-58
1604668955.6807,-48
1604668955.6827,-46
1604668955.6846,-48
1604668955.6867,-12
1604668955.6886,-7
1604668955.6906,-60
1604668955.6926,26
1604668955.6946,343
1604668955.6966,725
1604668955.6986,941
1604668955.7006,678
1604668955.7026,-12
1604668955.7046,-423
1604668955.7066,-270
1604668955.7072,-92
1604668955.7086,-124
1604668955.7106,-124
1604668955.7126,-68
1604668955.7147,-63
1604668955.7166,-80
1604668955.7186,-63
1604668955.7206,-46
1604668955.7226,-46
1604668955.7246,-21
1604668955.7266,-7
1604668955.7286,-9
1604668955.7306,17
1604668955.7327,9
1604668955.7346,-7
1604668955.7366,34
1604668955.7372,53
1604668955.7386,48
1604668955.7406,80
1604668955.7426,124
1604668955.7446,128
1604668955.7466,102
1604668955.7486,104
1604668956.2137,111
1604668956.2149,102
1604668956.2174,87
1604668956.2199,36
1604668956.2220,-19
1604668956.2239,-48
1604668956.2259,-55
1604668956.2265,-41
1604668956.2279,-46
1604668956.2299,-80
1604668956.2319,-90
1604668956.2339,-77
1604668956.2359,-92
1604668956.2379,-116
1604668956.2399,-109
1604668956.2419,-87
1604668956.2438,-80
1604668956.2459,-82
1604668956.2478,-80
1604668956.2499,-65
1604668956.2519,-68
1604668956.2538,-51
1604668956.2558,-26
1604668956.2564,-58
1604668956.2578,-75
1604668956.2599,-48
1604668956.2618,-55
1604668956.2639,-48
1604668956.2659,4
1604668956.2678,-9
1604668956.2699,-58
1604668956.2718,-34
1604668956.2738,-2
1604668956.2759,-26
1604668956.2778,-38
1604668956.2799,-36
1604668956.2818,-43
1604668956.2838,-46
1604668956.2859,-19
1604668956.2864,0
1604668956.2878,-17
1604668956.2900,-14
1604668956.2918,0
1604668956.2938,-14
1604668956.2958,-9
1604668956.2979,4
1604668956.2999,12
1604668956.3018,36
1604668956.3038,31
1604668956.3058,19
1604668956.3078,19
1604668956.3099,4
1604668956.3118,21
1604668956.3138,29
1604668956.3158,-12
1604668956.3164,-34
1604668956.3178,-21
1604668956.3198,4
1604668956.3218,0
1604668956.3238,-24
1604668956.3258,-7
1604668956.3278,72
1604668956.3298,243
1604668956.3318,569
1604668956.3338,944
1604668956.3358,939
1604668956.3378,328
1604668956.3398,-311
1604668956.3418,-372
1604668956.3438,-119
1604668956.3458,-36
1604668956.3464,-82
1604668956.3478,-68
1604668956.7236,-55
1604668956.7243,-80
1604668956.7267,-38
1604668956.7293,19
1604668956.7313,-4
1604668956.7333,-48
1604668956.7353,-29
1604668956.7373,19
1604668956.7393,19
1604668956.7413,19
1604668956.7433,48
1604668956.7453,53
1604668956.7473,34
1604668956.7479,29
1604668956.7493,70
1604668956.7513,119
1604668956.7533,111
1604668956.7553,102
1604668956.7572,136
1604668956.7594,155
1604668956.7613,124
1604668956.7632,68
1604668956.7652,41
1604668956.7672,55
1604668956.7694,36
1604668956.7713,-14
1604668956.7732,-38
1604668956.7752,-55
1604668956.7758,-53
1604668956.7772,-63
1604668956.7792,-104
1604668956.7813,-104
1604668956.7832,-63
1604668956.7852,-51
1604668956.7873,-58
1604668956.7892,-63
1604668956.7912,-55
1604668956.7932,-48
1604668956.7953,-53
1604668956.7973,-53
1604668956.7992,-51
1604668956.8012,-43
1604668956.8033,-58
1604668956.8053,-53
1604668956.8058,19
1604668956.8072,34
1604668956.8092,-26
1604668956.8112,-24
1604668956.8133,4
1604668956.8152,-21
1604668956.8173,-53
1604668956.8192,-41
1604668956.8212,2
1604668956.8233,19
1604668956.8253,-9
1604668956.8273,-19
1604668956.8293,9
1604668956.8313,-2
1604668956.8332,-43
1604668956.8352,-14
1604668956.8358,0
1604668956.8372,-41
1604668956.8394,0
1604668956.8412,53
1604668956.8433,36
1604668956.8452,21
1604668956.8472,-21
1604668956.8493,-38
1604668956.8512,41
1604668956.8532,68
1604668956.8554,-14
1604668956.8573,-41
1604668956.8592,0
1604668957.2645,-4
1604668957.2654,-36
1604668957.2679,-21
1604668957.2705,-7
1604668957.2725,-38
1604668957.2745,-75
1604668957.2765,-92
1604668957.2786,-21
1604668957.2805,223
1604668957.2825,593
1604668957.2844,924
1604668957.2864,897
1604668957.2885,304
1604668957.2905,-345
1604668957.2925,-425
1604668957.2945,-187
1604668957.2965,-87
1604668957.2971,-126
1604668957.2985,-126
1604668957.3004,-80
1604668957.3024,-70
1604668957.3044,-41
1604668957.3064,-26
1604668957.3084,-77
1604668957.3105,-90
1604668957.3125,-43
1604668957.3144,-41
1604668957.3164,-43
1604668957.3184,9
1604668957.3204,46
1604668957.3224,9
1604668957.3244,-2
1604668957.3264,38
1604668957.3270,72
1604668957.3284,102
1604668957.3304,107
1604668957.3324,92
1604668957.3344,58
1604668957.3364,-7
1604668957.3384,38
1604668957.3404,177
1604668957.3424,114
1604668957.3445,-36
1604668957.3464,-12
1604668957.3484,14
1604668957.3505,-65
1604668957.3524,-87
1604668957.3544,-53
1604668957.3566,-82
1604668957.3570,-126
1604668957.3584,-114
1604668957.3605,-97
1604668957.3624,-97
1604668957.3644,-80
1604668957.3664,-94
1604668957.3684,-109
1604668957.3704,-87
1604668957.3724,-87
1604668957.3744,-92
1604668957.3764,-75
1604668957.3785,-60
1604668957.3805,-60
1604668957.3824,-58
1604668957.3844,-80
1604668957.3864,-126
1604668957.3870,-87
1604668957.3884,-38
1604668957.3904,-75
1604668957.3924,-97
1604668957.3945,-97
1604668957.3966,-85
1604668957.3984,-9
1604668957.4004,-43
1604668957.8641,-126
1604668957.8652,-48
1604668957.8667,-19
1604668957.8685,-99
1604668957.8706,-75
1604668957.8726,-24
1604668957.8745,-55
1604668957.8765,-87
1604668957.8771,-68
1604668957.8786,-82
1604668957.8806,-133
1604668957.8826,-24
1604668957.8846,107
1604668957.8866,12
1604668957.8886,-75
1604668957.8906,-38
1604668957.8925,-48
1604668957.8945,-109
1604668957.8965,-111
1604668957.8985,-131
1604668957.9005,-187
1604668957.9025,-99
1604668957.9045,34
1604668957.9065,2
1604668957.9071,-48
1604668957.9085,55
1604668957.9107,257
1604668957.9125,564
1604668957.9145,851
1604668957.9165,664
1604668957.9184,-4
1604668957.9204,-430
1604668957.9225,-301
1604668957.9245,-92
1604668957.9264,-63
1604668957.9285,-48
1604668957.9305,-70
1604668957.9325,-138
1604668957.9345,-77
1604668957.9365,-4
1604668957.9370,-68
1604668957.9385,-119
1604668957.9405,-90
1604668957.9425,-72
1604668957.9444,-41
1604668957.9465,17
1604668957.9484,19
1604668957.9505,12
1604668957.9524,12
1604668957.9545,-26
1604668957.9564,-9
1604668957.9585,55
1604668957.9605,51
1604668957.9624,48
1604668957.9645,85
1604668957.9664,92
1604668957.9671,99
1604668957.9684,90
1604668957.9704,46
1604668957.9725,38
1604668957.9744,38
1604668957.9765,0
1604668957.9784,-38
1604668957.9805,-36
1604668957.9824,-41
1604668957.9844,-99
1604668957.9865,-136
1604668957.9884,-133
1604668957.9905,-114
1604668957.9924,-82
1604668957.9944,-102
1604668957.9964,-97
1604668957.9970,-46
1604668958.4339,-48
1604668958.4347,-65
1604668958.4372,-97
1604668958.4398,-87
1604668958.4420,7
1604668958.4438,12
1604668958.4458,-58
1604668958.4478,-68
1604668958.4499,-41
1604668958.4518,-36
1604668958.4538,-53
1604668958.4558,-26
1604668958.4564,-2
1604668958.4578,-21
1604668958.4597,12
1604668958.4618,55
1604668958.4638,12
1604668958.4658,-2
1604668958.4678,9
1604668958.4698,-46
1604668958.4717,-58
1604668958.4737,-7
1604668958.4757,4
1604668958.4777,46
1604668958.4798,111
1604668958.4818,94
1604668958.4837,55
1604668958.4858,48
1604668958.4863,24
1604668958.4878,29
1604668958.4898,75
1604668958.4917,29
1604668958.4938,-38
1604668958.4958,2
1604668958.4978,24
1604668958.4998,-9
1604668958.5017,36
1604668958.5037,80
1604668958.5057,-9
1604668958.5077,-65
1604668958.5097,53
1604668958.5117,282
1604668958.5137,579
1604668958.5157,837
1604668958.5163,691
1604668958.5177,70
1604668958.5197,-357
1604668958.5217,-216
1604668958.5237,-43
1604668958.5257,-126
1604668958.5277,-145
1604668958.5297,-87
1604668958.5317,-116
1604668958.5337,-70
1604668958.5357,63
1604668958.5378,43
1604668958.5398,-36
1604668958.5417,-19
1604668958.5437,9
1604668958.5457,17
1604668958.5463,19
1604668958.5477,19
1604668958.5497,48
1604668958.5517,65
1604668958.5537,63
1604668958.5557,75
1604668958.5577,82
1604668958.5597,72
1604668958.5617,99
1604668958.5637,143
1604668958.5657,126
1604668958.5677,94
1604668958.5697,97
1604668958.9734,97
1604668958.9743,85
1604668958.9766,53
1604668958.9777,4
1604668958.9794,-46
1604668958.9806,-46
1604668958.9823,-26
1604668958.9843,-46
1604668958.9863,-55
1604668958.9883,-34
1604668958.9903,-58
1604668958.9924,-87
1604668958.9943,-72
1604668958.9963,-55
1604668958.9983,-72
1604668959.0003,-104
1604668959.0023,-104
1604668959.0043,-77
1604668959.0049,-43
1604668959.0063,-38
1604668959.0083,-75
1604668959.0103,-87
1604668959.0123,-65
1604668959.0143,-75
1604668959.0163,-82
1604668959.0183,-55
1604668959.0203,-85
1604668959.0222,-131
1604668959.0243,-80
1604668959.0262,-34
1604668959.0282,-75
1604668959.0303,-97
1604668959.0322,-65
1604668959.0345,-60
1604668959.0348,-77
1604668959.0363,-90
1604668959.0382,-109
1604668959.0403,-90
1604668959.0422,-53
1604668959.0443,-55
1604668959.0463,-65
1604668959.0482,-72
1604668959.0503,-80
1604668959.0522,-77
1604668959.0543,-109
1604668959.0562,-170
1604668959.0583,-172
1604668959.0603,-133
1604668959.0622,-116
1604668959.0642,-124
1604668959.0648,-143
1604668959.0663,-143
1604668959.0682,-136
1604668959.0703,-107
1604668959.0722,68
1604668959.0742,433
1604668959.0763,756
1604668959.0782,622
1604668959.0803,-26
1604668959.0822,-537
1604668959.0843,-452
1604668959.0863,-223
1604668959.0883,-228
1604668959.0902,-279
1604668959.0923,-243
1604668959.0942,-199
1604668959.0948,-201
1604668959.0963,-221
1604668959.0982,-226
1604668959.1003,-211
1604668959.1023,-197
1604668959.1043,-201
1604668959.1063,-216
1604668959.5439,-216
1604668959.5447,-214
1604668959.5472,-204
1604668959.5498,-143
1604668959.5518,-102
1604668959.5538,-141
1604668959.5559,-170
1604668959.5565,-141
1604668959.5578,-121
1604668959.5597,-141
1604668959.5618,-148
1604668959.5641,-148
1604668959.5658,-138
1604668959.5678,-150
1604668959.5697,-216
1604668959.5718,-243
1604668959.5737,-218
1604668959.5758,-267
1604668959.5777,-338
1604668959.5798,-301
1604668959.5817,-248
1604668959.5837,-272
1604668959.5858,-294
1604668959.5863,-282
1604668959.5878,-279
1604668959.5898,-291
1604668959.5917,-299
1604668959.5937,-287
1604668959.5957,-289
1604668959.5977,-313
1604668959.5997,-299
1604668959.6018,-236
1604668959.6037,-192
1604668959.6057,-221
1604668959.6077,-272
1604668959.6097,-253
1604668959.6117,-216
1604668959.6137,-243
1604668959.6157,-267
1604668959.6163,-238
1604668959.6177,-245
1604668959.6197,-274
1604668959.6217,-240
1604668959.6237,-206
1604668959.6257,-216
1604668959.6277,-209
1604668959.6298,-211
1604668959.6317,-238
1604668959.6337,-228
1604668959.6357,-197
1604668959.6377,-201
1604668959.6397,-194
1604668959.6417,-170
1604668959.6437,-184
1604668959.6457,-160
1604668959.6463,-107
1604668959.6477,-160
1604668959.6497,-228
1604668959.6517,-194
1604668959.6537,-177
1604668959.6557,-236
1604668959.6577,-238
1604668959.6598,-197
1604668959.6617,-177
1604668959.6637,-153
1604668959.6657,-119
1604668959.6677,-48
1604668959.6697,177
1604668959.6717,569
1604668959.6737,820
1604668959.6757,535
1604668959.6762,-182
1604668959.6777,-581
1604668960.0834,-350
1604668960.0842,-150
1604668960.0867,-233
1604668960.0893,-223
1604668960.0913,-153
1604668960.0933,-189
1604668960.0954,-201
1604668960.0973,-160
1604668960.0993,-158
1604668960.1012,-170
1604668960.1032,-145
1604668960.1053,-107
1604668960.1072,-77
1604668960.1079,-65
1604668960.1093,-90
1604668960.1112,-109
1604668960.1133,-107
1604668960.1153,-109
1604668960.1172,-12
1604668960.1192,97
1604668960.1212,48
1604668960.1233,4
1604668960.1252,53
1604668960.1272,24
1604668960.1292,-21
1604668960.1312,4
1604668960.1332,7
1604668960.1352,-34
1604668960.1372,-70
1604668960.1378,-102
1604668960.1392,-94
1604668960.1412,-75
1604668960.1433,-107
1604668960.1452,-136
1604668960.1472,-148
1604668960.1492,-182
1604668960.1512,-170
1604668960.1533,-102
1604668960.1552,-126
1604668960.1572,-175
1604668960.1594,-131
1604668960.1612,-119
1604668960.1632,-155
1604668960.1652,-197
1604668960.1672,-180
1604668960.1678,-53
1604668960.1692,-9
1604668960.1712,-94
1604668960.1732,-124
1604668960.1752,-107
1604668960.1772,-150
1604668960.1792,-187
1604668960.1812,-85
1604668960.1832,36
1604668960.1852,-4
1604668960.1872,-114
1604668960.1892,-138
1604668960.1912,-94
1604668960.1932,-87
1604668960.1952,-97
1604668960.1972,-9
1604668960.1978,29
1604668960.1992,-72
1604668960.2012,-99
1604668960.2032,-75
1604668960.2052,-70
1604668960.2072,-12
1604668960.2092,-21
1604668960.2112,-102
1604668960.2132,-104
1604668960.2152,-94
1604668960.2172,-99
1604668960.2192,-92
1604668960.6536,-128
1604668960.6544,-155
1604668960.6561,-94
1604668960.6585,-9
1604668960.6606,-17
1604668960.6625,-24
1604668960.6645,265
1604668960.6665,734
1604668960.6685,893
1604668960.6705,525
1604668960.6725,-126
1604668960.6745,-447
1604668960.6765,-204
1604668960.6785,-26
1604668960.6806,-138
1604668960.6825,-109
1604668960.6845,-17
1604668960.6850,-58
1604668960.6866,-38
1604668960.6885,24
1604668960.6905,-9
1604668960.6925,-41
1604668960.6945,-7
1604668960.6965,41
1604668960.6985,65
1604668960.7005,80
1604668960.7025,94
1604668960.7045,63
1604668960.7065,41
1604668960.7085,90
1604668960.7105,138
1604668960.7124,131
1604668960.7145,116
1604668960.7150,128
1604668960.7165,145
1604668960.7185,121
1604668960.7204,97
1604668960.7225,124
1604668960.7244,121
1604668960.7265,90
1604668960.7285,90
1604668960.7304,46
1604668960.7324,-26
1604668960.7344,-36
1604668960.7365,-19
1604668960.7385,24
1604668960.7404,99
1604668960.7425,51
1604668960.7445,-55
1604668960.7451,-36
1604668960.7465,-14
1604668960.7485,-26
1604668960.7505,34
1604668960.7525,17
1604668960.7544,-65
1604668960.7564,0
1604668960.7584,75
1604668960.7604,24
1604668960.7624,-14
1604668960.7645,-4
1604668960.7664,-4
1604668960.7684,0
1604668960.7704,7
1604668960.7724,-7
1604668960.7744,12
1604668960.7750,58
1604668960.7764,53
1604668960.7784,29
1604668960.7804,17
1604668960.7826,19
1604668960.7845,34
1604668960.7865,51
1604668960.7884,72
1604668961.2533,90
1604668961.2541,51
1604668961.2560,2
1604668961.2579,29
1604668961.2600,43
1604668961.2606,-2
1604668961.2619,-7
1604668961.2640,38
1604668961.2660,2
1604668961.2680,-46
1604668961.2700,-7
1604668961.2720,21
1604668961.2740,19
1604668961.2760,21
1604668961.2779,36
1604668961.2800,114
1604668961.2819,355
1604668961.2839,732
1604668961.2859,914
1604668961.2879,520
1604668961.2900,-148
1604668961.2904,-360
1604668961.2919,-111
1604668961.2939,26
1604668961.2959,-29
1604668961.2979,-41
1604668961.2999,-19
1604668961.3019,-21
1604668961.3039,0
1604668961.3059,34
1604668961.3079,21
1604668961.3099,2
1604668961.3119,36
1604668961.3139,60
1604668961.3159,46
1604668961.3179,70
1604668961.3199,99
1604668961.3205,92
1604668961.3218,104
1604668961.3239,116
1604668961.3258,136
1604668961.3279,187
1604668961.3299,189
1604668961.3318,167
1604668961.3338,175
1604668961.3359,145
1604668961.3378,104
1604668961.3400,138
1604668961.3419,187
1604668961.3439,158
1604668961.3458,80
1604668961.3479,34
1604668961.3499,19
1604668961.3505,2
1604668961.3519,0
1604668961.3538,9
1604668961.3559,-2
1604668961.3578,-24
1604668961.3599,-7
1604668961.3619,-19
1604668961.3638,-51
1604668961.3658,41
1604668961.3679,119
1604668961.3699,31
1604668961.3719,-17
1604668961.3738,31
1604668961.3759,46
1604668961.3778,53
1604668961.3799,38
1604668961.3804,41
1604668961.3819,99
1604668961.3838,72
1604668961.3859,19
1604668961.7934,82
1604668961.7943,114
1604668961.7968,26
1604668961.7994,9
1604668961.8013,90
1604668961.8034,107
1604668961.8054,75
1604668961.8074,55
1604668961.8095,26
1604668961.8114,55
1604668961.8133,97
1604668961.8154,41
1604668961.8160,-29
1604668961.8174,-12
1604668961.8194,63
1604668961.8213,82
1604668961.8233,17
1604668961.8253,-24
1604668961.8273,-9
1604668961.8295,-19
1604668961.8313,-38
1604668961.8333,-9
1604668961.8353,29
1604668961.8373,-2
1604668961.8393,51
1604668961.8415,345
1604668961.8433,727
1604668961.8453,968
1604668961.8459,749
1604668961.8473,29
1604668961.8494,-455
1604668961.8513,-270
1604668961.8533,-7
1604668961.8554,-53
1604668961.8573,-99
1604668961.8593,-17
1604668961.8613,-4
1604668961.8633,-48
1604668961.8652,-24
1604668961.8673,-2
1604668961.8693,-2
1604668961.8713,38
1604668961.8733,72
1604668961.8752,63
1604668961.8758,43
1604668961.8773,24
1604668961.8793,53
1604668961.8813,104
1604668961.8833,99
1604668961.8853,99
1604668961.8873,148
1604668961.8893,150
1604668961.8912,136
1604668961.8932,204
1604668961.8952,236
1604668961.8972,158
1604668961.8993,124
1604668961.9012,153
1604668961.9032,128
1604668961.9052,70
1604668961.9059,46
1604668961.9073,53
1604668961.9093,41
1604668961.9113,19
1604668961.9133,46
1604668961.9152,58
1604668961.9172,31
1604668961.9193,24
1604668961.9213,41
1604668961.9232,36
1604668961.9253,29
1604668961.9273,77
1604668961.9294,85
1604668962.3638,19
1604668962.3646,19
1604668962.3671,72
1604668962.3700,55
1604668962.3717,14
1604668962.3737,48
1604668962.3759,80
1604668962.3778,38
1604668962.3797,24
1604668962.3817,53
1604668962.3837,58
1604668962.3856,31
1604668962.3877,17
1604668962.3897,29
1604668962.3917,43
1604668962.3937,26
1604668962.3956,2
1604668962.3963,63
1604668962.3977,136
1604668962.3997,55
1604668962.4017,-19
1604668962.4036,26
1604668962.4056,41
1604668962.4077,34
1604668962.4096,48
1604668962.4117,26
1604668962.4137,-9
1604668962.4156,-4
1604668962.4176,38
1604668962.4197,107
1604668962.4216,133
1604668962.4236,85
1604668962.4256,55
1604668962.4262,175
1604668962.4276,462
1604668962.4297,837
1604668962.4316,1031
1604668962.4336,674
1604668962.4356,-24
1604668962.4376,-296
1604668962.4396,-48
1604668962.4416,99
1604668962.4436,46
1604668962.4456,114
1604668962.4476,214
1604668962.4497,180
1604668962.4516,160
1604668962.4537,206
1604668962.4556,201
1604668962.4563,177
1604668962.4576,238
1604668962.4597,313
1604668962.4616,301
1604668962.4636,296
1604668962.4658,347
1604668962.4677,357
1604668962.4697,343
1604668962.4716,352
1604668962.4736,352
1604668962.4756,340
1604668962.4776,333
1604668962.4796,340
1604668962.4816,347
1604668962.4837,328
1604668962.4856,289
1604668962.4862,248
1604668962.4876,216
1604668962.4896,187
1604668962.4916,153
1604668962.4936,133
1604668962.4956,116
1604668962.4976,77
1604668962.4997,48
1604668962.9038,53
1604668962.9045,31
1604668962.9069,-2
1604668962.9096,34
1604668962.9117,63
1604668962.9141,14
1604668962.9158,-9
1604668962.9164,19
1604668962.9176,41
1604668962.9196,34
1604668962.9216,-7
1604668962.9236,-51
1604668962.9256,-80
1604668962.9276,-90
1604668962.9296,-51
1604668962.9316,-9
1604668962.9335,7
1604668962.9356,29
1604668962.9376,63
1604668962.9396,82
1604668962.9415,90
1604668962.9435,114
1604668962.9457,133
1604668962.9461,124
1604668962.9475,119
1604668962.9496,128
1604668962.9515,126
1604668962.9535,121
1604668962.9556,133
1604668962.9575,143
1604668962.9595,153
1604668962.9617,170
1604668962.9638,131
1604668962.9656,72
1604668962.9675,72
1604668962.9695,65
1604668962.9715,19
1604668962.9735,17
1604668962.9755,38
1604668962.9762,46
1604668962.9775,77
1604668962.9796,82
1604668962.9815,46
1604668962.9835,75
1604668962.9855,187
1604668962.9875,457
1604668962.9895,878
1604668962.9916,1036
1604668962.9936,630
1604668962.9955,4
1604668962.9975,-233
1604668962.9995,-41
1604668963.0015,121
1604668963.0035,102
1604668963.0055,102
1604668963.0062,148
1604668963.0076,131
1604668963.0096,97
1604668963.0116,109
1604668963.0136,114
1604668963.0155,102
1604668963.0175,107
1604668963.0195,116
1604668963.0215,102
1604668963.0236,51
1604668963.0255,9
1604668963.0276,29
1604668963.0295,41
1604668963.0315,14
1604668963.0335,2
1604668963.0355,2
1604668963.0361,-12
1604668963.0375,-51
1604668963.4738,-107
1604668963.4747,-133
1604668963.4772,-131
1604668963.4798,-148
1604668963.4821,-201
1604668963.4838,-201
1604668963.4858,-109
1604668963.4877,-114
1604668963.4898,-245
1604668963.4917,-311
1604668963.4939,-306
1604668963.4958,-311
1604668963.4963,-321
1604668963.4977,-323
1604668963.4997,-340
1604668963.5017,-304
1604668963.5037,-206
1604668963.5057,-214
1604668963.5077,-304
1604668963.5097,-306
1604668963.5118,-243
1604668963.5137,-218
1604668963.5156,-206
1604668963.5177,-199
1604668963.5197,-206
1604668963.5217,-204
1604668963.5237,-223
1604668963.5256,-248
1604668963.5262,-218
1604668963.5277,-199
1604668963.5298,-262
1604668963.5316,-333
1604668963.5336,-316
1604668963.5357,-282
1604668963.5377,-311
1604668963.5397,-350
1604668963.5416,-347
1604668963.5436,-306
1604668963.5457,-262
1604668963.5476,-255
1604668963.5497,-267
1604668963.5517,-253
1604668963.5537,-226
1604668963.5556,-218
1604668963.5562,-236
1604668963.5577,-265
1604668963.5596,-250
1604668963.5617,-228
1604668963.5637,-226
1604668963.5656,-182
1604668963.5677,-167
1604668963.5697,-206
1604668963.5717,-209
1604668963.5737,-143
1604668963.5756,75
1604668963.5777,455
1604668963.5797,761
1604668963.5816,642
1604668963.5837,2
1604668963.5856,-542
1604668963.5862,-484
1604668963.5878,-257
1604668963.5897,-248
1604668963.5917,-231
1604668963.5937,-148
1604668963.5957,-133
1604668963.5976,-148
1604668963.5997,-141
1604668963.6016,-128
1604668963.6037,-124
1604668963.6056,-124
1604668963.6076,-116
1604668963.6096,-94