Time,ECG
1604670628.9321,3965
1604670628.9325,6739
1604670628.9349,7896
1604670628.9375,8737
1604670628.9396,9906
1604670628.9415,10653
1604670628.9436,11145
1604670628.9455,11737
1604670628.9476,12208
1604670628.9496,12530
1604670628.9515,12841
1604670628.9536,13090
1604670628.9555,13246
1604670628.9575,13369
1604670628.9596,13505
1604670628.9615,13629
1604670628.9635,13728
1604670628.9655,13837
1604670628.9676,13949
1604670628.9696,14034
1604670628.9715,14099
1604670628.9736,14167
1604670628.9755,14228
1604670628.9775,14276
1604670628.9796,14308
1604670628.9816,14337
1604670628.9835,14378
1604670628.9856,14402
1604670628.9876,14397
1604670628.9896,14397
1604670628.9916,14410
1604670628.9936,14405
1604670628.9955,14390
1604670628.9976,14376
1604670628.9995,14356
1604670629.0016,14332
1604670629.0035,14300
1604670629.0056,14276
1604670629.0076,14252
1604670629.0096,14201
1604670629.0115,14145
1604670629.0135,14123
1604670629.0156,14087
1604670629.0176,14007
1604670629.0196,13959
1604670629.0215,13949
1604670629.0235,13915
1604670629.0256,13864
1604670629.0275,13818
1604670629.0296,13752
1604670629.0321,13658
1604670629.0336,13546
1604670629.0355,13464
1604670629.0375,13408
1604670629.0396,13345
1604670629.0416,13272
1604670629.0435,13202
1604670629.0455,13129
1604670629.0476,13054
1604670629.0495,12974
1604670629.0515,12945
1604670629.0536,13119
1604670629.0556,13520
1604670629.0575,13925
1604670629.0595,13830
1604670629.0615,12904
1604670629.0636,12081
1604670629.0655,12154
1604670629.0675,12292
1604670629.0695,12060
1604670629.0715,11948
1604670629.0736,11960
1604670629.0756,11871
1604670629.5016,11786
1604670629.5020,11754
1604670629.5033,11674
1604670629.5053,11575
1604670629.5072,11526
1604670629.5093,11466
1604670629.5113,11376
1604670629.5133,11322
1604670629.5153,11296
1604670629.5173,11208
1604670629.5193,11094
1604670629.5213,11044
1604670629.5233,11005
1604670629.5253,10922
1604670629.5273,10845
1604670629.5293,10777
1604670629.5313,10685
1604670629.5333,10575
1604670629.5353,10464
1604670629.5374,10335
1604670629.5394,10183
1604670629.5413,10020
1604670629.5433,9889
1604670629.5453,9790
1604670629.5473,9698
1604670629.5493,9601
1604670629.5513,9508
1604670629.5533,9431
1604670629.5555,9358
1604670629.5574,9278
1604670629.5593,9200
1604670629.5614,9135
1604670629.5633,9060
1604670629.5653,8970
1604670629.5673,8888
1604670629.5693,8815
1604670629.5714,8745
1604670629.5733,8664
1604670629.5752,8587
1604670629.5773,8517
1604670629.5793,8446
1604670629.5813,8373
1604670629.5832,8293
1604670629.5854,8206
1604670629.5873,8133
1604670629.5893,8058
1604670629.5913,7976
1604670629.5933,7908
1604670629.5953,7833
1604670629.5973,7753
1604670629.5993,7677
1604670629.6012,7600
1604670629.6033,7537
1604670629.6053,7496
1604670629.6074,7454
1604670629.6093,7403
1604670629.6113,7333
1604670629.6133,7236
1604670629.6153,7137
1604670629.6173,7054
1604670629.6193,6981
1604670629.6213,6916
1604670629.6233,6846
1604670629.6253,6775
1604670629.6273,6715
1604670629.6293,6652
1604670629.6313,6579
1604670629.6333,6511
1604670629.6353,6482
1604670629.6373,6623
1604670629.6394,7001
1604670629.6413,7442
1604670629.6433,7486
1604670630.0705,6695
1604670630.0709,5805
1604670630.0733,5771
1604670630.0760,5948
1604670630.0780,5771
1604670630.0800,5682
1604670630.0822,5725
1604670630.0840,5657
1604670630.0860,5582
1604670630.0880,5580
1604670630.0900,5538
1604670630.0920,5461
1604670630.0940,5432
1604670630.0960,5417
1604670630.0980,5364
1604670630.1000,5318
1604670630.1020,5301
1604670630.1040,5279
1604670630.1060,5240
1604670630.1080,5211
1604670630.1100,5189
1604670630.1121,5155
1604670630.1140,5107
1604670630.1160,5058
1604670630.1180,5007
1604670630.1201,4939
1604670630.1220,4855
1604670630.1240,4767
1604670630.1260,4665
1604670630.1280,4551
1604670630.1300,4457
1604670630.1320,4387
1604670630.1340,4331
1604670630.1360,4285
1604670630.1380,4229
1604670630.1400,4171
1604670630.1420,4134
1604670630.1440,4100
1604670630.1460,4059
1604670630.1480,4025
1604670630.1500,3994
1604670630.1520,3952
1604670630.1540,3911
1604670630.1560,3880
1604670630.1580,3853
1604670630.1600,3814
1604670630.1620,3768
1604670630.1640,3729
1604670630.1660,3708
1604670630.1680,3674
1604670630.1700,3627
1604670630.1778,3591
1604670630.1800,3564
1604670630.1820,3528
1604670630.1840,3484
1604670630.1860,3448
1604670630.1880,3419
1604670630.1902,3378
1604670630.1920,3334
1604670630.1940,3303
1604670630.1960,3271
1604670630.1980,3235
1604670630.2000,3218
1604670630.2020,3225
1604670630.2040,3230
1604670630.2060,3186
1604670630.2080,3113
1604670630.2099,3058
1604670630.2120,3021
1604670630.2140,2987
1604670630.2160,2953
1604670630.2180,2919
1604670630.2200,2890
1604670630.6115,2859
1604670630.6119,2842
1604670630.6143,2834
1604670630.6169,2810
1604670630.6189,2907
1604670630.6209,3281
1604670630.6230,3788
1604670630.6249,4020
1604670630.6269,3397
1604670630.6289,2337
1604670630.6309,2158
1604670630.6329,2534
1604670630.6350,2461
1604670630.6369,2313
1604670630.6389,2410
1604670630.6409,2413
1604670630.6429,2345
1604670630.6449,2379
1604670630.6469,2388
1604670630.6489,2342
1604670630.6510,2347
1604670630.6529,2369
1604670630.6549,2354
1604670630.6569,2335
1604670630.6589,2332
1604670630.6609,2332
1604670630.6629,2345
1604670630.6649,2369
1604670630.6669,2352
1604670630.6689,2311
1604670630.6709,2320
1604670630.6729,2347
1604670630.6750,2318
1604670630.6769,2252
1604670630.6789,2211
1604670630.6811,2175
1604670630.6830,2102
1604670630.6849,1993
1604670630.6869,1867
1604670630.6889,1809
1604670630.6909,1811
1604670630.6930,1787
1604670630.6950,1753
1604670630.6969,1743
1604670630.6989,1731
1604670630.7009,1719
1604670630.7029,1690
1604670630.7049,1666
1604670630.7069,1673
1604670630.7089,1666
1604670630.7109,1641
1604670630.7129,1639
1604670630.7149,1644
1604670630.7169,1632
1604670630.7189,1610
1604670630.7209,1588
1604670630.7229,1573
1604670630.7249,1573
1604670630.7269,1573
1604670630.7289,1542
1604670630.7309,1508
1604670630.7329,1501
1604670630.7349,1498
1604670630.7369,1476
1604670630.7389,1467
1604670630.7409,1481
1604670630.7429,1486
1604670630.7449,1493
1604670630.7469,1489
1604670630.7489,1440
1604670630.7509,1389
1604670630.7529,1375
1604670630.7549,1365
1604670631.1520,1348
1604670631.1524,1336
1604670631.1549,1336
1604670631.1575,1316
1604670631.1595,1297
1604670631.1615,1302
1604670631.1635,1302
1604670631.1655,1430
1604670631.1675,1828
1604670631.1695,2267
1604670631.1714,2442
1604670631.1735,1886
1604670631.1755,899
1604670631.1777,746
1604670631.1795,1168
1604670631.1815,1132
1604670631.1834,982
1604670631.1855,1096
1604670631.1875,1130
1604670631.1895,1059
1604670631.1915,1084
1604670631.1935,1122
1604670631.1955,1105
1604670631.1975,1113
1604670631.1995,1134
1604670631.2015,1130
1604670631.2035,1132
1604670631.2055,1161
1604670631.2075,1171
1604670631.2095,1171
1604670631.2116,1195
1604670631.2135,1219
1604670631.2155,1234
1604670631.2175,1229
1604670631.2195,1217
1604670631.2215,1210
1604670631.2235,1195
1604670631.2255,1154
1604670631.2275,1079
1604670631.2295,977
1604670631.2315,887
1604670631.2334,843
1604670631.2354,817
1604670631.2375,783
1604670631.2395,768
1604670631.2415,778
1604670631.2435,768
1604670631.2455,746
1604670631.2475,754
1604670631.2495,780
1604670631.2515,785
1604670631.2535,763
1604670631.2555,751
1604670631.2575,759
1604670631.2595,761
1604670631.2615,768
1604670631.2635,773
1604670631.2655,763
1604670631.2674,768
1604670631.2695,776
1604670631.2715,761
1604670631.2735,746
1604670631.2755,746
1604670631.2775,746
1604670631.2796,742
1604670631.2815,739
1604670631.2835,739
1604670631.2855,749
1604670631.2875,771
1604670631.2895,783
1604670631.2915,763
1604670631.2935,727
1604670631.2955,700
1604670631.7517,691
1604670631.7522,686
1604670631.7546,683
1604670631.7574,681
1604670631.7592,671
1604670631.7612,659
1604670631.7633,662
1604670631.7652,664
1604670631.7671,698
1604670631.7692,940
1604670631.7712,1394
1604670631.7732,1792
1604670631.7752,1692
1604670631.7772,802
1604670631.7792,111
1604670631.7812,412
1604670631.7832,674
1604670631.7852,477
1604670631.7872,475
1604670631.7892,594
1604670631.7912,560
1604670631.7932,550
1604670631.7952,608
1604670631.7972,611
1604670631.7998,589
1604670631.8013,603
1604670631.8032,628
1604670631.8052,645
1604670631.8072,669
1604670631.8092,681
1604670631.8112,696
1604670631.8132,717
1604670631.8152,734
1604670631.8172,749
1604670631.8192,763
1604670631.8212,776
1604670631.8232,780
1604670631.8252,766
1604670631.8272,734
1604670631.8292,679
1604670631.8312,603
1604670631.8332,545
1604670631.8354,487
1604670631.8372,429
1604670631.8392,395
1604670631.8412,385
1604670631.8432,378
1604670631.8453,375
1604670631.8472,380
1604670631.8492,388
1604670631.8512,400
1604670631.8532,407
1604670631.8552,407
1604670631.8572,412
1604670631.8592,417
1604670631.8612,414
1604670631.8632,412
1604670631.8652,417
1604670631.8672,424
1604670631.8692,426
1604670631.8712,424
1604670631.8732,419
1604670631.8752,421
1604670631.8772,424
1604670631.8792,414
1604670631.8812,407
1604670631.8832,404
1604670631.8853,404
1604670631.8872,426
1604670631.8892,453
1604670631.8912,475
1604670631.8932,472
1604670631.8952,436
1604670632.3519,407
1604670632.3523,407
1604670632.3547,409
1604670632.3574,400
1604670632.3595,402
1604670632.3614,402
1604670632.3634,392
1604670632.3654,388
1604670632.3674,388
1604670632.3694,400
1604670632.3714,557
1604670632.3734,970
1604670632.3754,1496
1604670632.3774,1721
1604670632.3794,1037
1604670632.3814,7
1604670632.3834,-26
1604670632.3854,402
1604670632.3874,307
1604670632.3894,184
1604670632.3916,310
1604670632.3934,341
1604670632.3954,298
1604670632.3974,329
1604670632.3994,361
1604670632.4013,361
1604670632.4034,378
1604670632.4054,395
1604670632.4074,412
1604670632.4094,434
1604670632.4114,448
1604670632.4134,463
1604670632.4154,489
1604670632.4174,514
1604670632.4194,540
1604670632.4214,565
1604670632.4234,572
1604670632.4254,569
1604670632.4274,557
1604670632.4294,550
1604670632.4314,535
1604670632.4334,480
1604670632.4354,392
1604670632.4374,322
1604670632.4394,278
1604670632.4414,244
1604670632.4434,220
1604670632.4454,218
1604670632.4474,218
1604670632.4494,223
1604670632.4514,232
1604670632.4534,232
1604670632.4554,230
1604670632.4574,237
1604670632.4594,244
1604670632.4614,254
1604670632.4634,257
1604670632.4654,261
1604670632.4674,266
1604670632.4694,269
1604670632.4715,276
1604670632.4734,278
1604670632.4754,271
1604670632.4774,276
1604670632.4794,286
1604670632.4814,281
1604670632.4834,274
1604670632.4854,274
1604670632.4874,276
1604670632.4894,271
1604670632.4914,266
1604670632.4935,283
1604670632.4955,310
1604670632.8611,332
1604670632.8616,346
1604670632.8640,327
1604670632.8666,291
1604670632.8687,276
1604670632.8706,271
1604670632.8726,266
1604670632.8746,274
1604670632.8766,276
1604670632.8786,271
1604670632.8806,271
1604670632.8826,276
1604670632.8846,276
1604670632.8866,332
1604670632.8886,608
1604670632.8906,1108
1604670632.8926,1600
1604670632.8946,1532
1604670632.8966,548
1604670632.8986,-227
1604670632.9006,50
1604670632.9026,295
1604670632.9046,92
1604670632.9066,101
1604670632.9086,223
1604670632.9106,194
1604670632.9126,189
1604670632.9146,247
1604670632.9166,257
1604670632.9186,254
1604670632.9206,286
1604670632.9226,310
1604670632.9246,315
1604670632.9266,329
1604670632.9286,358
1604670632.9306,383
1604670632.9326,404
1604670632.9346,429
1604670632.9366,448
1604670632.9386,468
1604670632.9406,482
1604670632.9426,482
1604670632.9447,472
1604670632.9466,460
1604670632.9486,424
1604670632.9506,358
1604670632.9526,286
1604670632.9546,230
1604670632.9566,189
1604670632.9587,167
1604670632.9606,155
1604670632.9626,143
1604670632.9646,140
1604670632.9666,145
1604670632.9687,147
1604670632.9706,155
1604670632.9726,167
1604670632.9746,177
1604670632.9766,179
1604670632.9786,184
1604670632.9806,196
1604670632.9826,198
1604670632.9846,198
1604670632.9866,206
1604670632.9886,206
1604670632.9906,196
1604670632.9926,191
1604670632.9946,201
1604670632.9966,206
1604670632.9986,201
1604670633.0006,203
1604670633.0026,208
1604670633.0046,208
1604670633.4018,206
1604670633.4022,203
1604670633.4038,198
1604670633.4056,198
1604670633.4076,223
1604670633.4096,254
1604670633.4116,269
1604670633.4136,276
1604670633.4156,257
1604670633.4177,215
1604670633.4196,196
1604670633.4216,206
1604670633.4236,208
1604670633.4256,196
1604670633.4276,196
1604670633.4296,201
1604670633.4316,201
1604670633.4335,206
1604670633.4356,210
1604670633.4363,252
1604670633.4376,485
1604670633.4396,955
1604670633.4416,1469
1604670633.4436,1544
1604670633.4456,725
1604670633.4476,-135
1604670633.4496,-31
1604670633.4517,235
1604670633.4536,77
1604670633.4556,46
1604670633.4577,167
1604670633.4597,155
1604670633.4616,135
1604670633.4636,191
1604670633.4656,213
1604670633.4663,203
1604670633.4676,225
1604670633.4696,252
1604670633.4716,266
1604670633.4736,281
1604670633.4757,298
1604670633.4776,315
1604670633.4796,339
1604670633.4816,361
1604670633.4835,375
1604670633.4856,395
1604670633.4876,412
1604670633.4896,409
1604670633.4917,400
1604670633.4936,388
1604670633.4943,361
1604670633.4956,320
1604670633.4976,259
1604670633.4996,194
1604670633.5016,145
1604670633.5036,118
1604670633.5056,99
1604670633.5076,87
1604670633.5096,80
1604670633.5116,80
1604670633.5136,84
1604670633.5156,87
1604670633.5176,92
1604670633.5196,99
1604670633.5216,101
1604670633.5236,106
1604670633.5243,109
1604670633.5256,106
1604670633.5276,113
1604670633.5296,123
1604670633.5316,126
1604670633.5336,123
1604670633.5356,123
1604670633.9715,126
1604670633.9719,128
1604670633.9735,130
1604670633.9755,133
1604670633.9775,133
1604670633.9796,130
1604670633.9802,118
1604670633.9815,111
1604670633.9835,121
1604670633.9855,135
1604670633.9874,164
1604670633.9895,201
1604670633.9915,215
1604670633.9935,201
1604670633.9955,164
1604670633.9975,138
1604670633.9995,128
1604670634.0015,123
1604670634.0035,121
1604670634.0055,121
1604670634.0075,128
1604670634.0095,133
1604670634.0102,128
1604670634.0115,126
1604670634.0135,135
1604670634.0155,249
1604670634.0175,591
1604670634.0195,1105
1604670634.0215,1486
1604670634.0235,1115
1604670634.0255,92
1604670634.0275,-281
1604670634.0295,77
1604670634.0315,109
1604670634.0335,-50
1604670634.0355,38
1604670634.0375,104
1604670634.0395,58
1604670634.0402,80
1604670634.0415,130
1604670634.0435,140
1604670634.0455,147
1604670634.0475,174
1604670634.0495,196
1604670634.0514,213
1604670634.0535,232
1604670634.0555,252
1604670634.0575,269
1604670634.0595,288
1604670634.0615,312
1604670634.0635,332
1604670634.0655,344
1604670634.0675,349
1604670634.0695,349
1604670634.0702,339
1604670634.0715,320
1604670634.0736,281
1604670634.0755,223
1604670634.0775,152
1604670634.0795,94
1604670634.0815,55
1604670634.0834,31
1604670634.0855,26
1604670634.0875,29
1604670634.0895,26
1604670634.0915,26
1604670634.0935,33
1604670634.0955,38
1604670634.0975,46
1604670634.0995,55
1604670634.1001,63
1604670634.1014,63
1604670634.1035,63
1604670634.5118,70
1604670634.5122,75
1604670634.5146,82
1604670634.5173,87
1604670634.5193,87
1604670634.5213,87
1604670634.5233,89
1604670634.5253,84
1604670634.5273,77
1604670634.5293,80
1604670634.5313,80
1604670634.5320,75
1604670634.5343,82
1604670634.5363,113
1604670634.5383,155
1604670634.5403,177
1604670634.5423,172
1604670634.5443,143
1604670634.5463,106
1604670634.5483,92
1604670634.5503,94
1604670634.5522,94
1604670634.5543,94
1604670634.5563,99
1604670634.5584,101
1604670634.5603,104
1604670634.5610,106
1604670634.5623,104
1604670634.5643,167
1604670634.5663,460
1604670634.5682,955
1604670634.5703,1389
1604670634.5723,1205
1604670634.5742,240
1604670634.5764,-329
1604670634.5783,-14
1604670634.5803,138
1604670634.5823,-33
1604670634.5843,9
1604670634.5863,99
1604670634.5883,63
1604670634.5903,70
1604670634.5909,121
1604670634.5922,126
1604670634.5943,133
1604670634.5963,162
1604670634.5983,181
1604670634.6003,194
1604670634.6023,220
1604670634.6043,237
1604670634.6063,252
1604670634.6083,276
1604670634.6103,303
1604670634.6123,322
1604670634.6142,337
1604670634.6163,349
1604670634.6183,358
1604670634.6203,356
1604670634.6209,329
1604670634.6223,293
1604670634.6243,242
1604670634.6263,169
1604670634.6283,104
1604670634.6303,67
1604670634.6323,48
1604670634.6343,33
1604670634.6363,31
1604670634.6383,38
1604670634.6402,43
1604670634.6423,46
1604670634.6443,55
1604670634.6464,60
1604670634.6483,67
1604670635.0816,72
1604670635.0821,72
1604670635.0845,80
1604670635.0871,87
1604670635.0891,80
1604670635.0911,75
1604670635.0931,82
1604670635.0951,89
1604670635.0970,87
1604670635.0991,87
1604670635.1011,89
1604670635.1031,94
1604670635.1052,99
1604670635.1072,97
1604670635.1091,94
1604670635.1111,104
1604670635.1131,123
1604670635.1151,152
1604670635.1170,186
1604670635.1191,198
1604670635.1211,174
1604670635.1231,133
1604670635.1251,113
1604670635.1271,113
1604670635.1291,111
1604670635.1311,113
1604670635.1331,121
1604670635.1351,123
1604670635.1370,118
1604670635.1391,121
1604670635.1411,128
1604670635.1431,157
1604670635.1451,351
1604670635.1471,793
1604670635.1491,1314
1604670635.1511,1418
1604670635.1531,640
1604670635.1551,-213
1604670635.1571,-128
1604670635.1591,143
1604670635.1611,0
1604670635.1631,-31
1604670635.1651,84
1604670635.1670,75
1604670635.1691,58
1604670635.1711,106
1604670635.1731,126
1604670635.1751,126
1604670635.1770,150
1604670635.1791,172
1604670635.1811,189
1604670635.1831,206
1604670635.1851,218
1604670635.1870,237
1604670635.1891,271
1604670635.1911,298
1604670635.1931,310
1604670635.1951,327
1604670635.1971,346
1604670635.1991,351
1604670635.2011,344
1604670635.2031,329
1604670635.2051,305
1604670635.2071,247
1604670635.2091,172
1604670635.2111,101
1604670635.2131,60
1604670635.2151,38
1604670635.2170,19
1604670635.2191,7
1604670635.2211,7
1604670635.2230,12
1604670635.2251,14
1604670635.6818,16
1604670635.6822,26
1604670635.6846,31
1604670635.6873,33
1604670635.6892,41
1604670635.6913,38
1604670635.6932,31
1604670635.6953,43
1604670635.6973,55
1604670635.6992,48
1604670635.7012,46
1604670635.7032,58
1604670635.7051,65
1604670635.7073,63
1604670635.7092,63
1604670635.7112,67
1604670635.7132,70
1604670635.7152,67
1604670635.7172,63
1604670635.7192,65
1604670635.7213,80
1604670635.7232,101
1604670635.7252,133
1604670635.7272,155
1604670635.7292,152
1604670635.7312,121
1604670635.7332,89
1604670635.7352,77
1604670635.7372,70
1604670635.7392,63
1604670635.7413,63
1604670635.7432,63
1604670635.7452,63
1604670635.7472,70
1604670635.7492,72
1604670635.7512,67
1604670635.7533,140
1604670635.7553,441
1604670635.7572,948
1604670635.7592,1375
1604670635.7612,1134
1604670635.7634,172
1604670635.7653,-324
1604670635.7673,-21
1604670635.7692,72
1604670635.7712,-92
1604670635.7732,-33
1604670635.7752,48
1604670635.7772,14
1604670635.7792,21
1604670635.7812,67
1604670635.7832,84
1604670635.7852,97
1604670635.7872,113
1604670635.7892,128
1604670635.7912,145
1604670635.7932,164
1604670635.7952,184
1604670635.7972,210
1604670635.7992,237
1604670635.8012,254
1604670635.8032,276
1604670635.8052,300
1604670635.8073,310
1604670635.8092,303
1604670635.8112,293
1604670635.8133,278
1604670635.8152,249
1604670635.8172,191
1604670635.8192,118
1604670635.8212,55
1604670635.8233,16
1604670635.8252,-4
1604670636.2215,-14
1604670636.2219,-19
1604670636.2244,-24
1604670636.2270,-24
1604670636.2291,-12
1604670636.2310,0
1604670636.2330,4
1604670636.2350,7
1604670636.2370,12
1604670636.2390,16
1604670636.2410,19
1604670636.2429,19
1604670636.2450,21
1604670636.2470,26
1604670636.2490,29
1604670636.2509,31
1604670636.2530,36
1604670636.2550,41
1604670636.2570,43
1604670636.2591,41
1604670636.2610,38
1604670636.2630,46
1604670636.2650,50
1604670636.2670,41
1604670636.2690,38
1604670636.2710,46
1604670636.2730,50
1604670636.2750,72
1604670636.2770,109
1604670636.2790,133
1604670636.2810,130
1604670636.2829,106
1604670636.2849,72
1604670636.2870,53
1604670636.2890,48
1604670636.2910,55
1604670636.2929,60
1604670636.2950,60
1604670636.2970,50
1604670636.2989,53
1604670636.3010,65
1604670636.3030,65
1604670636.3050,118
1604670636.3070,392
1604670636.3090,885
1604670636.3110,1333
1604670636.3130,1168
1604670636.3151,232
1604670636.3170,-337
1604670636.3190,-65
1604670636.3210,65
1604670636.3229,-94
1604670636.3249,-53
1604670636.3270,33
1604670636.3290,-2
1604670636.3309,0
1604670636.3329,50
1604670636.3349,63
1604670636.3370,65
1604670636.3390,92
1604670636.3410,116
1604670636.3430,130
1604670636.3450,145
1604670636.3469,169
1604670636.3490,196
1604670636.3510,215
1604670636.3530,237
1604670636.3550,261
1604670636.3570,278
1604670636.3590,286
1604670636.3611,291
1604670636.3630,281
1604670636.3650,264
1604670636.7913,232
1604670636.7918,174
1604670636.7942,109
1604670636.7968,46
1604670636.7988,-4
1604670636.8008,-29
1604670636.8028,-38
1604670636.8048,-50
1604670636.8068,-63
1604670636.8088,-58
1604670636.8108,-41
1604670636.8128,-33
1604670636.8148,-33
1604670636.8168,-31
1604670636.8188,-29
1604670636.8208,-26
1604670636.8228,-19
1604670636.8247,-7
1604670636.8268,-2
1604670636.8288,4
1604670636.8308,9
1604670636.8328,12
1604670636.8348,14
1604670636.8368,16
1604670636.8388,16
1604670636.8408,21
1604670636.8428,26
1604670636.8449,26
1604670636.8468,26
1604670636.8488,31
1604670636.8508,29
1604670636.8528,26
1604670636.8548,29
1604670636.8568,53
1604670636.8588,87
1604670636.8608,111
1604670636.8627,118
1604670636.8648,99
1604670636.8668,65
1604670636.8688,43
1604670636.8708,36
1604670636.8728,41
1604670636.8748,43
1604670636.8768,41
1604670636.8788,41
1604670636.8807,46
1604670636.8828,43
1604670636.8848,38
1604670636.8870,87
1604670636.8888,334
1604670636.8908,807
1604670636.8928,1295
1604670636.8948,1280
1604670636.8968,395
1604670636.8988,-375
1604670636.9008,-169
1604670636.9028,82
1604670636.9048,-87
1604670636.9068,-97
1604670636.9088,19
1604670636.9108,-2
1604670636.9128,-14
1604670636.9148,36
1604670636.9168,50
1604670636.9188,48
1604670636.9208,82
1604670636.9228,106
1604670636.9248,113
1604670636.9268,135
1604670636.9288,160
1604670636.9308,177
1604670636.9328,198
1604670636.9348,223
1604670637.3611,242
1604670637.3615,264
1604670637.3640,278
1604670637.3666,281
1604670637.3685,274
1604670637.3705,254
1604670637.3726,215
1604670637.3744,160
1604670637.3765,92
1604670637.3785,14
1604670637.3805,-38
1604670637.3825,-58
1604670637.3846,-72
1604670637.3865,-84
1604670637.3885,-84
1604670637.3905,-72
1604670637.3925,-65
1604670637.3945,-65
1604670637.3965,-55
1604670637.3985,-43
1604670637.4005,-31
1604670637.4025,-26
1604670637.4045,-24
1604670637.4065,-14
1604670637.4085,-7
1604670637.4105,0
1604670637.4127,7
1604670637.4146,12
1604670637.4166,14
1604670637.4185,14
1604670637.4205,16
1604670637.4225,21
1604670637.4245,24
1604670637.4265,24
1604670637.4285,19
1604670637.4305,16
1604670637.4325,16
1604670637.4345,31
1604670637.4365,63
1604670637.4385,92
1604670637.4405,106
1604670637.4425,99
1604670637.4446,63
1604670637.4465,31
1604670637.4486,26
1604670637.4504,31
1604670637.4525,36
1604670637.4545,33
1604670637.4565,33
1604670637.4585,38
1604670637.4605,43
1604670637.4625,41
1604670637.4645,46
1604670637.4665,189
1604670637.4685,582
1604670637.4705,1115
1604670637.4725,1404
1604670637.4745,831
1604670637.4765,-169
1604670637.4785,-320
1604670637.4805,41
1604670637.4825,-19
1604670637.4845,-128
1604670637.4865,-16
1604670637.4885,12
1604670637.4905,-24
1604670637.4925,16
1604670637.4945,53
1604670637.4965,46
1604670637.4985,58
1604670637.5004,84
1604670637.5025,106
1604670637.5045,123
1604670637.9011,140
1604670637.9016,155
1604670637.9040,174
1604670637.9066,203
1604670637.9087,227
1604670637.9107,249
1604670637.9127,266
1604670637.9146,278
1604670637.9166,276
1604670637.9186,264
1604670637.9206,230
1604670637.9226,174
1604670637.9246,109
1604670637.9266,46
1604670637.9286,-9
1604670637.9306,-43
1604670637.9326,-58
1604670637.9346,-67
1604670637.9366,-70
1604670637.9386,-65
1604670637.9406,-55
1604670637.9426,-50
1604670637.9446,-50
1604670637.9466,-46
1604670637.9486,-31
1604670637.9505,-21
1604670637.9526,-19
1604670637.9546,-16
1604670637.9566,-14
1604670637.9586,-9
1604670637.9606,-2
1604670637.9626,7
1604670637.9646,9
1604670637.9666,12
1604670637.9686,19
1604670637.9706,21
1604670637.9726,21
1604670637.9746,21
1604670637.9766,24
1604670637.9786,26
1604670637.9806,26
1604670637.9826,24
1604670637.9846,21
1604670637.9866,26
1604670637.9885,41
1604670637.9906,75
1604670637.9926,104
1604670637.9946,116
1604670637.9966,101
1604670637.9986,70
1604670638.0006,48
1604670638.0027,38
1604670638.0047,36
1604670638.0066,36
1604670638.0087,36
1604670638.0108,41
1604670638.0127,46
1604670638.0146,46
1604670638.0166,43
1604670638.0186,58
1604670638.0206,230
1604670638.0226,652
1604670638.0246,1183
1604670638.0266,1382
1604670638.0286,688
1604670638.0306,-242
1604670638.0326,-261
1604670638.0346,38
1604670638.0366,-72
1604670638.0385,-135
1604670638.0406,-21
1604670638.0426,-16
1604670638.0446,-43
1604670638.4411,2
1604670638.4416,29
1604670638.4440,33
1604670638.4466,55
1604670638.4486,75
1604670638.4505,89
1604670638.4526,116
1604670638.4546,133
1604670638.4566,140
1604670638.4586,160
1604670638.4606,196
1604670638.4626,223
1604670638.4646,240
1604670638.4666,257
1604670638.4686,266
1604670638.4706,269
1604670638.4726,257
1604670638.4746,230
1604670638.4766,179
1604670638.4786,104
1604670638.4806,29
1604670638.4826,-21
1604670638.4846,-53
1604670638.4866,-70
1604670638.4886,-75
1604670638.4906,-77
1604670638.4926,-72
1604670638.4945,-63
1604670638.4966,-58
1604670638.4986,-50
1604670638.5005,-43
1604670638.5026,-33
1604670638.5046,-29
1604670638.5067,-24
1604670638.5086,-19
1604670638.5106,-14
1604670638.5126,-4
1604670638.5146,2
1604670638.5166,7
1604670638.5186,7
1604670638.5206,7
1604670638.5226,14
1604670638.5246,24
1604670638.5266,26
1604670638.5286,26
1604670638.5306,26
1604670638.5326,24
1604670638.5346,26
1604670638.5365,31
1604670638.5386,29
1604670638.5406,21
1604670638.5426,21
1604670638.5446,38
1604670638.5466,70
1604670638.5486,101
1604670638.5505,111
1604670638.5526,94
1604670638.5546,58
1604670638.5566,33
1604670638.5586,33
1604670638.5606,31
1604670638.5626,26
1604670638.5646,29
1604670638.5666,31
1604670638.5686,31
1604670638.5706,33
1604670638.5726,29
1604670638.5746,48
1604670638.5766,240
1604670638.5786,676
1604670638.5806,1198
1604670638.5826,1348
1604670638.5846,613
1604670639.0417,-271
1604670639.0421,-232
1604670639.0445,46
1604670639.0472,-84
1604670639.0492,-133
1604670639.0512,-26
1604670639.0532,-31
1604670639.0552,-46
1604670639.0571,4
1604670639.0591,26
1604670639.0611,21
1604670639.0633,46
1604670639.0652,77
1604670639.0671,89
1604670639.0691,104
1604670639.0711,130
1604670639.0731,152
1604670639.0751,174
1604670639.0772,198
1604670639.0792,227
1604670639.0811,249
1604670639.0832,261
1604670639.0851,269
1604670639.0871,266
1604670639.0892,247
1604670639.0912,215
1604670639.0932,169
1604670639.0951,97
1604670639.0972,24
1604670639.0992,-26
1604670639.1012,-50
1604670639.1031,-65
1604670639.1052,-75
1604670639.1072,-77
1604670639.1091,-70
1604670639.1111,-60
1604670639.1132,-55
1604670639.1151,-50
1604670639.1171,-46
1604670639.1191,-36
1604670639.1211,-24
1604670639.1231,-16
1604670639.1251,-19
1604670639.1271,-19
1604670639.1291,-12
1604670639.1311,-4
1604670639.1331,0
1604670639.1351,2
1604670639.1372,7
1604670639.1392,12
1604670639.1411,12
1604670639.1431,4
1604670639.1451,2
1604670639.1471,9
1604670639.1491,14
1604670639.1511,12
1604670639.1531,9
1604670639.1551,12
1604670639.1571,19
1604670639.1592,19
1604670639.1612,12
1604670639.1631,14
1604670639.1653,36
1604670639.1672,65
1604670639.1691,92
1604670639.1711,104
1604670639.1732,87
1604670639.1752,53
1604670639.1772,29
1604670639.1791,26
1604670639.1811,29
1604670639.1832,29
1604670639.1851,26
1604670639.5815,29
1604670639.5819,29
1604670639.5843,21
1604670639.5869,24
1604670639.5889,82
1604670639.5909,332
1604670639.5929,807
1604670639.5949,1297
1604670639.5969,1263
1604670639.5989,346
1604670639.6009,-409
1604670639.6029,-189
1604670639.6049,36
1604670639.6069,-140
1604670639.6089,-138
1604670639.6109,-21
1604670639.6129,-41
1604670639.6149,-46
1604670639.6169,4
1604670639.6189,19
1604670639.6209,24
1604670639.6229,50
1604670639.6249,72
1604670639.6270,87
1604670639.6289,109
1604670639.6309,130
1604670639.6329,150
1604670639.6349,169
1604670639.6369,194
1604670639.6389,215
1604670639.6409,235
1604670639.6429,249
1604670639.6450,257
1604670639.6469,249
1604670639.6489,235
1604670639.6509,208
1604670639.6529,155
1604670639.6549,77
1604670639.6570,7
1604670639.6589,-33
1604670639.6611,-60
1604670639.6630,-77
1604670639.6650,-82
1604670639.6670,-84
1604670639.6690,-87
1604670639.6709,-75
1604670639.6729,-65
1604670639.6750,-58
1604670639.6769,-50
1604670639.6789,-46
1604670639.6809,-38
1604670639.6829,-29
1604670639.6849,-21
1604670639.6869,-19
1604670639.6890,-14
1604670639.6910,-9
1604670639.6929,-4
1604670639.6936,2
1604670639.6949,12
1604670639.6969,12
1604670639.6989,9
1604670639.7009,14
1604670639.7029,16
1604670639.7049,16
1604670639.7069,16
1604670639.7089,16
1604670639.7109,16
1604670639.7129,16
1604670639.7149,16
1604670639.7169,16
1604670639.7189,16
1604670639.7209,19
1604670639.7229,21
1604670640.1516,21
1604670640.1521,24
1604670640.1545,41
1604670640.1572,70
1604670640.1591,97
1604670640.1611,106
1604670640.1632,82
1604670640.1651,43
1604670640.1671,16
1604670640.1691,16
1604670640.1711,24
1604670640.1731,19
1604670640.1751,14
1604670640.1771,16
1604670640.1791,19
1604670640.1812,19
1604670640.1819,16
1604670640.1841,53
1604670640.1864,266
1604670640.1882,725
1604670640.1901,1239
1604670640.1921,1307
1604670640.1941,497
1604670640.1961,-324
1604670640.1982,-220
1604670640.2001,29
1604670640.2021,-113
1604670640.2041,-133
1604670640.2061,-21
1604670640.2081,-31
1604670640.2101,-46
1604670640.2121,0
1604670640.2128,19
1604670640.2141,21
1604670640.2161,41
1604670640.2181,60
1604670640.2201,65
1604670640.2221,82
1604670640.2241,111
1604670640.2261,130
1604670640.2281,152
1604670640.2301,179
1604670640.2321,203
1604670640.2342,223
1604670640.2361,242
1604670640.2381,249
1604670640.2401,247
1604670640.2421,240
1604670640.2428,215
1604670640.2441,164
1604670640.2461,99
1604670640.2481,31
1604670640.2501,-21
1604670640.2521,-50
1604670640.2541,-67
1604670640.2561,-80
1604670640.2581,-82
1604670640.2601,-77
1604670640.2621,-72
1604670640.2641,-65
1604670640.2661,-58
1604670640.2681,-48
1604670640.2701,-38
1604670640.2721,-36
1604670640.2728,-31
1604670640.2741,-24
1604670640.2761,-19
1604670640.2781,-16
1604670640.2801,-9
1604670640.2823,-7
1604670640.2842,-4
1604670640.2861,4
1604670640.2881,12
1604670640.7216,7
1604670640.7220,12
1604670640.7244,16
1604670640.7272,16
1604670640.7291,14
1604670640.7311,16
1604670640.7331,19
1604670640.7350,16
1604670640.7370,9
1604670640.7391,2
1604670640.7411,7
1604670640.7431,12
1604670640.7451,4
1604670640.7470,0
1604670640.7491,12
1604670640.7511,36
1604670640.7530,58
1604670640.7551,87
1604670640.7571,92
1604670640.7577,55
1604670640.7591,24
1604670640.7611,12
1604670640.7631,7
1604670640.7650,4
1604670640.7671,4
1604670640.7691,7
1604670640.7711,9
1604670640.7731,12
1604670640.7750,12
1604670640.7770,2
1604670640.7791,38
1604670640.7811,291
1604670640.7830,783
1604670640.7851,1275
1604670640.7871,1219
1604670640.7877,322
1604670640.7891,-380
1604670640.7910,-167
1604670640.7931,26
1604670640.7951,-143
1604670640.7970,-135
1604670640.7991,-36
1604670640.8011,-60
1604670640.8031,-65
1604670640.8051,-12
1604670640.8070,2
1604670640.8090,4
1604670640.8112,26
1604670640.8131,43
1604670640.8151,60
1604670640.8171,92
1604670640.8177,113
1604670640.8191,128
1604670640.8210,152
1604670640.8231,179
1604670640.8251,203
1604670640.8271,225
1604670640.8291,242
1604670640.8311,249
1604670640.8331,247
1604670640.8351,230
1604670640.8371,198
1604670640.8391,147
1604670640.8411,72
1604670640.8431,2
1604670640.8450,-38
1604670640.8471,-65
1604670640.8478,-87
1604670640.8491,-92
1604670640.8511,-87
1604670640.8531,-84
1604670640.8551,-80
1604670640.8570,-72
1604670641.2892,-63
1604670641.2896,-58
1604670641.2920,-53
1604670641.2946,-46
1604670641.2966,-43
1604670641.2986,-38
1604670641.3006,-31
1604670641.3026,-29
1604670641.3046,-29
1604670641.3066,-26
1604670641.3073,-26
1604670641.3086,-21
1604670641.3106,-14
1604670641.3126,-12
1604670641.3146,-9
1604670641.3166,-4
1604670641.3185,-2
1604670641.3206,-4
1604670641.3226,-4
1604670641.3246,-2
1604670641.3266,2
1604670641.3286,4
1604670641.3306,0
1604670641.3326,-7
1604670641.3346,-7
1604670641.3367,-9
1604670641.3373,-12
1604670641.3386,-7
1604670641.3406,12
1604670641.3426,33
1604670641.3446,60
1604670641.3466,87
1604670641.3486,82
1604670641.3506,41
1604670641.3526,12
1604670641.3546,7
1604670641.3566,7
1604670641.3586,9
1604670641.3606,9
1604670641.3626,7
1604670641.3646,7
1604670641.3666,7
1604670641.3686,12
1604670641.3705,16
1604670641.3726,140
1604670641.3746,514
1604670641.3766,1040
1604670641.3786,1348
1604670641.3806,831
1604670641.3826,-157
1604670641.3846,-356
1604670641.3866,-9
1604670641.3886,-55
1604670641.3905,-177
1604670641.3926,-65
1604670641.3946,-26
1604670641.3966,-63
1604670641.3986,-29
1604670641.4005,7
1604670641.4026,7
1604670641.4046,21
1604670641.4066,50
1604670641.4086,72
1604670641.4106,89
1604670641.4126,109
1604670641.4146,126
1604670641.4166,150
1604670641.4186,174
1604670641.4206,198
1604670641.4226,223
1604670641.4246,240
1604670641.4266,247
1604670641.4286,252
1604670641.8015,247
1604670641.8020,230
1604670641.8046,191
1604670641.8072,128
1604670641.8091,50
1604670641.8111,-12
1604670641.8131,-50
1604670641.8150,-82
1604670641.8170,-99
1604670641.8190,-97
1604670641.8211,-94
1604670641.8230,-94
1604670641.8251,-84
1604670641.8270,-75
1604670641.8291,-75
1604670641.8311,-72
1604670641.8331,-60
1604670641.8351,-48
1604670641.8371,-46
1604670641.8390,-41
1604670641.8411,-33
1604670641.8431,-26
1604670641.8450,-21
1604670641.8471,-21
1604670641.8490,-19
1604670641.8511,-9
1604670641.8530,-2
1604670641.8550,-2
1604670641.8571,-7
1604670641.8591,-7
1604670641.8610,-7
1604670641.8630,-9
1604670641.8650,-7
1604670641.8671,-4
1604670641.8690,0
1604670641.8710,0
1604670641.8730,-2
1604670641.8750,0
1604670641.8771,9
1604670641.8791,9
1604670641.8810,4
1604670641.8831,4
1604670641.8852,7
1604670641.8870,7
1604670641.8890,26
1604670641.8911,58
1604670641.8930,82
1604670641.8950,97
1604670641.8971,84
1604670641.8991,48
1604670641.9010,19
1604670641.9031,9
1604670641.9051,7
1604670641.9070,7
1604670641.9092,12
1604670641.9111,12
1604670641.9131,9
1604670641.9150,12
1604670641.9170,7
1604670641.9191,29
1604670641.9211,225
1604670641.9231,664
1604670641.9251,1173
1604670641.9269,1290
1604670641.9291,535
1604670641.9310,-312
1604670641.9331,-249
1604670641.9351,21
1604670641.9370,-109
1604670641.9391,-147
1604670641.9411,-33
1604670641.9430,-36
1604670641.9451,-60
1604670642.4015,-14
1604670642.4019,14
1604670642.4044,19
1604670642.4069,33
1604670642.4090,46
1604670642.4110,58
1604670642.4130,77
1604670642.4150,94
1604670642.4169,111
1604670642.4190,135
1604670642.4210,162
1604670642.4230,186
1604670642.4250,210
1604670642.4270,230
1604670642.4290,244
1604670642.4310,247
1604670642.4330,235
1604670642.4350,210
1604670642.4370,172
1604670642.4390,111
1604670642.4410,36
1604670642.4430,-26
1604670642.4450,-60
1604670642.4470,-77
1604670642.4490,-89
1604670642.4510,-89
1604670642.4530,-87
1604670642.4550,-87
1604670642.4570,-77
1604670642.4590,-65
1604670642.4610,-58
1604670642.4631,-50
1604670642.4651,-46
1604670642.4670,-38
1604670642.4690,-31
1604670642.4710,-29
1604670642.4730,-26
1604670642.4750,-16
1604670642.4770,-12
1604670642.4790,-14
1604670642.4810,-12
1604670642.4830,-7
1604670642.4851,-2
1604670642.4869,-2
1604670642.4890,-4
1604670642.4910,-2
1604670642.4930,0
1604670642.4950,2
1604670642.4970,2
1604670642.4990,4
1604670642.5010,7
1604670642.5030,2
1604670642.5050,2
1604670642.5069,2
1604670642.5090,2
1604670642.5110,2
1604670642.5130,0
1604670642.5150,7
1604670642.5170,29
1604670642.5190,55
1604670642.5210,82
1604670642.5230,82
1604670642.5250,46
1604670642.5270,14
1604670642.5290,2
1604670642.5310,0
1604670642.5330,0
1604670642.5350,2
1604670642.5369,4
1604670642.5390,2
1604670642.5410,2
1604670642.5430,4
1604670642.5450,0
1604670642.9714,70
1604670642.9718,373
1604670642.9742,880
1604670642.9769,1295
1604670642.9789,1025
1604670642.9808,65
1604670642.9829,-395
1604670642.9849,-92
1604670642.9868,-14
1604670642.9888,-177
1604670642.9910,-121
1604670642.9929,-43
1604670642.9949,-77
1604670642.9968,-65
1604670642.9989,-19
1604670643.0009,-9
1604670643.0029,2
1604670643.0049,26
1604670643.0069,43
1604670643.0089,60
1604670643.0109,84
1604670643.0129,104
1604670643.0149,126
1604670643.0168,152
1604670643.0189,179
1604670643.0208,201
1604670643.0229,220
1604670643.0249,237
1604670643.0268,244
1604670643.0289,237
1604670643.0309,225
1604670643.0328,194
1604670643.0349,140
1604670643.0369,70
1604670643.0388,4
1604670643.0408,-38
1604670643.0429,-70
1604670643.0449,-89
1604670643.0468,-97
1604670643.0488,-92
1604670643.0509,-84
1604670643.0528,-80
1604670643.0549,-72
1604670643.0569,-70
1604670643.0588,-70
1604670643.0609,-60
1604670643.0628,-50
1604670643.0648,-43
1604670643.0669,-41
1604670643.0689,-36
1604670643.0708,-31
1604670643.0728,-29
1604670643.0748,-26
1604670643.0768,-21
1604670643.0789,-16
1604670643.0808,-14
1604670643.0829,-16
1604670643.0849,-12
1604670643.0868,-9
1604670643.0888,-7
1604670643.0909,-7
1604670643.0930,-7
1604670643.0949,-7
1604670643.0968,-2
1604670643.0989,-4
1604670643.1009,-14
1604670643.1029,-19
1604670643.1048,-21
1604670643.1068,-16
1604670643.1088,2
1604670643.1108,29
1604670643.1128,55
1604670643.1149,67
1604670643.5115,48
1604670643.5119,12
1604670643.5143,-14
1604670643.5169,-21
1604670643.5189,-16
1604670643.5209,-14
1604670643.5229,-16
1604670643.5250,-16
1604670643.5268,-12
1604670643.5289,-12
1604670643.5308,-19
1604670643.5329,2
1604670643.5348,203
1604670643.5369,649
1604670643.5388,1161
1604670643.5409,1270
1604670643.5429,494
1604670643.5449,-375
1604670643.5468,-288
1604670643.5489,12
1604670643.5509,-123
1604670643.5529,-169
1604670643.5549,-53
1604670643.5569,-53
1604670643.5590,-75
1604670643.5610,-29
1604670643.5629,-7
1604670643.5649,-4
1604670643.5668,24
1604670643.5689,46
1604670643.5710,55
1604670643.5729,77
1604670643.5749,104
1604670643.5768,123
1604670643.5789,145
1604670643.5809,167
1604670643.5829,189
1604670643.5849,208
1604670643.5868,227
1604670643.5890,240
1604670643.5910,240
1604670643.5929,230
1604670643.5949,208
1604670643.5968,164
1604670643.5989,97
1604670643.6009,24
1604670643.6029,-31
1604670643.6049,-65
1604670643.6069,-87
1604670643.6089,-97
1604670643.6109,-99
1604670643.6129,-94
1604670643.6149,-89
1604670643.6169,-84
1604670643.6190,-75
1604670643.6209,-65
1604670643.6229,-55
1604670643.6249,-53
1604670643.6269,-50
1604670643.6289,-46
1604670643.6309,-38
1604670643.6329,-36
1604670643.6349,-31
1604670643.6368,-24
1604670643.6388,-21
1604670643.6409,-21
1604670643.6429,-19
1604670643.6449,-21
1604670643.6470,-19
1604670643.6489,-14
1604670643.6509,-14
1604670643.6529,-16
1604670643.6549,-12
1604670644.0815,-12
1604670644.0820,-16
1604670644.0844,-16
1604670644.0871,-12
1604670644.0890,2
1604670644.0910,33
1604670644.0931,65
1604670644.0950,72
1604670644.0970,43
1604670644.0990,7
1604670644.1010,-9
1604670644.1030,-19
1604670644.1050,-24
1604670644.1070,-21
1604670644.1090,-16
1604670644.1110,-16
1604670644.1130,-14
1604670644.1152,-9
1604670644.1171,-12
1604670644.1190,7
1604670644.1210,186
1604670644.1230,611
1604670644.1250,1130
1604670644.1270,1292
1604670644.1290,574
1604670644.1310,-320
1604670644.1330,-293
1604670644.1350,7
1604670644.1369,-113
1604670644.1390,-172
1604670644.1410,-58
1604670644.1430,-50
1604670644.1450,-72
1604670644.1470,-26
1604670644.1490,-4
1604670644.1510,-4
1604670644.1530,19
1604670644.1550,46
1604670644.1570,58
1604670644.1590,75
1604670644.1610,99
1604670644.1630,123
1604670644.1650,140
1604670644.1670,167
1604670644.1690,198
1604670644.1710,223
1604670644.1730,232
1604670644.1750,242
1604670644.1770,247
1604670644.1790,240
1604670644.1810,210
1604670644.1830,157
1604670644.1850,92
1604670644.1871,24
1604670644.1890,-38
1604670644.1910,-77
1604670644.1930,-84
1604670644.1950,-94
1604670644.1970,-104
1604670644.1989,-101
1604670644.2010,-92
1604670644.2030,-84
1604670644.2050,-80
1604670644.2070,-70
1604670644.2090,-60
1604670644.2110,-53
1604670644.2130,-48
1604670644.2150,-43
1604670644.2171,-36
1604670644.2190,-29
1604670644.2210,-26
1604670644.2230,-24
1604670644.2250,-19
1604670644.6210,-14
1604670644.6214,-14
1604670644.6238,-9
1604670644.6263,-4
1604670644.6285,-9
1604670644.6304,-14
1604670644.6324,-7
1604670644.6344,-7
1604670644.6364,-16
1604670644.6384,-26
1604670644.6404,-14
1604670644.6424,12
1604670644.6445,38
1604670644.6464,60
1604670644.6484,70
1604670644.6505,48
1604670644.6524,7
1604670644.6544,-14
1604670644.6564,-14
1604670644.6585,-12
1604670644.6605,-9
1604670644.6624,-9
1604670644.6645,-12
1604670644.6665,-14
1604670644.6685,-14
1604670644.6704,-16
1604670644.6726,46
1604670644.6745,315
1604670644.6765,802
1604670644.6784,1263
1604670644.6804,1125
1604670644.6824,196
1604670644.6844,-409
1604670644.6864,-152
1604670644.6885,0
1604670644.6905,-164
1604670644.6924,-135
1604670644.6944,-41
1604670644.6964,-67
1604670644.6984,-63
1604670644.7004,-16
1604670644.7024,-7
1604670644.7045,-2
1604670644.7065,21
1604670644.7085,36
1604670644.7104,58
1604670644.7126,84
1604670644.7145,101
1604670644.7164,121
1604670644.7185,145
1604670644.7204,172
1604670644.7224,196
1604670644.7244,215
1604670644.7264,232
1604670644.7285,242
1604670644.7304,235
1604670644.7324,218
1604670644.7344,189
1604670644.7364,140
1604670644.7384,67
1604670644.7404,-4
1604670644.7424,-50
1604670644.7444,-75
1604670644.7464,-87
1604670644.7484,-99
1604670644.7505,-99
1604670644.7525,-89
1604670644.7544,-80
1604670644.7566,-75
1604670644.7584,-67
1604670644.7604,-58
1604670644.7625,-50
1604670644.7645,-46
1604670645.1612,-38
1604670645.1617,-31
1604670645.1641,-26
1604670645.1667,-21
1604670645.1686,-16
1604670645.1707,-16
1604670645.1727,-24
1604670645.1747,-26
1604670645.1768,-19
1604670645.1787,-16
1604670645.1807,-16
1604670645.1827,-14
1604670645.1847,-12
1604670645.1867,-14
1604670645.1888,-16
1604670645.1907,-12
1604670645.1927,14
1604670645.1947,41
1604670645.1968,65
1604670645.1987,75
1604670645.2007,53
1604670645.2027,14
1604670645.2047,-4
1604670645.2068,-4
1604670645.2089,-4
1604670645.2108,-4
1604670645.2127,-4
1604670645.2147,-4
1604670645.2168,-2
1604670645.2186,0
1604670645.2207,-4
1604670645.2227,46
1604670645.2247,300
1604670645.2268,780
1604670645.2287,1263
1604670645.2308,1195
1604670645.2327,281
1604670645.2347,-417
1604670645.2368,-191
1604670645.2387,0
1604670645.2407,-174
1604670645.2427,-160
1604670645.2447,-53
1604670645.2468,-75
1604670645.2487,-80
1604670645.2507,-26
1604670645.2527,-12
1604670645.2550,-7
1604670645.2569,16
1604670645.2588,36
1604670645.2607,50
1604670645.2627,77
1604670645.2647,101
1604670645.2668,118
1604670645.2687,143
1604670645.2707,172
1604670645.2727,194
1604670645.2747,208
1604670645.2768,220
1604670645.2787,230
1604670645.2808,230
1604670645.2827,210
1604670645.2847,179
1604670645.2868,130
1604670645.2887,60
1604670645.2907,-9
1604670645.2927,-55
1604670645.2947,-75
1604670645.2968,-92
1604670645.2987,-99
1604670645.3007,-99
1604670645.3027,-99
1604670645.3047,-97
1604670645.7609,-87
1604670645.7613,-72
1604670645.7639,-70
1604670645.7740,-77
1604670645.7753,-72
1604670645.7774,-60
1604670645.7793,-55
1604670645.7813,-50
1604670645.7833,-46
1604670645.7854,-43
1604670645.7873,-41
1604670645.7894,-33
1604670645.7913,-29
1604670645.7933,-26
1604670645.7953,-26
1604670645.7974,-24
1604670645.7993,-21
1604670645.8013,-21
1604670645.8033,-24
1604670645.8053,-9
1604670645.8073,19
1604670645.8093,50
1604670645.8113,65
1604670645.8133,53
1604670645.8154,21
1604670645.8173,-7
1604670645.8193,-14
1604670645.8214,-14
1604670645.8233,-16
1604670645.8253,-24
1604670645.8273,-31
1604670645.8293,-29
1604670645.8313,-21
1604670645.8334,-21
1604670645.8353,0
1604670645.8373,196
1604670645.8393,640
1604670645.8413,1151
1604670645.8434,1270
1604670645.8454,492
1604670645.8473,-400
1604670645.8494,-307
1604670645.8513,16
1604670645.8533,-126
1604670645.8553,-177
1604670645.8574,-53
1604670645.8593,-60
1604670645.8613,-84
1604670645.8633,-29
1604670645.8653,-4
1604670645.8674,-9
1604670645.8693,12
1604670645.8713,36
1604670645.8735,43
1604670645.8754,60
1604670645.8773,87
1604670645.8793,111
1604670645.8813,130
1604670645.8833,155
1604670645.8853,177
1604670645.8873,198
1604670645.8893,220
1604670645.8914,227
1604670645.8934,218
1604670645.8953,201
1604670645.8973,177
1604670645.8993,126
1604670645.9013,53
1604670645.9033,-14
1604670645.9054,-65
1604670645.9074,-94
1604670645.9093,-106
1604670645.9113,-111
1604670646.3311,-111
1604670646.3315,-106
1604670646.3339,-99
1604670646.3366,-92
1604670646.3385,-87
1604670646.3405,-80
1604670646.3426,-67
1604670646.3445,-65
1604670646.3465,-72
1604670646.3473,-67
1604670646.3495,-48
1604670646.3515,-38
1604670646.3535,-43
1604670646.3555,-38
1604670646.3576,-31
1604670646.3595,-26
1604670646.3615,-26
1604670646.3635,-21
1604670646.3655,-19
1604670646.3675,-16
1604670646.3695,-24
1604670646.3715,-29
1604670646.3735,-21
1604670646.3755,7
1604670646.3775,36
1604670646.3783,55
1604670646.3805,50
1604670646.3825,21
1604670646.3845,-9
1604670646.3865,-21
1604670646.3885,-19
1604670646.3907,-16
1604670646.3926,-19
1604670646.3945,-16
1604670646.3965,-9
1604670646.3985,-9
1604670646.4005,-9
1604670646.4025,0
1604670646.4045,138
1604670646.4065,523
1604670646.4085,1059
1604670646.4093,1367
1604670646.4115,826
1604670646.4135,-184
1604670646.4155,-378
1604670646.4175,-29
1604670646.4195,-72
1604670646.4215,-189
1604670646.4235,-84
1604670646.4255,-48
1604670646.4275,-82
1604670646.4295,-48
1604670646.4315,-14
1604670646.4335,-12
1604670646.4355,2
1604670646.4375,24
1604670646.4395,38
1604670646.4403,58
1604670646.4426,84
1604670646.4445,109
1604670646.4465,130
1604670646.4486,152
1604670646.4505,179
1604670646.4525,201
1604670646.4545,215
1604670646.4565,227
1604670646.4585,223
1604670646.4605,208
1604670646.4625,184
1604670646.4645,143
1604670646.4665,75
1604670646.4685,-2
1604670646.4692,-53
1604670646.9013,-84
1604670646.9018,-104
1604670646.9042,-116
1604670646.9068,-116
1604670646.9088,-109
1604670646.9108,-104
1604670646.9128,-99
1604670646.9148,-89
1604670646.9168,-84
1604670646.9189,-84
1604670646.9209,-82
1604670646.9228,-72
1604670646.9235,-65
1604670646.9258,-70
1604670646.9278,-67
1604670646.9298,-55
1604670646.9318,-46
1604670646.9338,-48
1604670646.9358,-46
1604670646.9378,-38
1604670646.9398,-33
1604670646.9418,-31
1604670646.9438,-29
1604670646.9458,-26
1604670646.9478,-29
1604670646.9498,-31
1604670646.9518,-29
1604670646.9538,-16
1604670646.9545,9
1604670646.9558,38
1604670646.9578,58
1604670646.9598,58
1604670646.9618,29
1604670646.9638,-7
1604670646.9658,-19
1604670646.9678,-14
1604670646.9698,-14
1604670646.9718,-19
1604670646.9738,-14
1604670646.9758,-12
1604670646.9778,-9
1604670646.9800,-7
1604670646.9818,-4
1604670646.9838,87
1604670646.9845,424
1604670646.9858,953
1604670646.9878,1355
1604670646.9898,1004
1604670646.9918,-9
1604670646.9938,-407
1604670646.9958,-75
1604670646.9978,-36
1604670646.9998,-189
1604670647.0018,-109
1604670647.0038,-43
1604670647.0058,-80
1604670647.0078,-58
1604670647.0098,-14
1604670647.0118,-9
1604670647.0138,4
1604670647.0146,29
1604670647.0159,46
1604670647.0178,63
1604670647.0199,84
1604670647.0219,104
1604670647.0238,130
1604670647.0258,157
1604670647.0278,181
1604670647.0298,203
1604670647.0318,225
1604670647.0338,240
1604670647.0358,242
1604670647.0378,232
1604670647.4415,213
1604670647.4420,174
1604670647.4443,111
1604670647.4470,29
1604670647.4490,-38
1604670647.4510,-80
1604670647.4531,-109
1604670647.4550,-121
1604670647.4570,-121
1604670647.4590,-116
1604670647.4610,-118
1604670647.4630,-121
1604670647.4650,-111
1604670647.4670,-97
1604670647.4690,-89
1604670647.4710,-82
1604670647.4730,-72
1604670647.4737,-67
1604670647.4761,-63
1604670647.4780,-55
1604670647.4800,-48
1604670647.4820,-43
1604670647.4840,-38
1604670647.4860,-33
1604670647.4880,-29
1604670647.4900,-24
1604670647.4920,-19
1604670647.4940,-19
1604670647.4960,-16
1604670647.4980,-14
1604670647.5000,-12
1604670647.5020,-14
1604670647.5040,-14
1604670647.5047,-16
1604670647.5060,-12
1604670647.5080,9
1604670647.5100,36
1604670647.5121,55
1604670647.5141,70
1604670647.5160,58
1604670647.5180,21
1604670647.5200,-4
1604670647.5220,-9
1604670647.5240,-4
1604670647.5260,-2
1604670647.5280,-2
1604670647.5300,-2
1604670647.5320,-2
1604670647.5327,0
1604670647.5340,-2
1604670647.5360,38
1604670647.5380,274
1604670647.5400,744
1604670647.5420,1248
1604670647.5440,1263
1604670647.5460,400
1604670647.5480,-368
1604670647.5500,-206
1604670647.5520,14
1604670647.5540,-143
1604670647.5560,-147
1604670647.5580,-43
1604670647.5600,-63
1604670647.5620,-67
1604670647.5633,-16
1604670647.5650,-2
1604670647.5670,0
1604670647.5690,26
1604670647.5710,43
1604670647.5730,53
1604670647.5750,72
1604670647.5770,99
1604670647.5790,113
1604670647.9809,130
1604670647.9813,160
1604670647.9836,191
1604670647.9864,213
1604670647.9883,225
1604670647.9904,232
1604670647.9924,230
1604670647.9944,215
1604670647.9964,179
1604670647.9983,121
1604670648.0004,48
1604670648.0024,-26
1604670648.0044,-80
1604670648.0064,-104
1604670648.0084,-113
1604670648.0104,-123
1604670648.0125,-128
1604670648.0144,-118
1604670648.0164,-106
1604670648.0184,-101
1604670648.0204,-97
1604670648.0223,-84
1604670648.0244,-77
1604670648.0264,-75
1604670648.0284,-70
1604670648.0303,-60
1604670648.0324,-50
1604670648.0344,-50
1604670648.0363,-50
1604670648.0384,-43
1604670648.0404,-36
1604670648.0424,-33
1604670648.0443,-31
1604670648.0463,-24
1604670648.0483,-21
1604670648.0503,-21
1604670648.0524,-16
1604670648.0544,-12
1604670648.0564,-12
1604670648.0584,-12
1604670648.0603,-9
1604670648.0623,-7
1604670648.0644,-7
1604670648.0664,-4
1604670648.0683,-2
1604670648.0704,-2
1604670648.0723,-7
1604670648.0744,-4
1604670648.0763,14
1604670648.0784,43
1604670648.0805,70
1604670648.0824,82
1604670648.0844,67
1604670648.0864,36
1604670648.0884,12
1604670648.0904,4
1604670648.0923,7
1604670648.0944,7
1604670648.0963,7
1604670648.0983,7
1604670648.1003,4
1604670648.1024,7
1604670648.1044,7
1604670648.1064,41
1604670648.1083,269
1604670648.1103,734
1604670648.1124,1248
1604670648.1145,1302
1604670648.1164,455
1604670648.1184,-380
1604670648.1204,-242
1604670648.1223,14
1604670648.1244,-145
1604670648.5514,-167
1604670648.5518,-53
1604670648.5542,-67
1604670648.5569,-72
1604670648.5589,-21
1604670648.5609,-16
1604670648.5629,-21
1604670648.5650,9
1604670648.5669,36
1604670648.5689,46
1604670648.5709,65
1604670648.5729,94
1604670648.5749,116
1604670648.5769,135
1604670648.5789,160
1604670648.5809,186
1604670648.5828,203
1604670648.5849,218
1604670648.5869,227
1604670648.5889,227
1604670648.5909,213
1604670648.5929,186
1604670648.5949,140
1604670648.5969,72
1604670648.5989,-2
1604670648.6008,-58
1604670648.6029,-92
1604670648.6049,-109
1604670648.6069,-118
1604670648.6089,-121
1604670648.6109,-116
1604670648.6129,-106
1604670648.6149,-99
1604670648.6169,-97
1604670648.6188,-94
1604670648.6209,-82
1604670648.6229,-72
1604670648.6249,-67
1604670648.6269,-58
1604670648.6289,-50
1604670648.6309,-50
1604670648.6329,-43
1604670648.6349,-33
1604670648.6368,-31
1604670648.6389,-31
1604670648.6410,-29
1604670648.6430,-24
1604670648.6449,-19
1604670648.6469,-19
1604670648.6489,-16
1604670648.6509,-16
1604670648.6528,-24
1604670648.6549,-21
1604670648.6568,-12
1604670648.6589,-9
1604670648.6609,-12
1604670648.6628,-16
1604670648.6649,-24
1604670648.6669,-31
1604670648.6689,-26
1604670648.6709,0
1604670648.6729,31
1604670648.6749,55
1604670648.6769,65
1604670648.6789,43
1604670648.6809,12
1604670648.6829,-9
1604670648.6849,-14
1604670648.6869,-12
1604670648.6889,-7
1604670648.6909,-9
1604670648.6929,-9
1604670648.6949,-4
1604670649.1518,0
1604670649.1526,-4
1604670649.1551,53
1604670649.1577,337
1604670649.1597,839
1604670649.1617,1309
1604670649.1639,1151
1604670649.1657,162
1604670649.1677,-460
1604670649.1694,-167
1604670649.1707,-19
1604670649.1727,-201
1604670649.1748,-155
1604670649.1767,-60
1604670649.1786,-97
1604670649.1806,-89
1604670649.1826,-33
1604670649.1846,-26
1604670649.1867,-21
1604670649.1887,7
1604670649.1906,26
1604670649.1926,38
1604670649.1946,58
1604670649.1969,82
1604670649.1987,101
1604670649.2006,121
1604670649.2026,145
1604670649.2046,169
1604670649.2066,194
1604670649.2086,208
1604670649.2106,215
1604670649.2126,215
1604670649.2146,203
1604670649.2166,167
1604670649.2186,113
1604670649.2206,46
1604670649.2226,-24
1604670649.2246,-77
1604670649.2266,-106
1604670649.2286,-121
1604670649.2306,-126
1604670649.2327,-126
1604670649.2346,-123
1604670649.2366,-118
1604670649.2386,-109
1604670649.2406,-101
1604670649.2426,-94
1604670649.2446,-87
1604670649.2467,-82
1604670649.2486,-77
1604670649.2506,-77
1604670649.2527,-72
1604670649.2546,-65
1604670649.2566,-60
1604670649.2586,-53
1604670649.2606,-48
1604670649.2626,-46
1604670649.2646,-41
1604670649.2666,-33
1604670649.2686,-33
1604670649.2706,-33
1604670649.2726,-31
1604670649.2746,-31
1604670649.2766,-31
1604670649.2786,-29
1604670649.2806,-29
1604670649.2826,-26
1604670649.2846,-24
1604670649.2866,-21
1604670649.2886,-24
1604670649.2906,-24
1604670649.2926,-19
1604670649.2946,-14
1604670649.6915,-19
1604670649.6924,-26
1604670649.6946,-19
1604670649.6972,4
1604670649.6992,26
1604670649.7012,50
1604670649.7032,58
1604670649.7052,31
1604670649.7072,-4
1604670649.7092,-21
1604670649.7112,-21
1604670649.7132,-31
1604670649.7152,-38
1604670649.7172,-33
1604670649.7192,-29
1604670649.7212,-29
1604670649.7232,-26
1604670649.7252,-24
1604670649.7272,48
1604670649.7292,344
1604670649.7312,853
1604670649.7333,1314
1604670649.7352,1115
1604670649.7372,138
1604670649.7391,-431
1604670649.7412,-152
1604670649.7432,-38
1604670649.7451,-206
1604670649.7472,-155
1604670649.7492,-70
1604670649.7512,-104
1604670649.7532,-94
1604670649.7552,-46
1604670649.7572,-41
1604670649.7592,-33
1604670649.7612,-2
1604670649.7632,14
1604670649.7652,26
1604670649.7672,48
1604670649.7692,72
1604670649.7711,94
1604670649.7732,121
1604670649.7752,147
1604670649.7772,167
1604670649.7792,184
1604670649.7812,206
1604670649.7832,218
1604670649.7852,218
1604670649.7872,206
1604670649.7892,177
1604670649.7912,126
1604670649.7932,53
1604670649.7954,-19
1604670649.7972,-72
1604670649.7992,-104
1604670649.8012,-121
1604670649.8032,-128
1604670649.8052,-128
1604670649.8072,-123
1604670649.8092,-113
1604670649.8112,-106
1604670649.8132,-101
1604670649.8152,-94
1604670649.8172,-84
1604670649.8191,-80
1604670649.8211,-80
1604670649.8232,-75
1604670649.8252,-67
1604670649.8272,-63
1604670649.8291,-55
1604670649.8312,-48
1604670649.8332,-43
1604670649.8352,-41
1604670650.2614,-38
1604670650.2623,-38
1604670650.2647,-33
1604670650.2675,-29
1604670650.2694,-29
1604670650.2714,-31
1604670650.2735,-26
1604670650.2754,-24
1604670650.2773,-33
1604670650.2793,-38
1604670650.2813,-36
1604670650.2834,-33
1604670650.2854,-36
1604670650.2873,-38
1604670650.2893,-36
1604670650.2914,-38
1604670650.2933,-29
1604670650.2953,-2
1604670650.2973,26
1604670650.2993,48
1604670650.3013,53
1604670650.3033,26
1604670650.3053,-4
1604670650.3073,-21
1604670650.3093,-21
1604670650.3113,-24
1604670650.3133,-24
1604670650.3153,-21
1604670650.3173,-21
1604670650.3193,-21
1604670650.3215,-21
1604670650.3233,-21
1604670650.3253,70
1604670650.3273,407
1604670650.3293,936
1604670650.3313,1338
1604670650.3333,1011
1604670650.3353,-9
1604670650.3374,-458
1604670650.3393,-126
1604670650.3413,-55
1604670650.3433,-213
1604670650.3453,-135
1604670650.3473,-65
1604670650.3493,-106
1604670650.3513,-84
1604670650.3533,-36
1604670650.3553,-33
1604670650.3573,-24
1604670650.3593,7
1604670650.3613,26
1604670650.3633,43
1604670650.3653,65
1604670650.3673,87
1604670650.3693,109
1604670650.3713,133
1604670650.3733,152
1604670650.3753,177
1604670650.3773,203
1604670650.3793,220
1604670650.3813,225
1604670650.3833,223
1604670650.3853,210
1604670650.3873,179
1604670650.3893,123
1604670650.3913,46
1604670650.3933,-26
1604670650.3953,-77
1604670650.3973,-109
1604670650.3993,-121
1604670650.4013,-126
1604670650.4033,-128
1604670650.4053,-123
1604670650.8013,-113
1604670650.8020,-106
1604670650.8044,-104
1604670650.8070,-97
1604670650.8090,-89
1604670650.8110,-87
1604670650.8130,-82
1604670650.8150,-75
1604670650.8173,-65
1604670650.8191,-65
1604670650.8210,-70
1604670650.8230,-65
1604670650.8250,-55
1604670650.8270,-53
1604670650.8289,-55
1604670650.8310,-53
1604670650.8330,-48
1604670650.8350,-48
1604670650.8370,-50
1604670650.8390,-43
1604670650.8410,-41
1604670650.8430,-41
1604670650.8450,-41
1604670650.8470,-43
1604670650.8489,-50
1604670650.8509,-48
1604670650.8530,-26
1604670650.8549,7
1604670650.8569,31
1604670650.8589,33
1604670650.8609,14
1604670650.8630,-16
1604670650.8649,-36
1604670650.8670,-41
1604670650.8689,-43
1604670650.8709,-43
1604670650.8730,-41
1604670650.8750,-46
1604670650.8770,-46
1604670650.8789,-38
1604670650.8809,-38
1604670650.8830,-12
1604670650.8850,203
1604670650.8870,662
1604670650.8889,1176
1604670650.8909,1278
1604670650.8929,477
1604670650.8949,-419
1604670650.8970,-324
1604670650.8990,-9
1604670650.9009,-157
1604670650.9029,-206
1604670650.9049,-80
1604670650.9069,-87
1604670650.9089,-106
1604670650.9110,-50
1604670650.9129,-29
1604670650.9150,-31
1604670650.9170,-4
1604670650.9191,19
1604670650.9211,29
1604670650.9230,50
1604670650.9249,77
1604670650.9270,99
1604670650.9289,123
1604670650.9309,150
1604670650.9329,174
1604670650.9349,198
1604670650.9370,218
1604670650.9389,237
1604670650.9409,240
1604670650.9429,225
1604670650.9449,196
1604670651.3718,152
1604670651.3728,84
1604670651.3752,7
1604670651.3778,-55
1604670651.3798,-92
1604670651.3818,-111
1604670651.3839,-128
1604670651.3859,-140
1604670651.3878,-135
1604670651.3898,-123
1604670651.3918,-113
1604670651.3938,-111
1604670651.3958,-104
1604670651.3978,-92
1604670651.3998,-84
1604670651.4018,-80
1604670651.4038,-72
1604670651.4059,-63
1604670651.4077,-58
1604670651.4098,-58
1604670651.4117,-55
1604670651.4137,-58
1604670651.4158,-60
1604670651.4177,-53
1604670651.4197,-46
1604670651.4217,-41
1604670651.4237,-41
1604670651.4258,-41
1604670651.4277,-38
1604670651.4297,-38
1604670651.4317,-36
1604670651.4337,-33
1604670651.4357,-36
1604670651.4377,-38
1604670651.4397,-41
1604670651.4417,-33
1604670651.4437,-7
1604670651.4460,26
1604670651.4478,48
1604670651.4497,50
1604670651.4517,26
1604670651.4537,-14
1604670651.4558,-33
1604670651.4577,-31
1604670651.4598,-33
1604670651.4617,-33
1604670651.4637,-31
1604670651.4658,-31
1604670651.4677,-26
1604670651.4697,-26
1604670651.4717,-29
1604670651.4737,33
1604670651.4758,322
1604670651.4777,826
1604670651.4797,1292
1604670651.4817,1132
1604670651.4837,169
1604670651.4857,-434
1604670651.4877,-164
1604670651.4897,-26
1604670651.4917,-194
1604670651.4937,-147
1604670651.4958,-55
1604670651.4977,-84
1604670651.4997,-77
1604670651.5017,-31
1604670651.5037,-26
1604670651.5059,-14
1604670651.5077,16
1604670651.5097,29
1604670651.5117,38
1604670651.5137,63
1604670651.5157,89
1604670651.9419,106
1604670651.9428,128
1604670651.9452,160
1604670651.9478,184
1604670651.9498,196
1604670651.9518,208
1604670651.9539,223
1604670651.9559,220
1604670651.9578,198
1604670651.9597,167
1604670651.9617,118
1604670651.9637,46
1604670651.9658,-31
1604670651.9677,-84
1604670651.9697,-116
1604670651.9719,-138
1604670651.9737,-145
1604670651.9758,-140
1604670651.9777,-133
1604670651.9797,-126
1604670651.9817,-118
1604670651.9837,-109
1604670651.9858,-101
1604670651.9877,-94
1604670651.9897,-87
1604670651.9917,-82
1604670651.9937,-75
1604670651.9957,-67
1604670651.9977,-67
1604670651.9997,-65
1604670652.0017,-58
1604670652.0037,-53
1604670652.0057,-48
1604670652.0077,-43
1604670652.0097,-43
1604670652.0117,-43
1604670652.0137,-38
1604670652.0157,-36
1604670652.0177,-33
1604670652.0197,-33
1604670652.0217,-33
1604670652.0237,-33
1604670652.0258,-31
1604670652.0277,-33
1604670652.0298,-33
1604670652.0317,-16
1604670652.0337,14
1604670652.0357,41
1604670652.0377,58
1604670652.0397,50
1604670652.0417,14
1604670652.0437,-16
1604670652.0457,-24
1604670652.0477,-21
1604670652.0497,-21
1604670652.0517,-24
1604670652.0537,-26
1604670652.0557,-21
1604670652.0577,-21
1604670652.0597,-26
1604670652.0617,-19
1604670652.0637,113
1604670652.0657,489
1604670652.0677,1020
1604670652.0697,1336
1604670652.0717,826
1604670652.0739,-169
1604670652.0759,-390
1604670652.0777,-50
1604670652.0797,-87
1604670652.0817,-206
1604670652.0837,-104
1604670652.0858,-63
1604670652.5717,-94
1604670652.5726,-60
1604670652.5750,-26
1604670652.5776,-24
1604670652.5796,-9
1604670652.5816,16
1604670652.5838,29
1604670652.5856,43
1604670652.5876,65
1604670652.5896,80
1604670652.5916,99
1604670652.5936,128
1604670652.5957,155
1604670652.5976,177
1604670652.5996,198
1604670652.6016,213
1604670652.6036,218
1604670652.6057,213
1604670652.6076,196
1604670652.6095,162
1604670652.6115,97
1604670652.6135,14
1604670652.6155,-50
1604670652.6176,-84
1604670652.6196,-109
1604670652.6215,-123
1604670652.6235,-130
1604670652.6256,-126
1604670652.6276,-121
1604670652.6295,-111
1604670652.6302,-104
1604670652.6316,-97
1604670652.6335,-89
1604670652.6356,-84
1604670652.6375,-75
1604670652.6395,-67
1604670652.6415,-63
1604670652.6436,-60
1604670652.6456,-58
1604670652.6476,-53
1604670652.6495,-46
1604670652.6516,-43
1604670652.6536,-38
1604670652.6555,-33
1604670652.6577,-36
1604670652.6596,-38
1604670652.6602,-33
1604670652.6616,-31
1604670652.6636,-31
1604670652.6655,-33
1604670652.6676,-33
1604670652.6696,-36
1604670652.6715,-38
1604670652.6735,-33
1604670652.6756,-12
1604670652.6776,21
1604670652.6796,43
1604670652.6816,46
1604670652.6835,24
1604670652.6856,-9
1604670652.6876,-29
1604670652.6896,-29
1604670652.6902,-26
1604670652.6916,-29
1604670652.6935,-29
1604670652.6955,-26
1604670652.6975,-24
1604670652.6996,-24
1604670652.7015,-21
1604670652.7036,63
1604670652.7055,378
1604670652.7076,887
1604670652.7095,1302
1604670653.0516,1013
1604670653.0524,-2
1604670653.0548,-475
1604670653.0574,-130
1604670653.0594,-38
1604670653.0601,-208
1604670653.0624,-143
1604670653.0644,-67
1604670653.0665,-104
1604670653.0684,-80
1604670653.0704,-33
1604670653.0723,-36
1604670653.0744,-26
1604670653.0764,0
1604670653.0783,12
1604670653.0804,21
1604670653.0824,46
1604670653.0844,70
1604670653.0864,82
1604670653.0884,99
1604670653.0904,128
1604670653.0910,155
1604670653.0925,174
1604670653.0944,196
1604670653.0964,208
1604670653.0984,203
1604670653.1004,189
1604670653.1023,160
1604670653.1044,106
1604670653.1064,33
1604670653.1083,-33
1604670653.1103,-82
1604670653.1124,-111
1604670653.1143,-126
1604670653.1163,-133
1604670653.1183,-130
1604670653.1203,-121
1604670653.1211,-116
1604670653.1234,-113
1604670653.1254,-101
1604670653.1273,-87
1604670653.1294,-82
1604670653.1314,-77
1604670653.1333,-75
1604670653.1354,-70
1604670653.1373,-60
1604670653.1393,-55
1604670653.1414,-50
1604670653.1434,-46
1604670653.1453,-43
1604670653.1474,-41
1604670653.1494,-36
1604670653.1514,-31
1604670653.1520,-29
1604670653.1534,-29
1604670653.1554,-29
1604670653.1574,-29
1604670653.1594,-29
1604670653.1614,-31
1604670653.1633,-31
1604670653.1653,-21
1604670653.1674,-4
1604670653.1694,21
1604670653.1714,50
1604670653.1734,58
1604670653.1753,24
1604670653.1774,-14
1604670653.1794,-26
1604670653.1814,-29
1604670653.1821,-33
1604670653.1834,-29
1604670653.1854,-24
1604670653.1874,-21
1604670653.6221,-24
1604670653.6231,-24
1604670653.6254,-29
1604670653.6281,38
1604670653.6302,334
1604670653.6321,846
1604670653.6341,1299
1604670653.6361,1093
1604670653.6381,104
1604670653.6388,-455
1604670653.6411,-157
1604670653.6430,-38
1604670653.6453,-213
1604670653.6471,-162
1604670653.6490,-70
1604670653.6510,-104
1604670653.6530,-92
1604670653.6550,-43
1604670653.6570,-36
1604670653.6591,-29
1604670653.6610,-2
1604670653.6630,19
1604670653.6650,33
1604670653.6671,58
1604670653.6690,80
1604670653.6697,99
1604670653.6720,123
1604670653.6740,150
1604670653.6761,174
1604670653.6780,196
1604670653.6800,215
1604670653.6821,223
1604670653.6841,218
1604670653.6860,206
1604670653.6881,172
1604670653.6900,116
1604670653.6920,43
1604670653.6940,-26
1604670653.6961,-72
1604670653.6980,-99
1604670653.6987,-116
1604670653.7000,-123
1604670653.7020,-123
1604670653.7040,-118
1604670653.7060,-111
1604670653.7081,-99
1604670653.7100,-92
1604670653.7120,-87
1604670653.7140,-77
1604670653.7160,-67
1604670653.7181,-63
1604670653.7202,-60
1604670653.7220,-50
1604670653.7240,-46
1604670653.7261,-46
1604670653.7280,-43
1604670653.7287,-38
1604670653.7311,-38
1604670653.7330,-41
1604670653.7350,-36
1604670653.7370,-31
1604670653.7390,-33
1604670653.7410,-36
1604670653.7430,-36
1604670653.7450,-33
1604670653.7471,-36
1604670653.7490,-36
1604670653.7510,-14
1604670653.7530,16
1604670653.7550,43
1604670653.7570,53
1604670653.7591,33
1604670653.7597,-4
1604670654.1913,-29
1604670654.1922,-26
1604670654.1946,-29
1604670654.1964,-33
1604670654.1983,-29
1604670654.2003,-26
1604670654.2024,-29
1604670654.2043,-26
1604670654.2062,-31
1604670654.2083,2
1604670654.2102,244
1604670654.2122,727
1604670654.2142,1222
1604670654.2163,1202
1604670654.2182,324
1604670654.2202,-414
1604670654.2222,-227
1604670654.2242,-19
1604670654.2262,-181
1604670654.2282,-177
1604670654.2302,-67
1604670654.2322,-89
1604670654.2342,-97
1604670654.2362,-46
1604670654.2382,-31
1604670654.2402,-33
1604670654.2422,-9
1604670654.2442,12
1604670654.2463,24
1604670654.2484,46
1604670654.2502,67
1604670654.2522,89
1604670654.2542,116
1604670654.2562,140
1604670654.2582,164
1604670654.2602,189
1604670654.2622,203
1604670654.2642,213
1604670654.2662,215
1604670654.2682,203
1604670654.2702,174
1604670654.2722,123
1604670654.2742,53
1604670654.2762,-19
1604670654.2782,-72
1604670654.2802,-104
1604670654.2822,-121
1604670654.2842,-126
1604670654.2863,-128
1604670654.2882,-118
1604670654.2902,-113
1604670654.2922,-113
1604670654.2942,-111
1604670654.2963,-99
1604670654.2982,-89
1604670654.3002,-84
1604670654.3022,-80
1604670654.3043,-77
1604670654.3062,-72
1604670654.3082,-70
1604670654.3102,-65
1604670654.3122,-58
1604670654.3142,-50
1604670654.3163,-48
1604670654.3182,-46
1604670654.3202,-41
1604670654.3222,-38
1604670654.3242,-41
1604670654.3262,-41
1604670654.3282,-33
1604670654.3302,-31
1604670654.3322,-36
1604670654.3342,-36
1604670654.7918,-33
1604670654.7926,-26
1604670654.7943,-4
1604670654.7963,24
1604670654.7983,48
1604670654.8003,48
1604670654.8024,9
1604670654.8045,-29
1604670654.8062,-36
1604670654.8082,-38
1604670654.8102,-48
1604670654.8122,-55
1604670654.8142,-46
1604670654.8163,-46
1604670654.8182,-46
1604670654.8202,-41
1604670654.8222,-36
1604670654.8242,70
1604670654.8263,429
1604670654.8282,962
1604670654.8302,1331
1604670654.8322,902
1604670654.8342,-130
1604670654.8362,-448
1604670654.8382,-82
1604670654.8402,-72
1604670654.8422,-225
1604670654.8442,-126
1604670654.8463,-67
1604670654.8482,-109
1604670654.8502,-80
1604670654.8523,-36
1604670654.8542,-36
1604670654.8562,-24
1604670654.8582,2
1604670654.8602,16
1604670654.8622,31
1604670654.8642,55
1604670654.8662,75
1604670654.8682,99
1604670654.8702,123
1604670654.8732,145
1604670654.8752,167
1604670654.8772,184
1604670654.8792,191
1604670654.8812,194
1604670654.8832,194
1604670654.8852,177
1604670654.8872,140
1604670654.8892,80
1604670654.8912,7
1604670654.8932,-55
1604670654.8952,-101
1604670654.8972,-135
1604670654.8992,-150
1604670654.9012,-147
1604670654.9032,-145
1604670654.9052,-143
1604670654.9073,-133
1604670654.9092,-121
1604670654.9112,-113
1604670654.9132,-106
1604670654.9152,-99
1604670654.9172,-89
1604670654.9192,-84
1604670654.9212,-77
1604670654.9232,-67
1604670654.9252,-63
1604670654.9272,-58
1604670654.9292,-53
1604670654.9312,-48
1604670654.9332,-46
1604670654.9352,-43
1604670655.2717,-41
1604670655.2725,-38
1604670655.2750,-36
1604670655.2775,-38
1604670655.2795,-46
1604670655.2815,-43
1604670655.2837,-33
1604670655.2858,-14
1604670655.2875,12
1604670655.2895,41
1604670655.2915,46
1604670655.2935,14
1604670655.2956,-24
1604670655.2975,-38
1604670655.2995,-43
1604670655.3015,-50
1604670655.3035,-55
1604670655.3055,-46
1604670655.3075,-43
1604670655.3095,-41
1604670655.3115,-36
1604670655.3136,-33
1604670655.3155,16
1604670655.3175,278
1604670655.3195,776
1604670655.3215,1261
1604670655.3235,1151
1604670655.3255,210
1604670655.3275,-443
1604670655.3295,-186
1604670655.3315,-19
1604670655.3335,-191
1604670655.3355,-160
1604670655.3375,-60
1604670655.3395,-92
1604670655.3416,-89
1604670655.3437,-38
1604670655.3455,-33
1604670655.3475,-29
1604670655.3495,0
1604670655.3515,16
1604670655.3535,31
1604670655.3555,53
1604670655.3575,72
1604670655.3595,94
1604670655.3615,116
1604670655.3635,140
1604670655.3655,167
1604670655.3675,191
1604670655.3695,206
1604670655.3715,213
1604670655.3735,210
1604670655.3755,198
1604670655.3775,169
1604670655.3795,116
1604670655.3815,46
1604670655.3835,-21
1604670655.3855,-70
1604670655.3875,-99
1604670655.3895,-113
1604670655.3915,-118
1604670655.3935,-116
1604670655.3955,-113
1604670655.3975,-104
1604670655.3995,-97
1604670655.4015,-87
1604670655.4035,-77
1604670655.4056,-67
1604670655.4075,-60
1604670655.4095,-55
1604670655.4115,-50
1604670655.4135,-48
1604670655.4142,-46
1604670655.9019,-38
1604670655.9030,-33
1604670655.9054,-31
1604670655.9081,-29
1604670655.9100,-31
1604670655.9120,-33
1604670655.9140,-26
1604670655.9161,-21
1604670655.9180,-21
1604670655.9200,-21
1604670655.9220,-21
1604670655.9240,-21
1604670655.9260,-14
1604670655.9266,7
1604670655.9282,41
1604670655.9300,65
1604670655.9319,72
1604670655.9339,60
1604670655.9359,29
1604670655.9379,4
1604670655.9399,0
1604670655.9419,0
1604670655.9439,2
1604670655.9460,7
1604670655.9479,9
1604670655.9499,12
1604670655.9519,14
1604670655.9539,9
1604670655.9559,41
1604670655.9566,261
1604670655.9579,717
1604670655.9599,1229
1604670655.9619,1287
1604670655.9639,465
1604670655.9659,-349
1604670655.9679,-227
1604670655.9699,14
1604670655.9719,-133
1604670655.9739,-150
1604670655.9759,-43
1604670655.9779,-55
1604670655.9799,-65
1604670655.9819,-14
1604670655.9839,2
1604670655.9861,2
1604670655.9867,26
1604670655.9889,50
1604670655.9909,67
1604670655.9929,84
1604670655.9950,106
1604670655.9970,130
1604670655.9989,152
1604670656.0009,174
1604670656.0029,196
1604670656.0049,215
1604670656.0069,232
1604670656.0089,242
1604670656.0110,244
1604670656.0129,232
1604670656.0149,203
1604670656.0169,155
1604670656.0176,87
1604670656.0189,9
1604670656.0209,-48
1604670656.0229,-77
1604670656.0251,-89
1604670656.0270,-97
1604670656.0289,-99
1604670656.0309,-99
1604670656.0329,-92
1604670656.0349,-82
1604670656.0369,-75
1604670656.0389,-67
1604670656.4417,-58
1604670656.4425,-53
1604670656.4449,-50
1604670656.4461,-43
1604670656.4476,-38
1604670656.4496,-36
1604670656.4516,-31
1604670656.4536,-24
1604670656.4556,-24
1604670656.4575,-26
1604670656.4595,-31
1604670656.4615,-26
1604670656.4635,-21
1604670656.4655,-29
1604670656.4675,-38
1604670656.4695,-33
1604670656.4715,-29
1604670656.4735,-31
1604670656.4755,-33
1604670656.4761,-29
1604670656.4775,-12
1604670656.4794,14
1604670656.4815,41
1604670656.4834,55
1604670656.4854,38
1604670656.4874,4
1604670656.4895,-19
1604670656.4915,-24
1604670656.4934,-21
1604670656.4954,-21
1604670656.4974,-19
1604670656.4994,-16
1604670656.5014,-19
1604670656.5034,-16
1604670656.5054,-14
1604670656.5061,14
1604670656.5074,232
1604670656.5095,698
1604670656.5114,1217
1604670656.5135,1297
1604670656.5155,475
1604670656.5174,-390
1604670656.5195,-271
1604670656.5216,9
1604670656.5235,-147
1604670656.5255,-181
1604670656.5274,-63
1604670656.5294,-75
1604670656.5314,-92
1604670656.5334,-38
1604670656.5354,-16
1604670656.5361,-14
1604670656.5374,9
1604670656.5395,29
1604670656.5415,41
1604670656.5435,58
1604670656.5454,77
1604670656.5475,97
1604670656.5494,123
1604670656.5515,150
1604670656.5534,169
1604670656.5555,186
1604670656.5574,203
1604670656.5594,210
1604670656.5614,206
1604670656.5635,196
1604670656.5655,172
1604670656.5661,126
1604670656.5675,53
1604670656.5694,-21
1604670656.5715,-70
1604670656.5735,-101
1604670656.5754,-126
1604670657.0124,-138
1604670657.0133,-138
1604670657.0158,-133
1604670657.0184,-130
1604670657.0203,-123
1604670657.0223,-111
1604670657.0245,-106
1604670657.0264,-104
1604670657.0270,-94
1604670657.0283,-84
1604670657.0303,-87
1604670657.0323,-92
1604670657.0343,-87
1604670657.0363,-84
1604670657.0383,-87
1604670657.0402,-84
1604670657.0422,-75
1604670657.0442,-70
1604670657.0463,-67
1604670657.0482,-65
1604670657.0502,-63
1604670657.0525,-63
1604670657.0543,-63
1604670657.0562,-63
1604670657.0569,-60
1604670657.0582,-50
1604670657.0602,-21
1604670657.0623,9
1604670657.0642,31
1604670657.0662,31
1604670657.0682,-2
1604670657.0702,-36
1604670657.0722,-43
1604670657.0742,-43
1604670657.0762,-46
1604670657.0782,-43
1604670657.0802,-38
1604670657.0822,-36
1604670657.0843,-33
1604670657.0862,-31
1604670657.0869,-31
1604670657.0882,65
1604670657.0902,397
1604670657.0922,921
1604670657.0942,1324
1604670657.0963,970
1604670657.0983,-60
1604670657.1002,-460
1604670657.1022,-104
1604670657.1042,-60
1604670657.1062,-223
1604670657.1083,-135
1604670657.1102,-65
1604670657.1122,-109
1604670657.1142,-87
1604670657.1163,-38
1604670657.1169,-38
1604670657.1182,-29
1604670657.1202,2
1604670657.1222,21
1604670657.1242,33
1604670657.1263,58
1604670657.1282,77
1604670657.1302,97
1604670657.1322,123
1604670657.1342,150
1604670657.1363,172
1604670657.1382,189
1604670657.1402,203
1604670657.1422,206
1604670657.1443,194
1604670657.1450,177
1604670657.1464,143
1604670657.5214,80
1604670657.5220,7
1604670657.5243,-55
1604670657.5270,-99
1604670657.5277,-123
1604670657.5299,-135
1604670657.5320,-143
1604670657.5340,-145
1604670657.5360,-143
1604670657.5380,-133
1604670657.5399,-121
1604670657.5419,-121
1604670657.5439,-126
1604670657.5460,-118
1604670657.5480,-106
1604670657.5500,-101
1604670657.5519,-99
1604670657.5539,-89
1604670657.5560,-82
1604670657.5580,-75
1604670657.5586,-72
1604670657.5599,-67
1604670657.5621,-63
1604670657.5639,-55
1604670657.5660,-55
1604670657.5679,-53
1604670657.5700,-48
1604670657.5719,-46
1604670657.5740,-46
1604670657.5760,-46
1604670657.5779,-46
1604670657.5800,-48
1604670657.5820,-50
1604670657.5839,-43
1604670657.5859,-19
1604670657.5879,7
1604670657.5886,29
1604670657.5899,38
1604670657.5919,24
1604670657.5940,-14
1604670657.5960,-36
1604670657.5980,-36
1604670657.5999,-36
1604670657.6019,-38
1604670657.6039,-33
1604670657.6060,-29
1604670657.6080,-29
1604670657.6100,-29
1604670657.6119,-29
1604670657.6140,21
1604670657.6161,278
1604670657.6180,771
1604670657.6187,1268
1604670657.6199,1195
1604670657.6220,271
1604670657.6239,-426
1604670657.6260,-206
1604670657.6280,-24
1604670657.6299,-189
1604670657.6319,-172
1604670657.6340,-72
1604670657.6360,-97
1604670657.6379,-97
1604670657.6400,-50
1604670657.6420,-38
1604670657.6440,-31
1604670657.6460,-7
1604670657.6479,9
1604670657.6486,21
1604670657.6500,41
1604670657.6519,63
1604670657.6540,82
1604670657.6561,101
1604670658.0913,121
1604670658.0921,140
1604670658.0945,162
1604670658.0973,179
1604670658.0992,184
1604670658.1012,177
1604670658.1032,160
1604670658.1052,135
1604670658.1071,89
1604670658.1091,16
1604670658.1098,-53
1604670658.1112,-104
1604670658.1131,-133
1604670658.1151,-150
1604670658.1172,-155
1604670658.1192,-155
1604670658.1211,-152
1604670658.1231,-145
1604670658.1251,-135
1604670658.1271,-123
1604670658.1291,-118
1604670658.1311,-111
1604670658.1330,-99
1604670658.1351,-94
1604670658.1371,-89
1604670658.1391,-84
1604670658.1397,-80
1604670658.1411,-75
1604670658.1432,-75
1604670658.1451,-75
1604670658.1471,-67
1604670658.1491,-60
1604670658.1511,-55
1604670658.1531,-53
1604670658.1551,-53
1604670658.1571,-53
1604670658.1591,-53
1604670658.1611,-50
1604670658.1631,-46
1604670658.1651,-48
1604670658.1671,-53
1604670658.1691,-41
1604670658.1697,-9
1604670658.1711,21
1604670658.1731,41
1604670658.1751,36
1604670658.1771,4
1604670658.1790,-29
1604670658.1812,-41
1604670658.1831,-41
1604670658.1851,-38
1604670658.1872,-36
1604670658.1891,-38
1604670658.1911,-43
1604670658.1931,-36
1604670658.1951,-29
1604670658.1971,-31
1604670658.1991,60
1604670658.1998,388
1604670658.2011,897
1604670658.2031,1304
1604670658.2051,999
1604670658.2071,9
1604670658.2091,-431
1604670658.2111,-126
1604670658.2131,-72
1604670658.2151,-230
1604670658.2171,-157
1604670658.2192,-87
1604670658.2211,-118
1604670658.2231,-97
1604670658.2251,-50
1604670658.2271,-48
1604670658.6310,-38
1604670658.6317,-7
1604670658.6340,12
1604670658.6367,24
1604670658.6387,46
1604670658.6407,67
1604670658.6430,80
1604670658.6447,94
1604670658.6467,121
1604670658.6487,145
1604670658.6507,160
1604670658.6527,172
1604670658.6547,186
1604670658.6567,181
1604670658.6586,160
1604670658.6593,126
1604670658.6606,72
1604670658.6626,4
1604670658.6647,-63
1604670658.6667,-109
1604670658.6687,-130
1604670658.6706,-145
1604670658.6726,-152
1604670658.6747,-150
1604670658.6767,-140
1604670658.6787,-133
1604670658.6807,-128
1604670658.6826,-118
1604670658.6846,-111
1604670658.6866,-109
1604670658.6886,-101
1604670658.6893,-94
1604670658.6907,-87
1604670658.6926,-82
1604670658.6946,-80
1604670658.6967,-75
1604670658.6987,-65
1604670658.7007,-58
1604670658.7027,-58
1604670658.7047,-58
1604670658.7066,-55
1604670658.7087,-50
1604670658.7106,-46
1604670658.7126,-46
1604670658.7146,-50
1604670658.7167,-53
1604670658.7187,-50
1604670658.7193,-48
1604670658.7206,-33
1604670658.7226,-4
1604670658.7246,24
1604670658.7267,38
1604670658.7287,29
1604670658.7307,-7
1604670658.7327,-36
1604670658.7347,-38
1604670658.7366,-36
1604670658.7388,-43
1604670658.7407,-50
1604670658.7427,-46
1604670658.7446,-38
1604670658.7467,-41
1604670658.7474,-41
1604670658.7487,-26
1604670658.7507,118
1604670658.7526,511
1604670658.7546,1040
1604670658.7566,1319
1604670658.7586,744
1604670658.7607,-264
1604670658.7627,-409
1604670658.7647,-41
1604670658.7667,-104
1604670659.2919,-220
1604670659.2930,-106
1604670659.2953,-75
1604670659.2980,-118
1604670659.3000,-89
1604670659.3008,-53
1604670659.3020,-46
1604670659.3040,-26
1604670659.3061,-4
1604670659.3080,4
1604670659.3100,21
1604670659.3120,46
1604670659.3140,67
1604670659.3160,87
1604670659.3180,111
1604670659.3200,133
1604670659.3220,152
1604670659.3240,172
1604670659.3260,189
1604670659.3279,191
1604670659.3286,181
1604670659.3299,162
1604670659.3319,121
1604670659.3339,58
1604670659.3359,-16
1604670659.3379,-77
1604670659.3399,-113
1604670659.3419,-135
1604670659.3439,-145
1604670659.3460,-145
1604670659.3479,-143
1604670659.3499,-138
1604670659.3519,-130
1604670659.3539,-121
1604670659.3560,-116
1604670659.3580,-109
1604670659.3586,-101
1604670659.3599,-94
1604670659.3619,-87
1604670659.3639,-84
1604670659.3659,-77
1604670659.3679,-72
1604670659.3699,-70
1604670659.3719,-63
1604670659.3740,-53
1604670659.3759,-53
1604670659.3779,-53
1604670659.3799,-48
1604670659.3819,-46
1604670659.3839,-48
1604670659.3859,-53
1604670659.3879,-55
1604670659.3886,-53
1604670659.3899,-50
1604670659.3919,-31
1604670659.3939,4
1604670659.3959,31
1604670659.3979,41
1604670659.3999,24
1604670659.4019,-12
1604670659.4039,-33
1604670659.4060,-33
1604670659.4080,-33
1604670659.4099,-38
1604670659.4119,-33
1604670659.4139,-29
1604670659.4159,-31
1604670659.4179,-29
1604670659.4185,-26
1604670659.4199,-12
1604670659.4219,169
1604670659.4239,594
1604670659.4259,1113
1604670659.8015,1295
1604670659.8022,596
1604670659.8046,-322
1604670659.8072,-324
1604670659.8092,-19
1604670659.8112,-138
1604670659.8132,-201
1604670659.8152,-87
1604670659.8159,-87
1604670659.8172,-121
1604670659.8192,-72
1604670659.8212,-41
1604670659.8232,-43
1604670659.8254,-21
1604670659.8272,4
1604670659.8292,19
1604670659.8312,29
1604670659.8331,46
1604670659.8351,67
1604670659.8372,89
1604670659.8392,113
1604670659.8411,138
1604670659.8431,160
1604670659.8451,179
1604670659.8459,189
1604670659.8471,186
1604670659.8492,179
1604670659.8511,160
1604670659.8531,116
1604670659.8551,48
1604670659.8571,-24
1604670659.8592,-80
1604670659.8612,-113
1604670659.8632,-135
1604670659.8651,-143
1604670659.8671,-143
1604670659.8692,-138
1604670659.8711,-130
1604670659.8732,-123
1604670659.8752,-113
1604670659.8759,-106
1604670659.8772,-99
1604670659.8792,-97
1604670659.8812,-97
1604670659.8832,-92
1604670659.8851,-82
1604670659.8871,-75
1604670659.8892,-72
1604670659.8911,-67
1604670659.8932,-60
1604670659.8951,-55
1604670659.8972,-55
1604670659.8991,-48
1604670659.9012,-43
1604670659.9031,-41
1604670659.9052,-41
1604670659.9058,-41
1604670659.9072,-41
1604670659.9092,-41
1604670659.9112,-41
1604670659.9131,-43
1604670659.9152,-31
1604670659.9172,-4
1604670659.9192,26
1604670659.9213,43
1604670659.9232,41
1604670659.9252,12
1604670659.9272,-21
1604670659.9292,-33
1604670659.9312,-31
1604670659.9331,-31
1604670659.9351,-33
1604670659.9358,-29
1604670660.3418,-29
1604670660.3427,-29
1604670660.3452,-29
1604670660.3477,-26
1604670660.3497,58
1604670660.3517,368
1604670660.3538,875
1604670660.3558,1302
1604670660.3577,1042
1604670660.3597,55
1604670660.3617,-438
1604670660.3637,-138
1604670660.3658,-55
1604670660.3677,-215
1604670660.3697,-150
1604670660.3704,-72
1604670660.3717,-106
1604670660.3737,-89
1604670660.3758,-43
1604670660.3777,-38
1604670660.3797,-26
1604670660.3817,2
1604670660.3837,16
1604670660.3858,31
1604670660.3877,53
1604670660.3897,67
1604670660.3917,84
1604670660.3931,113
1604670660.3947,140
1604670660.3967,160
1604670660.3973,177
1604670660.3987,191
1604670660.4007,198
1604670660.4026,194
1604670660.4047,177
1604670660.4067,143
1604670660.4087,84
1604670660.4107,9
1604670660.4127,-55
1604670660.4147,-94
1604670660.4167,-121
1604670660.4187,-138
1604670660.4209,-145
1604670660.4227,-143
1604670660.4247,-135
1604670660.4267,-126
1604670660.4273,-118
1604670660.4287,-111
1604670660.4307,-104
1604670660.4327,-97
1604670660.4348,-89
1604670660.4367,-80
1604670660.4387,-75
1604670660.4407,-72
1604670660.4427,-65
1604670660.4447,-63
1604670660.4467,-63
1604670660.4487,-58
1604670660.4507,-50
1604670660.4526,-46
1604670660.4546,-46
1604670660.4567,-46
1604670660.4651,-41
1604670660.4668,-33
1604670660.4687,-36
1604670660.4706,-38
1604670660.4727,-33
1604670660.4747,-33
1604670660.4767,-38
1604670660.4787,-24
1604670660.4807,7
1604670660.4827,36
1604670660.4847,53
1604670660.9118,46
1604670660.9127,12
1604670660.9143,-16
1604670660.9168,-26
1604670660.9188,-29
1604670660.9208,-29
1604670660.9229,-31
1604670660.9248,-41
1604670660.9267,-38
1604670660.9287,-31
1604670660.9308,-33
1604670660.9327,-31
1604670660.9347,94
1604670660.9368,468
1604670660.9388,991
1604670660.9407,1314
1604670660.9427,831
1604670660.9447,-147
1604670660.9453,-390
1604670660.9467,-70
1604670660.9489,-99
1604670660.9507,-210
1604670660.9527,-113
1604670660.9547,-77
1604670660.9567,-109
1604670660.9587,-70
1604670660.9607,-33
1604670660.9627,-36
1604670660.9647,-26
1604670660.9667,2
1604670660.9686,14
1604670660.9706,29
1604670660.9727,50
1604670660.9747,70
1604670660.9754,89
1604670660.9767,113
1604670660.9787,140
1604670660.9807,162
1604670660.9826,177
1604670660.9847,191
1604670660.9867,201
1604670660.9886,191
1604670660.9907,167
1604670660.9926,130
1604670660.9946,75
1604670660.9967,-2
1604670660.9987,-67
1604670661.0007,-106
1604670661.0026,-126
1604670661.0047,-138
1604670661.0054,-143
1604670661.0068,-138
1604670661.0087,-130
1604670661.0106,-123
1604670661.0127,-118
1604670661.0147,-113
1604670661.0167,-101
1604670661.0186,-92
1604670661.0207,-89
1604670661.0226,-87
1604670661.0247,-84
1604670661.0267,-80
1604670661.0286,-72
1604670661.0307,-63
1604670661.0327,-55
1604670661.0347,-55
1604670661.0353,-53
1604670661.0366,-48
1604670661.0387,-41
1604670661.0406,-41
1604670661.0426,-41
1604670661.0449,-38
1604670661.0467,-43
1604670661.4812,-46
1604670661.4822,-46
1604670661.4845,-33
1604670661.4872,-2
1604670661.4892,29
1604670661.4912,41
1604670661.4934,31
1604670661.4953,0
1604670661.4958,-36
1604670661.4972,-53
1604670661.4992,-50
1604670661.5012,-50
1604670661.5032,-53
1604670661.5052,-46
1604670661.5072,-38
1604670661.5091,-38
1604670661.5112,-41
1604670661.5133,-36
1604670661.5152,97
1604670661.5172,472
1604670661.5191,987
1604670661.5211,1299
1604670661.5231,800
1604670661.5251,-210
1604670661.5258,-436
1604670661.5271,-58
1604670661.5291,-84
1604670661.5311,-223
1604670661.5331,-118
1604670661.5352,-72
1604670661.5371,-106
1604670661.5391,-72
1604670661.5412,-33
1604670661.5431,-36
1604670661.5451,-19
1604670661.5472,9
1604670661.5491,21
1604670661.5511,33
1604670661.5531,53
1604670661.5551,75
1604670661.5559,97
1604670661.5571,118
1604670661.5591,140
1604670661.5611,160
1604670661.5631,177
1604670661.5651,191
1604670661.5671,196
1604670661.5692,184
1604670661.5711,164
1604670661.5733,130
1604670661.5751,67
1604670661.5772,-9
1604670661.5791,-65
1604670661.5811,-99
1604670661.5831,-128
1604670661.5851,-143
1604670661.5858,-143
1604670661.5871,-135
1604670661.5891,-130
1604670661.5911,-128
1604670661.5931,-118
1604670661.5951,-106
1604670661.5972,-101
1604670661.5991,-94
1604670661.6011,-84
1604670661.6031,-80
1604670661.6051,-75
1604670661.6071,-67
1604670661.6091,-60
1604670661.6111,-58
1604670661.6131,-60
1604670661.6151,-55
1604670661.6158,-50
1604670662.0217,-48
1604670662.0226,-43
1604670662.0250,-41
1604670662.0277,-38
1604670662.0297,-41
1604670662.0317,-43
1604670662.0338,-43
1604670662.0357,-36
1604670662.0376,-16
1604670662.0397,7
1604670662.0416,24
1604670662.0436,31
1604670662.0457,7
1604670662.0462,-31
1604670662.0476,-46
1604670662.0496,-46
1604670662.0516,-46
1604670662.0536,-46
1604670662.0557,-38
1604670662.0576,-36
1604670662.0596,-36
1604670662.0616,-33
1604670662.0636,-33
1604670662.0657,9
1604670662.0676,252
1604670662.0696,734
1604670662.0716,1241
1604670662.0738,1229
1604670662.0757,332
1604670662.0761,-426
1604670662.0776,-230
1604670662.0795,-9
1604670662.0816,-179
1604670662.0836,-181
1604670662.0856,-70
1604670662.0876,-87
1604670662.0896,-97
1604670662.0916,-48
1604670662.0936,-29
1604670662.0956,-24
1604670662.0976,-4
1604670662.0995,16
1604670662.1015,31
1604670662.1035,55
1604670662.1056,77
1604670662.1062,97
1604670662.1075,121
1604670662.1096,145
1604670662.1115,164
1604670662.1135,184
1604670662.1156,201
1604670662.1176,206
1604670662.1196,198
1604670662.1216,186
1604670662.1235,160
1604670662.1257,109
1604670662.1276,36
1604670662.1296,-31
1604670662.1315,-80
1604670662.1336,-104
1604670662.1356,-123
1604670662.1362,-135
1604670662.1376,-133
1604670662.1396,-126
1604670662.1416,-121
1604670662.1436,-116
1604670662.1456,-106
1604670662.1475,-99
1604670662.1495,-94
1604670662.1515,-84
1604670662.1536,-77
1604670662.1556,-72
1604670662.1576,-67
1604670662.5916,-60
1604670662.5925,-53
1604670662.5941,-50
1604670662.5967,-50
1604670662.5986,-53
1604670662.6008,-50
1604670662.6027,-50
1604670662.6046,-55
1604670662.6065,-50
1604670662.6086,-48
1604670662.6105,-48
1604670662.6126,-48
1604670662.6145,-43
1604670662.6165,-43
1604670662.6186,-43
1604670662.6205,-36
1604670662.6225,-7
1604670662.6245,26
1604670662.6251,46
1604670662.6265,41
1604670662.6285,4
1604670662.6305,-26
1604670662.6325,-38
1604670662.6345,-38
1604670662.6365,-36
1604670662.6385,-33
1604670662.6405,-33
1604670662.6425,-33
1604670662.6445,-31
1604670662.6465,-29
1604670662.6485,-26
1604670662.6504,70
1604670662.6525,400
1604670662.6545,916
1604670662.6551,1321
1604670662.6564,1008
1604670662.6585,24
1604670662.6605,-412
1604670662.6624,-113
1604670662.6645,-58
1604670662.6665,-203
1604670662.6685,-135
1604670662.6705,-72
1604670662.6725,-104
1604670662.6745,-80
1604670662.6765,-41
1604670662.6786,-38
1604670662.6805,-24
1604670662.6824,4
1604670662.6845,21
1604670662.6851,36
1604670662.6865,55
1604670662.6885,72
1604670662.6905,92
1604670662.6925,116
1604670662.6944,143
1604670662.6967,160
1604670662.6985,177
1604670662.7005,189
1604670662.7024,196
1604670662.7045,191
1604670662.7065,174
1604670662.7085,140
1604670662.7104,87
1604670662.7125,16
1604670662.7144,-50
1604670662.7151,-97
1604670662.7165,-116
1604670662.7184,-128
1604670662.7204,-140
1604670662.7224,-143
1604670662.7245,-135
1604670662.7265,-128
1604670663.1613,-121
1604670663.1622,-111
1604670663.1647,-104
1604670663.1673,-99
1604670663.1694,-92
1604670663.1713,-84
1604670663.1733,-77
1604670663.1753,-80
1604670663.1758,-84
1604670663.1772,-80
1604670663.1792,-70
1604670663.1813,-72
1604670663.1832,-72
1604670663.1853,-67
1604670663.1873,-60
1604670663.1892,-58
1604670663.1912,-55
1604670663.1932,-50
1604670663.1953,-46
1604670663.1972,-50
1604670663.1992,-55
1604670663.2012,-50
1604670663.2033,-33
1604670663.2052,-12
1604670663.2058,14
1604670663.2072,38
1604670663.2092,43
1604670663.2112,12
1604670663.2132,-24
1604670663.2152,-33
1604670663.2172,-36
1604670663.2193,-41
1604670663.2212,-43
1604670663.2232,-38
1604670663.2254,-36
1604670663.2273,-33
1604670663.2292,-31
1604670663.2312,-33
1604670663.2333,26
1604670663.2353,303
1604670663.2358,800
1604670663.2372,1270
1604670663.2393,1134
1604670663.2412,184
1604670663.2432,-443
1604670663.2453,-184
1604670663.2472,-33
1604670663.2493,-206
1604670663.2512,-167
1604670663.2532,-70
1604670663.2552,-104
1604670663.2574,-101
1604670663.2592,-50
1604670663.2612,-36
1604670663.2632,-29
1604670663.2652,-4
1604670663.2658,14
1604670663.2672,31
1604670663.2693,53
1604670663.2712,72
1604670663.2732,92
1604670663.2752,111
1604670663.2772,130
1604670663.2792,145
1604670663.2812,162
1604670663.2832,184
1604670663.2852,194
1604670663.2872,184
1604670663.2892,164
1604670663.2912,143
1604670663.2932,92
1604670663.2952,21
1604670663.2958,-48
1604670663.7016,-97
1604670663.7023,-123
1604670663.7047,-140
1604670663.7073,-147
1604670663.7093,-147
1604670663.7114,-140
1604670663.7135,-133
1604670663.7153,-126
1604670663.7173,-121
1604670663.7194,-123
1604670663.7213,-118
1604670663.7233,-106
1604670663.7256,-99
1604670663.7261,-94
1604670663.7274,-87
1604670663.7293,-77
1604670663.7314,-70
1604670663.7334,-67
1604670663.7353,-63
1604670663.7373,-60
1604670663.7393,-58
1604670663.7413,-55
1604670663.7433,-48
1604670663.7453,-46
1604670663.7473,-46
1604670663.7493,-50
1604670663.7513,-48
1604670663.7534,-48
1604670663.7553,-48
1604670663.7559,-41
1604670663.7573,-14
1604670663.7593,14
1604670663.7613,36
1604670663.7633,38
1604670663.7653,9
1604670663.7673,-26
1604670663.7693,-43
1604670663.7713,-43
1604670663.7733,-38
1604670663.7753,-38
1604670663.7773,-38
1604670663.7793,-36
1604670663.7813,-33
1604670663.7833,-33
1604670663.7853,-31
1604670663.7859,41
1604670663.7873,332
1604670663.7893,824
1604670663.7913,1258
1604670663.7933,1057
1604670663.7953,97
1604670663.7973,-451
1604670663.7993,-150
1604670663.8013,-26
1604670663.8033,-201
1604670663.8053,-152
1604670663.8073,-67
1604670663.8093,-104
1604670663.8113,-92
1604670663.8133,-43
1604670663.8153,-38
1604670663.8159,-26
1604670663.8173,4
1604670663.8196,19
1604670663.8214,29
1604670663.8233,50
1604670663.8253,70
1604670663.8273,82
1604670663.8293,104
1604670663.8313,133
1604670663.8333,155
1604670663.8353,172
1604670663.8373,184
1604670664.2717,191
1604670664.2722,189
1604670664.2746,172
1604670664.2762,143
1604670664.2769,94
1604670664.2783,21
1604670664.2803,-55
1604670664.2817,-106
1604670664.2833,-126
1604670664.2852,-138
1604670664.2873,-145
1604670664.2893,-145
1604670664.2924,-140
1604670664.2992,-130
1604670664.3011,-123
1604670664.3032,-116
1604670664.3052,-106
1604670664.3072,-99
1604670664.3092,-94
1604670664.3112,-87
1604670664.3132,-77
1604670664.3152,-72
1604670664.3172,-70
1604670664.3192,-60
1604670664.3212,-58
1604670664.3232,-63
1604670664.3252,-60
1604670664.3272,-53
1604670664.3292,-48
1604670664.3312,-48
1604670664.3318,-48
1604670664.3332,-43
1604670664.3353,-36
1604670664.3372,-38
1604670664.3392,-43
1604670664.3412,-43
1604670664.3432,-41
1604670664.3452,-24
1604670664.3472,7
1604670664.3492,38
1604670664.3512,53
1604670664.3534,33
1604670664.3552,-2
1604670664.3572,-29
1604670664.3592,-31
1604670664.3612,-31
1604670664.3618,-31
1604670664.3632,-31
1604670664.3652,-33
1604670664.3672,-38
1604670664.3692,-36
1604670664.3712,-31
1604670664.3732,-21
1604670664.3752,135
1604670664.3772,543
1604670664.3792,1064
1604670664.3812,1297
1604670664.3832,674
1604670664.3852,-266
1604670664.3872,-346
1604670664.3892,-36
1604670664.3912,-126
1604670664.3918,-206
1604670664.3932,-97
1604670664.3952,-80
1604670664.3972,-106
1604670664.3992,-65
1604670664.4012,-36
1604670664.4032,-36
1604670664.4052,-14
1604670664.4072,9
1604670664.4092,21
1604670664.4112,38
1604670664.8115,63
1604670664.8122,82
1604670664.8139,99
1604670664.8163,123
1604670664.8183,150
1604670664.8203,164
1604670664.8223,177
1604670664.8243,181
1604670664.8263,177
1604670664.8283,172
1604670664.8302,155
1604670664.8323,111
1604670664.8343,50
1604670664.8363,-12
1604670664.8382,-72
1604670664.8402,-113
1604670664.8422,-135
1604670664.8443,-145
1604670664.8449,-145
1604670664.8465,-143
1604670664.8483,-135
1604670664.8502,-126
1604670664.8522,-116
1604670664.8543,-111
1604670664.8563,-101
1604670664.8582,-92
1604670664.8602,-87
1604670664.8622,-84
1604670664.8642,-80
1604670664.8663,-72
1604670664.8682,-67
1604670664.8702,-65
1604670664.8722,-60
1604670664.8742,-55
1604670664.8749,-53
1604670664.8763,-50
1604670664.8782,-46
1604670664.8802,-41
1604670664.8822,-38
1604670664.8843,-38
1604670664.8863,-41
1604670664.8882,-46
1604670664.8902,-48
1604670664.8922,-48
1604670664.8942,-43
1604670664.8963,-41
1604670664.8982,-46
1604670664.9002,-41
1604670664.9022,-12
1604670664.9042,19
1604670664.9048,41
1604670664.9062,38
1604670664.9082,9
1604670664.9102,-24
1604670664.9122,-36
1604670664.9143,-33
1604670664.9162,-29
1604670664.9182,-29
1604670664.9202,-33
1604670664.9222,-33
1604670664.9243,-26
1604670664.9263,-29
1604670664.9282,-29
1604670664.9302,97
1604670664.9323,470
1604670664.9342,994
1604670664.9348,1311
1604670664.9362,824
1604670664.9382,-150
1604670664.9402,-383
1604670664.9424,-55
1604670664.9443,-84
1604670664.9462,-206
1604670665.3820,-109
1604670665.3831,-67
1604670665.3845,-101
1604670665.3865,-70
1604670665.3885,-38
1604670665.3904,-46
1604670665.3912,-31
1604670665.3924,-2
1604670665.3944,7
1604670665.3965,21
1604670665.3984,43
1604670665.4004,60
1604670665.4025,82
1604670665.4045,106
1604670665.4065,133
1604670665.4084,152
1604670665.4104,169
1604670665.4125,181
1604670665.4144,189
1604670665.4165,186
1604670665.4185,167
1604670665.4204,133
1604670665.4211,82
1604670665.4225,12
1604670665.4245,-50
1604670665.4264,-89
1604670665.4284,-111
1604670665.4305,-126
1604670665.4324,-133
1604670665.4344,-133
1604670665.4364,-126
1604670665.4384,-118
1604670665.4404,-111
1604670665.4424,-106
1604670665.4444,-106
1604670665.4464,-101
1604670665.4484,-92
1604670665.4503,-84
1604670665.4510,-80
1604670665.4524,-80
1604670665.4544,-77
1604670665.4564,-70
1604670665.4584,-63
1604670665.4603,-58
1604670665.4624,-55
1604670665.4644,-53
1604670665.4664,-50
1604670665.4684,-48
1604670665.4705,-48
1604670665.4724,-46
1604670665.4744,-43
1604670665.4764,-43
1604670665.4784,-48
1604670665.4804,-48
1604670665.4809,-46
1604670665.4824,-36
1604670665.4844,-9
1604670665.4863,24
1604670665.4883,46
1604670665.4904,41
1604670665.4924,9
1604670665.4943,-21
1604670665.4963,-33
1604670665.4983,-33
1604670665.5004,-36
1604670665.5023,-33
1604670665.5043,-31
1604670665.5065,-33
1604670665.5083,-33
1604670665.5104,-29
1604670665.5110,-29
1604670665.5124,72
1604670665.5143,412
1604670665.9815,919
1604670665.9821,1275
1604670665.9825,887
1604670665.9840,-92
1604670665.9860,-419
1604670665.9880,-87
1604670665.9900,-80
1604670665.9921,-223
1604670665.9940,-130
1604670665.9961,-75
1604670665.9980,-113
1604670666.0000,-84
1604670666.0020,-43
1604670666.0041,-43
1604670666.0061,-33
1604670666.0080,-7
1604670666.0100,9
1604670666.0120,21
1604670666.0126,41
1604670666.0140,65
1604670666.0160,87
1604670666.0179,106
1604670666.0200,130
1604670666.0219,152
1604670666.0240,172
1604670666.0260,184
1604670666.0281,186
1604670666.0301,174
1604670666.0319,155
1604670666.0339,126
1604670666.0359,75
1604670666.0379,4
1604670666.0399,-58
1604670666.0420,-99
1604670666.0425,-123
1604670666.0440,-130
1604670666.0461,-130
1604670666.0479,-130
1604670666.0500,-128
1604670666.0519,-121
1604670666.0540,-113
1604670666.0560,-104
1604670666.0580,-94
1604670666.0599,-87
1604670666.0620,-82
1604670666.0640,-80
1604670666.0660,-70
1604670666.0680,-63
1604670666.0700,-60
1604670666.0720,-58
1604670666.0726,-50
1604670666.0739,-48
1604670666.0761,-48
1604670666.0780,-46
1604670666.0800,-38
1604670666.0819,-36
1604670666.0840,-38
1604670666.0859,-38
1604670666.0880,-36
1604670666.0899,-38
1604670666.0920,-41
1604670666.0939,-41
1604670666.0960,-43
1604670666.0979,-31
1604670666.0999,2
1604670666.1006,36
1604670666.1019,50
1604670666.1040,38
1604670666.1059,4
1604670666.1080,-26
1604670666.1099,-36
1604670666.1120,-33
1604670666.1140,-33
1604670666.5817,-31
1604670666.5828,-31
1604670666.5841,-31
1604670666.5860,-33
1604670666.5882,-33
1604670666.5899,-16
1604670666.5907,145
1604670666.5919,555
1604670666.5940,1081
1604670666.5960,1309
1604670666.5980,676
1604670666.6000,-281
1604670666.6020,-363
1604670666.6040,-33
1604670666.6060,-126
1604670666.6080,-218
1604670666.6100,-101
1604670666.6120,-82
1604670666.6140,-113
1604670666.6160,-72
1604670666.6179,-41
1604670666.6199,-48
1604670666.6205,-33
1604670666.6219,-7
1604670666.6239,4
1604670666.6259,19
1604670666.6279,43
1604670666.6300,65
1604670666.6319,87
1604670666.6339,113
1604670666.6359,135
1604670666.6379,157
1604670666.6400,174
1604670666.6419,186
1604670666.6439,189
1604670666.6460,179
1604670666.6479,160
1604670666.6499,126
1604670666.6505,65
1604670666.6519,-7
1604670666.6539,-65
1604670666.6559,-99
1604670666.6580,-121
1604670666.6585,-133
1604670666.6599,-135
1604670666.6619,-133
1604670666.6639,-130
1604670666.6659,-123
1604670666.6679,-109
1604670666.6699,-101
1604670666.6719,-99
1604670666.6739,-92
1604670666.6760,-80
1604670666.6765,-75
1604670666.6779,-75
1604670666.6801,-67
1604670666.6820,-60
1604670666.6839,-58
1604670666.6859,-53
1604670666.6879,-46
1604670666.6900,-46
1604670666.6919,-46
1604670666.6939,-46
1604670666.6959,-43
1604670666.6979,-43
1604670666.6999,-41
1604670666.7019,-43
1604670666.7038,-46
1604670666.7059,-46
1604670666.7065,-41
1604670666.7078,-19
1604670666.7099,12
1604670666.7119,38
1604670667.0914,43
1604670667.0923,16
1604670667.0947,-19
1604670667.0973,-33
1604670667.0993,-36
1604670667.1013,-36
1604670667.1033,-33
1604670667.1053,-33
1604670667.1073,-43
1604670667.1093,-48
1604670667.1112,-43
1604670667.1132,-41
1604670667.1139,7
1604670667.1153,264
1604670667.1172,749
1604670667.1192,1214
1604670667.1212,1096
1604670667.1232,172
1604670667.1253,-463
1604670667.1273,-208
1604670667.1293,-43
1604670667.1313,-208
1604670667.1333,-174
1604670667.1352,-82
1604670667.1372,-113
1604670667.1393,-106
1604670667.1412,-53
1604670667.1432,-43
1604670667.1438,-41
1604670667.1452,-14
1604670667.1472,4
1604670667.1493,14
1604670667.1512,38
1604670667.1535,60
1604670667.1553,80
1604670667.1572,104
1604670667.1592,123
1604670667.1612,145
1604670667.1632,169
1604670667.1654,186
1604670667.1672,191
1604670667.1692,191
1604670667.1712,177
1604670667.1732,145
1604670667.1738,97
1604670667.1752,33
1604670667.1772,-33
1604670667.1792,-82
1604670667.1812,-111
1604670667.1832,-126
1604670667.1853,-133
1604670667.1873,-133
1604670667.1892,-128
1604670667.1912,-118
1604670667.1932,-109
1604670667.1952,-106
1604670667.1972,-99
1604670667.1992,-87
1604670667.2012,-77
1604670667.2032,-75
1604670667.2038,-67
1604670667.2052,-63
1604670667.2073,-60
1604670667.2092,-55
1604670667.2112,-48
1604670667.2132,-46
1604670667.2152,-41
1604670667.2172,-38
1604670667.2192,-38
1604670667.2213,-33
1604670667.2233,-31
1604670667.2252,-29
1604670667.2272,-29
1604670667.6310,-26
1604670667.6316,-26
1604670667.6340,-31
1604670667.6367,-33
1604670667.6387,-36
1604670667.6407,-36
1604670667.6428,-21
1604670667.6447,4
1604670667.6468,33
1604670667.6487,43
1604670667.6508,19
1604670667.6530,-12
1604670667.6547,-33
1604670667.6567,-46
1604670667.6587,-41
1604670667.6607,-36
1604670667.6613,-38
1604670667.6627,-41
1604670667.6647,-36
1604670667.6666,-31
1604670667.6686,-33
1604670667.6706,-21
1604670667.6726,152
1604670667.6746,569
1604670667.6767,1084
1604670667.6786,1270
1604670667.6806,601
1604670667.6827,-293
1604670667.6846,-307
1604670667.6868,-19
1604670667.6886,-126
1604670667.6906,-189
1604670667.6912,-80
1604670667.6926,-70
1604670667.6947,-92
1604670667.6967,-53
1604670667.6986,-38
1604670667.7007,-38
1604670667.7026,-14
1604670667.7046,7
1604670667.7066,19
1604670667.7086,36
1604670667.7106,55
1604670667.7126,75
1604670667.7147,99
1604670667.7167,126
1604670667.7187,147
1604670667.7206,169
1604670667.7212,189
1604670667.7227,198
1604670667.7246,201
1604670667.7266,191
1604670667.7286,172
1604670667.7306,135
1604670667.7326,80
1604670667.7347,9
1604670667.7367,-50
1604670667.7387,-84
1604670667.7406,-106
1604670667.7426,-121
1604670667.7447,-123
1604670667.7466,-118
1604670667.7488,-109
1604670667.7507,-104
1604670667.7513,-99
1604670667.7527,-92
1604670667.7547,-82
1604670667.7566,-77
1604670667.7587,-72
1604670667.7606,-67
1604670667.7627,-63
1604670667.7646,-60
1604670667.7667,-63
1604670668.2017,-60
1604670668.2026,-53
1604670668.2050,-48
1604670668.2076,-48
1604670668.2096,-48
1604670668.2116,-43
1604670668.2137,-50
1604670668.2143,-60
1604670668.2158,-55
1604670668.2176,-41
1604670668.2196,-43
1604670668.2217,-46
1604670668.2236,-43
1604670668.2257,-43
1604670668.2276,-48
1604670668.2296,-43
1604670668.2316,-24
1604670668.2336,2
1604670668.2356,29
1604670668.2376,53
1604670668.2396,46
1604670668.2416,7
1604670668.2436,-21
1604670668.2442,-33
1604670668.2457,-38
1604670668.2476,-33
1604670668.2496,-31
1604670668.2515,-31
1604670668.2536,-33
1604670668.2556,-31
1604670668.2575,-31
1604670668.2595,-21
1604670668.2617,121
1604670668.2635,509
1604670668.2656,1030
1604670668.2676,1292
1604670668.2696,720
1604670668.2715,-215
1604670668.2736,-341
1604670668.2742,-33
1604670668.2758,-106
1604670668.2776,-201
1604670668.2795,-97
1604670668.2815,-72
1604670668.2835,-104
1604670668.2855,-70
1604670668.2876,-41
1604670668.2895,-41
1604670668.2915,-21
1604670668.2935,4
1604670668.2956,19
1604670668.2976,33
1604670668.2996,55
1604670668.3016,77
1604670668.3035,97
1604670668.3041,118
1604670668.3056,145
1604670668.3075,164
1604670668.3095,177
1604670668.3115,184
1604670668.3135,191
1604670668.3156,184
1604670668.3176,162
1604670668.3196,128
1604670668.3215,70
1604670668.3235,-4
1604670668.3256,-63
1604670668.3276,-94
1604670668.3296,-116
1604670668.3316,-128
1604670668.3336,-133
1604670668.3341,-130
1604670668.3356,-128
1604670668.7411,-121
1604670668.7417,-109
1604670668.7442,-99
1604670668.7468,-94
1604670668.7488,-87
1604670668.7508,-80
1604670668.7528,-75
1604670668.7548,-77
1604670668.7568,-82
1604670668.7588,-75
1604670668.7594,-67
1604670668.7608,-65
1604670668.7628,-60
1604670668.7648,-53
1604670668.7667,-50
1604670668.7688,-50
1604670668.7707,-48
1604670668.7727,-46
1604670668.7750,-46
1604670668.7768,-46
1604670668.7787,-46
1604670668.7807,-43
1604670668.7827,-46
1604670668.7848,-48
1604670668.7868,-41
1604670668.7888,-19
1604670668.7893,12
1604670668.7908,38
1604670668.7927,50
1604670668.7948,31
1604670668.7968,-7
1604670668.7988,-31
1604670668.8007,-33
1604670668.8028,-33
1604670668.8048,-38
1604670668.8067,-36
1604670668.8087,-31
1604670668.8108,-29
1604670668.8127,-26
1604670668.8147,-26
1604670668.8168,14
1604670668.8187,261
1604670668.8193,739
1604670668.8207,1222
1604670668.8227,1190
1604670668.8249,305
1604670668.8268,-436
1604670668.8287,-227
1604670668.8307,2
1604670668.8327,-172
1604670668.8347,-181
1604670668.8368,-72
1604670668.8387,-87
1604670668.8408,-94
1604670668.8427,-48
1604670668.8448,-38
1604670668.8468,-36
1604670668.8487,-14
1604670668.8493,0
1604670668.8507,12
1604670668.8527,36
1604670668.8547,60
1604670668.8567,80
1604670668.8587,101
1604670668.8607,126
1604670668.8628,145
1604670668.8647,167
1604670668.8668,184
1604670668.8687,191
1604670668.8709,191
1604670668.8728,181
1604670668.8747,155
1604670668.8768,111
1604670669.3416,48
1604670669.3424,-21
1604670669.3449,-72
1604670669.3475,-104
1604670669.3495,-126
1604670669.3515,-145
1604670669.3535,-150
1604670669.3555,-138
1604670669.3575,-133
1604670669.3594,-133
1604670669.3615,-123
1604670669.3635,-111
1604670669.3655,-106
1604670669.3674,-99
1604670669.3695,-87
1604670669.3715,-77
1604670669.3721,-75
1604670669.3735,-70
1604670669.3755,-60
1604670669.3774,-53
1604670669.3794,-53
1604670669.3814,-53
1604670669.3834,-48
1604670669.3854,-43
1604670669.3874,-46
1604670669.3894,-46
1604670669.3914,-41
1604670669.3934,-43
1604670669.3955,-48
1604670669.3974,-50
1604670669.3994,-50
1604670669.4014,-43
1604670669.4020,-16
1604670669.4034,16
1604670669.4055,41
1604670669.4074,41
1604670669.4094,7
1604670669.4114,-26
1604670669.4134,-38
1604670669.4155,-38
1604670669.4174,-38
1604670669.4194,-41
1604670669.4214,-41
1604670669.4234,-41
1604670669.4254,-41
1604670669.4274,-41
1604670669.4294,-36
1604670669.4316,75
1604670669.4320,421
1604670669.4334,931
1604670669.4354,1280
1604670669.4374,865
1604670669.4394,-130
1604670669.4414,-438
1604670669.4434,-84
1604670669.4454,-75
1604670669.4474,-223
1604670669.4494,-130
1604670669.4514,-75
1604670669.4534,-113
1604670669.4555,-84
1604670669.4574,-41
1604670669.4594,-43
1604670669.4614,-33
1604670669.4620,-7
1604670669.4634,7
1604670669.4655,24
1604670669.4674,46
1604670669.4694,65
1604670669.4714,87
1604670669.4734,111
1604670669.4754,133
1604670669.4774,152
1604670669.8816,167
1604670669.8825,181
1604670669.8849,186
1604670669.8875,179
1604670669.8896,160
1604670669.8902,133
1604670669.8915,80
1604670669.8936,9
1604670669.8956,-55
1604670669.8975,-99
1604670669.8995,-130
1604670669.9015,-145
1604670669.9035,-143
1604670669.9056,-143
1604670669.9075,-140
1604670669.9095,-128
1604670669.9115,-118
1604670669.9135,-113
1604670669.9156,-101
1604670669.9175,-92
1604670669.9194,-87
1604670669.9201,-82
1604670669.9214,-72
1604670669.9234,-67
1604670669.9255,-63
1604670669.9277,-58
1604670669.9295,-55
1604670669.9315,-50
1604670669.9334,-41
1604670669.9355,-41
1604670669.9375,-41
1604670669.9395,-38
1604670669.9415,-41
1604670669.9435,-48
1604670669.9455,-48
1604670669.9475,-43
1604670669.9480,-33
1604670669.9495,-12
1604670669.9515,19
1604670669.9535,43
1604670669.9555,46
1604670669.9575,14
1604670669.9595,-26
1604670669.9616,-41
1604670669.9635,-41
1604670669.9655,-41
1604670669.9675,-41
1604670669.9695,-33
1604670669.9714,-33
1604670669.9734,-36
1604670669.9755,-33
1604670669.9775,-33
1604670669.9780,26
1604670669.9795,303
1604670669.9815,807
1604670669.9834,1268
1604670669.9855,1110
1604670669.9874,172
1604670669.9895,-417
1604670669.9914,-160
1604670669.9935,-29
1604670669.9955,-196
1604670669.9974,-155
1604670669.9994,-63
1604670670.0015,-94
1604670670.0034,-89
1604670670.0055,-38
1604670670.0075,-33
1604670670.0080,-33
1604670670.0094,-4
1604670670.0114,26
1604670670.0135,48
1604670670.0155,55
1604670670.4512,58
1604670670.4521,89
1604670670.4544,121
1604670670.4564,128
1604670670.4581,150
1604670670.4601,191
1604670670.4621,215
1604670670.4641,201
1604670670.4662,177
1604670670.4682,169
1604670670.4701,157
1604670670.4708,106
1604670670.4721,38
1604670670.4741,-24
1604670670.4762,-82
1604670670.4781,-121
1604670670.4801,-135
1604670670.4821,-130
1604670670.4841,-123
1604670670.4861,-113
1604670670.4881,-101
1604670670.4901,-101
1604670670.4920,-94
1604670670.4941,-84
1604670670.4961,-89
1604670670.4981,-84
1604670670.5001,-70
1604670670.5007,-65
1604670670.5021,-63
1604670670.5040,-50
1604670670.5061,-41
1604670670.5080,-36
1604670670.5100,-38
1604670670.5121,-31
1604670670.5141,-9
1604670670.5160,-26
1604670670.5180,-55
1604670670.5200,-33
1604670670.5220,-16
1604670670.5240,-31
1604670670.5261,-21
1604670670.5281,16
1604670670.5300,21
1604670670.5306,31
1604670670.5320,84
1604670670.5340,75
1604670670.5361,-9
1604670670.5381,-41
1604670670.5400,-9
1604670670.5420,-9
1604670670.5440,-21
1604670670.5460,-12
1604670670.5480,-16
1604670670.5500,-29
1604670670.5521,-24
1604670670.5540,-16
1604670670.5560,0
1604670670.5580,184
1604670670.5601,659
1604670670.5606,1222
1604670670.5620,1353
1604670670.5640,584
1604670670.5660,-329
1604670670.5680,-310
1604670670.5700,-19
1604670670.5720,-152
1604670670.5740,-210
1604670670.5760,-87
1604670670.5781,-80
1604670670.5800,-104
1604670670.5820,-50
1604670670.5840,-33
1604670670.5861,-41
1604670670.9916,0
1604670670.9925,26
1604670670.9949,19
1604670670.9975,33
1604670670.9995,70
1604670671.0015,92
1604670671.0035,99
1604670671.0055,118
1604670671.0075,140
1604670671.0095,147
1604670671.0114,160
1604670671.0135,177
1604670671.0155,174
1604670671.0175,155
1604670671.0195,135
1604670671.0200,94
1604670671.0215,29
1604670671.0234,-43
1604670671.0255,-97
1604670671.0274,-128
1604670671.0294,-135
1604670671.0314,-140
1604670671.0334,-145
1604670671.0355,-135
1604670671.0374,-135
1604670671.0394,-150
1604670671.0414,-130
1604670671.0435,-109
1604670671.0455,-116
1604670671.0474,-116
1604670671.0495,-101
1604670671.0500,-94
1604670671.0516,-92
1604670671.0534,-82
1604670671.0555,-65
1604670671.0574,-72
1604670671.0594,-87
1604670671.0614,-75
1604670671.0635,-48
1604670671.0655,-38
1604670671.0674,-55
1604670671.0694,-70
1604670671.0714,-63
1604670671.0734,-58
1604670671.0755,-46
1604670671.0774,-9
1604670671.0794,16
1604670671.0800,14
1604670671.0814,-2
1604670671.0834,-31
1604670671.0854,-53
1604670671.0875,-60
1604670671.0894,-63
1604670671.0914,-63
1604670671.0934,-65
1604670671.0955,-58
1604670671.0974,-48
1604670671.0994,-46
1604670671.1014,-48
1604670671.1034,-4
1604670671.1055,235
1604670671.1074,717
1604670671.1094,1231
1604670671.1100,1251
1604670671.1115,380
1604670671.1134,-434
1604670671.1155,-276
1604670671.1174,-24
1604670671.1194,-189
1604670671.1214,-210
1604670671.1234,-94
1604670671.1255,-113
1604670671.1274,-126