,gsr,temp
1605962751.6829,255223.47276082053,37.06
1605962753.2797,253130.39167953713,37.0
1605962754.9898,251076.7395562692,37.06
1605962756.4829,249062.51639101672,37.06
1605962758.0729,247087.7221837797,37.0
1605962759.8955,245152.35693455816,37.06
1605962761.6575,243256.4206433521,37.06
1605962762.8727,241399.91331016147,37.06
1605962764.5293,239582.8349349863,37.06
1605962766.1799,237805.18551782664,37.06
1605962767.7027,236066.96505868243,37.06
1605962769.2929,234368.1735575537,37.06
1605962770.8826,232708.8110144404,37.0
1605962772.4724,231088.8774293426,37.0
1605962774.0926,229508.37280226027,37.06
1605962775.7096,227967.29713319338,37.06
1605962777.3999,226465.65042214197,37.06
1605962778.8625,225003.432669106,37.06
1605962780.4826,223580.64387408554,37.06
1605962782.0725,222197.28403708054,37.06
1605962783.6624,220853.35315809096,37.06
1605962785.2824,219548.85123711688,37.06
1605962786.9315,218283.77827415828,37.06
1605962788.4626,217058.1342692151,37.06
1605962790.0826,215871.91922228743,37.06
1605962791.6724,214725.1331333752,37.0
1605962793.2623,213617.77600247847,37.06
1605962794.8822,212549.8478295972,37.06
1605962796.4722,211521.34861473137,37.06
1605962798.1816,210532.278357881,37.0
1605962799.6824,209582.6370590461,37.0
1605962801.2722,208672.42471822668,37.06
1605962802.8622,207801.64133542276,37.0
1605962804.4821,206970.28691063426,37.06
1605962806.0721,206178.3614438612,37.06
1605962811.5517,205425.86493510366,37.06
1605962811.5555,204712.79738436156,37.06
1605962811.5588,204039.15879163495,37.06
1605962812.933,203404.9491569238,37.06
1605962814.0842,202810.1684802281,37.06
1605962815.7034,202254.81676154787,37.06
1605962817.2893,201738.89400088313,37.06
1605962819.0793,201262.40019823384,37.06
1605962820.6143,200825.33535359998,37.06
1605962822.063,200427.69946698163,37.06
1605962823.6529,200069.49253837875,37.06
1605962825.2729,199750.71456779132,37.06
1605962826.8631,199471.36555521935,37.06
1605962828.5054,199231.44550066284,37.06
1605962830.1649,199030.95440412182,37.06
1605962831.6629,198869.8922655678,37.06
1605962833.2531,200870.8674194269,37.06
1605962834.8428,203333.48292004736,37.06
1605962836.4628,205730.01814709223,37.06
1605962838.0529,208066.38358025052,37.06
1605962839.7276,210122.88364935448,37.0
1605962841.3447,211904.27054766176,37.0
1605962842.8529,212698.68433848556,37.06
1605962844.4427,212616.57387138277,37.06
1605962846.0627,212224.59978954078,37.06
1605962847.6528,211765.2936150931,37.06
1605962849.2427,211267.60425138488,37.06
1605962850.8924,211003.20326106795,37.0
1605962852.594,210914.4112023641,37.06
1605962854.0426,210790.80324207374,37.0
1605962855.6324,210651.67156806967,37.06
1605962857.2525,210482.59560720503,37.06
1605962858.8425,210362.411019018,37.06
1605962860.4594,210322.048492138,37.06
1605962862.1621,210241.78109710268,37.0
1605962863.6421,209988.88303591812,37.06
1605962865.2324,209486.52593832638,37.06
1605962866.8824,208967.46080728114,37.06
1605962868.4422,208429.86645275258,37.06
1605962870.0323,207957.2571222577,37.06
1605962871.713,207642.21951624914,37.06
1605962873.3516,207634.8912181394,37.06
1605962874.8322,207787.2354899262,37.06
1605962876.4523,208032.33645143075,37.06
1605962878.0422,208359.38613010227,37.06
1605962879.6322,208890.944711404,37.06
1605962881.2221,209445.51051395183,37.06
1605962882.9268,209740.31296831375,37.06
1605962884.5531,209585.7618377861,37.06
1605962886.0212,209065.87575896262,37.06
1605962887.6393,208430.88939705174,37.06
1605962889.2281,207651.17887384736,37.06
1605962890.8169,206853.08684672398,37.06
1605962892.4357,206043.72859616054,37.06
1605962894.1054,205211.11884420214,37.06
1605962895.6138,204349.08252720608,37.06
1605962897.2329,203405.1606306123,37.06
1605962898.8222,202539.12767829865,37.06
1605962900.4116,201758.21390182615,37.06
1605962902.0309,201024.3986185109,37.06
1605962903.6476,200396.4882405396,37.06
1605962905.2913,199883.3451622371,37.06
1605962906.7992,199407.63253216364,37.06
1605962908.4191,198822.14155671932,37.06
1605962910.0126,198010.330163628,37.06
1605962911.598,197231.29150323104,37.06
1605962913.2179,196580.77616856137,37.06
1605962914.8305,196073.16547478418,37.06
1605962916.5381,195647.1266881749,37.0
1605962918.0173,195293.87917453417,37.06
1605962919.607,195038.14170009753,37.06
1605962921.2268,194883.33074939757,37.06
1605962922.8167,194823.6179084956,37.06
1605962924.4064,194838.9712710443,37.06
1605962926.0752,194918.40439361043,37.06
1605962927.7808,195125.07400736248,37.06
1605962929.4786,195408.14804749028,37.06
1605962930.7947,195832.7587394633,37.06
1605962932.3845,196346.87067433793,37.06
1605962934.0044,196920.2742205823,37.06
1605962935.5943,197548.46565998788,37.06
1605962937.2801,197952.7661329943,37.06
1605962938.9204,198107.77829742894,37.06
1605962940.3942,198263.7697129204,37.06
1605962941.984,198602.96658341328,37.06
1605962943.6039,199095.63383783263,37.0
1605962945.1938,199742.18033682354,37.06
1605962946.8128,200438.23824974592,37.06
1605962948.4621,201265.53425707572,37.06
1605962949.9938,202208.83859784628,37.06
1605962951.5837,203287.66712297217,37.06
1605962953.2036,204342.54263058852,37.06
1605962954.7936,205483.6718344702,37.06
1605962956.3835,206645.79184742898,37.06
1605962958.0009,207642.60970222796,37.06
1605962959.7186,208550.8153658568,37.06
1605962961.1835,209543.20929017192,37.06
1605962962.7734,210622.45277604717,37.06
1605962964.3933,211791.39415133794,37.0
1605962966.0132,212993.1588287588,37.06
1605962967.5732,214192.6335895099,37.0
1605962969.2526,215542.41650330674,37.06
1605962970.7833,216962.4856409394,37.06
1605962972.3734,218432.31790126656,37.06
1605962973.9932,220025.54070757635,37.06
1605962975.583,221680.43247111497,37.06
1605962977.173,223473.07204254565,37.0
1605962978.7929,225407.52396770404,37.0
1605962980.4724,227388.23833005427,37.0
1605962981.973,229295.69028063453,37.0
1605962983.5929,231288.460171371,37.0
1605962985.1829,233364.55761093946,37.0
1605962986.7729,235568.93901259906,37.0
1605962988.3627,237740.66875990518,37.0
1605962990.0103,240066.5068106423,37.06
1605962994.3584,242263.79966410768,37.0
1605962994.362,244286.29310825287,37.06
1605962995.1859,245673.90623707257,37.0
1605962996.8246,247044.5840359013,37.0
1605962998.0473,248398.32650477422,37.06
1605962999.6892,249735.13364369125,37.0
1605963001.2238,251055.00545265252,37.0
1605963002.9082,252357.94193165793,37.0
1605963004.3836,253643.9430807075,37.0
1605963005.9739,254913.00889980124,37.0
1605963007.5633,256165.1393889392,37.0
1605963009.1835,257400.33454812126,37.0
1605963010.8138,258618.59437734753,37.0
1605963012.452,259819.91887661797,37.0
1605963013.9534,261004.3080459326,37.0
1605963015.5735,262171.7618852914,37.0
1605963017.1635,263322.2803946943,37.0
1605963018.7534,264455.8635741414,37.0
1605963020.3734,265572.51142363274,37.0
1605963021.9832,266672.2239431682,37.0
1605963023.6642,267755.00113274786,37.0
1605963025.1724,268820.84299237165,37.0
1605963026.7622,269869.7495220396,37.0
1605963028.3521,270901.72072175174,37.0
1605963029.972,271916.75659150805,37.0
1605963031.5618,272914.8571313085,37.0
1605963033.1779,273896.02234115324,37.0
1605963034.8571,274860.25222104206,37.0
1605963036.3622,275807.54677097505,37.0
1605963037.9519,276737.9059909523,37.0
1605963039.5417,277651.32988097356,37.0
1605963041.1616,278547.81844103907,37.0
1605963042.7516,279427.37167114875,37.0
1605963044.4293,280289.98957130266,37.0
1605963046.0797,281135.67214150063,37.0
1605963047.5526,281964.4193817429,37.0
1605963049.1415,282776.23129202926,37.0
1605963050.7614,283571.1078723598,37.0
1605963052.3515,284349.04912273446,37.06
1605963053.9685,285110.05504315335,37.0
1605963055.6544,285854.12563361647,37.0
1605963057.1516,286581.2608941237,37.0
1605963058.7415,287291.46082467504,37.0
1605963060.3615,287984.7254252706,37.0
1605963061.9514,288661.05469591037,37.0
1605963063.5413,289320.4486365943,37.0
1605963065.1584,289962.9072473224,37.0
1605963066.8093,290588.4305280946,37.0
1605963068.3414,291197.018478911,37.0
1605963069.9313,291788.6710997716,37.06
1605963071.5511,292363.3883906764,37.0
1605963073.1411,292921.1703516253,37.0
