Time,ECG
1605962750.9152,791
1605962750.9176,2832
1605962750.9203,4880
1605962750.9228,5898
1605962750.9249,6691
1605962750.9266,7634
1605962750.9286,8298
1605962750.9306,8806
1605962750.9326,9343
1605962750.9348,9780
1605962750.9370,10136
1605962750.9391,10502
1605962750.9412,10822
1605962750.9433,11083
1605962750.9451,11330
1605962750.9466,11545
1605962750.9486,11721
1605962750.9506,11889
1605962750.9526,12043
1605962750.9546,12165
1605962750.9566,12275
1605962750.9586,12382
1605962750.9606,12456
1605962750.9626,12512
1605962750.9645,12570
1605962750.9665,12612
1605962750.9685,12661
1605962750.9705,12712
1605962750.9725,12744
1605962750.9746,12768
1605962750.9765,12792
1605962750.9786,12812
1605962750.9805,12812
1605962750.9825,12810
1605962750.9846,12819
1605962750.9865,12810
1605962750.9885,12795
1605962750.9905,12800
1605962750.9925,12797
1605962750.9946,12788
1605962750.9965,12766
1605962750.9985,12722
1605962751.0006,12692
1605962751.0025,12673
1605962751.0046,12631
1605962751.0065,12590
1605962751.0085,12561
1605962751.0105,12524
1605962751.0125,12465
1605962751.0146,12409
1605962751.0167,12360
1605962751.0185,12292
1605962751.0205,12224
1605962751.0225,12163
1605962751.0245,12111
1605962751.0265,12075
1605962751.0285,12019
1605962751.0305,11960
1605962751.0325,11916
1605962751.0345,11848
1605962751.0365,11762
1605962751.0384,11696
1605962751.0404,11630
1605962751.0424,11552
1605962751.0445,11459
1605962751.0464,11281
1605962751.0485,10917
1605962751.0504,10625
1605962751.0524,10998
1605962751.0545,11770
1605962751.0564,11779
1605962751.0586,11088
1605962751.0605,10798
1605962751.4536,10847
1605962751.4546,10700
1605962751.4571,10546
1605962751.4597,10520
1605962751.4617,10441
1605962751.4637,10327
1605962751.4658,10246
1605962751.4677,10175
1605962751.4697,10102
1605962751.4717,10026
1605962751.4737,9916
1605962751.4756,9802
1605962751.4776,9731
1605962751.4797,9663
1605962751.4816,9548
1605962751.4837,9445
1605962751.4856,9375
1605962751.4876,9277
1605962751.4896,9177
1605962751.4916,9104
1605962751.4937,9011
1605962751.4956,8906
1605962751.4976,8823
1605962751.4996,8745
1605962751.5016,8652
1605962751.5036,8562
1605962751.5057,8476
1605962751.5076,8403
1605962751.5098,8344
1605962751.5117,8283
1605962751.5137,8203
1605962751.5156,8142
1605962751.5176,8105
1605962751.5196,8044
1605962751.5216,7966
1605962751.5237,7917
1605962751.5256,7873
1605962751.5276,7805
1605962751.5296,7724
1605962751.5316,7648
1605962751.5336,7580
1605962751.5356,7512
1605962751.5376,7429
1605962751.5396,7341
1605962751.5416,7268
1605962751.5438,7185
1605962751.5456,7104
1605962751.5476,7041
1605962751.5496,6967
1605962751.5516,6892
1605962751.5536,6826
1605962751.5556,6745
1605962751.5576,6660
1605962751.5596,6574
1605962751.5616,6518
1605962751.5637,6474
1605962751.5656,6384
1605962751.5676,6286
1605962751.5696,6235
1605962751.5716,6198
1605962751.5737,6140
1605962751.5756,6064
1605962751.5776,5988
1605962751.5796,5930
1605962751.5816,5869
1605962751.5836,5798
1605962751.5856,5744
1605962751.5876,5690
1605962751.5896,5605
1605962751.5916,5524
1605962751.5937,5480
1605962751.5956,5439
1605962751.5976,5368
1605962752.0237,5300
1605962752.0245,5244
1605962752.0269,5175
1605962752.0296,5109
1605962752.0316,5053
1605962752.0337,5002
1605962752.0359,4958
1605962752.0377,4909
1605962752.0396,4848
1605962752.0416,4794
1605962752.0436,4741
1605962752.0456,4672
1605962752.0476,4606
1605962752.0496,4572
1605962752.0516,4533
1605962752.0536,4472
1605962752.0555,4414
1605962752.0575,4257
1605962752.0595,3903
1605962752.0615,3671
1605962752.0636,4118
1605962752.0655,4887
1605962752.0675,4853
1605962752.0695,4206
1605962752.0715,4003
1605962752.0736,4069
1605962752.0755,3916
1605962752.0775,3806
1605962752.0795,3830
1605962752.0816,3791
1605962752.0836,3718
1605962752.0855,3681
1605962752.0875,3647
1605962752.0895,3603
1605962752.0915,3566
1605962752.0936,3522
1605962752.0955,3476
1605962752.0975,3425
1605962752.0996,3371
1605962752.1015,3334
1605962752.1036,3300
1605962752.1055,3251
1605962752.1075,3205
1605962752.1095,3159
1605962752.1115,3112
1605962752.1136,3071
1605962752.1156,3024
1605962752.1175,2978
1605962752.1195,2941
1605962752.1215,2900
1605962752.1236,2858
1605962752.1255,2829
1605962752.1275,2817
1605962752.1295,2805
1605962752.1315,2775
1605962752.1336,2758
1605962752.1355,2749
1605962752.1377,2729
1605962752.1396,2719
1605962752.1415,2722
1605962752.1436,2712
1605962752.1456,2687
1605962752.1475,2670
1605962752.1496,2656
1605962752.1515,2631
1605962752.1536,2612
1605962752.1555,2578
1605962752.1575,2536
1605962752.1597,2517
1605962752.1617,2487
1605962752.1636,2434
1605962752.1655,2402
1605962752.1675,2390
1605962752.5634,2355
1605962752.5642,2307
1605962752.5666,2294
1605962752.5692,2290
1605962752.5712,2260
1605962752.5732,2229
1605962752.5752,2192
1605962752.5772,2160
1605962752.5792,2141
1605962752.5812,2106
1605962752.5832,2080
1605962752.5852,2070
1605962752.5872,2050
1605962752.5892,2028
1605962752.5912,2014
1605962752.5932,1997
1605962752.5952,1967
1605962752.5972,1931
1605962752.5992,1914
1605962752.6012,1894
1605962752.6032,1860
1605962752.6052,1835
1605962752.6072,1828
1605962752.6092,1811
1605962752.6112,1789
1605962752.6132,1770
1605962752.6152,1752
1605962752.6172,1738
1605962752.6192,1718
1605962752.6212,1684
1605962752.6232,1645
1605962752.6252,1623
1605962752.6272,1604
1605962752.6292,1577
1605962752.6312,1572
1605962752.6334,1584
1605962752.6352,1577
1605962752.6372,1547
1605962752.6392,1535
1605962752.6412,1535
1605962752.6432,1523
1605962752.6452,1501
1605962752.6465,1477
1605962752.6482,1452
1605962752.6502,1408
1605962752.6522,1213
1605962752.6542,891
1605962752.6562,915
1605962752.6582,1599
1605962752.6602,2182
1605962752.6622,1853
1605962752.6642,1328
1605962752.6662,1313
1605962752.6682,1350
1605962752.6702,1240
1605962752.6722,1242
1605962752.6743,1274
1605962752.6762,1230
1605962752.6783,1203
1605962752.6802,1196
1605962752.6822,1171
1605962752.6842,1159
1605962752.6862,1157
1605962752.6882,1140
1605962752.6902,1118
1605962752.6922,1105
1605962752.6943,1091
1605962752.6961,1074
1605962752.6983,1052
1605962752.7002,1018
1605962752.7022,1008
1605962752.7042,1010
1605962752.7062,988
1605962753.1337,959
1605962753.1344,944
1605962753.1369,932
1605962753.1394,917
1605962753.1414,900
1605962753.1434,883
1605962753.1455,869
1605962753.1474,869
1605962753.1494,874
1605962753.1514,874
1605962753.1534,895
1605962753.1554,910
1605962753.1574,893
1605962753.1596,895
1605962753.1615,927
1605962753.1635,942
1605962753.1654,935
1605962753.1674,932
1605962753.1694,944
1605962753.1714,944
1605962753.1734,930
1605962753.1754,915
1605962753.1774,905
1605962753.1794,900
1605962753.1814,895
1605962753.1834,878
1605962753.1854,861
1605962753.1874,847
1605962753.1894,830
1605962753.1914,817
1605962753.1934,825
1605962753.1954,842
1605962753.1974,832
1605962753.1994,803
1605962753.2014,795
1605962753.2034,798
1605962753.2054,783
1605962753.2074,769
1605962753.2094,773
1605962753.2114,766
1605962753.2134,744
1605962753.2154,742
1605962753.2174,756
1605962753.2195,749
1605962753.2214,722
1605962753.2234,720
1605962753.2254,727
1605962753.2274,722
1605962753.2294,708
1605962753.2314,690
1605962753.2334,681
1605962753.2354,678
1605962753.2375,681
1605962753.2394,664
1605962753.2414,651
1605962753.2434,666
1605962753.2454,676
1605962753.2474,661
1605962753.2494,634
1605962753.2514,612
1605962753.2534,598
1605962753.2554,590
1605962753.2574,593
1605962753.2594,593
1605962753.2616,581
1605962753.2636,593
1605962753.2654,607
1605962753.2674,600
1605962753.2694,593
1605962753.2714,590
1605962753.2734,581
1605962753.2754,573
1605962753.2774,573
1605962753.6734,573
1605962753.6741,498
1605962753.6766,224
1605962753.6792,-53
1605962753.6812,263
1605962753.6832,1081
1605962753.6852,1293
1605962753.6872,737
1605962753.6891,463
1605962753.6911,566
1605962753.6931,517
1605962753.6951,441
1605962753.6971,480
1605962753.6991,476
1605962753.7011,429
1605962753.7031,439
1605962753.7052,451
1605962753.7071,434
1605962753.7091,432
1605962753.7111,439
1605962753.7131,427
1605962753.7152,405
1605962753.7171,397
1605962753.7191,402
1605962753.7211,400
1605962753.7231,383
1605962753.7252,368
1605962753.7272,356
1605962753.7291,349
1605962753.7311,341
1605962753.7331,329
1605962753.7351,312
1605962753.7371,302
1605962753.7391,302
1605962753.7411,305
1605962753.7431,302
1605962753.7451,305
1605962753.7471,314
1605962753.7491,319
1605962753.7511,332
1605962753.7531,349
1605962753.7551,368
1605962753.7573,378
1605962753.7593,390
1605962753.7612,417
1605962753.7631,441
1605962753.7651,449
1605962753.7671,458
1605962753.7691,466
1605962753.7711,468
1605962753.7731,476
1605962753.7751,476
1605962753.7771,456
1605962753.7791,434
1605962753.7811,427
1605962753.7831,427
1605962753.7851,412
1605962753.7871,395
1605962753.7892,393
1605962753.7911,395
1605962753.7931,395
1605962753.7951,400
1605962753.7971,405
1605962753.7991,393
1605962753.8011,383
1605962753.8031,385
1605962753.8052,378
1605962753.8073,371
1605962753.8091,368
1605962753.8111,366
1605962753.8131,356
1605962753.8152,339
1605962753.8171,341
1605962754.3038,354
1605962754.3047,356
1605962754.3072,356
1605962754.3098,351
1605962754.3118,351
1605962754.3138,356
1605962754.3158,346
1605962754.3178,339
1605962754.3197,351
1605962754.3218,341
1605962754.3238,329
1605962754.3257,344
1605962754.3277,336
1605962754.3297,297
1605962754.3317,285
1605962754.3338,307
1605962754.3357,310
1605962754.3377,297
1605962754.3397,307
1605962754.3417,329
1605962754.3439,339
1605962754.3458,332
1605962754.3477,336
1605962754.3497,344
1605962754.3517,332
1605962754.3538,314
1605962754.3557,312
1605962754.3577,317
1605962754.3597,222
1605962754.3617,-87
1605962754.3638,-292
1605962754.3657,209
1605962754.3677,1010
1605962754.3697,976
1605962754.3717,395
1605962754.3737,275
1605962754.3757,373
1605962754.3777,268
1605962754.3797,227
1605962754.3817,283
1605962754.3837,266
1605962754.3857,246
1605962754.3877,266
1605962754.3897,258
1605962754.3917,246
1605962754.3938,244
1605962754.3957,249
1605962754.3977,251
1605962754.3997,241
1605962754.4017,227
1605962754.4037,214
1605962754.4057,209
1605962754.4077,200
1605962754.4097,187
1605962754.4117,185
1605962754.4137,180
1605962754.4157,161
1605962754.4177,151
1605962754.4197,141
1605962754.4217,124
1605962754.4237,122
1605962754.4257,126
1605962754.4277,122
1605962754.4297,124
1605962754.4317,146
1605962754.4337,161
1605962754.4357,161
1605962754.4377,173
1605962754.4397,205
1605962754.4417,231
1605962754.4437,249
1605962754.4459,270
1605962754.4477,290
1605962754.8437,310
1605962754.8445,327
1605962754.8469,334
1605962754.8496,336
1605962754.8515,329
1605962754.8535,322
1605962754.8555,319
1605962754.8575,310
1605962754.8595,295
1605962754.8615,288
1605962754.8636,283
1605962754.8655,273
1605962754.8675,261
1605962754.8695,253
1605962754.8715,256
1605962754.8735,253
1605962754.8755,241
1605962754.8775,239
1605962754.8795,241
1605962754.8815,236
1605962754.8835,231
1605962754.8855,231
1605962754.8875,227
1605962754.8895,234
1605962754.8915,241
1605962754.8936,234
1605962754.8955,236
1605962754.8975,246
1605962754.8995,246
1605962754.9015,244
1605962754.9035,241
1605962754.9055,239
1605962754.9075,236
1605962754.9095,244
1605962754.9115,251
1605962754.9136,241
1605962754.9155,222
1605962754.9175,207
1605962754.9195,209
1605962754.9215,217
1605962754.9236,214
1605962754.9255,217
1605962754.9275,234
1605962754.9295,244
1605962754.9315,236
1605962754.9335,224
1605962754.9355,229
1605962754.9375,229
1605962754.9395,219
1605962754.9417,227
1605962754.9436,209
1605962754.9455,39
1605962754.9475,-290
1605962754.9495,-324
1605962754.9515,351
1605962754.9535,996
1605962754.9555,708
1605962754.9575,187
1605962754.9595,200
1605962754.9615,273
1605962754.9635,163
1605962754.9655,156
1605962754.9675,205
1605962754.9695,170
1605962754.9715,153
1605962754.9735,185
1605962754.9755,185
1605962754.9775,153
1605962754.9795,141
1605962754.9815,146
1605962754.9835,151
1605962754.9855,148
1605962754.9875,141
1605962755.3839,136
1605962755.3847,129
1605962755.3871,122
1605962755.3898,114
1605962755.3918,107
1605962755.3938,95
1605962755.3958,83
1605962755.3977,83
1605962755.3998,78
1605962755.4017,58
1605962755.4037,41
1605962755.4057,41
1605962755.4077,48
1605962755.4103,51
1605962755.4117,61
1605962755.4138,83
1605962755.4157,95
1605962755.4177,119
1605962755.4197,156
1605962755.4217,178
1605962755.4237,192
1605962755.4257,217
1605962755.4277,234
1605962755.4284,244
1605962755.4297,249
1605962755.4317,253
1605962755.4337,253
1605962755.4359,251
1605962755.4378,246
1605962755.4397,239
1605962755.4417,231
1605962755.4438,229
1605962755.4457,219
1605962755.4477,214
1605962755.4497,212
1605962755.4517,212
1605962755.4537,212
1605962755.4557,205
1605962755.4577,200
1605962755.4584,202
1605962755.4597,195
1605962755.4617,185
1605962755.4637,192
1605962755.4657,197
1605962755.4677,187
1605962755.4697,180
1605962755.4717,190
1605962755.4737,202
1605962755.4757,195
1605962755.4777,183
1605962755.4797,185
1605962755.4817,192
1605962755.4838,195
1605962755.4857,192
1605962755.4877,200
1605962755.4884,205
1605962755.4897,192
1605962755.4917,173
1605962755.4937,168
1605962755.4957,173
1605962755.4977,163
1605962755.4997,156
1605962755.5017,166
1605962755.5038,183
1605962755.5057,192
1605962755.5077,192
1605962755.5097,190
1605962755.5117,190
1605962755.5137,185
1605962755.5157,180
1605962755.5177,183
1605962755.5184,178
1605962755.5197,90
1605962755.9534,-187
1605962755.9542,-419
1605962755.9566,-34
1605962755.9592,759
1605962755.9612,866
1605962755.9634,305
1605962755.9654,117
1605962755.9672,239
1605962755.9692,161
1605962755.9712,92
1605962755.9732,151
1605962755.9751,146
1605962755.9759,117
1605962755.9772,134
1605962755.9792,136
1605962755.9812,119
1605962755.9831,117
1605962755.9852,119
1605962755.9871,112
1605962755.9892,107
1605962755.9912,104
1605962755.9932,104
1605962755.9952,100
1605962755.9972,90
1605962755.9991,78
1605962756.0012,73
1605962756.0031,63
1605962756.0052,51
1605962756.0058,48
1605962756.0072,43
1605962756.0092,31
1605962756.0111,29
1605962756.0132,34
1605962756.0151,39
1605962756.0171,43
1605962756.0191,53
1605962756.0212,70
1605962756.0232,80
1605962756.0252,92
1605962756.0272,119
1605962756.0292,151
1605962756.0311,168
1605962756.0331,173
1605962756.0351,190
1605962756.0358,207
1605962756.0372,212
1605962756.0392,219
1605962756.0411,222
1605962756.0432,214
1605962756.0452,209
1605962756.0472,207
1605962756.0492,209
1605962756.0512,207
1605962756.0532,195
1605962756.0552,187
1605962756.0572,185
1605962756.0593,178
1605962756.0612,178
1605962756.0631,185
1605962756.0651,185
1605962756.0658,178
1605962756.0672,175
1605962756.0692,178
1605962756.0711,173
1605962756.0732,175
1605962756.0752,180
1605962756.0773,173
1605962756.0792,173
1605962756.0811,173
1605962756.0832,166
1605962756.0852,166
1605962756.0871,166
1605962756.0891,166
1605962756.4932,170
1605962756.4941,175
1605962756.4960,183
1605962756.4979,180
1605962756.4999,163
1605962756.5018,144
1605962756.5038,139
1605962756.5058,148
1605962756.5078,134
1605962756.5098,117
1605962756.5118,131
1605962756.5139,146
1605962756.5145,144
1605962756.5169,148
1605962756.5189,156
1605962756.5208,151
1605962756.5228,144
1605962756.5248,136
1605962756.5268,136
1605962756.5288,126
1605962756.5308,-17
1605962756.5328,-339
1605962756.5349,-419
1605962756.5368,195
1605962756.5388,861
1605962756.5408,637
1605962756.5428,114
1605962756.5448,112
1605962756.5455,202
1605962756.5468,97
1605962756.5488,95
1605962756.5508,151
1605962756.5528,112
1605962756.5548,78
1605962756.5570,97
1605962756.5589,97
1605962756.5608,80
1605962756.5628,83
1605962756.5649,90
1605962756.5668,85
1605962756.5689,95
1605962756.5708,112
1605962756.5728,87
1605962756.5749,48
1605962756.5755,48
1605962756.5768,63
1605962756.5788,63
1605962756.5808,51
1605962756.5828,43
1605962756.5848,39
1605962756.5868,24
1605962756.5888,4
1605962756.5908,-17
1605962756.5928,-19
1605962756.5949,12
1605962756.5968,34
1605962756.5988,48
1605962756.6008,78
1605962756.6028,80
1605962756.6049,75
1605962756.6055,109
1605962756.6068,146
1605962756.6088,161
1605962756.6108,185
1605962756.6128,205
1605962756.6149,200
1605962756.6168,200
1605962756.6188,227
1605962756.6208,236
1605962756.6228,217
1605962756.6248,205
1605962756.6268,214
1605962756.6288,219
1605962757.0640,197
1605962757.0652,180
1605962757.0676,195
1605962757.0701,192
1605962757.0721,180
1605962757.0741,185
1605962757.0760,166
1605962757.0780,136
1605962757.0800,148
1605962757.0820,163
1605962757.0841,156
1605962757.0860,151
1605962757.0882,163
1605962757.0901,166
1605962757.0920,156
1605962757.0940,158
1605962757.0960,166
1605962757.0980,166
1605962757.1000,156
1605962757.1020,161
1605962757.1040,200
1605962757.1060,202
1605962757.1080,144
1605962757.1100,122
1605962757.1120,129
1605962757.1141,124
1605962757.1160,131
1605962757.1180,134
1605962757.1200,126
1605962757.1220,129
1605962757.1240,146
1605962757.1260,141
1605962757.1280,109
1605962757.1300,122
1605962757.1320,156
1605962757.1340,144
1605962757.1360,114
1605962757.1380,97
1605962757.1400,-39
1605962757.1420,-375
1605962757.1440,-451
1605962757.1460,212
1605962757.1480,869
1605962757.1500,585
1605962757.1520,65
1605962757.1540,90
1605962757.1560,178
1605962757.1580,85
1605962757.1600,90
1605962757.1620,129
1605962757.1640,95
1605962757.1660,97
1605962757.1680,126
1605962757.1700,112
1605962757.1720,83
1605962757.1740,70
1605962757.1760,75
1605962757.1780,53
1605962757.1800,51
1605962757.1820,85
1605962757.1840,73
1605962757.1860,41
1605962757.1880,39
1605962757.1901,34
1605962757.1920,21
1605962757.1939,26
1605962757.1960,34
1605962757.1980,17
1605962757.2000,-21
1605962757.2020,-36
1605962757.2040,-19
1605962757.2060,0
1605962757.2080,24
1605962757.6943,26
1605962757.6953,14
1605962757.6968,36
1605962757.6986,58
1605962757.7006,56
1605962757.7026,85
1605962757.7046,122
1605962757.7067,134
1605962757.7086,144
1605962757.7106,161
1605962757.7126,173
1605962757.7146,185
1605962757.7165,192
1605962757.7186,183
1605962757.7206,161
1605962757.7225,141
1605962757.7246,151
1605962757.7266,163
1605962757.7286,153
1605962757.7306,148
1605962757.7326,144
1605962757.7345,144
1605962757.7366,148
1605962757.7385,126
1605962757.7406,97
1605962757.7427,100
1605962757.7446,122
1605962757.7466,146
1605962757.7486,158
1605962757.7505,144
1605962757.7525,131
1605962757.7546,131
1605962757.7565,139
1605962757.7585,163
1605962757.7605,170
1605962757.7625,144
1605962757.7646,131
1605962757.7665,141
1605962757.7685,148
1605962757.7707,146
1605962757.7725,124
1605962757.7748,102
1605962757.7766,109
1605962757.7785,129
1605962757.7805,136
1605962757.7825,144
1605962757.7847,156
1605962757.7865,148
1605962757.7885,129
1605962757.7905,112
1605962757.7925,100
1605962757.7945,119
1605962757.7965,146
1605962757.7985,144
1605962757.8005,117
1605962757.8025,-29
1605962757.8045,-336
1605962757.8065,-383
1605962757.8085,227
1605962757.8105,781
1605962757.8125,498
1605962757.8145,68
1605962757.8165,122
1605962757.8185,178
1605962757.8205,73
1605962757.8225,65
1605962757.8245,97
1605962757.8265,92
1605962757.8285,87
1605962757.8305,78
1605962757.8325,70
1605962757.8345,100
1605962757.8365,129
1605962758.2038,100
1605962758.2045,51
1605962758.2069,34
1605962758.2096,39
1605962758.2116,48
1605962758.2136,65
1605962758.2156,92
1605962758.2176,95
1605962758.2195,51
1605962758.2216,-12
1605962758.2236,-43
1605962758.2255,-41
1605962758.2275,-31
1605962758.2295,-17
1605962758.2315,9
1605962758.2336,24
1605962758.2355,14
1605962758.2375,4
1605962758.2395,12
1605962758.2417,7
1605962758.2437,19
1605962758.2455,87
1605962758.2475,148
1605962758.2496,153
1605962758.2515,139
1605962758.2536,124
1605962758.2555,119
1605962758.2575,185
1605962758.2595,231
1605962758.2615,185
1605962758.2636,168
1605962758.2655,183
1605962758.2675,166
1605962758.2695,148
1605962758.2715,156
1605962758.2736,153
1605962758.2755,136
1605962758.2775,126
1605962758.2795,134
1605962758.2815,148
1605962758.2836,161
1605962758.2855,146
1605962758.2875,129
1605962758.2895,141
1605962758.2915,158
1605962758.2936,163
1605962758.2956,173
1605962758.2976,195
1605962758.2996,190
1605962758.3015,144
1605962758.3036,129
1605962758.3055,163
1605962758.3075,180
1605962758.3095,187
1605962758.3115,190
1605962758.3136,161
1605962758.3155,124
1605962758.3175,117
1605962758.3195,134
1605962758.3271,134
1605962758.3285,126
1605962758.3305,144
1605962758.3326,168
1605962758.3345,173
1605962758.3365,168
1605962758.3385,158
1605962758.3405,151
1605962758.3425,139
1605962758.3445,131
1605962758.3465,151
1605962758.3487,112
1605962758.3506,-139
1605962758.3525,-441
1605962758.7440,-205
1605962758.7447,573
1605962758.7470,842
1605962758.7565,349
1605962758.7598,85
1605962758.7684,163
1605962758.7717,102
1605962758.7920,53
1605962758.7963,107
1605962758.8030,95
1605962758.8115,61
1605962758.8136,68
1605962758.8401,75
1605962758.8435,58
1605962758.8523,53
1605962758.8555,56
1605962758.8571,43
1605962758.8732,39
1605962758.8767,41
1605962758.8838,36
1605962758.8883,41
1605962758.8953,53
1605962758.8988,43
1605962758.9063,19
1605962758.9106,4
1605962758.9170,-9
1605962758.9217,-19
1605962758.9435,-12
1605962758.9470,2
1605962758.9551,-4
1605962758.9602,-26
1605962758.9674,-34
1605962758.9708,-12
1605962758.9780,7
1605962758.9824,14
1605962758.9878,19
1605962758.9913,24
1605962759.0019,51
1605962759.0054,102
1605962759.0129,139
1605962759.0172,156
1605962759.0235,168
1605962759.0363,168
1605962759.0397,170
1605962759.0474,173
1605962759.0525,175
1605962759.0595,187
1605962759.0630,195
1605962759.0714,173
1605962759.0757,148
1605962759.0823,148
1605962759.0858,161
1605962759.1035,168
1605962759.1069,163
1605962759.1144,134
1605962759.1187,114
1605962759.1254,131
1605962759.1288,156
1605962759.1365,156
1605962759.1411,144
1605962759.1480,134
1605962759.1515,134
1605962759.1705,146
1605962759.1738,161
1605962759.1820,166
1605962759.1864,156
1605962759.2131,153
1605962759.2165,146
1605962759.2238,129
1605962759.2282,122
1605962759.2349,124
1605962759.2384,119
1605962759.2458,114
1605962759.3132,109
1605962759.3137,117
1605962759.3197,139
1605962759.3318,144
1605962759.3354,136
1605962759.3437,148
1605962759.3486,146
1605962759.3548,107
1605962759.3674,107
1605962759.3709,148
1605962759.3780,46
1605962759.3824,-285
1605962759.3891,-437
1605962759.3926,87
1605962759.4003,766
1605962759.4047,617
1605962759.4114,92
1605962759.4149,68
1605962759.4333,187
1605962759.4367,102
1605962759.4450,56
1605962759.4499,78
1605962759.4712,65
1605962759.4717,53
1605962759.4739,68
1605962759.4780,70
1605962759.4859,46
1605962759.4892,41
1605962759.5075,56
1605962759.5113,61
1605962759.5190,48
1605962759.5300,34
1605962759.5335,29
1605962759.5414,36
1605962759.5534,29
1605962759.5568,4
1605962759.5651,4
1605962759.5769,9
1605962759.5807,-9
1605962759.5997,-19
1605962759.6034,-19
1605962759.6104,-31
1605962759.6218,-36
1605962759.6253,-21
1605962759.6434,-24
1605962759.6468,-21
1605962759.6543,19
1605962759.6660,41
1605962759.6697,24
1605962759.6884,48
1605962759.6921,97
1605962759.7000,107
1605962759.7119,112
1605962759.7155,146
1605962759.7238,166
1605962759.7356,166
1605962759.7402,175
1605962759.7474,180
1605962759.7587,173
1605962759.7623,158
1605962759.7805,151
1605962759.7842,146
1605962759.7916,129
1605962759.8031,117
1605962759.8068,122
1605962759.8147,139
1605962759.8261,148
1605962759.8298,136
1605962759.8378,122
1605962759.8497,124
1605962759.8536,126
1605962759.8726,124
1605962759.8753,124
1605962759.9126,117
1605962759.9131,109
1605962759.9174,126
1605962759.9393,158
1605962759.9428,163
1605962759.9502,156
1605962759.9633,151
1605962759.9857,117
1605962760.0128,85
1605962760.0318,95
1605962760.0554,112
1605962760.0603,117
1605962760.0675,107
1605962760.0760,95
1605962760.1091,107
1605962760.1114,119
1605962760.1137,112
1605962760.1159,100
1605962760.1181,92
1605962760.1554,117
1605962760.1903,134
1605962760.2210,102
1605962760.2247,-61
1605962760.2518,-363
1605962760.2833,-375
1605962760.3055,241
1605962760.3089,737
1605962760.3165,422
1605962760.3371,31
1605962760.3410,124
1605962760.3690,185
1605962760.3713,58
1605962760.4015,53
1605962760.4062,90
1605962760.4731,58
1605962760.4788,65
1605962760.5000,95
1605962760.5034,80
1605962760.5105,75
1605962760.5148,80
1605962760.5207,61
1605962760.5320,36
1605962760.5354,34
1605962760.5430,39
1605962760.5474,41
1605962760.5539,26
1605962760.5654,4
1605962760.5688,12
1605962760.5765,29
1605962760.5815,2
1605962760.5885,-26
1605962760.6005,-34
1605962760.6141,-39
1605962760.6177,-34
1605962760.6237,-34
1605962760.6460,-61
1605962760.6493,-43
1605962760.6570,12
1605962760.6613,24
1605962760.6784,7
1605962760.6818,24
1605962760.6895,56
1605962760.6941,63
1605962760.7014,75
1605962760.7134,107
1605962760.7166,134
1605962760.7247,148
1605962760.7291,151
1605962760.7353,141
1605962760.7463,136
1605962760.7495,136
1605962760.7570,141
1605962760.7614,144
1605962760.7793,129
1605962760.7822,119
1605962760.7901,124
1605962760.7947,136
1605962760.8014,141
1605962760.8131,126
1605962760.8166,107
1605962760.8248,102
1605962760.8297,97
1605962760.8369,90
1605962760.8478,90
1605962760.8512,112
1605962760.8539,114
1605962760.8600,92
1605962760.8675,97
1605962760.8800,114
1605962760.8833,124
1605962760.8911,131
1605962760.8956,117
1605962760.9023,90
1605962760.9138,75
1605962760.9172,78
1605962760.9255,92
1605962760.9305,87
1605962760.9376,90
1605962760.9495,117
1605962760.9530,126
1605962760.9602,107
1605962760.9645,104
1605962760.9707,119
1605962760.9930,114
1605962760.9965,100
1605962761.0041,102
1605962761.0086,112
1605962761.0154,31
1605962761.0270,-234
1605962761.0303,-456
1605962761.0382,-109
1605962761.0431,581
1605962761.0501,629
1605962761.0622,151
1605962761.0655,48
1605962761.0728,173
1605962761.0771,95
1605962761.0833,56
1605962761.0940,109
1605962761.0975,73
1605962761.1050,29
1605962761.1094,70
1605962761.1162,75
1605962761.1279,39
1605962761.1313,39
1605962761.1390,48
1605962761.1438,58
1605962761.1510,63
1605962761.1628,41
1605962761.1662,21
1605962761.1743,24
1605962761.1787,26
1605962761.1848,17
1605962761.1957,-9
1605962761.1989,-31
1605962761.2063,-29
1605962761.2107,-17
1605962761.2277,-24
1605962761.2310,-43
1605962761.2389,-41
1605962761.2435,-26
1605962761.2503,-14
1605962761.2619,-14
1605962761.2654,-14
1605962761.2737,-4
1605962761.2786,17
1605962761.2973,39
1605962761.2978,56
1605962761.3001,68
1605962761.3034,85
1605962761.3089,114
1605962761.3163,126
1605962761.3401,122
1605962761.3434,122
1605962761.3511,126
1605962761.3557,134
1605962761.3624,141
1605962761.3742,134
1605962761.3775,122
1605962761.3856,126
1605962761.3907,131
1605962761.3978,117
1605962761.4100,107
1605962761.4134,107
1605962761.4205,102
1605962761.4249,107
1605962761.4308,114
1605962761.4422,107
1605962761.4457,102
1605962761.4532,109
1605962761.4576,114
1605962761.4645,117
1605962761.4762,124
1605962761.4795,129
1605962761.4874,112
1605962761.4924,104
1605962761.4996,129
1605962761.5119,139
1605962761.5152,119
1605962761.5179,97
1605962761.5243,90
1605962761.5314,95
1605962761.5625,92
1605962761.5649,90
1605962761.5671,95
1605962761.5710,104
1605962761.5750,117
1605962761.5935,122
1605962761.5954,119
1605962761.5974,112
1605962761.5994,109
1605962761.6014,107
1605962761.6035,100
1605962761.6054,107
1605962761.6074,97
1605962761.6094,-61
1605962761.6114,-380
1605962761.6135,-405
1605962761.6155,214
1605962761.6176,751
1605962761.6194,454
1605962761.6214,43
1605962761.6235,119
1605962761.6254,175
1605962761.6274,68
1605962761.6294,65
1605962761.6314,95
1605962761.6334,61
1605962761.6356,65
1605962761.6375,114
1605962761.6394,100
1605962761.6414,56
1605962761.6435,63
1605962761.6455,68
1605962761.6474,51
1605962761.6494,51
1605962761.6514,48
1605962761.6534,34
1605962761.6554,21
1605962761.6606,12
1605962761.6610,12
1605962761.6624,7
1605962761.6646,-2
1605962761.6664,-9
1605962761.6684,-14
1605962761.6706,-26
1605962761.6724,-34
1605962761.6744,-31
1605962761.6764,-26
1605962761.6784,-19
1605962761.6804,-14
1605962761.6824,-17
1605962761.6844,-4
1605962761.6864,24
1605962761.6884,36
1605962761.6904,46
1605962761.6924,83
1605962761.6944,112
1605962761.6964,119
1605962761.6984,117
1605962761.7004,129
1605962761.7024,146
1605962761.7044,144
1605962761.7064,139
1605962761.7084,139
1605962761.7104,141
1605962761.7124,139
1605962761.7144,126
1605962761.7164,124
1605962761.7184,124
1605962761.7204,119
1605962761.7224,119
1605962761.7244,119
1605962761.7264,114
1605962761.7284,114
1605962761.7304,109
1605962761.7324,102
1605962761.7344,104
1605962761.7364,114
1605962761.7386,126
1605962761.7411,134
1605962761.7424,129
1605962761.7445,117
1605962761.7464,114
1605962761.7484,122
1605962761.7504,122
1605962761.7524,122
1605962761.7544,141
1605962761.7564,144
1605962761.7584,124
1605962761.7604,97
1605962761.7611,80
1605962761.7624,87
1605962761.7645,100
1605962761.7664,102
1605962761.7684,109
1605962761.7704,124
1605962761.7724,122
1605962761.7744,112
1605962761.7764,124
1605962761.7784,131
1605962761.7804,107
1605962761.7824,95
1605962761.7844,112
1605962761.7864,119
1605962761.7884,-4
1605962761.7905,-322
1605962761.7911,-444
1605962761.7924,126
1605962761.7944,827
1605962761.7964,659
1605962761.7984,124
1605962762.1336,87
1605962762.1343,166
1605962762.1367,56
1605962762.1394,46
1605962762.1414,97
1605962762.1434,70
1605962762.1454,61
1605962762.1474,80
1605962762.1493,58
1605962762.1513,31
1605962762.1534,46
1605962762.1540,56
1605962762.1553,31
1605962762.1574,14
1605962762.1593,17
1605962762.1613,17
1605962762.1634,9
1605962762.1653,0
1605962762.1675,-4
1605962762.1694,-12
1605962762.1713,-26
1605962762.1734,-46
1605962762.1753,-48
1605962762.1773,-39
1605962762.1793,-41
1605962762.1813,-63
1605962762.1834,-75
1605962762.1840,-63
1605962762.1853,-34
1605962762.1873,-7
1605962762.1893,-7
1605962762.1913,-9
1605962762.1934,12
1605962762.1953,43
1605962762.1973,70
1605962762.1993,92
1605962762.2013,109
1605962762.2034,126
1605962762.2053,141
1605962762.2073,156
1605962762.2093,163
1605962762.2113,153
1605962762.2134,139
1605962762.2140,124
1605962762.2153,114
1605962762.2173,126
1605962762.2193,136
1605962762.2213,122
1605962762.2234,104
1605962762.2253,107
1605962762.2273,119
1605962762.2293,114
1605962762.2313,109
1605962762.2333,112
1605962762.2353,109
1605962762.2373,112
1605962762.2393,112
1605962762.2413,109
1605962762.2434,119
1605962762.2440,119
1605962762.2453,100
1605962762.2473,104
1605962762.2493,126
1605962762.2513,126
1605962762.2534,117
1605962762.2553,122
1605962762.2573,124
1605962762.2593,124
1605962762.2613,129
1605962762.2635,129
1605962762.2654,109
1605962762.2673,85
1605962762.2693,87
1605962762.6739,100
1605962762.6750,97
1605962762.6775,92
1605962762.6803,109
1605962762.6822,122
1605962762.6840,119
1605962762.6861,109
1605962762.6880,100
1605962762.6900,100
1605962762.6920,102
1605962762.6941,85
1605962762.6960,65
1605962762.6980,-58
1605962762.7000,-358
1605962762.7020,-439
1605962762.7040,153
1605962762.7047,795
1605962762.7060,571
1605962762.7080,65
1605962762.7100,68
1605962762.7121,146
1605962762.7140,41
1605962762.7160,34
1605962762.7180,70
1605962762.7200,34
1605962762.7220,19
1605962762.7240,43
1605962762.7260,46
1605962762.7280,34
1605962762.7301,29
1605962762.7320,24
1605962762.7326,19
1605962762.7340,26
1605962762.7360,24
1605962762.7380,12
1605962762.7403,-9
1605962762.7420,-24
1605962762.7441,-19
1605962762.7460,-19
1605962762.7480,-36
1605962762.7500,-48
1605962762.7520,-56
1605962762.7540,-65
1605962762.7559,-73
1605962762.7579,-61
1605962762.7600,-41
1605962762.7619,-34
1605962762.7628,-36
1605962762.7640,-36
1605962762.7660,-21
1605962762.7680,2
1605962762.7699,24
1605962762.7720,41
1605962762.7740,73
1605962762.7760,107
1605962762.7780,126
1605962762.7800,131
1605962762.7820,136
1605962762.7840,144
1605962762.7860,144
1605962762.7880,144
1605962762.7900,141
1605962762.7920,131
1605962762.7926,126
1605962762.7940,131
1605962762.7960,126
1605962762.7979,114
1605962762.8000,109
1605962762.8019,102
1605962762.8040,100
1605962762.8059,102
1605962762.8080,112
1605962762.8100,109
1605962763.2138,100
1605962763.2146,104
1605962763.2171,109
1605962763.2197,109
1605962763.2217,114
1605962763.2224,122
1605962763.2237,109
1605962763.2257,90
1605962763.2276,90
1605962763.2296,102
1605962763.2316,107
1605962763.2336,102
1605962763.2356,95
1605962763.2376,95
1605962763.2396,100
1605962763.2416,102
1605962763.2437,104
1605962763.2456,92
1605962763.2476,73
1605962763.2496,75
1605962763.2516,78
1605962763.2523,73
1605962763.2537,75
1605962763.2556,83
1605962763.2576,90
1605962763.2598,100
1605962763.2617,100
1605962763.2637,92
1605962763.2656,87
1605962763.2676,87
1605962763.2696,90
1605962763.2717,100
1605962763.2737,90
1605962763.2756,-61
1605962763.2776,-371
1605962763.2796,-444
1605962763.2816,119
1605962763.2836,715
1605962763.2856,495
1605962763.2876,39
1605962763.2897,61
1605962763.2916,144
1605962763.2936,53
1605962763.2956,53
1605962763.2976,92
1605962763.2996,53
1605962763.3016,24
1605962763.3037,46
1605962763.3056,51
1605962763.3076,34
1605962763.3096,31
1605962763.3116,43
1605962763.3136,48
1605962763.3156,36
1605962763.3176,14
1605962763.3196,7
1605962763.3216,12
1605962763.3236,-2
1605962763.3256,-24
1605962763.3276,-21
1605962763.3296,-7
1605962763.3316,-14
1605962763.3336,-34
1605962763.3356,-41
1605962763.3376,-43
1605962763.3396,-46
1605962763.3416,-43
1605962763.3436,-36
1605962763.3456,-21
1605962763.3476,-9
1605962763.3496,-9
1605962763.3516,-4
1605962763.3537,34
1605962763.7838,73
1605962763.7847,83
1605962763.7871,97
1605962763.7900,122
1605962763.7918,122
1605962763.7938,119
1605962763.7958,129
1605962763.7977,129
1605962763.7997,124
1605962763.8018,122
1605962763.8038,117
1605962763.8057,119
1605962763.8078,119
1605962763.8099,107
1605962763.8117,102
1605962763.8138,112
1605962763.8157,114
1605962763.8177,104
1605962763.8197,100
1605962763.8217,102
1605962763.8238,100
1605962763.8257,100
1605962763.8277,102
1605962763.8297,100
1605962763.8317,90
1605962763.8337,90
1605962763.8357,109
1605962763.8377,114
1605962763.8397,102
1605962763.8417,97
1605962763.8438,104
1605962763.8457,107
1605962763.8477,104
1605962763.8497,102
1605962763.8517,104
1605962763.8537,109
1605962763.8557,107
1605962763.8577,97
1605962763.8597,100
1605962763.8617,112
1605962763.8637,117
1605962763.8657,112
1605962763.8677,112
1605962763.8697,97
1605962763.8717,70
1605962763.8738,65
1605962763.8757,80
1605962763.8777,83
1605962763.8797,63
1605962763.8817,68
1605962763.8837,97
1605962763.8857,107
1605962763.8877,97
1605962763.8897,92
1605962763.8918,92
1605962763.8938,87
1605962763.8957,78
1605962763.8977,85
1605962763.8997,63
1605962763.9017,-97
1605962763.9037,-388
1605962763.9057,-410
1605962763.9077,180
1605962763.9097,715
1605962763.9117,439
1605962763.9137,17
1605962763.9157,65
1605962763.9177,131
1605962763.9197,36
1605962763.9217,36
1605962763.9237,80
1605962763.9257,43
1605962763.9277,17
1605962764.3832,48
1605962764.3841,51
1605962764.3865,31
1605962764.3892,36
1605962764.3911,34
1605962764.3932,19
1605962764.3953,12
1605962764.3971,4
1605962764.3991,-4
1605962764.4011,-14
1605962764.4032,-21
1605962764.4051,-14
1605962764.4072,-4
1605962764.4091,-12
1605962764.4112,-36
1605962764.4132,-53
1605962764.4151,-53
1605962764.4171,-58
1605962764.4191,-63
1605962764.4211,-53
1605962764.4231,-43
1605962764.4251,-36
1605962764.4271,-19
1605962764.4292,-2
1605962764.4311,9
1605962764.4331,24
1605962764.4351,51
1605962764.4370,75
1605962764.4391,92
1605962764.4411,107
1605962764.4431,114
1605962764.4451,134
1605962764.4472,148
1605962764.4491,134
1605962764.4511,129
1605962764.4531,141
1605962764.4551,136
1605962764.4571,129
1605962764.4590,124
1605962764.4610,114
1605962764.4630,107
1605962764.4650,109
1605962764.4670,112
1605962764.4690,109
1605962764.4710,109
1605962764.4732,109
1605962764.4751,100
1605962764.4770,95
1605962764.4791,100
1605962764.4810,104
1605962764.4830,104
1605962764.4850,102
1605962764.4870,107
1605962764.4890,107
1605962764.4910,109
1605962764.4931,112
1605962764.4950,100
1605962764.4970,95
1605962764.4990,102
1605962764.5011,102
1605962764.5031,97
1605962764.5050,95
1605962764.5070,97
1605962764.5090,100
1605962764.5111,102
1605962764.5131,92
1605962764.5151,80
1605962764.5170,80
1605962764.5190,87
1605962764.5210,90
1605962764.5230,95
1605962764.5250,85
1605962764.5270,65
1605962764.9233,53
1605962764.9242,48
1605962764.9267,48
1605962764.9293,53
1605962764.9313,48
1605962764.9333,53
1605962764.9353,73
1605962764.9373,87
1605962764.9392,80
1605962764.9413,78
1605962764.9436,78
1605962764.9453,68
1605962764.9472,56
1605962764.9492,58
1605962764.9512,56
1605962764.9533,-34
1605962764.9552,-292
1605962764.9572,-478
1605962764.9592,-85
1605962764.9612,603
1605962764.9633,610
1605962764.9653,104
1605962764.9672,-2
1605962764.9692,131
1605962764.9712,58
1605962764.9732,4
1605962764.9752,70
1605962764.9772,65
1605962764.9792,19
1605962764.9812,31
1605962764.9833,53
1605962764.9852,48
1605962764.9872,31
1605962764.9892,24
1605962764.9912,29
1605962764.9933,24
1605962764.9952,17
1605962764.9972,17
1605962764.9992,9
1605962765.0012,0
1605962765.0033,-2
1605962765.0052,0
1605962765.0072,-12
1605962765.0092,-34
1605962765.0112,-41
1605962765.0133,-41
1605962765.0152,-51
1605962765.0172,-51
1605962765.0192,-41
1605962765.0212,-39
1605962765.0233,-34
1605962765.0251,-17
1605962765.0272,2
1605962765.0292,12
1605962765.0312,24
1605962765.0333,36
1605962765.0352,56
1605962765.0372,87
1605962765.0392,102
1605962765.0412,97
1605962765.0433,104
1605962765.0453,119
1605962765.0472,129
1605962765.0492,131
1605962765.0512,126
1605962765.0533,124
1605962765.0552,122
1605962765.0572,114
1605962765.0592,114
1605962765.0612,114
1605962765.0633,107
1605962765.0652,87
1605962765.0672,87
1605962765.4928,109
1605962765.4937,114
1605962765.4962,100
1605962765.4988,90
1605962765.5008,80
1605962765.5028,80
1605962765.5048,92
1605962765.5068,92
1605962765.5088,83
1605962765.5108,75
1605962765.5128,75
1605962765.5147,80
1605962765.5167,85
1605962765.5187,92
1605962765.5207,90
1605962765.5227,75
1605962765.5248,68
1605962765.5267,75
1605962765.5287,83
1605962765.5307,83
1605962765.5327,78
1605962765.5347,63
1605962765.5367,53
1605962765.5387,68
1605962765.5407,78
1605962765.5427,68
1605962765.5447,70
1605962765.5467,80
1605962765.5487,75
1605962765.5507,70
1605962765.5527,65
1605962765.5547,46
1605962765.5567,43
1605962765.5587,63
1605962765.5607,65
1605962765.5627,43
1605962765.5647,41
1605962765.5668,73
1605962765.5687,92
1605962765.5709,90
1605962765.5728,85
1605962765.5747,83
1605962765.5767,73
1605962765.5787,68
1605962765.5807,85
1605962765.5827,65
1605962765.5847,-109
1605962765.5867,-402
1605962765.5887,-371
1605962765.5907,275
1605962765.5927,771
1605962765.5947,432
1605962765.5967,19
1605962765.5987,87
1605962765.6007,119
1605962765.6027,21
1605962765.6047,39
1605962765.6067,56
1605962765.6087,12
1605962765.6107,29
1605962765.6127,65
1605962765.6147,43
1605962765.6168,19
1605962765.6187,31
1605962765.6207,36
1605962765.6227,24
1605962765.6247,24
1605962765.6267,24
1605962765.6287,12
1605962765.6308,2
1605962765.6327,-2
1605962765.6347,-9
1605962765.6367,-12
1605962766.0338,-19
1605962766.0346,-34
1605962766.0372,-41
1605962766.0398,-46
1605962766.0417,-51
1605962766.0438,-53
1605962766.0458,-53
1605962766.0477,-48
1605962766.0497,-41
1605962766.0517,-46
1605962766.0537,-34
1605962766.0556,-12
1605962766.0576,7
1605962766.0596,34
1605962766.0616,61
1605962766.0637,83
1605962766.0656,100
1605962766.0678,109
1605962766.0697,124
1605962766.0716,131
1605962766.0737,134
1605962766.0756,136
1605962766.0776,136
1605962766.0796,134
1605962766.0816,119
1605962766.0837,109
1605962766.0856,104
1605962766.0876,107
1605962766.0896,117
1605962766.0916,109
1605962766.0937,90
1605962766.0956,90
1605962766.0976,102
1605962766.0996,102
1605962766.1016,97
1605962766.1037,87
1605962766.1056,80
1605962766.1076,80
1605962766.1096,87
1605962766.1116,90
1605962766.1137,87
1605962766.1156,95
1605962766.1176,102
1605962766.1196,87
1605962766.1216,73
1605962766.1237,75
1605962766.1256,83
1605962766.1276,80
1605962766.1296,75
1605962766.1316,83
1605962766.1336,90
1605962766.1356,80
1605962766.1376,73
1605962766.1396,78
1605962766.1416,87
1605962766.1437,78
1605962766.1456,73
1605962766.1476,92
1605962766.1496,97
1605962766.1516,87
1605962766.1537,78
1605962766.1556,63
1605962766.1576,46
1605962766.1596,48
1605962766.1616,61
1605962766.1637,63
1605962766.1657,63
1605962766.1676,80
1605962766.1698,100
1605962766.1717,100
1605962766.1737,87
1605962766.1756,80
1605962766.1776,78
1605962766.6034,78
1605962766.6041,78
1605962766.6065,75
1605962766.6091,-24
1605962766.6111,-307
1605962766.6132,-461
1605962766.6152,7
1605962766.6171,705
1605962766.6191,644
1605962766.6211,109
1605962766.6231,17
1605962766.6251,124
1605962766.6271,43
1605962766.6291,4
1605962766.6311,53
1605962766.6331,39
1605962766.6350,7
1605962766.6371,29
1605962766.6391,46
1605962766.6411,26
1605962766.6431,19
1605962766.6451,24
1605962766.6471,14
1605962766.6491,12
1605962766.6511,14
1605962766.6531,12
1605962766.6551,4
1605962766.6571,-9
1605962766.6591,-21
1605962766.6611,-24
1605962766.6632,-31
1605962766.6651,-43
1605962766.6671,-46
1605962766.6691,-51
1605962766.6711,-63
1605962766.6731,-68
1605962766.6751,-63
1605962766.6770,-58
1605962766.6790,-53
1605962766.6810,-43
1605962766.6832,-41
1605962766.6851,-29
1605962766.6871,-4
1605962766.6891,31
1605962766.6910,58
1605962766.6931,68
1605962766.6952,83
1605962766.6971,102
1605962766.6990,117
1605962766.7011,126
1605962766.7031,124
1605962766.7051,124
1605962766.7070,129
1605962766.7090,124
1605962766.7111,122
1605962766.7131,119
1605962766.7150,104
1605962766.7170,90
1605962766.7190,87
1605962766.7210,85
1605962766.7231,83
1605962766.7250,85
1605962766.7270,87
1605962766.7291,78
1605962766.7310,75
1605962766.7331,80
1605962766.7351,85
1605962766.7371,85
1605962766.7391,70
1605962766.7411,70
1605962766.7431,85
1605962766.7451,83
1605962766.7471,75
1605962767.1432,87
1605962767.1441,92
1605962767.1465,80
1605962767.1491,78
1605962767.1511,85
1605962767.1532,83
1605962767.1551,75
1605962767.1571,70
1605962767.1590,63
1605962767.1611,63
1605962767.1631,70
1605962767.1650,73
1605962767.1670,75
1605962767.1691,78
1605962767.1710,73
1605962767.1731,78
1605962767.1751,85
1605962767.1770,83
1605962767.1790,73
1605962767.1810,56
1605962767.1831,51
1605962767.1850,56
1605962767.1870,51
1605962767.1890,51
1605962767.1912,61
1605962767.1932,75
1605962767.1950,85
1605962767.1970,75
1605962767.1990,73
1605962767.2011,83
1605962767.2032,73
1605962767.2051,63
1605962767.2070,65
1605962767.2090,53
1605962767.2110,-70
1605962767.2131,-349
1605962767.2150,-427
1605962767.2170,114
1605962767.2190,705
1605962767.2210,498
1605962767.2231,36
1605962767.2250,56
1605962767.2270,131
1605962767.2290,21
1605962767.2310,14
1605962767.2331,73
1605962767.2350,51
1605962767.2370,24
1605962767.2390,43
1605962767.2410,51
1605962767.2431,48
1605962767.2450,43
1605962767.2470,31
1605962767.2490,21
1605962767.2510,21
1605962767.2531,24
1605962767.2550,24
1605962767.2570,9
1605962767.2590,-2
1605962767.2610,7
1605962767.2631,-2
1605962767.2650,-26
1605962767.2670,-34
1605962767.2690,-36
1605962767.2710,-43
1605962767.2731,-48
1605962767.2750,-53
1605962767.2770,-51
1605962767.2790,-41
1605962767.2810,-24
1605962767.2831,-9
1605962767.2850,-12
1605962767.2870,-2
1605962767.7433,24
1605962767.7441,43
1605962767.7463,56
1605962767.7480,73
1605962767.7500,92
1605962767.7520,97
1605962767.7539,102
1605962767.7559,126
1605962767.7579,131
1605962767.7599,109
1605962767.7619,104
1605962767.7640,114
1605962767.7658,114
1605962767.7679,109
1605962767.7699,107
1605962767.7719,92
1605962767.7739,73
1605962767.7758,78
1605962767.7778,92
1605962767.7798,92
1605962767.7819,85
1605962767.7838,73
1605962767.7859,63
1605962767.7878,70
1605962767.7899,80
1605962767.7918,80
1605962767.7939,70
1605962767.7959,68
1605962767.7979,73
1605962767.7999,78
1605962767.8019,87
1605962767.8039,90
1605962767.8058,83
1605962767.8078,80
1605962767.8098,83
1605962767.8119,87
1605962767.8139,90
1605962767.8159,85
1605962767.8178,83
1605962767.8198,85
1605962767.8218,85
1605962767.8239,83
1605962767.8258,87
1605962767.8279,90
1605962767.8298,92
1605962767.8318,100
1605962767.8338,92
1605962767.8358,73
1605962767.8378,63
1605962767.8399,68
1605962767.8419,68
1605962767.8439,58
1605962767.8458,58
1605962767.8480,75
1605962767.8499,95
1605962767.8519,90
1605962767.8539,75
1605962767.8558,78
1605962767.8578,85
1605962767.8598,83
1605962767.8618,83
1605962767.8639,83
1605962767.8658,-21
1605962767.8678,-310
1605962767.8698,-463
1605962767.8718,-9
1605962767.8739,659
1605962767.8759,595
1605962767.8778,90
1605962767.8798,29
1605962767.8818,151
1605962767.8839,68
1605962767.8858,31
1605962768.3133,80
1605962768.3141,63
1605962768.3166,34
1605962768.3193,48
1605962768.3212,61
1605962768.3232,46
1605962768.3252,39
1605962768.3272,43
1605962768.3293,36
1605962768.3312,29
1605962768.3332,21
1605962768.3351,4
1605962768.3371,-9
1605962768.3391,-12
1605962768.3411,-19
1605962768.3432,-24
1605962768.3451,-26
1605962768.3471,-31
1605962768.3491,-46
1605962768.3511,-61
1605962768.3532,-61
1605962768.3538,-58
1605962768.3551,-58
1605962768.3571,-51
1605962768.3591,-43
1605962768.3611,-34
1605962768.3632,-19
1605962768.3651,-12
1605962768.3671,0
1605962768.3691,24
1605962768.3711,61
1605962768.3734,85
1605962768.3751,92
1605962768.3771,107
1605962768.3791,119
1605962768.3811,122
1605962768.3831,129
1605962768.3838,134
1605962768.3851,124
1605962768.3871,104
1605962768.3891,107
1605962768.3911,112
1605962768.3932,100
1605962768.3951,95
1605962768.3971,90
1605962768.3991,80
1605962768.4011,87
1605962768.4032,97
1605962768.4051,97
1605962768.4071,83
1605962768.4091,70
1605962768.4111,80
1605962768.4132,85
1605962768.4138,75
1605962768.4151,78
1605962768.4171,85
1605962768.4191,83
1605962768.4211,85
1605962768.4232,97
1605962768.4251,100
1605962768.4271,83
1605962768.4291,75
1605962768.4311,87
1605962768.4332,95
1605962768.4351,87
1605962768.4371,83
1605962768.4391,83
1605962768.4411,85
1605962768.4432,90
1605962768.4438,95
1605962768.4451,90
1605962768.4471,92
1605962768.4491,100
1605962768.8530,95
1605962768.8540,83
1605962768.8564,65
1605962768.8591,48
1605962768.8610,58
1605962768.8630,70
1605962768.8650,68
1605962768.8670,68
1605962768.8690,73
1605962768.8712,85
1605962768.8717,87
1605962768.8731,65
1605962768.8749,58
1605962768.8769,68
1605962768.8789,70
1605962768.8809,68
1605962768.8831,41
1605962768.8849,-134
1605962768.8869,-434
1605962768.8889,-368
1605962768.8910,295
1605962768.8929,725
1605962768.8949,349
1605962768.8969,-7
1605962768.8989,95
1605962768.9009,124
1605962768.9016,17
1605962768.9029,36
1605962768.9049,75
1605962768.9069,41
1605962768.9089,34
1605962768.9110,51
1605962768.9130,36
1605962768.9149,24
1605962768.9169,29
1605962768.9189,29
1605962768.9209,24
1605962768.9229,21
1605962768.9249,12
1605962768.9270,12
1605962768.9289,17
1605962768.9309,2
1605962768.9316,-21
1605962768.9329,-29
1605962768.9349,-24
1605962768.9369,-21
1605962768.9389,-34
1605962768.9409,-51
1605962768.9429,-56
1605962768.9449,-53
1605962768.9469,-51
1605962768.9489,-39
1605962768.9509,-24
1605962768.9529,-21
1605962768.9549,-19
1605962768.9569,0
1605962768.9590,26
1605962768.9609,43
1605962768.9616,65
1605962768.9629,92
1605962768.9651,100
1605962768.9670,107
1605962768.9689,124
1605962768.9710,129
1605962768.9731,126
1605962768.9749,126
1605962768.9769,122
1605962768.9789,119
1605962768.9809,114
1605962768.9829,104
1605962768.9849,97
1605962768.9869,97
1605962768.9889,87
1605962769.3941,80
1605962769.3952,80
1605962769.3976,80
1605962769.4004,73
1605962769.4023,73
1605962769.4042,78
1605962769.4063,80
1605962769.4082,70
1605962769.4102,56
1605962769.4122,56
1605962769.4142,68
1605962769.4162,68
1605962769.4182,63
1605962769.4202,65
1605962769.4222,75
1605962769.4229,83
1605962769.4241,78
1605962769.4261,73
1605962769.4281,73
1605962769.4301,75
1605962769.4321,73
1605962769.4341,75
1605962769.4361,83
1605962769.4381,83
1605962769.4401,78
1605962769.4422,75
1605962769.4441,78
1605962769.4462,83
1605962769.4481,85
1605962769.4502,73
1605962769.4521,51
1605962769.4528,46
1605962769.4541,56
1605962769.4561,58
1605962769.4581,63
1605962769.4601,83
1605962769.4621,90
1605962769.4642,83
1605962769.4663,83
1605962769.4682,83
1605962769.4702,80
1605962769.4722,78
1605962769.4743,75
1605962769.4761,65
1605962769.4781,-65
1605962769.4801,-363
1605962769.4821,-441
1605962769.4828,124
1605962769.4841,729
1605962769.4861,510
1605962769.4881,43
1605962769.4901,61
1605962769.4921,134
1605962769.4942,31
1605962769.4961,34
1605962769.4981,83
1605962769.5002,48
1605962769.5021,29
1605962769.5041,46
1605962769.5061,39
1605962769.5081,31
1605962769.5102,39
1605962769.5121,36
1605962769.5128,29
1605962769.5141,24
1605962769.5161,21
1605962769.5181,24
1605962769.5201,14
1605962769.5221,-17
1605962769.5242,-26
1605962769.5261,-19
1605962769.5281,-24
1605962769.5301,-41
1605962769.9637,-51
1605962769.9648,-53
1605962769.9672,-61
1605962769.9698,-61
1605962769.9718,-58
1605962769.9738,-65
1605962769.9757,-63
1605962769.9778,-39
1605962769.9797,-26
1605962769.9817,-24
1605962769.9837,-4
1605962769.9857,21
1605962769.9877,53
1605962769.9897,78
1605962769.9917,92
1605962769.9937,97
1605962769.9959,102
1605962769.9978,119
1605962769.9997,131
1605962770.0017,126
1605962770.0037,119
1605962770.0057,119
1605962770.0077,119
1605962770.0097,107
1605962770.0117,97
1605962770.0137,95
1605962770.0157,95
1605962770.0177,90
1605962770.0197,78
1605962770.0217,75
1605962770.0237,85
1605962770.0257,85
1605962770.0276,80
1605962770.0296,70
1605962770.0316,65
1605962770.0336,75
1605962770.0356,80
1605962770.0377,75
1605962770.0396,75
1605962770.0416,92
1605962770.0437,102
1605962770.0457,92
1605962770.0476,80
1605962770.0497,85
1605962770.0518,90
1605962770.0537,87
1605962770.0557,83
1605962770.0577,80
1605962770.0596,85
1605962770.0617,90
1605962770.0637,90
1605962770.0656,83
1605962770.0676,87
1605962770.0697,100
1605962770.0716,90
1605962770.0737,70
1605962770.0756,58
1605962770.0776,56
1605962770.0796,61
1605962770.0816,63
1605962770.0836,70
1605962770.0857,85
1605962770.0876,83
1605962770.0896,78
1605962770.0916,85
1605962770.0937,85
1605962770.0956,80
1605962770.0978,73
1605962770.0997,70
1605962770.1016,21
1605962770.1037,-217
1605962770.1056,-485
1605962770.1076,-200
1605962770.5041,595
1605962770.5047,815
1605962770.5064,275
1605962770.5084,29
1605962770.5104,141
1605962770.5125,68
1605962770.5145,-12
1605962770.5164,36
1605962770.5184,43
1605962770.5204,14
1605962770.5224,19
1605962770.5244,31
1605962770.5264,29
1605962770.5284,21
1605962770.5304,17
1605962770.5324,7
1605962770.5344,2
1605962770.5364,-2
1605962770.5384,-2
1605962770.5404,2
1605962770.5424,-7
1605962770.5444,-26
1605962770.5464,-26
1605962770.5484,-26
1605962770.5504,-41
1605962770.5524,-63
1605962770.5544,-75
1605962770.5563,-73
1605962770.5583,-68
1605962770.5603,-75
1605962770.5623,-80
1605962770.5644,-70
1605962770.5663,-56
1605962770.5683,-48
1605962770.5703,-36
1605962770.5724,-14
1605962770.5744,17
1605962770.5764,56
1605962770.5784,80
1605962770.5803,95
1605962770.5823,117
1605962770.5843,134
1605962770.5863,141
1605962770.5883,156
1605962770.5904,153
1605962770.5925,139
1605962770.5944,136
1605962770.5964,144
1605962770.5984,136
1605962770.6003,122
1605962770.6023,122
1605962770.6043,122
1605962770.6064,102
1605962770.6084,87
1605962770.6105,80
1605962770.6124,75
1605962770.6144,68
1605962770.6163,65
1605962770.6183,73
1605962770.6203,80
1605962770.6223,80
1605962770.6244,78
1605962770.6263,68
1605962770.6283,65
1605962770.6303,68
1605962770.6324,70
1605962770.6343,80
1605962770.6363,87
1605962770.6384,85
1605962770.6404,83
1605962770.6423,83
1605962770.6444,80
1605962770.6464,70
1605962771.1037,70
1605962771.1046,78
1605962771.1071,80
1605962771.1097,85
1605962771.1117,78
1605962771.1138,53
1605962771.1157,41
1605962771.1177,41
1605962771.1197,36
1605962771.1217,41
1605962771.1237,48
1605962771.1256,58
1605962771.1277,73
1605962771.1296,83
1605962771.1316,80
1605962771.1336,65
1605962771.1356,58
1605962771.1376,65
1605962771.1396,68
1605962771.1416,61
1605962771.1437,-56
1605962771.1456,-351
1605962771.1476,-490
1605962771.1499,21
1605962771.1517,732
1605962771.1537,634
1605962771.1556,95
1605962771.1577,31
1605962771.1596,134
1605962771.1616,34
1605962771.1637,7
1605962771.1656,58
1605962771.1676,36
1605962771.1696,9
1605962771.1716,24
1605962771.1737,31
1605962771.1756,21
1605962771.1776,21
1605962771.1796,21
1605962771.1816,9
1605962771.1836,9
1605962771.1856,12
1605962771.1876,2
1605962771.1896,-12
1605962771.1916,-21
1605962771.1937,-26
1605962771.1956,-39
1605962771.1976,-53
1605962771.1996,-56
1605962771.2016,-56
1605962771.2036,-70
1605962771.2056,-92
1605962771.2076,-92
1605962771.2096,-83
1605962771.2116,-85
1605962771.2136,-80
1605962771.2156,-56
1605962771.2176,-48
1605962771.2196,-41
1605962771.2216,-4
1605962771.2236,31
1605962771.2256,46
1605962771.2276,63
1605962771.2296,92
1605962771.2316,117
1605962771.2336,129
1605962771.2357,134
1605962771.2376,126
1605962771.2396,126
1605962771.2416,139
1605962771.2436,134
1605962771.2456,124
1605962771.2476,122
1605962771.7037,119
1605962771.7049,109
1605962771.7072,100
1605962771.7097,95
1605962771.7117,95
1605962771.7138,97
1605962771.7157,92
1605962771.7177,80
1605962771.7198,68
1605962771.7217,65
1605962771.7237,65
1605962771.7256,63
1605962771.7277,56
1605962771.7297,56
1605962771.7316,61
1605962771.7336,75
1605962771.7356,73
1605962771.7376,58
1605962771.7396,63
1605962771.7416,75
1605962771.7437,65
1605962771.7456,56
1605962771.7476,58
1605962771.7497,65
1605962771.7516,65
1605962771.7537,61
1605962771.7556,68
1605962771.7576,78
1605962771.7596,78
1605962771.7616,75
1605962771.7637,58
1605962771.7656,36
1605962771.7676,39
1605962771.7696,48
1605962771.7716,46
1605962771.7737,48
1605962771.7756,63
1605962771.7776,78
1605962771.7796,75
1605962771.7816,63
1605962771.7836,56
1605962771.7856,58
1605962771.7876,65
1605962771.7896,63
1605962771.7916,53
1605962771.7937,7
1605962771.7956,-209
1605962771.7976,-488
1605962771.7996,-283
1605962771.8016,437
1605962771.8037,690
1605962771.8056,217
1605962771.8078,-21
1605962771.8097,117
1605962771.8116,85
1605962771.8137,-2
1605962771.8156,36
1605962771.8176,53
1605962771.8196,26
1605962771.8216,29
1605962771.8237,39
1605962771.8256,36
1605962771.8276,31
1605962771.8296,29
1605962771.8317,17
1605962771.8336,7
1605962771.8356,2
1605962771.8376,4
1605962771.8396,9
1605962771.8416,2
1605962771.8437,-19
1605962771.8456,-26
1605962771.8476,-17
1605962772.2136,-24
1605962772.2143,-43
1605962772.2167,-56
1605962772.2194,-70
1605962772.2214,-87
1605962772.2234,-90
1605962772.2254,-75
1605962772.2274,-65
1605962772.2294,-58
1605962772.2314,-51
1605962772.2333,-26
1605962772.2353,-7
1605962772.2373,7
1605962772.2393,34
1605962772.2413,53
1605962772.2434,58
1605962772.2453,92
1605962772.2474,124
1605962772.2493,122
1605962772.2513,114
1605962772.2534,124
1605962772.2553,124
1605962772.2573,112
1605962772.2593,107
1605962772.2613,114
1605962772.2634,114
1605962772.2653,104
1605962772.2673,100
1605962772.2693,107
1605962772.2714,102
1605962772.2737,87
1605962772.2754,75
1605962772.2774,65
1605962772.2794,65
1605962772.2814,83
1605962772.2834,85
1605962772.2854,68
1605962772.2874,58
1605962772.2894,68
1605962772.2914,73
1605962772.2934,61
1605962772.2954,51
1605962772.2973,61
1605962772.2993,63
1605962772.3013,56
1605962772.3033,58
1605962772.3053,63
1605962772.3073,61
1605962772.3093,58
1605962772.3113,58
1605962772.3133,61
1605962772.3153,56
1605962772.3173,56
1605962772.3193,63
1605962772.3213,61
1605962772.3233,58
1605962772.3253,61
1605962772.3273,68
1605962772.3293,80
1605962772.3313,80
1605962772.3333,63
1605962772.3353,46
1605962772.3373,31
1605962772.3393,34
1605962772.3413,48
1605962772.3433,48
1605962772.3453,48
1605962772.3473,56
1605962772.3493,63
1605962772.3513,70
1605962772.3533,83
1605962772.3553,80
1605962772.3573,63
1605962772.7835,61
1605962772.7842,63
1605962772.7857,58
1605962772.7877,-19
1605962772.7897,-270
1605962772.7917,-485
1605962772.7937,-170
1605962772.7957,510
1605962772.7979,610
1605962772.7997,124
1605962772.8014,-21
1605962772.8037,117
1605962772.8111,56
1605962772.8126,-2
1605962772.8146,56
1605962772.8166,53
1605962772.8186,17
1605962772.8206,21
1605962772.8226,34
1605962772.8246,31
1605962772.8266,26
1605962772.8286,17
1605962772.8307,14
1605962772.8326,14
1605962772.8347,7
1605962772.8366,2
1605962772.8386,2
1605962772.8406,-12
1605962772.8426,-29
1605962772.8446,-31
1605962772.8466,-39
1605962772.8486,-43
1605962772.8508,-46
1605962772.8527,-63
1605962772.8546,-83
1605962772.8566,-90
1605962772.8586,-87
1605962772.8606,-75
1605962772.8626,-73
1605962772.8646,-75
1605962772.8666,-65
1605962772.8686,-48
1605962772.8707,-26
1605962772.8726,2
1605962772.8746,34
1605962772.8766,63
1605962772.8786,85
1605962772.8806,100
1605962772.8826,109
1605962772.8846,122
1605962772.8866,126
1605962772.8886,122
1605962772.8906,119
1605962772.8926,119
1605962772.8946,114
1605962772.8966,109
1605962772.8986,114
1605962772.9006,114
1605962772.9026,104
1605962772.9049,95
1605962772.9067,90
1605962772.9086,92
1605962772.9106,97
1605962772.9126,95
1605962772.9146,87
1605962772.9166,83
1605962772.9186,73
1605962772.9207,70
1605962772.9226,78
1605962772.9246,68
1605962772.9266,61
1605962772.9286,75
1605962772.9307,73
1605962773.3231,58
1605962773.3238,61
1605962773.3263,73
1605962773.3289,75
1605962773.3309,73
1605962773.3329,75
1605962773.3349,73
1605962773.3369,70
1605962773.3389,65
1605962773.3409,53
1605962773.3429,56
1605962773.3449,56
1605962773.3469,48
1605962773.3488,56
1605962773.3508,63
1605962773.3529,61
1605962773.3548,58
1605962773.3568,53
1605962773.3588,51
1605962773.3608,58
1605962773.3629,63
1605962773.3648,63
1605962773.3668,65
1605962773.3689,63
1605962773.3708,39
1605962773.3729,17
1605962773.3748,24
1605962773.3768,41
1605962773.3788,48
1605962773.3808,46
1605962773.3829,48
1605962773.3848,65
1605962773.3868,73
1605962773.3888,68
1605962773.3908,70
1605962773.3929,70
1605962773.3948,61
1605962773.3970,61
1605962773.3989,65
1605962773.4008,17
1605962773.4029,-197
1605962773.4048,-466
1605962773.4068,-280
1605962773.4088,410
1605962773.4108,681
1605962773.4129,234
1605962773.4148,-14
1605962773.4168,114
1605962773.4188,92
1605962773.4208,17
1605962773.4229,61
1605962773.4248,58
1605962773.4268,12
1605962773.4288,26
1605962773.4308,53
1605962773.4328,48
1605962773.4348,34
1605962773.4368,34
1605962773.4388,26
1605962773.4408,17
1605962773.4429,19
1605962773.4448,21
1605962773.4468,14
1605962773.4488,-4
1605962773.4508,-19
1605962773.4529,-21
1605962773.4548,-24
1605962773.4568,-24
1605962773.4588,-31
1605962773.4608,-51
1605962773.4629,-58
1605962773.4648,-65
1605962773.4668,-87
1605962773.8630,-80
1605962773.8638,-56
1605962773.8662,-53
1605962773.8688,-56
1605962773.8708,-43
1605962773.8728,-26
1605962773.8749,-19
1605962773.8769,4
1605962773.8788,39
1605962773.8808,63
1605962773.8828,92
1605962773.8848,107
1605962773.8868,95
1605962773.8888,102
1605962773.8908,117
1605962773.8930,114
1605962773.8948,109
1605962773.8968,102
1605962773.8988,92
1605962773.9008,92
1605962773.9028,102
1605962773.9049,102
1605962773.9069,83
1605962773.9088,83
1605962773.9108,95
1605962773.9128,80
1605962773.9148,65
1605962773.9167,65
1605962773.9188,68
1605962773.9207,80
1605962773.9228,87
1605962773.9248,70
1605962773.9267,56
1605962773.9288,65
1605962773.9307,80
1605962773.9330,85
1605962773.9348,80
1605962773.9367,65
1605962773.9388,61
1605962773.9408,70
1605962773.9428,80
1605962773.9448,80
1605962773.9467,78
1605962773.9487,80
1605962773.9507,83
1605962773.9528,78
1605962773.9547,70
1605962773.9568,65
1605962773.9588,70
1605962773.9607,78
1605962773.9628,68
1605962773.9647,61
1605962773.9668,73
1605962773.9688,78
1605962773.9708,78
1605962773.9728,78
1605962773.9748,68
1605962773.9767,63
1605962773.9788,70
1605962773.9808,80
1605962773.9828,83
1605962773.9848,75
1605962773.9867,70
1605962773.9888,61
1605962773.9908,46
1605962773.9928,41
1605962773.9949,53
1605962773.9968,65
1605962773.9987,58
1605962774.0007,41
1605962774.0027,51
1605962774.0048,75
1605962774.0067,83
1605962774.4637,83
1605962774.4646,80
1605962774.4672,68
1605962774.4697,48
1605962774.4717,43
1605962774.4738,63
1605962774.4757,43
1605962774.4777,-156
1605962774.4797,-476
1605962774.4817,-397
1605962774.4836,314
1605962774.4856,773
1605962774.4876,380
1605962774.4898,9
1605962774.4917,104
1605962774.4936,107
1605962774.4956,-12
1605962774.4976,9
1605962774.4996,48
1605962774.5016,14
1605962774.5037,14
1605962774.5056,31
1605962774.5076,19
1605962774.5096,12
1605962774.5116,14
1605962774.5137,12
1605962774.5156,9
1605962774.5176,17
1605962774.5196,17
1605962774.5216,-4
1605962774.5237,-24
1605962774.5256,-29
1605962774.5277,-39
1605962774.5296,-41
1605962774.5316,-41
1605962774.5336,-63
1605962774.5356,-78
1605962774.5376,-78
1605962774.5396,-85
1605962774.5416,-100
1605962774.5437,-102
1605962774.5456,-100
1605962774.5477,-102
1605962774.5496,-97
1605962774.5518,-70
1605962774.5537,-46
1605962774.5556,-31
1605962774.5576,-9
1605962774.5596,14
1605962774.5616,46
1605962774.5637,83
1605962774.5656,102
1605962774.5677,95
1605962774.5696,104
1605962774.5716,129
1605962774.5737,129
1605962774.5756,126
1605962774.5776,131
1605962774.5796,124
1605962774.5816,119
1605962774.5823,119
1605962774.5836,109
1605962774.5856,92
1605962774.5876,83
1605962774.5896,87
1605962774.5916,95
1605962774.5936,90
1605962774.5957,85
1605962774.5976,78
1605962774.5996,70
1605962774.6017,68
1605962774.6037,56
1605962774.6056,51
1605962775.0337,61
1605962775.0346,68
1605962775.0370,73
1605962775.0397,75
1605962775.0417,73
1605962775.0437,73
1605962775.0456,78
1605962775.0476,70
1605962775.0496,53
1605962775.0516,53
1605962775.0536,65
1605962775.0556,65
1605962775.0576,65
1605962775.0596,65
1605962775.0616,63
1605962775.0636,65
1605962775.0656,68
1605962775.0663,68
1605962775.0675,73
1605962775.0695,63
1605962775.0716,46
1605962775.0736,51
1605962775.0757,63
1605962775.0776,70
1605962775.0796,73
1605962775.0815,78
1605962775.0836,70
1605962775.0855,61
1605962775.0875,58
1605962775.0896,63
1605962775.0915,65
1605962775.0936,58
1605962775.0956,43
1605962775.0962,36
1605962775.0976,39
1605962775.0997,43
1605962775.1015,53
1605962775.1036,53
1605962775.1055,53
1605962775.1076,63
1605962775.1095,68
1605962775.1116,63
1605962775.1136,63
1605962775.1155,63
1605962775.1175,61
1605962775.1196,68
1605962775.1215,80
1605962775.1236,24
1605962775.1256,-209
1605962775.1262,-488
1605962775.1276,-273
1605962775.1295,463
1605962775.1316,725
1605962775.1336,234
1605962775.1356,-14
1605962775.1375,122
1605962775.1395,78
1605962775.1416,-14
1605962775.1436,36
1605962775.1456,58
1605962775.1476,19
1605962775.1495,9
1605962775.1515,19
1605962775.1536,17
1605962775.1542,14
1605962775.1556,12
1605962775.1576,2
1605962775.1595,-7
1605962775.1616,-12
1605962775.1636,-12
1605962775.1655,-19
1605962775.1676,-29
1605962775.1696,-31
1605962775.5735,-36
1605962775.5743,-51
1605962775.5767,-58
1605962775.5794,-68
1605962775.5813,-83
1605962775.5820,-92
1605962775.5833,-97
1605962775.5854,-100
1605962775.5874,-104
1605962775.5893,-109
1605962775.5913,-102
1605962775.5935,-85
1605962775.5953,-68
1605962775.5973,-63
1605962775.5993,-46
1605962775.6013,-7
1605962775.6033,34
1605962775.6053,65
1605962775.6073,80
1605962775.6093,87
1605962775.6113,97
1605962775.6120,104
1605962775.6133,109
1605962775.6153,109
1605962775.6173,107
1605962775.6193,109
1605962775.6213,114
1605962775.6234,117
1605962775.6253,112
1605962775.6273,102
1605962775.6293,100
1605962775.6313,92
1605962775.6333,78
1605962775.6353,85
1605962775.6373,100
1605962775.6393,83
1605962775.6413,68
1605962775.6420,83
1605962775.6433,90
1605962775.6453,70
1605962775.6473,61
1605962775.6493,70
1605962775.6513,70
1605962775.6533,73
1605962775.6553,87
1605962775.6573,90
1605962775.6593,75
1605962775.6613,70
1605962775.6633,78
1605962775.6653,83
1605962775.6673,78
1605962775.6695,78
1605962775.6714,73
1605962775.6720,68
1605962775.6733,75
1605962775.6753,75
1605962775.6773,63
1605962775.6793,61
1605962775.6813,68
1605962775.6833,68
1605962775.6853,65
1605962775.6873,68
1605962775.6893,65
1605962775.6913,68
1605962775.6934,73
1605962775.6953,75
1605962775.6973,78
1605962775.6993,68
1605962775.7013,58
1605962775.7020,63
1605962775.7033,70
1605962775.7053,68
1605962775.7073,73
1605962776.1437,70
1605962776.1446,56
1605962776.1471,36
1605962776.1498,29
1605962776.1518,43
1605962776.1538,58
1605962776.1558,43
1605962776.1577,19
1605962776.1597,34
1605962776.1617,75
1605962776.1637,73
1605962776.1643,46
1605962776.1656,53
1605962776.1676,61
1605962776.1696,43
1605962776.1716,36
1605962776.1737,51
1605962776.1757,14
1605962776.1776,-202
1605962776.1796,-488
1605962776.1816,-351
1605962776.1836,312
1605962776.1856,632
1605962776.1876,227
1605962776.1897,-41
1605962776.1916,90
1605962776.1937,85
1605962776.1943,-12
1605962776.1956,29
1605962776.1978,61
1605962776.1997,24
1605962776.2016,17
1605962776.2037,29
1605962776.2056,19
1605962776.2076,9
1605962776.2096,17
1605962776.2116,9
1605962776.2136,-4
1605962776.2156,4
1605962776.2176,14
1605962776.2196,7
1605962776.2216,-9
1605962776.2237,-26
1605962776.2243,-29
1605962776.2256,-29
1605962776.2277,-34
1605962776.2297,-51
1605962776.2316,-75
1605962776.2336,-87
1605962776.2356,-78
1605962776.2376,-78
1605962776.2396,-100
1605962776.2416,-107
1605962776.2437,-87
1605962776.2456,-73
1605962776.2476,-70
1605962776.2496,-43
1605962776.2516,-14
1605962776.2536,0
1605962776.2556,26
1605962776.2576,58
1605962776.2596,80
1605962776.2616,97
1605962776.2636,107
1605962776.2656,109
1605962776.2676,109
1605962776.2696,114
1605962776.2716,122
1605962776.2736,119
1605962776.2756,107
1605962776.2776,102
1605962776.2796,109
1605962776.2816,117
1605962776.6835,107
1605962776.6842,102
1605962776.6866,97
1605962776.6893,90
1605962776.6913,87
1605962776.6934,83
1605962776.6953,80
1605962776.6975,80
1605962776.6993,68
1605962776.7013,65
1605962776.7033,73
1605962776.7053,70
1605962776.7073,70
1605962776.7093,73
1605962776.7113,70
1605962776.7133,75
1605962776.7152,75
1605962776.7172,65
1605962776.7193,68
1605962776.7213,73
1605962776.7233,73
1605962776.7253,75
1605962776.7273,78
1605962776.7293,73
1605962776.7313,70
1605962776.7332,73
1605962776.7352,70
1605962776.7372,73
1605962776.7392,85
1605962776.7412,83
1605962776.7433,68
1605962776.7452,65
1605962776.7472,68
1605962776.7492,73
1605962776.7513,70
1605962776.7533,63
1605962776.7553,65
1605962776.7572,78
1605962776.7592,83
1605962776.7612,68
1605962776.7633,58
1605962776.7652,56
1605962776.7674,51
1605962776.7693,56
1605962776.7712,63
1605962776.7733,61
1605962776.7752,48
1605962776.7772,31
1605962776.7793,36
1605962776.7812,48
1605962776.7832,43
1605962776.7852,31
1605962776.7872,34
1605962776.7892,46
1605962776.7912,61
1605962776.7933,68
1605962776.7952,73
1605962776.7972,65
1605962776.7994,53
1605962776.8013,51
1605962776.8033,51
1605962776.8052,36
1605962776.8072,-122
1605962776.8092,-437
1605962776.8112,-466
1605962776.8133,129
1605962776.8152,651
1605962776.8172,368
1605962776.8192,-34
1605962776.8212,43
1605962776.8233,107
1605962776.8252,0
1605962776.8272,7
1605962777.2536,51
1605962777.2545,24
1605962777.2570,14
1605962777.2596,26
1605962777.2616,12
1605962777.2637,-7
1605962777.2657,-9
1605962777.2676,-4
1605962777.2696,2
1605962777.2716,9
1605962777.2737,0
1605962777.2756,-14
1605962777.2775,-12
1605962777.2796,-14
1605962777.2816,-29
1605962777.2836,-34
1605962777.2856,-41
1605962777.2875,-53
1605962777.2896,-56
1605962777.2916,-61
1605962777.2936,-80
1605962777.2955,-97
1605962777.2975,-85
1605962777.2995,-75
1605962777.3015,-80
1605962777.3036,-78
1605962777.3055,-70
1605962777.3075,-53
1605962777.3095,-24
1605962777.3115,0
1605962777.3136,14
1605962777.3155,34
1605962777.3175,63
1605962777.3195,90
1605962777.3215,97
1605962777.3236,100
1605962777.3257,107
1605962777.3276,112
1605962777.3296,109
1605962777.3315,100
1605962777.3336,100
1605962777.3355,107
1605962777.3375,104
1605962777.3396,102
1605962777.3415,102
1605962777.3436,100
1605962777.3455,90
1605962777.3475,87
1605962777.3495,92
1605962777.3515,87
1605962777.3536,80
1605962777.3555,78
1605962777.3575,73
1605962777.3595,78
1605962777.3615,83
1605962777.3636,73
1605962777.3655,75
1605962777.3675,83
1605962777.3695,78
1605962777.3715,70
1605962777.3736,70
1605962777.3755,87
1605962777.3775,87
1605962777.3795,70
1605962777.3815,73
1605962777.3835,80
1605962777.3855,75
1605962777.3875,78
1605962777.3895,78
1605962777.3915,75
1605962777.3936,70
1605962777.3955,75
1605962777.3975,78
1605962777.8538,75
1605962777.8551,78
1605962777.8575,68
1605962777.8601,58
1605962777.8621,75
1605962777.8641,87
1605962777.8662,65
1605962777.8681,56
1605962777.8701,65
1605962777.8721,63
1605962777.8742,53
1605962777.8761,61
1605962777.8781,70
1605962777.8801,68
1605962777.8824,58
1605962777.8841,41
1605962777.8862,19
1605962777.8881,24
1605962777.8901,43
1605962777.8921,51
1605962777.8941,39
1605962777.8961,29
1605962777.8981,48
1605962777.9001,73
1605962777.9021,73
1605962777.9041,61
1605962777.9061,51
1605962777.9081,43
1605962777.9101,39
1605962777.9120,43
1605962777.9140,36
1605962777.9160,-117
1605962777.9180,-429
1605962777.9200,-463
1605962777.9220,166
1605962777.9241,742
1605962777.9260,451
1605962777.9280,-4
1605962777.9301,43
1605962777.9320,100
1605962777.9340,-9
1605962777.9360,0
1605962777.9367,46
1605962777.9380,19
1605962777.9400,0
1605962777.9420,2
1605962777.9440,0
1605962777.9460,2
1605962777.9480,14
1605962777.9500,12
1605962777.9520,-4
1605962777.9541,-7
1605962777.9560,2
1605962777.9580,4
1605962777.9600,-17
1605962777.9620,-31
1605962777.9641,-26
1605962777.9660,-36
1605962777.9667,-58
1605962777.9680,-65
1605962777.9700,-75
1605962777.9720,-90
1605962777.9740,-92
1605962777.9760,-92
1605962777.9780,-102
1605962777.9802,-104
1605962777.9821,-95
1605962777.9840,-83
1605962777.9860,-68
1605962777.9880,-46
1605962777.9900,-29
1605962777.9920,-12
1605962777.9941,14
1605962778.3937,43
1605962778.3946,73
1605962778.3970,97
1605962778.3997,102
1605962778.4017,109
1605962778.4037,129
1605962778.4057,141
1605962778.4077,136
1605962778.4096,131
1605962778.4116,126
1605962778.4137,102
1605962778.4156,75
1605962778.4176,83
1605962778.4196,112
1605962778.4216,112
1605962778.4236,85
1605962778.4256,78
1605962778.4263,68
1605962778.4276,68
1605962778.4296,85
1605962778.4316,75
1605962778.4337,46
1605962778.4356,43
1605962778.4375,61
1605962778.4395,65
1605962778.4416,56
1605962778.4436,63
1605962778.4456,70
1605962778.4476,73
1605962778.4496,87
1605962778.4515,85
1605962778.4536,61
1605962778.4556,53
1605962778.4562,83
1605962778.4576,95
1605962778.4596,68
1605962778.4616,58
1605962778.4636,75
1605962778.4655,83
1605962778.4676,80
1605962778.4696,78
1605962778.4716,61
1605962778.4736,56
1605962778.4758,73
1605962778.4776,78
1605962778.4796,68
1605962778.4815,63
1605962778.4836,68
1605962778.4856,73
1605962778.4862,75
1605962778.4876,53
1605962778.4896,29
1605962778.4916,43
1605962778.4937,53
1605962778.4956,39
1605962778.4976,41
1605962778.4996,61
1605962778.5016,68
1605962778.5036,73
1605962778.5056,78
1605962778.5076,83
1605962778.5097,75
1605962778.5116,56
1605962778.5136,46
1605962778.5142,41
1605962778.5156,-7
1605962778.5176,-217
1605962778.5196,-510
1605962778.5216,-341
1605962778.5236,463
1605962778.5256,854
1605962778.5276,336
1605962778.5296,-24
1605962778.9632,90
1605962778.9641,63
1605962778.9666,-41
1605962778.9693,0
1605962778.9699,24
1605962778.9712,-7
1605962778.9732,0
1605962778.9752,12
1605962778.9771,-7
1605962778.9791,-21
1605962778.9811,-17
1605962778.9832,-14
1605962778.9851,-29
1605962778.9871,-43
1605962778.9891,-51
1605962778.9911,-46
1605962778.9931,-39
1605962778.9951,-53
1605962778.9971,-73
1605962778.9991,-78
1605962778.9997,-75
1605962779.0013,-85
1605962779.0031,-107
1605962779.0051,-119
1605962779.0071,-117
1605962779.0092,-124
1605962779.0112,-124
1605962779.0133,-112
1605962779.0151,-104
1605962779.0172,-95
1605962779.0191,-83
1605962779.0211,-68
1605962779.0232,-36
1605962779.0251,-4
1605962779.0271,24
1605962779.0291,61
1605962779.0298,78
1605962779.0311,83
1605962779.0331,92
1605962779.0351,102
1605962779.0371,117
1605962779.0391,117
1605962779.0411,112
1605962779.0432,114
1605962779.0451,114
1605962779.0471,107
1605962779.0491,92
1605962779.0511,83
1605962779.0531,87
1605962779.0551,85
1605962779.0571,75
1605962779.0591,73
1605962779.0598,70
1605962779.0611,68
1605962779.0631,65
1605962779.0651,63
1605962779.0671,65
1605962779.0691,65
1605962779.0711,68
1605962779.0731,70
1605962779.0751,63
1605962779.0771,63
1605962779.0791,70
1605962779.0811,73
1605962779.0831,73
1605962779.0851,75
1605962779.0871,73
1605962779.0891,68
1605962779.0897,78
1605962779.0911,85
1605962779.0931,70
1605962779.0951,63
1605962779.0973,70
1605962779.5031,78
1605962779.5041,75
1605962779.5065,75
1605962779.5092,78
1605962779.5112,73
1605962779.5132,63
1605962779.5151,51
1605962779.5171,31
1605962779.5191,31
1605962779.5211,31
1605962779.5231,21
1605962779.5237,34
1605962779.5251,43
1605962779.5270,36
1605962779.5291,53
1605962779.5310,63
1605962779.5331,53
1605962779.5350,48
1605962779.5370,48
1605962779.5390,46
1605962779.5411,39
1605962779.5431,-26
1605962779.5450,-268
1605962779.5470,-529
1605962779.5490,-241
1605962779.5510,551
1605962779.5531,776
1605962779.5537,229
1605962779.5550,-36
1605962779.5570,102
1605962779.5590,63
1605962779.5611,-31
1605962779.5630,9
1605962779.5650,17
1605962779.5670,-9
1605962779.5690,7
1605962779.5710,14
1605962779.5731,-4
1605962779.5750,-12
1605962779.5771,-9
1605962779.5790,-9
1605962779.5810,-12
1605962779.5831,-17
1605962779.5837,-29
1605962779.5850,-39
1605962779.5870,-36
1605962779.5891,-43
1605962779.5910,-56
1605962779.5931,-53
1605962779.5950,-56
1605962779.5972,-85
1605962779.5991,-104
1605962779.6011,-97
1605962779.6031,-104
1605962779.6050,-129
1605962779.6070,-122
1605962779.6090,-109
1605962779.6111,-104
1605962779.6131,-80
1605962779.6137,-51
1605962779.6150,-41
1605962779.6170,-26
1605962779.6190,0
1605962779.6210,36
1605962779.6231,63
1605962779.6250,83
1605962779.6270,102
1605962779.6290,107
1605962779.6310,102
1605962779.6331,114
1605962779.6350,131
1605962779.6370,124
1605962779.6390,102
1605962780.0436,100
1605962780.0446,100
1605962780.0470,92
1605962780.0497,87
1605962780.0517,80
1605962780.0536,73
1605962780.0556,75
1605962780.0576,70
1605962780.0596,68
1605962780.0616,65
1605962780.0636,56
1605962780.0655,58
1605962780.0675,61
1605962780.0695,53
1605962780.0715,53
1605962780.0736,73
1605962780.0742,75
1605962780.0755,61
1605962780.0775,68
1605962780.0795,85
1605962780.0815,78
1605962780.0836,63
1605962780.0855,63
1605962780.0875,75
1605962780.0895,85
1605962780.0915,78
1605962780.0935,63
1605962780.0955,78
1605962780.0977,97
1605962780.0996,95
1605962780.1015,85
1605962780.1036,68
1605962780.1042,48
1605962780.1055,43
1605962780.1075,61
1605962780.1095,68
1605962780.1115,61
1605962780.1136,61
1605962780.1155,65
1605962780.1175,68
1605962780.1195,78
1605962780.1215,90
1605962780.1236,90
1605962780.1255,73
1605962780.1275,65
1605962780.1295,90
1605962780.1315,61
1605962780.1335,-134
1605962780.1342,-441
1605962780.1355,-439
1605962780.1375,214
1605962780.1395,793
1605962780.1415,483
1605962780.1436,14
1605962780.1455,78
1605962780.1475,146
1605962780.1495,17
1605962780.1515,7
1605962780.1535,61
1605962780.1555,39
1605962780.1575,34
1605962780.1595,53
1605962780.1615,46
1605962780.1636,26
1605962780.1642,9
1605962780.1655,14
1605962780.1675,24
1605962780.1695,7
1605962780.1715,-9
1605962780.1735,-9
1605962780.1755,-4
1605962780.1775,-4
1605962780.1795,-19
1605962780.6136,-39
1605962780.6145,-51
1605962780.6170,-58
1605962780.6196,-65
1605962780.6203,-90
1605962780.6216,-112
1605962780.6239,-102
1605962780.6257,-92
1605962780.6276,-102
1605962780.6295,-95
1605962780.6315,-73
1605962780.6336,-65
1605962780.6355,-63
1605962780.6376,-34
1605962780.6395,0
1605962780.6415,21
1605962780.6436,48
1605962780.6455,78
1605962780.6475,97
1605962780.6482,102
1605962780.6495,97
1605962780.6515,107
1605962780.6535,112
1605962780.6555,104
1605962780.6575,112
1605962780.6595,122
1605962780.6615,112
1605962780.6635,83
1605962780.6655,78
1605962780.6675,102
1605962780.6695,95
1605962780.6715,65
1605962780.6735,70
1605962780.6755,95
1605962780.6775,95
1605962780.6782,78
1605962780.6795,78
1605962780.6815,75
1605962780.6835,63
1605962780.6855,65
1605962780.6875,68
1605962780.6895,63
1605962780.6915,73
1605962780.6935,90
1605962780.6955,92
1605962780.6975,85
1605962780.6995,75
1605962780.7015,75
1605962780.7035,75
1605962780.7055,78
1605962780.7075,83
1605962780.7082,78
1605962780.7095,65
1605962780.7115,78
1605962780.7135,95
1605962780.7155,78
1605962780.7175,53
1605962780.7197,48
1605962780.7216,53
1605962780.7236,53
1605962780.7255,51
1605962780.7275,56
1605962780.7295,70
1605962780.7315,68
1605962780.7335,56
1605962780.7355,75
1605962780.7375,85
1605962780.7382,70
1605962780.7395,73
1605962780.7415,83
1605962780.7435,70
1605962780.7455,2
1605962780.7475,-224
1605962781.2137,-493
1605962781.2146,-273
1605962781.2170,471
1605962781.2197,749
1605962781.2217,263
1605962781.2237,-12
1605962781.2258,102
1605962781.2276,75
1605962781.2296,-4
1605962781.2316,31
1605962781.2323,46
1605962781.2336,24
1605962781.2356,31
1605962781.2376,34
1605962781.2396,17
1605962781.2416,12
1605962781.2437,21
1605962781.2456,24
1605962781.2476,17
1605962781.2496,7
1605962781.2516,-2
1605962781.2536,0
1605962781.2556,4
1605962781.2576,-4
1605962781.2596,-24
1605962781.2616,-31
1605962781.2623,-34
1605962781.2636,-53
1605962781.2656,-73
1605962781.2676,-70
1605962781.2697,-61
1605962781.2716,-73
1605962781.2736,-85
1605962781.2756,-75
1605962781.2776,-53
1605962781.2798,-53
1605962781.2817,-56
1605962781.2836,-24
1605962781.2856,9
1605962781.2876,36
1605962781.2896,61
1605962781.2916,80
1605962781.2923,95
1605962781.2936,112
1605962781.2956,119
1605962781.2976,109
1605962781.2996,119
1605962781.3016,131
1605962781.3036,117
1605962781.3056,109
1605962781.3076,112
1605962781.3096,95
1605962781.3117,90
1605962781.3136,97
1605962781.3156,75
1605962781.3176,58
1605962781.3196,70
1605962781.3216,80
1605962781.3223,68
1605962781.3236,61
1605962781.3256,61
1605962781.3276,58
1605962781.3296,58
1605962781.3316,58
1605962781.3336,51
1605962781.3356,56
1605962781.3376,65
1605962781.3396,65
1605962781.3416,61
1605962781.3436,53
1605962781.3456,63
1605962781.3476,68
1605962781.3496,58
1605962781.7533,61
1605962781.7541,68
1605962781.7565,65
1605962781.7592,58
1605962781.7611,56
1605962781.7631,65
1605962781.7651,73
1605962781.7671,73
1605962781.7691,63
1605962781.7711,43
1605962781.7731,31
1605962781.7751,21
1605962781.7771,17
1605962781.7793,34
1605962781.7812,53
1605962781.7818,63
1605962781.7831,61
1605962781.7850,43
1605962781.7871,39
1605962781.7891,56
1605962781.7911,63
1605962781.7931,46
1605962781.7951,43
1605962781.7971,21
1605962781.7990,-190
1605962781.8011,-493
1605962781.8031,-324
1605962781.8051,405
1605962781.8071,734
1605962781.8090,268
1605962781.8111,-31
1605962781.8117,104
1605962781.8131,102
1605962781.8151,4
1605962781.8171,36
1605962781.8191,51
1605962781.8210,19
1605962781.8231,26
1605962781.8251,36
1605962781.8271,21
1605962781.8291,12
1605962781.8311,17
1605962781.8331,14
1605962781.8351,4
1605962781.8371,2
1605962781.8391,-4
1605962781.8411,-12
1605962781.8417,-14
1605962781.8431,-19
1605962781.8450,-31
1605962781.8471,-46
1605962781.8491,-51
1605962781.8511,-48
1605962781.8531,-68
1605962781.8551,-85
1605962781.8571,-87
1605962781.8591,-95
1605962781.8611,-95
1605962781.8631,-83
1605962781.8651,-73
1605962781.8671,-58
1605962781.8691,-36
1605962781.8710,-19
1605962781.8717,-9
1605962781.8733,17
1605962781.8751,43
1605962781.8770,58
1605962781.8790,85
1605962781.8810,119
1605962781.8831,124
1605962781.8851,109
1605962781.8871,109
1605962781.8891,131
1605962782.3232,141
1605962782.3241,114
1605962782.3265,100
1605962782.3292,102
1605962782.3312,92
1605962782.3319,87
1605962782.3333,95
1605962782.3351,95
1605962782.3371,75
1605962782.3391,58
1605962782.3411,61
1605962782.3432,61
1605962782.3451,53
1605962782.3471,65
1605962782.3491,70
1605962782.3511,53
1605962782.3532,48
1605962782.3551,61
1605962782.3573,58
1605962782.3592,43
1605962782.3611,51
1605962782.3618,65
1605962782.3632,63
1605962782.3651,56
1605962782.3671,53
1605962782.3691,61
1605962782.3711,65
1605962782.3731,53
1605962782.3751,51
1605962782.3771,68
1605962782.3791,73
1605962782.3811,56
1605962782.3831,51
1605962782.3851,70
1605962782.3871,70
1605962782.3891,41
1605962782.3911,21
1605962782.3918,29
1605962782.3931,39
1605962782.3951,36
1605962782.3971,36
1605962782.3991,56
1605962782.4013,63
1605962782.4032,46
1605962782.4051,43
1605962782.4071,56
1605962782.4091,68
1605962782.4111,63
1605962782.4131,51
1605962782.4151,46
1605962782.4171,-41
1605962782.4191,-319
1605962782.4198,-527
1605962782.4211,-107
1605962782.4231,678
1605962782.4251,734
1605962782.4271,168
1605962782.4291,7
1605962782.4311,117
1605962782.4331,34
1605962782.4351,-12
1605962782.4371,43
1605962782.4391,36
1605962782.4411,7
1605962782.4431,12
1605962782.4451,19
1605962782.4471,9
1605962782.4491,4
1605962782.4497,12
1605962782.4511,7
1605962782.4531,-12
1605962782.4550,-9
1605962782.4571,7
1605962782.8636,-7
1605962782.8645,-34
1605962782.8670,-39
1605962782.8697,-36
1605962782.8716,-39
1605962782.8737,-56
1605962782.8756,-83
1605962782.8776,-92
1605962782.8796,-90
1605962782.8802,-104
1605962782.8815,-107
1605962782.8836,-90
1605962782.8855,-92
1605962782.8875,-95
1605962782.8895,-80
1605962782.8915,-61
1605962782.8922,-36
1605962782.8945,-4
1605962782.8965,24
1605962782.8985,43
1605962782.9008,68
1605962782.9025,90
1605962782.9045,104
1605962782.9065,117
1605962782.9071,126
1605962782.9085,136
1605962782.9105,129
1605962782.9125,117
1605962782.9145,117
1605962782.9165,114
1605962782.9185,100
1605962782.9205,85
1605962782.9225,78
1605962782.9245,73
1605962782.9265,70
1605962782.9285,70
1605962782.9305,65
1605962782.9325,58
1605962782.9345,63
1605962782.9365,56
1605962782.9371,39
1605962782.9385,53
1605962782.9405,70
1605962782.9425,61
1605962782.9445,53
1605962782.9465,56
1605962782.9485,58
1605962782.9505,58
1605962782.9525,56
1605962782.9545,56
1605962782.9565,58
1605962782.9585,63
1605962782.9605,61
1605962782.9625,58
1605962782.9645,61
1605962782.9665,68
1605962782.9671,75
1605962782.9685,80
1605962782.9705,68
1605962782.9725,36
1605962782.9745,19
1605962782.9765,29
1605962782.9785,36
1605962782.9805,41
1605962782.9825,56
1605962782.9845,61
1605962782.9865,48
1605962782.9885,46
1605962782.9905,56
1605962782.9925,63
1605962782.9945,68
1605962782.9967,56
1605962782.9972,46
1605962783.4336,41
1605962783.4345,-58
1605962783.4369,-349
1605962783.4386,-517
1605962783.4406,-19
1605962783.4426,720
1605962783.4445,644
1605962783.4466,85
1605962783.4485,2
1605962783.4505,109
1605962783.4525,12
1605962783.4545,-26
1605962783.4565,29
1605962783.4585,19
1605962783.4605,-4
1605962783.4611,7
1605962783.4625,17
1605962783.4647,-2
1605962783.4665,-17
1605962783.4685,-2
1605962783.4705,14
1605962783.4725,-4
1605962783.4745,-36
1605962783.4765,-36
1605962783.4785,-31
1605962783.4805,-43
1605962783.4825,-53
1605962783.4845,-56
1605962783.4865,-61
1605962783.4885,-80
1605962783.4905,-95
1605962783.4911,-97
1605962783.4925,-95
1605962783.4945,-100
1605962783.4965,-102
1605962783.4985,-95
1605962783.5005,-83
1605962783.5025,-80
1605962783.5045,-75
1605962783.5065,-53
1605962783.5085,-26
1605962783.5105,-7
1605962783.5125,21
1605962783.5145,65
1605962783.5165,87
1605962783.5185,92
1605962783.5205,104
1605962783.5211,119
1605962783.5225,124
1605962783.5246,124
1605962783.5265,114
1605962783.5285,109
1605962783.5305,109
1605962783.5325,114
1605962783.5345,114
1605962783.5365,95
1605962783.5385,85
1605962783.5405,85
1605962783.5425,70
1605962783.5445,68
1605962783.5465,75
1605962783.5485,75
1605962783.5505,68
1605962783.5511,63
1605962783.5525,63
1605962783.5545,68
1605962783.5565,73
1605962783.5585,70
1605962783.5605,65
1605962783.5625,70
1605962783.5645,68
1605962783.5665,58
1605962783.5685,56
1605962783.9742,63
1605962783.9752,68
1605962783.9777,73
1605962783.9788,68
1605962783.9803,58
1605962783.9823,56
1605962783.9842,61
1605962783.9863,58
1605962783.9882,56
1605962783.9902,68
1605962783.9922,70
1605962783.9942,34
1605962783.9962,7
1605962783.9982,21
1605962784.0003,31
1605962784.0023,21
1605962784.0042,21
1605962784.0062,39
1605962784.0082,46
1605962784.0088,43
1605962784.0102,53
1605962784.0122,63
1605962784.0142,48
1605962784.0162,41
1605962784.0182,46
1605962784.0202,51
1605962784.0222,-7
1605962784.0244,-239
1605962784.0262,-510
1605962784.0282,-285
1605962784.0302,463
1605962784.0322,739
1605962784.0342,249
1605962784.0362,-19
1605962784.0382,109
1605962784.0388,75
1605962784.0402,-24
1605962784.0422,21
1605962784.0442,46
1605962784.0463,12
1605962784.0482,17
1605962784.0502,39
1605962784.0522,31
1605962784.0542,19
1605962784.0562,12
1605962784.0582,9
1605962784.0602,9
1605962784.0622,2
1605962784.0642,-7
1605962784.0662,-14
1605962784.0682,-19
1605962784.0688,-17
1605962784.0702,-26
1605962784.0723,-34
1605962784.0742,-39
1605962784.0762,-56
1605962784.0782,-61
1605962784.0802,-70
1605962784.0822,-95
1605962784.0842,-90
1605962784.0862,-70
1605962784.0882,-70
1605962784.0902,-65
1605962784.0922,-48
1605962784.0942,-31
1605962784.0962,-12
1605962784.0982,7
1605962784.0988,34
1605962784.1002,56
1605962784.1022,68
1605962784.1042,90
1605962784.1062,117
1605962784.1082,129
1605962784.5734,119
1605962784.5743,117
1605962784.5767,131
1605962784.5794,124
1605962784.5814,104
1605962784.5837,95
1605962784.5854,87
1605962784.5874,80
1605962784.5880,75
1605962784.5894,70
1605962784.5914,65
1605962784.5934,70
1605962784.5953,68
1605962784.5973,61
1605962784.5993,56
1605962784.6014,58
1605962784.6034,63
1605962784.6053,61
1605962784.6073,53
1605962784.6093,56
1605962784.6113,63
1605962784.6134,61
1605962784.6153,53
1605962784.6173,51
1605962784.6179,53
1605962784.6193,58
1605962784.6213,56
1605962784.6233,48
1605962784.6253,48
1605962784.6273,61
1605962784.6293,65
1605962784.6313,56
1605962784.6333,53
1605962784.6353,61
1605962784.6373,61
1605962784.6393,53
1605962784.6413,56
1605962784.6433,73
1605962784.6453,75
1605962784.6473,56
1605962784.6479,36
1605962784.6493,21
1605962784.6513,21
1605962784.6533,36
1605962784.6553,41
1605962784.6573,34
1605962784.6593,41
1605962784.6613,58
1605962784.6633,70
1605962784.6653,73
1605962784.6673,63
1605962784.6693,61
1605962784.6713,63
1605962784.6733,51
1605962784.6753,46
1605962784.6773,9
1605962784.6781,-183
1605962784.6793,-461
1605962784.6813,-341
1605962784.6832,346
1605962784.6853,732
1605962784.6873,317
1605962784.6893,-21
1605962784.6913,92
1605962784.6933,102
1605962784.6953,0
1605962784.6973,31
1605962784.6993,61
1605962784.7013,17
1605962784.7033,17
1605962784.7053,41
1605962784.7073,29
1605962784.7079,17
1605962785.1136,26
1605962785.1145,19
1605962785.1169,0
1605962785.1196,-4
1605962785.1216,2
1605962785.1236,0
1605962785.1255,-17
1605962785.1275,-21
1605962785.1295,-14
1605962785.1315,-26
1605962785.1336,-56
1605962785.1355,-63
1605962785.1375,-61
1605962785.1395,-73
1605962785.1415,-83
1605962785.1421,-83
1605962785.1435,-87
1605962785.1455,-85
1605962785.1475,-73
1605962785.1495,-53
1605962785.1515,-39
1605962785.1536,-36
1605962785.1555,-12
1605962785.1575,21
1605962785.1595,43
1605962785.1615,65
1605962785.1635,85
1605962785.1655,100
1605962785.1674,107
1605962785.1695,104
1605962785.1715,109
1605962785.1721,117
1605962785.1735,114
1605962785.1755,102
1605962785.1776,95
1605962785.1795,100
1605962785.1815,100
1605962785.1835,90
1605962785.1855,80
1605962785.1875,78
1605962785.1895,73
1605962785.1915,63
1605962785.1935,68
1605962785.1955,85
1605962785.1975,83
1605962785.1995,68
1605962785.2015,65
1605962785.2021,65
1605962785.2035,58
1605962785.2055,48
1605962785.2075,51
1605962785.2095,68
1605962785.2115,73
1605962785.2135,61
1605962785.2155,61
1605962785.2174,73
1605962785.2194,65
1605962785.2215,58
1605962785.2235,68
1605962785.2255,65
1605962785.2275,53
1605962785.2295,58
1605962785.2315,58
1605962785.2321,53
1605962785.2335,58
1605962785.2354,51
1605962785.2375,53
1605962785.2395,63
1605962785.2415,51
1605962785.2435,51
1605962785.2455,61
1605962785.2475,56
1605962785.2495,48
1605962785.6833,36
1605962785.6841,24
1605962785.6864,31
1605962785.6876,36
1605962785.6891,39
1605962785.6911,51
1605962785.6932,53
1605962785.6952,36
1605962785.6972,36
1605962785.6991,61
1605962785.7011,63
1605962785.7032,41
1605962785.7053,36
1605962785.7072,46
1605962785.7091,19
1605962785.7111,-163
1605962785.7131,-454
1605962785.7151,-395
1605962785.7171,268
1605962785.7177,727
1605962785.7191,354
1605962785.7211,-36
1605962785.7231,65
1605962785.7251,104
1605962785.7271,-2
1605962785.7291,9
1605962785.7311,34
1605962785.7331,4
1605962785.7350,21
1605962785.7370,39
1605962785.7390,14
1605962785.7410,7
1605962785.7431,17
1605962785.7450,9
1605962785.7471,2
1605962785.7477,4
1605962785.7490,0
1605962785.7510,-9
1605962785.7531,-12
1605962785.7551,-21
1605962785.7570,-39
1605962785.7590,-39
1605962785.7610,-34
1605962785.7631,-46
1605962785.7652,-61
1605962785.7671,-70
1605962785.7690,-78
1605962785.7711,-75
1605962785.7731,-65
1605962785.7750,-70
1605962785.7757,-70
1605962785.7770,-51
1605962785.7790,-29
1605962785.7810,-17
1605962785.7831,-7
1605962785.7850,7
1605962785.7870,29
1605962785.7890,48
1605962785.7910,65
1605962785.7931,87
1605962785.7950,95
1605962785.7971,87
1605962785.7991,90
1605962785.8012,104
1605962785.8031,104
1605962785.8050,90
1605962785.8056,83
1605962785.8070,83
1605962785.8090,85
1605962785.8110,75
1605962785.8131,61
1605962785.8150,65
1605962785.8170,73
1605962786.2230,61
1605962786.2240,51
1605962786.2264,51
1605962786.2281,58
1605962786.2300,56
1605962786.2320,43
1605962786.2341,43
1605962786.2360,61
1605962786.2380,58
1605962786.2386,41
1605962786.2400,41
1605962786.2420,48
1605962786.2441,46
1605962786.2460,46
1605962786.2480,56
1605962786.2500,43
1605962786.2520,31
1605962786.2541,53
1605962786.2560,61
1605962786.2580,41
1605962786.2600,43
1605962786.2620,61
1605962786.2640,51
1605962786.2660,41
1605962786.2680,51
1605962786.2686,53
1605962786.2700,51
1605962786.2720,56
1605962786.2740,53
1605962786.2759,58
1605962786.2779,58
1605962786.2799,56
1605962786.2819,68
1605962786.2840,53
1605962786.2859,19
1605962786.2879,21
1605962786.2899,36
1605962786.2919,34
1605962786.2940,39
1605962786.2960,48
1605962786.2980,53
1605962786.2988,63
1605962786.3000,75
1605962786.3019,65
1605962786.3039,51
1605962786.3059,58
1605962786.3079,56
1605962786.3099,39
1605962786.3119,31
1605962786.3140,-75
1605962786.3159,-368
1605962786.3179,-498
1605962786.3200,4
1605962786.3219,664
1605962786.3240,549
1605962786.3259,56
1605962786.3279,12
1605962786.3286,100
1605962786.3299,14
1605962786.3319,0
1605962786.3341,48
1605962786.3359,21
1605962786.3379,-4
1605962786.3399,14
1605962786.3419,24
1605962786.3440,17
1605962786.3459,9
1605962786.3479,-2
1605962786.3499,-7
1605962786.3519,2
1605962786.3540,0
1605962786.3560,-9
1605962786.3579,-19
1605962786.7932,-24
1605962786.7941,-26
1605962786.7966,-29
1605962786.7992,-39
1605962786.8012,-53
1605962786.8032,-80
1605962786.8052,-97
1605962786.8072,-85
1605962786.8092,-78
1605962786.8112,-92
1605962786.8132,-87
1605962786.8152,-70
1605962786.8172,-73
1605962786.8192,-70
1605962786.8198,-48
1605962786.8212,-24
1605962786.8232,-4
1605962786.8253,17
1605962786.8272,36
1605962786.8294,53
1605962786.8312,61
1605962786.8332,68
1605962786.8351,87
1605962786.8371,100
1605962786.8391,92
1605962786.8411,80
1605962786.8432,83
1605962786.8451,83
1605962786.8471,73
1605962786.8491,68
1605962786.8498,70
1605962786.8511,63
1605962786.8532,58
1605962786.8551,53
1605962786.8571,51
1605962786.8591,56
1605962786.8612,56
1605962786.8632,51
1605962786.8651,43
1605962786.8671,41
1605962786.8691,43
1605962786.8711,46
1605962786.8732,48
1605962786.8751,48
1605962786.8771,46
1605962786.8791,51
1605962786.8797,46
1605962786.8811,39
1605962786.8832,46
1605962786.8851,53
1605962786.8871,53
1605962786.8891,56
1605962786.8911,58
1605962786.8932,61
1605962786.8951,53
1605962786.8971,48
1605962786.8991,56
1605962786.9011,51
1605962786.9032,43
1605962786.9051,53
1605962786.9071,58
1605962786.9091,53
1605962786.9097,48
1605962786.9111,51
1605962786.9132,53
1605962786.9151,56
1605962786.9171,63
1605962786.9191,65
1605962786.9211,46
1605962786.9231,19
1605962786.9253,17
1605962786.9272,34
1605962786.9291,36
1605962787.3335,31
1605962787.3344,41
1605962787.3368,51
1605962787.3395,56
1605962787.3402,56
1605962787.3415,68
1605962787.3436,68
1605962787.3455,29
1605962787.3476,19
1605962787.3495,46
1605962787.3515,34
1605962787.3535,-139
1605962787.3555,-446
1605962787.3575,-429
1605962787.3595,227
1605962787.3615,747
1605962787.3635,422
1605962787.3654,2
1605962787.3675,53
1605962787.3694,83
1605962787.3700,-12
1605962787.3714,12
1605962787.3735,46
1605962787.3756,9
1605962787.3774,2
1605962787.3794,24
1605962787.3814,19
1605962787.3835,7
1605962787.3854,2
1605962787.3874,-7
1605962787.3894,-17
1605962787.3915,-9
1605962787.3935,0
1605962787.3955,-7
1605962787.3975,-17
1605962787.3995,-29
1605962787.4000,-53
1605962787.4015,-70
1605962787.4028,-68
1605962787.4040,-63
1605962787.4054,-73
1605962787.4075,-92
1605962787.4095,-97
1605962787.4115,-90
1605962787.4135,-87
1605962787.4154,-87
1605962787.4174,-87
1605962787.4194,-73
1605962787.4215,-56
1605962787.4234,-41
1605962787.4240,-19
1605962787.4254,-7
1605962787.4274,2
1605962787.4294,21
1605962787.4314,41
1605962787.4334,63
1605962787.4354,85
1605962787.4374,87
1605962787.4394,87
1605962787.4415,102
1605962787.4435,104
1605962787.4454,90
1605962787.4474,75
1605962787.4494,75
1605962787.4514,73
1605962787.4534,73
1605962787.4540,73
1605962787.4554,63
1605962787.4574,56
1605962787.4594,53
1605962787.4614,53
1605962787.4634,63
1605962787.4654,63
1605962787.9636,53
1605962787.9647,58
1605962787.9671,68
1605962787.9698,58
1605962787.9718,48
1605962787.9738,56
1605962787.9759,68
1605962787.9767,58
1605962787.9788,48
1605962787.9808,56
1605962787.9828,61
1605962787.9848,61
1605962787.9868,63
1605962787.9888,65
1605962787.9908,61
1605962787.9929,58
1605962787.9948,65
1605962787.9968,63
1605962787.9988,48
1605962788.0009,48
1605962788.0028,61
1605962788.0047,63
1605962788.0067,61
1605962788.0073,61
1605962788.0088,65
1605962788.0107,73
1605962788.0130,70
1605962788.0148,51
1605962788.0167,17
1605962788.0187,12
1605962788.0207,34
1605962788.0228,36
1605962788.0247,29
1605962788.0267,39
1605962788.0287,56
1605962788.0307,63
1605962788.0328,56
1605962788.0347,56
1605962788.0367,61
1605962788.0450,56
1605962788.0467,53
1605962788.0487,53
1605962788.0508,53
1605962788.0527,-9
1605962788.0547,-263
1605962788.0567,-527
1605962788.0587,-236
1605962788.0607,563
1605962788.0627,803
1605962788.0647,268
1605962788.0667,-2
1605962788.0687,102
1605962788.0707,43
1605962788.0727,-36
1605962788.0733,14
1605962788.0746,29
1605962788.0767,0
1605962788.0787,7
1605962788.0807,17
1605962788.0827,2
1605962788.0847,-4
1605962788.0867,-7
1605962788.0887,-9
1605962788.0907,2
1605962788.0927,-4
1605962788.0947,-29
1605962788.0967,-29
1605962788.0987,-19
1605962788.1007,-31
1605962788.1027,-58
1605962788.1033,-63
1605962788.1047,-61
1605962788.1067,-65
1605962788.5030,-78
1605962788.5039,-100
1605962788.5059,-117
1605962788.5078,-102
1605962788.5101,-90
1605962788.5119,-100
1605962788.5138,-100
1605962788.5158,-80
1605962788.5178,-61
1605962788.5198,-46
1605962788.5218,-26
1605962788.5239,0
1605962788.5245,12
1605962788.5258,24
1605962788.5278,39
1605962788.5298,51
1605962788.5318,70
1605962788.5338,95
1605962788.5358,104
1605962788.5378,100
1605962788.5398,92
1605962788.5418,80
1605962788.5438,68
1605962788.5458,63
1605962788.5478,68
1605962788.5498,70
1605962788.5518,58
1605962788.5538,36
1605962788.5544,41
1605962788.5558,65
1605962788.5577,70
1605962788.5598,58
1605962788.5618,51
1605962788.5638,43
1605962788.5658,46
1605962788.5677,48
1605962788.5698,48
1605962788.5717,51
1605962788.5738,56
1605962788.5758,65
1605962788.5778,80
1605962788.5798,70
1605962788.5818,53
1605962788.5838,61
1605962788.5844,73
1605962788.5858,68
1605962788.5878,61
1605962788.5898,61
1605962788.5918,58
1605962788.5938,53
1605962788.5958,58
1605962788.5978,58
1605962788.5998,63
1605962788.6018,75
1605962788.6038,78
1605962788.6059,73
1605962788.6078,53
1605962788.6097,36
1605962788.6118,36
1605962788.6138,41
1605962788.6144,43
1605962788.6158,51
1605962788.6178,56
1605962788.6197,68
1605962788.6217,75
1605962788.6238,70
1605962788.6258,63
1605962788.6278,61
1605962788.6298,58
1605962788.6317,51
1605962788.6338,53
1605962788.6358,9
1605962788.6378,-209
1605962789.0432,-483
1605962789.0441,-285
1605962789.0465,458
1605962789.0482,761
1605962789.0502,268
1605962789.0522,-29
1605962789.0542,95
1605962789.0562,75
1605962789.0582,-14
1605962789.0603,21
1605962789.0622,31
1605962789.0642,-9
1605962789.0662,-4
1605962789.0682,17
1605962789.0702,-4
1605962789.0722,-29
1605962789.0742,-19
1605962789.0749,-12
1605962789.0772,-21
1605962789.0792,-21
1605962789.0812,-9
1605962789.0832,-14
1605962789.0851,-39
1605962789.0871,-48
1605962789.0891,-48
1605962789.0912,-61
1605962789.0932,-65
1605962789.0951,-65
1605962789.0971,-83
1605962789.0991,-100
1605962789.1011,-107
1605962789.1032,-107
1605962789.1051,-107
1605962789.1059,-100
1605962789.1072,-73
1605962789.1091,-56
1605962789.1111,-63
1605962789.1132,-68
1605962789.1151,-39
1605962789.1171,0
1605962789.1191,21
1605962789.1211,39
1605962789.1232,56
1605962789.1251,68
1605962789.1271,87
1605962789.1291,102
1605962789.1311,104
1605962789.1332,104
1605962789.1351,97
1605962789.1357,85
1605962789.1371,83
1605962789.1391,80
1605962789.1411,80
1605962789.1432,78
1605962789.1451,70
1605962789.1471,63
1605962789.1491,61
1605962789.1511,63
1605962789.1532,63
1605962789.1551,58
1605962789.1571,53
1605962789.1591,48
1605962789.1597,53
1605962789.1611,65
1605962789.1617,70
1605962789.1631,65
1605962789.1651,51
1605962789.1671,56
1605962789.1691,68
1605962789.1711,56
1605962789.1732,51
1605962789.1751,63
1605962789.1771,63
1605962789.6132,58
1605962789.6140,63
1605962789.6161,63
1605962789.6179,61
1605962789.6199,68
1605962789.6219,78
1605962789.6239,65
1605962789.6259,51
1605962789.6279,43
1605962789.6299,29
1605962789.6320,26
1605962789.6342,29
1605962789.6359,14
1605962789.6379,17
1605962789.6400,39
1605962789.6405,43
1605962789.6420,48
1605962789.6439,61
1605962789.6459,65
1605962789.6479,61
1605962789.6499,46
1605962789.6519,41
1605962789.6539,51
1605962789.6559,53
1605962789.6579,-12
1605962789.6599,-253
1605962789.6619,-515
1605962789.6639,-261
1605962789.6659,488
1605962789.6680,710
1605962789.6699,202
1605962789.6705,-34
1605962789.6719,102
1605962789.6739,70
1605962789.6759,-2
1605962789.6779,39
1605962789.6799,41
1605962789.6819,12
1605962789.6839,21
1605962789.6859,29
1605962789.6879,24
1605962789.6899,26
1605962789.6919,17
1605962789.6939,-7
1605962789.6959,-4
1605962789.6979,4
1605962789.6999,-2
1605962789.7005,-9
1605962789.7019,-14
1605962789.7039,-17
1605962789.7059,-19
1605962789.7079,-29
1605962789.7099,-51
1605962789.7119,-58
1605962789.7139,-53
1605962789.7159,-68
1605962789.7179,-90
1605962789.7199,-95
1605962789.7219,-85
1605962789.7239,-73
1605962789.7259,-61
1605962789.7279,-58
1605962789.7300,-48
1605962789.7306,-29
1605962789.7319,-7
1605962789.7339,29
1605962789.7359,58
1605962789.7379,63
1605962789.7399,70
1605962789.7419,92
1605962789.7439,109
1605962789.7459,114
1605962789.7479,102
1605962790.1534,92
1605962790.1543,92
1605962790.1567,100
1605962790.1584,97
1605962790.1604,75
1605962790.1611,68
1605962790.1625,78
1605962790.1644,70
1605962790.1665,48
1605962790.1684,39
1605962790.1704,56
1605962790.1725,63
1605962790.1744,61
1605962790.1764,51
1605962790.1784,34
1605962790.1804,29
1605962790.1824,39
1605962790.1843,41
1605962790.1863,41
1605962790.1883,48
1605962790.1904,53
1605962790.1910,63
1605962790.1924,61
1605962790.1943,56
1605962790.1963,61
1605962790.1983,63
1605962790.2003,56
1605962790.2024,56
1605962790.2043,61
1605962790.2063,65
1605962790.2083,63
1605962790.2103,58
1605962790.2124,63
1605962790.2143,75
1605962790.2163,75
1605962790.2183,48
1605962790.2204,29
1605962790.2209,41
1605962790.2224,56
1605962790.2243,48
1605962790.2265,39
1605962790.2284,51
1605962790.2303,61
1605962790.2324,73
1605962790.2343,83
1605962790.2363,68
1605962790.2383,53
1605962790.2403,61
1605962790.2424,63
1605962790.2443,58
1605962790.2463,-19
1605962790.2483,-278
1605962790.2503,-520
1605962790.2509,-209
1605962790.2523,537
1605962790.2543,695
1605962790.2563,185
1605962790.2583,-14
1605962790.2603,114
1605962790.2624,65
1605962790.2643,4
1605962790.2663,58
1605962790.2683,53
1605962790.2703,12
1605962790.2723,26
1605962790.2743,43
1605962790.2763,14
1605962790.2783,9
1605962790.2803,26
1605962790.2809,7
1605962790.2823,-9
1605962790.2843,0
1605962790.2863,0
1605962790.6929,-7
1605962790.6936,-14
1605962790.6960,-24
1605962790.6987,-31
1605962790.7007,-41
1605962790.7027,-56
1605962790.7047,-68
1605962790.7067,-80
1605962790.7087,-95
1605962790.7107,-100
1605962790.7113,-87
1605962790.7127,-87
1605962790.7146,-85
1605962790.7166,-61
1605962790.7187,-48
1605962790.7206,-48
1605962790.7226,-31
1605962790.7246,0
1605962790.7268,29
1605962790.7287,48
1605962790.7306,73
1605962790.7327,92
1605962790.7346,92
1605962790.7366,100
1605962790.7386,114
1605962790.7406,109
1605962790.7412,104
1605962790.7427,114
1605962790.7446,114
1605962790.7466,104
1605962790.7486,102
1605962790.7506,97
1605962790.7527,87
1605962790.7546,85
1605962790.7566,75
1605962790.7586,63
1605962790.7606,65
1605962790.7628,65
1605962790.7646,56
1605962790.7666,56
1605962790.7686,56
1605962790.7706,48
1605962790.7713,48
1605962790.7727,63
1605962790.7746,75
1605962790.7766,68
1605962790.7786,58
1605962790.7806,61
1605962790.7826,61
1605962790.7846,61
1605962790.7866,58
1605962790.7886,53
1605962790.7906,58
1605962790.7927,56
1605962790.7946,53
1605962790.7966,68
1605962790.7986,80
1605962790.8006,68
1605962790.8012,56
1605962790.8027,58
1605962790.8046,58
1605962790.8066,48
1605962790.8086,56
1605962790.8106,68
1605962790.8127,65
1605962790.8146,48
1605962790.8166,21
1605962790.8186,14
1605962790.8206,29
1605962790.8228,43
1605962790.8247,53
1605962790.8266,56
1605962790.8286,56
1605962791.2933,61
1605962791.2945,58
1605962791.2969,58
1605962791.2996,51
1605962791.3015,39
1605962791.3036,43
1605962791.3056,46
1605962791.3076,4
1605962791.3096,-200
1605962791.3116,-495
1605962791.3136,-358
1605962791.3156,373
1605962791.3176,773
1605962791.3196,341
1605962791.3215,-19
1605962791.3236,75
1605962791.3255,73
1605962791.3261,-14
1605962791.3275,31
1605962791.3295,51
1605962791.3315,7
1605962791.3335,12
1605962791.3355,34
1605962791.3375,19
1605962791.3395,2
1605962791.3415,4
1605962791.3435,7
1605962791.3455,2
1605962791.3475,-7
1605962791.3495,-21
1605962791.3515,-24
1605962791.3535,-14
1605962791.3555,-21
1605962791.3561,-41
1605962791.3575,-58
1605962791.3594,-58
1605962791.3615,-56
1605962791.3635,-73
1605962791.3655,-92
1605962791.3674,-100
1605962791.3694,-100
1605962791.3714,-92
1605962791.3735,-85
1605962791.3756,-78
1605962791.3775,-70
1605962791.3794,-68
1605962791.3814,-51
1605962791.3837,-21
1605962791.3855,9
1605962791.3861,36
1605962791.3874,61
1605962791.3895,83
1605962791.3914,90
1605962791.3935,97
1605962791.3954,119
1605962791.3974,122
1605962791.3994,104
1605962791.4015,102
1605962791.4035,100
1605962791.4054,95
1605962791.4075,87
1605962791.4094,83
1605962791.4115,85
1605962791.4135,87
1605962791.4155,78
1605962791.4160,61
1605962791.4174,48
1605962791.4194,56
1605962791.4214,68
1605962791.4235,68
1605962791.4255,56
1605962791.4274,48
1605962791.4294,43
1605962791.8635,41
1605962791.8646,51
1605962791.8670,58
1605962791.8697,51
1605962791.8718,58
1605962791.8736,75
1605962791.8756,65
1605962791.8776,48
1605962791.8796,48
1605962791.8816,53
1605962791.8836,51
1605962791.8856,46
1605962791.8876,48
1605962791.8896,51
1605962791.8916,51
1605962791.8936,58
1605962791.8956,56
1605962791.8976,51
1605962791.8996,56
1605962791.9016,53
1605962791.9022,51
1605962791.9035,43
1605962791.9055,19
1605962791.9075,14
1605962791.9095,36
1605962791.9118,43
1605962791.9136,34
1605962791.9155,39
1605962791.9176,56
1605962791.9195,58
1605962791.9215,58
1605962791.9235,58
1605962791.9255,48
1605962791.9275,39
1605962791.9295,43
1605962791.9315,63
1605962791.9321,31
1605962791.9335,-173
1605962791.9355,-483
1605962791.9375,-397
1605962791.9395,329
1605962791.9415,810
1605962791.9436,402
1605962791.9455,-7
1605962791.9475,65
1605962791.9495,78
1605962791.9515,-26
1605962791.9536,0
1605962791.9555,39
1605962791.9575,7
1605962791.9595,-2
1605962791.9616,9
1605962791.9621,7
1605962791.9635,2
1605962791.9655,0
1605962791.9676,-9
1605962791.9695,-12
1605962791.9715,-7
1605962791.9736,-9
1605962791.9755,-14
1605962791.9775,-24
1605962791.9795,-36
1605962791.9815,-46
1605962791.9835,-58
1605962791.9855,-61
1605962791.9875,-65
1605962791.9895,-83
1605962791.9915,-95
1605962791.9921,-97
1605962791.9935,-95
1605962791.9956,-92
1605962791.9976,-97
1605962791.9995,-92
1605962792.4034,-78
1605962792.4044,-63
1605962792.4068,-41
1605962792.4087,-14
1605962792.4105,12
1605962792.4125,43
1605962792.4144,70
1605962792.4164,85
1605962792.4184,92
1605962792.4204,104
1605962792.4225,109
1605962792.4230,107
1605962792.4244,114
1605962792.4264,114
1605962792.4284,102
1605962792.4304,102
1605962792.4324,104
1605962792.4344,97
1605962792.4364,92
1605962792.4383,90
1605962792.4404,73
1605962792.4424,46
1605962792.4443,51
1605962792.4463,68
1605962792.4483,56
1605962792.4504,46
1605962792.4524,58
1605962792.4530,65
1605962792.4544,58
1605962792.4564,46
1605962792.4583,48
1605962792.4604,53
1605962792.4624,48
1605962792.4643,56
1605962792.4663,68
1605962792.4683,65
1605962792.4703,61
1605962792.4724,58
1605962792.4743,58
1605962792.4763,58
1605962792.4783,56
1605962792.4803,51
1605962792.4824,46
1605962792.4829,46
1605962792.4843,53
1605962792.4863,56
1605962792.4883,53
1605962792.4904,53
1605962792.4924,63
1605962792.4943,58
1605962792.4964,53
1605962792.4983,63
1605962792.5003,53
1605962792.5024,31
1605962792.5045,31
1605962792.5064,36
1605962792.5083,31
1605962792.5103,39
1605962792.5124,53
1605962792.5129,65
1605962792.5143,65
1605962792.5163,56
1605962792.5183,58
1605962792.5203,75
1605962792.5224,70
1605962792.5243,53
1605962792.5263,56
1605962792.5283,43
1605962792.5303,-102
1605962792.5324,-400
1605962792.5344,-461
1605962792.5363,114
1605962792.5383,727
1605962792.9734,502
1605962792.9744,17
1605962792.9769,41
1605962792.9795,124
1605962792.9815,9
1605962792.9836,7
1605962792.9855,58
1605962792.9875,17
1605962792.9895,0
1605962792.9915,29
1605962792.9936,12
1605962792.9955,-12
1605962792.9975,9
1605962792.9995,12
1605962793.0015,-2
1605962793.0035,2
1605962793.0040,2
1605962793.0054,-9
1605962793.0075,-14
1605962793.0095,-26
1605962793.0114,-36
1605962793.0135,-36
1605962793.0155,-41
1605962793.0174,-53
1605962793.0194,-56
1605962793.0214,-68
1605962793.0235,-92
1605962793.0254,-95
1605962793.0274,-83
1605962793.0294,-87
1605962793.0314,-90
1605962793.0334,-73
1605962793.0343,-53
1605962793.0354,-39
1605962793.0374,-26
1605962793.0394,-7
1605962793.0414,19
1605962793.0435,53
1605962793.0454,83
1605962793.0474,80
1605962793.0494,83
1605962793.0514,109
1605962793.0534,124
1605962793.0554,117
1605962793.0574,107
1605962793.0594,104
1605962793.0614,112
1605962793.0635,102
1605962793.0640,83
1605962793.0654,80
1605962793.0674,83
1605962793.0694,80
1605962793.0714,73
1605962793.0734,65
1605962793.0755,70
1605962793.0774,78
1605962793.0794,70
1605962793.0815,58
1605962793.0835,61
1605962793.0854,63
1605962793.0874,56
1605962793.0894,53
1605962793.0914,61
1605962793.0934,58
1605962793.0940,63
1605962793.0954,70
1605962793.0974,65
1605962793.0994,61
1605962793.1014,61
1605962793.1034,63
1605962793.1054,65
1605962793.1075,65
1605962793.1094,58
1605962793.5432,58
1605962793.5442,70
1605962793.5457,78
1605962793.5477,70
1605962793.5484,58
1605962793.5497,51
1605962793.5517,56
1605962793.5536,58
1605962793.5556,53
1605962793.5576,48
1605962793.5598,46
1605962793.5616,56
1605962793.5637,70
1605962793.5656,65
1605962793.5677,51
1605962793.5698,39
1605962793.5716,19
1605962793.5737,21
1605962793.5756,39
1605962793.5776,39
1605962793.5782,31
1605962793.5796,39
1605962793.5816,58
1605962793.5836,65
1605962793.5856,58
1605962793.5876,48
1605962793.5896,48
1605962793.5916,53
1605962793.5936,48
1605962793.5956,43
1605962793.5975,19
1605962793.5996,-148
1605962793.6016,-449
1605962793.6036,-419
1605962793.6056,224
1605962793.6076,712
1605962793.6082,383
1605962793.6096,-7
1605962793.6116,70
1605962793.6136,102
1605962793.6156,2
1605962793.6175,24
1605962793.6196,58
1605962793.6216,24
1605962793.6236,24
1605962793.6256,43
1605962793.6276,36
1605962793.6296,19
1605962793.6316,19
1605962793.6336,14
1605962793.6356,-2
1605962793.6375,2
1605962793.6382,24
1605962793.6396,14
1605962793.6415,-12
1605962793.6436,-12
1605962793.6456,-9
1605962793.6476,-36
1605962793.6495,-56
1605962793.6516,-58
1605962793.6536,-68
1605962793.6557,-75
1605962793.6576,-85
1605962793.6596,-87
1605962793.6615,-85
1605962793.6636,-83
1605962793.6655,-78
1605962793.6675,-73
1605962793.6682,-68
1605962793.6696,-46
1605962793.6716,-26
1605962793.6736,-14
1605962793.6756,21
1605962794.1135,61
1605962794.1144,73
1605962794.1169,70
1605962794.1195,85
1605962794.1215,95
1605962794.1235,83
1605962794.1255,85
1605962794.1275,92
1605962794.1294,75
1605962794.1314,63
1605962794.1335,70
1605962794.1341,78
1605962794.1354,73
1605962794.1374,63
1605962794.1395,53
1605962794.1414,48
1605962794.1435,39
1605962794.1454,31
1605962794.1474,34
1605962794.1494,36
1605962794.1514,41
1605962794.1536,48
1605962794.1554,43
1605962794.1575,31
1605962794.1594,36
1605962794.1614,46
1605962794.1634,48
1605962794.1640,43
1605962794.1654,43
1605962794.1674,51
1605962794.1694,58
1605962794.1714,56
1605962794.1735,56
1605962794.1754,56
1605962794.1774,53
1605962794.1794,46
1605962794.1814,48
1605962794.1834,63
1605962794.1854,65
1605962794.1876,58
1605962794.1895,58
1605962794.1914,58
1605962794.1935,56
1605962794.1940,56
1605962794.1954,56
1605962794.1974,51
1605962794.1994,48
1605962794.2014,56
1605962794.2034,73
1605962794.2054,68
1605962794.2074,61
1605962794.2094,56
1605962794.2114,34
1605962794.2134,19
1605962794.2154,31
1605962794.2174,36
1605962794.2194,36
1605962794.2214,39
1605962794.2234,46
1605962794.2241,58
1605962794.2254,70
1605962794.2274,68
1605962794.2294,63
1605962794.2314,61
1605962794.2335,61
1605962794.2354,63
1605962794.2374,70
1605962794.2394,39
1605962794.2414,-129
1605962794.2434,-424
1605962794.2454,-429
1605962794.2474,192
1605962794.2494,725
1605962794.6835,417
1605962794.6844,0
1605962794.6868,70
1605962794.6895,114
1605962794.6915,4
1605962794.6936,17
1605962794.6956,58
1605962794.6975,24
1605962794.6995,7
1605962794.7015,14
1605962794.7035,2
1605962794.7054,-2
1605962794.7075,4
1605962794.7094,-4
1605962794.7114,-14
1605962794.7135,-19
1605962794.7141,-19
1605962794.7156,-14
1605962794.7175,-29
1605962794.7196,-46
1605962794.7215,-48
1605962794.7235,-46
1605962794.7254,-61
1605962794.7274,-80
1605962794.7294,-83
1605962794.7314,-80
1605962794.7334,-95
1605962794.7354,-104
1605962794.7374,-112
1605962794.7394,-112
1605962794.7414,-97
1605962794.7434,-90
1605962794.7440,-90
1605962794.7454,-78
1605962794.7474,-48
1605962794.7494,-19
1605962794.7514,2
1605962794.7534,31
1605962794.7554,51
1605962794.7574,58
1605962794.7594,68
1605962794.7614,75
1605962794.7635,92
1605962794.7654,104
1605962794.7674,92
1605962794.7694,80
1605962794.7714,78
1605962794.7734,80
1605962794.7741,83
1605962794.7754,75
1605962794.7775,78
1605962794.7795,78
1605962794.7814,63
1605962794.7834,58
1605962794.7854,68
1605962794.7874,75
1605962794.7894,65
1605962794.7914,51
1605962794.7934,48
1605962794.7954,53
1605962794.7974,58
1605962794.7994,61
1605962794.8014,58
1605962794.8034,56
1605962794.8040,58
1605962794.8054,56
1605962794.8074,56
1605962794.8094,56
1605962794.8116,56
1605962794.8134,63
1605962794.8154,65
1605962794.8174,61
1605962794.8194,58
1605962795.2229,61
1605962795.2239,53
1605962795.2263,41
1605962795.2290,46
1605962795.2310,46
1605962795.2331,36
1605962795.2340,39
1605962795.2360,43
1605962795.2380,43
1605962795.2399,53
1605962795.2419,61
1605962795.2439,43
1605962795.2459,19
1605962795.2479,17
1605962795.2499,36
1605962795.2519,48
1605962795.2539,43
1605962795.2559,36
1605962795.2579,34
1605962795.2599,21
1605962795.2619,-2
1605962795.2639,0
1605962795.2645,24
1605962795.2659,26
1605962795.2678,12
1605962795.2698,9
1605962795.2719,34
1605962795.2740,61
1605962795.2759,56
1605962795.2779,43
1605962795.2799,41
1605962795.2818,41
1605962795.2839,36
1605962795.2859,26
1605962795.2879,31
1605962795.2899,-53
1605962795.2919,-341
1605962795.2938,-534
1605962795.2945,-90
1605962795.2958,634
1605962795.2978,620
1605962795.2998,100
1605962795.3018,-2
1605962795.3039,107
1605962795.3058,26
1605962795.3078,-17
1605962795.3100,26
1605962795.3119,14
1605962795.3138,-4
1605962795.3158,4
1605962795.3178,4
1605962795.3198,-2
1605962795.3218,0
1605962795.3239,0
1605962795.3244,-4
1605962795.3258,-4
1605962795.3278,-17
1605962795.3298,-36
1605962795.3318,-46
1605962795.3339,-41
1605962795.3359,-39
1605962795.3378,-53
1605962795.3398,-73
1605962795.3418,-80
1605962795.3439,-90
1605962795.3458,-100
1605962795.3478,-109
1605962795.3498,-122
1605962795.3518,-129
1605962795.3525,-136
1605962795.3538,-141
1605962795.3558,-124
1605962795.3578,-95
1605962795.7632,-80
1605962795.7640,-63
1605962795.7663,-39
1605962795.7681,-24
1605962795.7701,-7
1605962795.7720,26
1605962795.7741,65
1605962795.7760,83
1605962795.7780,87
1605962795.7800,83
1605962795.7806,83
1605962795.7820,90
1605962795.7840,90
1605962795.7860,85
1605962795.7880,92
1605962795.7900,100
1605962795.7920,83
1605962795.7940,65
1605962795.7960,70
1605962795.7980,68
1605962795.8000,53
1605962795.8020,53
1605962795.8040,65
1605962795.8060,61
1605962795.8082,46
1605962795.8101,43
1605962795.8106,53
1605962795.8120,58
1605962795.8140,63
1605962795.8160,68
1605962795.8180,65
1605962795.8200,51
1605962795.8220,53
1605962795.8241,65
1605962795.8260,63
1605962795.8280,61
1605962795.8293,61
1605962795.8310,61
1605962795.8330,61
1605962795.8350,65
1605962795.8370,65
1605962795.8376,61
1605962795.8390,61
1605962795.8410,61
1605962795.8430,53
1605962795.8450,53
1605962795.8470,58
1605962795.8490,56
1605962795.8510,51
1605962795.8530,48
1605962795.8550,53
1605962795.8570,53
1605962795.8590,43
1605962795.8610,48
1605962795.8630,61
1605962795.8650,56
1605962795.8670,36
1605962795.8676,19
1605962795.8690,7
1605962795.8710,14
1605962795.8730,36
1605962795.8750,53
1605962795.8770,41
1605962795.8790,7
1605962795.8810,19
1605962795.8830,58
1605962795.8850,58
1605962795.8870,43
1605962795.8890,41
1605962795.8910,36
1605962795.8930,43
1605962795.8950,53
1605962795.8970,0
1605962796.3334,-224
1605962796.3343,-502
1605962796.3370,-317
1605962796.3394,444
1605962796.3414,805
1605962796.3435,314
1605962796.3455,-43
1605962796.3474,58
1605962796.3494,70
1605962796.3514,-14
1605962796.3534,4
1605962796.3553,19
1605962796.3574,-17
1605962796.3593,-26
1605962796.3613,-4
1605962796.3634,-12
1605962796.3639,-21
1605962796.3653,-19
1605962796.3673,-29
1605962796.3693,-31
1605962796.3713,-29
1605962796.3734,-34
1605962796.3753,-48
1605962796.3773,-58
1605962796.3793,-63
1605962796.3813,-75
1605962796.3834,-83
1605962796.3853,-87
1605962796.3873,-90
1605962796.3894,-92
1605962796.3913,-117
1605962796.3933,-144
1605962796.3939,-144
1605962796.3953,-139
1605962796.3973,-129
1605962796.3992,-109
1605962796.4013,-100
1605962796.4033,-97
1605962796.4053,-75
1605962796.4074,-46
1605962796.4093,-21
1605962796.4113,0
1605962796.4133,34
1605962796.4153,65
1605962796.4173,75
1605962796.4193,83
1605962796.4213,85
1605962796.4234,90
1605962796.4240,95
1605962796.4253,102
1605962796.4273,104
1605962796.4293,100
1605962796.4313,92
1605962796.4335,87
1605962796.4353,85
1605962796.4373,70
1605962796.4393,61
1605962796.4413,61
1605962796.4433,58
1605962796.4453,61
1605962796.4473,61
1605962796.4493,56
1605962796.4513,56
1605962796.4533,61
1605962796.4539,63
1605962796.4553,61
1605962796.4574,56
1605962796.4593,56
1605962796.4613,63
1605962796.4633,68
1605962796.4653,70
1605962796.4673,68
1605962796.4693,56
1605962796.8731,61
1605962796.8739,73
1605962796.8762,68
1605962796.8779,58
1605962796.8786,56
1605962796.8799,53
1605962796.8819,63
1605962796.8839,68
1605962796.8859,70
1605962796.8879,68
1605962796.8899,53
1605962796.8919,43
1605962796.8939,48
1605962796.8959,51
1605962796.8979,43
1605962796.8999,48
1605962796.9019,61
1605962796.9039,58
1605962796.9059,63
1605962796.9079,75
1605962796.9085,73
1605962796.9100,61
1605962796.9119,34
1605962796.9139,31
1605962796.9159,58
1605962796.9178,58
1605962796.9199,31
1605962796.9219,26
1605962796.9239,53
1605962796.9259,83
1605962796.9278,80
1605962796.9300,61
1605962796.9319,61
1605962796.9339,61
1605962796.9358,53
1605962796.9378,48
1605962796.9385,48
1605962796.9398,-58
1605962796.9418,-380
1605962796.9438,-559
1605962796.9459,-34
1605962796.9478,737
1605962796.9498,683
1605962796.9518,122
1605962796.9538,2
1605962796.9558,92
1605962796.9579,7
1605962796.9599,-9
1605962796.9618,48
1605962796.9638,9
1605962796.9658,-34
1605962796.9678,-7
1605962796.9685,4
1605962796.9699,-17
1605962796.9718,-9
1605962796.9739,4
1605962796.9759,-17
1605962796.9778,-26
1605962796.9798,-9
1605962796.9819,-14
1605962796.9838,-29
1605962796.9858,-31
1605962796.9878,-43
1605962796.9898,-70
1605962796.9918,-78
1605962796.9939,-80
1605962796.9958,-95
1605962796.9978,-102
1605962796.9985,-109
1605962796.9998,-124
1605962797.0018,-126
1605962797.0038,-109
1605962797.0059,-92
1605962797.4433,-80
1605962797.4443,-73
1605962797.4466,-53
1605962797.4484,-21
1605962797.4503,-9
1605962797.4524,-2
1605962797.4543,12
1605962797.4563,21
1605962797.4584,46
1605962797.4606,85
1605962797.4624,104
1605962797.4630,102
1605962797.4643,102
1605962797.4663,90
1605962797.4683,78
1605962797.4703,80
1605962797.4724,83
1605962797.4743,75
1605962797.4753,78
1605962797.4774,85
1605962797.4794,75
1605962797.4813,63
1605962797.4833,56
1605962797.4852,65
1605962797.4872,83
1605962797.4892,85
1605962797.4899,63
1605962797.4912,41
1605962797.4933,56
1605962797.4953,65
1605962797.4972,63
1605962797.4994,73
1605962797.5013,70
1605962797.5033,56
1605962797.5052,68
1605962797.5073,85
1605962797.5092,80
1605962797.5112,58
1605962797.5133,53
1605962797.5152,68
1605962797.5172,63
1605962797.5192,46
1605962797.5198,51
1605962797.5212,63
1605962797.5233,61
1605962797.5253,56
1605962797.5272,58
1605962797.5292,70
1605962797.5312,75
1605962797.5333,75
1605962797.5352,85
1605962797.5373,78
1605962797.5393,65
1605962797.5413,73
1605962797.5433,75
1605962797.5453,63
1605962797.5472,43
1605962797.5492,19
1605962797.5498,19
1605962797.5512,39
1605962797.5534,48
1605962797.5553,43
1605962797.5573,58
1605962797.5592,78
1605962797.5612,73
1605962797.5633,68
1605962797.5652,80
1605962797.5672,73
1605962797.5692,56
1605962797.5712,51
1605962797.5733,70
1605962797.5752,68
1605962797.5772,-124
1605962798.0433,-476
1605962798.0442,-476
1605962798.0467,222
1605962798.0494,842
1605962798.0513,568
1605962798.0534,80
1605962798.0554,43
1605962798.0573,68
1605962798.0593,-9
1605962798.0613,-2
1605962798.0634,17
1605962798.0653,-21
1605962798.0673,-26
1605962798.0693,2
1605962798.0700,12
1605962798.0713,12
1605962798.0734,7
