,hr,rr,ecg,gsr,temperature
1603053492.0524,82.0,823.0,2463.0,410.88458080531075,36.94
1603053492.0548,82.0,823.0,3533.0,410.898681262758,36.94
1603053492.0574,82.0,823.0,4212.0,410.91225636784134,36.94
1603053492.0601,82.0,823.0,5039.0,410.9253061205607,36.94
1603053492.0622,82.0,823.0,5730.0,410.93783052091624,36.94
1603053492.0643,82.0,823.0,6251.0,410.9498295689079,36.94
1603053492.0664,82.0,823.0,6802.0,410.96130326453556,36.94
1603053492.0684,82.0,823.0,7285.0,410.97225160779936,36.94
1603053492.0703,82.0,823.0,7673.0,410.98267459869925,36.94
1603053492.0723,82.0,823.0,8085.0,410.99257223723527,36.94
1603053492.0743,82.0,823.0,8478.0,411.0019445234073,36.94
1603053492.0759,82.0,823.0,8798.0,411.0107914572155,36.94
1603053492.0779,82.0,823.0,9103.0,411.0191130386598,36.94
1603053492.0798,82.0,823.0,9416.0,411.0269092677401,36.94
1603053492.0818,82.0,823.0,9693.0,411.03418014445657,36.94
1603053492.0839,82.0,823.0,9940.0,411.04092566880917,36.94
1603053492.0858,82.0,823.0,10183.0,411.0471458407978,36.94
1603053492.0879,82.0,823.0,10423.0,411.05284066042253,36.94
1603053492.0899,82.0,823.0,10646.0,411.05801012768336,36.94
1603053492.0919,82.0,823.0,10837.0,411.0626542425803,36.94
1603053492.0938,82.0,823.0,11022.0,411.0667730051133,36.94
1603053492.0958,82.0,823.0,11201.0,411.0703664152824,36.94
1603053492.0979,82.0,823.0,11349.0,411.0734344730877,36.94
1603053492.0999,82.0,823.0,11482.0,411.07597717852894,36.94
1603053492.1019,82.0,823.0,11628.0,411.07799453160635,36.94
1603053492.1038,82.0,823.0,11776.0,411.07948653231983,36.94
1603053492.1058,82.0,823.0,11892.0,411.08045318066945,36.94
1603053492.1078,82.0,823.0,11980.0,411.08089447665515,36.94
1603053492.1098,82.0,823.0,12069.0,411.0808104202769,36.94
1603053492.1118,82.0,823.0,12166.0,411.08020101153477,36.94
1603053492.1138,82.0,823.0,12244.0,411.07906625042875,36.94
1603053492.1158,82.0,823.0,12290.0,411.0774061369588,36.94
1603053492.1178,82.0,823.0,12326.0,411.07522067112495,36.94
1603053492.1198,82.0,823.0,12363.0,411.0725098529272,36.94
1603053492.1217,82.0,823.0,12382.0,411.0692736823655,36.94
1603053492.1238,82.0,823.0,12389.0,411.06551215944,36.94
1603053492.1258,82.0,823.0,12419.0,411.0612252841505,36.94
1603053492.1277,82.0,823.0,12465.0,411.05641305649715,36.94
1603053492.1297,82.0,823.0,12467.0,411.05107547647987,36.94
1603053492.1318,82.0,823.0,12433.0,411.04521254409866,36.94
1603053492.1338,82.0,823.0,12440.0,411.0388242593536,36.94
1603053492.1358,82.0,823.0,12467.0,411.0319106222446,36.94
1603053492.1378,82.0,823.0,12462.0,411.0244716327717,36.94
1603053492.1398,82.0,823.0,12443.0,411.01650729093484,36.94
1603053492.1418,82.0,823.0,12445.0,411.00801759673413,36.94
1603053492.1438,82.0,823.0,12457.0,410.9990025501695,36.94
1603053492.1458,82.0,823.0,12438.0,410.989462151241,36.94
1603053492.1478,82.0,823.0,12404.0,410.97939639994854,36.94
1603053492.1498,82.0,823.0,12399.0,410.9688052962922,36.94
1603053492.1518,82.0,823.0,12385.0,410.957688840272,36.94
1603053492.1545,82.0,823.0,12346.0,410.9460470318288,36.94
1603053492.1558,82.0,823.0,12302.0,410.9308154115795,36.94
1603053492.1577,82.0,823.0,12246.0,410.91495751511025,36.94
1603053492.1597,82.0,823.0,12198.0,410.89850247154754,36.94
1603053492.1618,82.0,823.0,12166.0,410.8814794100182,36.94
1603053492.1638,82.0,823.0,12120.0,410.8639174596484,36.94
1603053492.1657,82.0,823.0,12065.0,410.8458457495648,36.94
1603053492.1677,82.0,823.0,12021.0,410.82729340889375,36.94
1603053492.1697,82.0,823.0,11960.0,410.808289566762,36.94
1603053492.1717,82.0,823.0,11897.0,410.78886335229595,36.94
1603053492.1737,82.0,823.0,11846.0,410.769043894622,36.94
1603053492.1757,82.0,823.0,11786.0,410.7488603228668,36.94
1603053492.1777,82.0,823.0,11713.0,410.72834176615675,36.94
1603053492.1797,82.0,823.0,11640.0,410.7075173536183,36.94
1603053492.1817,82.0,823.0,11575.0,410.68641621437826,36.94
1603053492.1838,82.0,823.0,11512.0,410.66506747756284,36.94
1603053492.1857,82.0,823.0,11434.0,410.64350027229864,36.94
1603053492.1877,82.0,823.0,11354.0,410.6217437277121,36.94
1603053492.1897,82.0,823.0,11298.0,410.5998269729298,36.94
1603053492.1917,82.0,823.0,11223.0,410.5777791370783,36.94
1603053492.1937,82.0,823.0,11114.0,410.555629349284,36.94
1603053492.1957,82.0,823.0,11031.0,410.5334067386734,36.94
1603053492.1977,82.0,823.0,10973.0,410.51114043437315,36.94
1603053492.6206,82.0,823.0,10896.0,410.48885956550953,36.94
1603053492.6217,82.0,823.0,10806.0,410.46659326120925,36.94
1603053492.6242,82.0,823.0,10719.0,410.44437065059867,36.94
1603053492.6267,82.0,823.0,10626.0,410.42222086280435,36.94
1603053492.6287,82.0,823.0,10539.0,410.4001730269528,36.94
1603053492.6307,82.0,823.0,10454.0,410.3782562721705,36.94
1603053492.6329,82.0,823.0,10384.0,410.356499727584,36.94
1603053492.6349,82.0,823.0,10343.0,410.3349325223198,36.94
1603053492.6367,82.0,823.0,10275.0,410.31358378550436,36.94
1603053492.6388,82.0,823.0,10139.0,410.2924826462642,36.94
1603053492.6407,82.0,823.0,10030.0,410.2716582337259,36.94
1603053492.6428,82.0,823.0,9974.0,410.25113967701583,36.94
1603053492.6447,82.0,823.0,9896.0,410.23095610526053,36.94
1603053492.6467,82.0,823.0,9792.0,410.21113664758667,36.94
1603053492.6487,82.0,823.0,9683.0,410.1917104331205,36.94
1603053492.6507,82.0,823.0,9555.0,410.17270659098875,36.94
1603053492.6528,82.0,823.0,9445.0,410.15415425031773,36.94
1603053492.6547,82.0,823.0,9375.0,410.1360825402341,36.94
1603053492.6567,82.0,823.0,9300.0,410.1185205898643,36.94
1603053492.6588,82.0,823.0,9210.0,410.10149752833496,36.94
1603053492.6607,82.0,823.0,9128.0,410.08504248477226,36.94
1603053492.6628,82.0,823.0,9055.0,410.069184588303,36.94
1603053492.6647,82.0,823.0,8968.0,410.0539529680537,36.94
1603053492.6667,82.0,823.0,8895.0,410.03937675315063,36.94
1603053492.6687,82.0,823.0,8953.0,410.0254850727204,36.94
1603053492.6707,82.0,823.0,9103.0,410.0123070558896,36.94
1603053492.6727,82.0,823.0,8985.0,409.9998718317847,36.94
1603053492.6747,82.0,823.0,8364.0,409.9882085295322,36.94
1603053492.677,82.0,823.0,7854.0,409.9773462782585,36.94
1603053492.6788,82.0,823.0,8012.0,409.96731420709017,36.94
1603053492.6807,82.0,823.0,8262.0,409.9581414451538,36.94
1603053492.6827,82.0,823.0,8165.0,409.9498571215758,36.94
1603053492.6847,82.0,823.0,8053.0,409.9424903654827,36.94
1603053492.6866,82.0,823.0,8039.0,409.936070306001,36.94
1603053492.6886,82.0,823.0,7956.0,409.9306260722573,36.94
1603053492.6907,82.0,823.0,7828.0,409.9261867933779,36.94
1603053492.6927,82.0,823.0,7755.0,409.9227815984895,36.94
1603053492.6946,82.0,823.0,7690.0,409.9204396167185,36.94
1603053492.6966,82.0,823.0,7593.0,409.9191899771915,36.94
1603053492.6987,82.0,823.0,7505.0,409.9190618090349,36.94
1603053492.7007,82.0,823.0,7433.0,409.92008424137515,36.94
1603053492.7027,82.0,823.0,7350.0,409.922286403339,36.94
1603053492.7047,82.0,823.0,7275.0,409.92569742405266,36.94
1603053492.7066,82.0,823.0,7202.0,409.9303464326428,36.94
1603053492.7086,82.0,823.0,7120.0,409.936262558236,36.94
1603053492.7106,82.0,823.0,7045.0,409.94347492995865,36.94
1603053492.7127,82.0,823.0,6981.0,409.95201267693716,36.94
1603053492.7146,82.0,823.0,6909.0,409.9619049282982,36.94
1603053492.7166,82.0,823.0,6829.0,409.9731808131683,36.94
1603053492.7186,82.0,823.0,6766.0,409.98586946067377,36.94
1603053492.7206,82.0,823.0,6705.0,409.9999999999413,36.94
1603053492.7227,82.0,823.0,6625.0,409.9999999999413,36.94
1603053492.7246,82.0,823.0,6552.0,409.9999999999413,36.94
1603053492.7266,82.0,823.0,6499.0,409.9999999999413,36.94
1603053492.7286,82.0,823.0,6421.0,409.9999999999413,36.94
1603053492.7307,82.0,823.0,6341.0,409.9999999999413,36.94
1603053492.7327,82.0,823.0,6283.0,409.9999999999413,36.94
1603053492.7346,82.0,823.0,6220.0,409.9999999999413,36.94
1603053492.7366,82.0,823.0,6140.0,409.9999999999413,36.94
1603053492.7386,82.0,823.0,6062.0,409.9999999999413,36.94
1603053492.7407,82.0,823.0,5985.0,409.9999999999413,36.94
1603053492.7427,82.0,823.0,5914.0,409.9999999999413,36.94
1603053492.7446,82.0,823.0,5834.0,409.9999999999413,36.94
1603053492.7466,82.0,823.0,5740.0,409.9999999999413,36.94
1603053492.7486,82.0,823.0,5648.0,409.9999999999413,36.94
1603053492.7507,82.0,823.0,5568.0,409.9999999999413,36.94
1603053492.7527,82.0,823.0,5485.0,409.9999999999413,36.94
1603053492.7546,82.0,823.0,5395.0,409.9999999999413,36.94
1603053492.7567,82.0,823.0,5318.0,409.9999999999413,36.94
1603053492.7586,82.0,823.0,5252.0,409.9999999999413,36.94
1603053492.7606,82.0,823.0,5177.0,409.9999999999413,36.94
1603053492.7627,82.0,823.0,5097.0,409.9999999999413,36.94
1603053492.7646,82.0,823.0,5036.0,409.9999999999413,36.94
1603053493.1606,81.0,834.0,4978.0,409.9999999999413,36.94
1603053493.1613,81.0,834.0,4923.0,409.9999999999413,36.94
1603053493.1637,81.0,834.0,4869.0,409.9999999999413,36.94
1603053493.1663,81.0,834.0,4809.0,409.9999999999413,36.94
1603053493.1683,81.0,834.0,4753.0,409.9999999999413,36.94
1603053493.1703,81.0,834.0,4709.0,409.9999999999413,36.94
1603053493.1726,81.0,834.0,4656.0,409.9999999999413,36.94
1603053493.1744,81.0,834.0,4595.0,409.9999999999413,36.94
1603053493.1763,81.0,834.0,4547.0,409.9999999999413,36.94
1603053493.1783,81.0,834.0,4498.0,409.9999999999413,36.94
1603053493.1803,81.0,834.0,4428.0,409.9999999999413,36.94
1603053493.1823,81.0,834.0,4370.0,409.9999999999413,36.94
1603053493.1843,81.0,834.0,4316.0,409.9999999999413,36.94
1603053493.1863,81.0,834.0,4256.0,409.9999999999413,36.94
1603053493.1883,81.0,834.0,4214.0,409.9999999999413,36.94
1603053493.1903,81.0,834.0,4171.0,409.9999999999413,36.94
1603053493.1923,81.0,834.0,4110.0,409.9999999999413,36.94
1603053493.1943,81.0,834.0,4047.0,409.9999999999413,36.94
1603053493.1963,81.0,834.0,3991.0,409.9999999999413,36.94
1603053493.1983,81.0,834.0,3943.0,409.9999999999413,36.94
1603053493.2003,81.0,834.0,3904.0,409.9999999999413,36.94
1603053493.2023,81.0,834.0,3855.0,409.9999999999413,36.94
1603053493.2043,81.0,834.0,3805.0,409.9999999999413,36.94
1603053493.2063,81.0,834.0,3751.0,409.98586946067377,36.94
1603053493.2083,81.0,834.0,3693.0,409.9731808131683,36.94
1603053493.2103,81.0,834.0,3642.0,409.9619049282982,36.94
1603053493.2123,81.0,834.0,3611.0,409.95201267693716,36.94
1603053493.2143,81.0,834.0,3584.0,409.94347492995865,36.94
1603053493.2163,81.0,834.0,3543.0,409.936262558236,36.94
1603053493.2183,81.0,834.0,3480.0,409.9303464326428,36.94
1603053493.2203,81.0,834.0,3421.0,409.92569742405266,36.94
1603053493.2223,81.0,834.0,3385.0,409.922286403339,36.94
1603053493.2243,81.0,834.0,3344.0,409.92008424137515,36.94
1603053493.2263,81.0,834.0,3298.0,409.9190618090349,36.94
1603053493.2283,81.0,834.0,3264.0,409.9191899771915,36.94
1603053493.2303,81.0,834.0,3230.0,409.9204396167185,36.94
1603053493.2323,81.0,834.0,3186.0,409.9227815984895,36.94
1603053493.2343,81.0,834.0,3142.0,409.9261867933779,36.94
1603053493.2363,81.0,834.0,3111.0,409.9306260722573,36.94
1603053493.2383,81.0,834.0,3094.0,409.936070306001,36.94
1603053493.2403,81.0,834.0,3082.0,409.9424903654827,36.94
1603053493.2423,81.0,834.0,3041.0,409.9498571215758,36.94
1603053493.2443,81.0,834.0,2980.0,409.9581414451538,36.94
1603053493.2463,81.0,834.0,2939.0,409.96731420709017,36.94
1603053493.2483,81.0,834.0,2907.0,409.9773462782585,36.94
1603053493.2503,81.0,834.0,2866.0,409.9882085295322,36.94
1603053493.2524,81.0,834.0,2818.0,409.9998718317847,36.94
1603053493.2543,81.0,834.0,2774.0,410.0123070558896,36.94
1603053493.2563,81.0,834.0,2735.0,410.0254850727204,36.94
1603053493.2583,81.0,834.0,2689.0,410.03937675315063,36.94
1603053493.2603,81.0,834.0,2657.0,410.0539529680537,36.94
1603053493.2623,81.0,834.0,2633.0,410.069184588303,36.94
1603053493.2643,81.0,834.0,2592.0,410.08504248477226,36.94
1603053493.2663,81.0,834.0,2565.0,410.10149752833496,36.94
1603053493.2683,81.0,834.0,2560.0,410.1185205898643,36.94
1603053493.2703,81.0,834.0,2580.0,410.1360825402341,36.94
1603053493.2723,81.0,834.0,2711.0,410.15415425031773,36.94
1603053493.2744,81.0,834.0,2888.0,410.17270659098875,36.94
1603053493.2763,81.0,834.0,2733.0,410.1917104331205,36.94
1603053493.2783,81.0,834.0,2129.0,410.21113664758667,36.94
1603053493.2803,81.0,834.0,1794.0,410.23095610526053,36.94
1603053493.2823,81.0,834.0,2095.0,410.25113967701583,36.94
1603053493.2843,81.0,834.0,2332.0,410.2716582337259,36.94
1603053493.2863,81.0,834.0,2250.0,410.2924826462642,36.94
1603053493.2883,81.0,834.0,2235.0,410.31358378550436,36.94
1603053493.2903,81.0,834.0,2265.0,410.3349325223198,36.94
1603053493.2923,81.0,834.0,2209.0,410.356499727584,36.94
1603053493.2943,81.0,834.0,2175.0,410.3782562721705,36.94
1603053493.2963,81.0,834.0,2180.0,410.4001730269528,36.94
1603053493.2983,81.0,834.0,2153.0,410.42222086280435,36.94
1603053493.3003,81.0,834.0,2114.0,410.44437065059867,36.94
1603053493.3023,81.0,834.0,2095.0,410.46659326120925,36.94
1603053493.3043,81.0,834.0,2071.0,410.48885956550953,36.94
1603053493.7605,81.0,834.0,2046.0,410.51114043437315,36.94
1603053493.7613,81.0,834.0,2032.0,410.5334067386734,36.94
1603053493.7638,81.0,834.0,2015.0,410.555629349284,36.94
1603053493.7666,81.0,834.0,1983.0,410.5777791370783,36.94
1603053493.7685,81.0,834.0,1957.0,410.5998269729298,36.94
1603053493.7704,81.0,834.0,1959.0,410.6217437277121,36.94
1603053493.7725,81.0,834.0,1954.0,410.64350027229864,36.94
1603053493.7743,81.0,834.0,1911.0,410.66506747756284,36.94
1603053493.7763,81.0,834.0,1877.0,410.68641621437826,36.94
1603053493.7783,81.0,834.0,1869.0,410.7075173536183,36.94
1603053493.7803,81.0,834.0,1860.0,410.72834176615675,36.94
1603053493.7824,81.0,834.0,1850.0,410.7488603228668,36.94
1603053493.7843,81.0,834.0,1833.0,410.769043894622,36.94
1603053493.7863,81.0,834.0,1809.0,410.78886335229595,36.94
1603053493.7884,81.0,834.0,1804.0,410.808289566762,36.94
1603053493.7903,81.0,834.0,1789.0,410.82729340889375,36.94
1603053493.7923,81.0,834.0,1760.0,410.8458457495648,36.94
1603053493.7943,81.0,834.0,1741.0,410.8639174596484,36.94
1603053493.7963,81.0,834.0,1721.0,410.8814794100182,36.94
1603053493.7983,81.0,834.0,1692.0,410.89850247154754,36.94
1603053493.8003,81.0,834.0,1666.0,410.91495751511025,36.94
1603053493.8023,81.0,834.0,1629.0,410.9308154115795,36.94
1603053493.8043,81.0,834.0,1586.0,410.9460470318288,36.94
1603053493.8063,81.0,834.0,1547.0,410.96062324673187,36.94
1603053493.8083,81.0,834.0,1510.0,410.9745149271621,36.94
1603053493.8103,81.0,834.0,1479.0,410.9876929439929,36.94
1603053493.8123,81.0,834.0,1440.0,411.00012816809783,36.94
1603053493.8143,81.0,834.0,1409.0,411.0117914703503,36.94
1603053493.8163,81.0,834.0,1392.0,411.022653721624,36.94
1603053493.8183,81.0,834.0,1362.0,411.03268579279234,36.94
1603053493.8203,81.0,834.0,1338.0,411.0418585547287,36.94
1603053493.8223,81.0,834.0,1338.0,411.0501428783067,36.94
1603053493.8243,81.0,834.0,1336.0,411.0575096343998,36.94
1603053493.8263,81.0,834.0,1314.0,411.0639296938814,36.94
1603053493.8283,81.0,834.0,1307.0,411.0693739276252,36.94
1603053493.8305,81.0,834.0,1309.0,411.0738132065045,36.94
1603053493.8324,81.0,834.0,1290.0,411.077218401393,36.94
1603053493.8343,81.0,834.0,1265.0,411.079560383164,36.94
1603053493.8364,81.0,834.0,1268.0,411.080810022691,36.94
1603053493.8383,81.0,834.0,1265.0,411.08093819084763,36.94
1603053493.8403,81.0,834.0,1234.0,411.07991575850735,36.94
1603053493.8423,81.0,834.0,1195.0,411.0777135965435,36.94
1603053493.8443,81.0,834.0,1195.0,411.07430257582985,36.94
1603053493.8463,81.0,834.0,1214.0,411.0696535672397,36.94
1603053493.8483,81.0,834.0,1200.0,411.0637374416465,36.94
1603053493.8503,81.0,834.0,1161.0,411.05652506992385,36.94
1603053493.8523,81.0,834.0,1134.0,411.04798732294535,36.94
1603053493.8543,81.0,834.0,1132.0,411.0380950715843,36.94
1603053493.8563,81.0,834.0,1132.0,411.0268191867142,36.94
1603053493.8583,81.0,834.0,1120.0,411.01413053920874,36.94
1603053493.8603,81.0,834.0,1101.0,410.9999999999412,36.94
1603053493.8623,81.0,834.0,1079.0,410.9999999999412,36.94
1603053493.8643,81.0,834.0,1057.0,410.9999999999412,36.94
1603053493.8663,81.0,834.0,1047.0,410.9999999999412,36.94
1603053493.8683,81.0,834.0,1047.0,410.9999999999412,36.94
1603053493.8703,81.0,834.0,1035.0,410.9999999999412,36.94
1603053493.8723,81.0,834.0,1016.0,410.9999999999412,36.94
1603053493.8743,81.0,834.0,1001.0,410.9999999999412,36.94
1603053493.8763,81.0,834.0,994.0,410.9999999999412,36.94
1603053493.8783,81.0,834.0,991.0,410.9999999999412,36.94
1603053493.8803,81.0,834.0,982.0,410.9999999999412,36.94
1603053493.8823,81.0,834.0,965.0,410.9999999999412,36.94
1603053493.8843,81.0,834.0,962.0,410.9999999999412,36.94
1603053493.8863,81.0,834.0,965.0,410.9999999999412,36.94
1603053493.8883,81.0,834.0,945.0,410.9999999999412,36.94
1603053493.8903,81.0,834.0,909.0,410.9999999999412,36.94
1603053493.8925,81.0,834.0,887.0,410.9999999999412,36.94
1603053493.8943,81.0,834.0,897.0,410.9999999999412,36.94
1603053493.8963,81.0,834.0,897.0,410.9999999999412,36.94
1603053493.8983,81.0,834.0,870.0,410.9999999999412,36.94
1603053493.9003,81.0,834.0,856.0,410.9999999999412,36.94
1603053493.9023,81.0,834.0,863.0,410.9999999999412,36.94
1603053493.9043,81.0,834.0,870.0,410.9999999999412,36.94
1603053494.2706,80.0,808.0,877.0,410.9999999999412,36.94
1603053494.2712,80.0,808.0,882.0,410.9999999999412,36.94
1603053494.2737,80.0,808.0,868.0,410.9999999999412,36.94
1603053494.2763,80.0,808.0,846.0,410.9999999999412,36.94
1603053494.2782,80.0,808.0,829.0,410.9999999999412,36.94
1603053494.2803,80.0,808.0,809.0,410.9999999999412,36.94
1603053494.2823,80.0,808.0,793.0,410.9999999999412,36.94
1603053494.2843,80.0,808.0,778.0,410.9999999999412,36.94
1603053494.2862,80.0,808.0,749.0,410.9999999999412,36.94
1603053494.2882,80.0,808.0,734.0,410.9999999999412,36.94
1603053494.2902,80.0,808.0,746.0,410.9999999999412,36.94
1603053494.2923,80.0,808.0,742.0,410.9999999999412,36.94
1603053494.2942,80.0,808.0,717.0,410.9999999999412,36.94
1603053494.2964,80.0,808.0,698.0,410.9999999999412,36.94
1603053494.2983,80.0,808.0,688.0,410.9999999999412,36.94
1603053494.3002,80.0,808.0,691.0,410.9999999999412,36.94
1603053494.3022,80.0,808.0,749.0,410.9999999999412,36.94
1603053494.3042,80.0,808.0,923.0,410.9999999999412,36.94
1603053494.3062,80.0,808.0,1120.0,410.9999999999412,36.94
1603053494.3082,80.0,808.0,938.0,410.9999999999412,36.94
1603053494.3102,80.0,808.0,346.0,410.9999999999412,36.94
1603053494.3122,80.0,808.0,106.0,410.9999999999412,36.94
1603053494.3143,80.0,808.0,463.0,410.9999999999412,36.94
1603053494.3162,80.0,808.0,683.0,410.9999999999412,36.94
1603053494.3182,80.0,808.0,618.0,410.9999999999412,36.94
1603053494.3202,80.0,808.0,637.0,410.9999999999412,36.94
1603053494.3222,80.0,808.0,674.0,410.9999999999412,36.94
1603053494.3242,80.0,808.0,642.0,410.9999999999412,36.94
1603053494.3262,80.0,808.0,637.0,410.9999999999412,36.94
1603053494.3282,80.0,808.0,645.0,410.9999999999412,36.94
1603053494.3302,80.0,808.0,625.0,410.9999999999412,36.94
1603053494.3322,80.0,808.0,620.0,410.9999999999412,36.94
1603053494.3342,80.0,808.0,632.0,410.9999999999412,36.94
1603053494.3362,80.0,808.0,637.0,410.9999999999412,36.94
1603053494.3382,80.0,808.0,632.0,410.9999999999412,36.94
1603053494.3402,80.0,808.0,620.0,410.9999999999412,36.94
1603053494.3422,80.0,808.0,613.0,410.9999999999412,36.94
1603053494.3442,80.0,808.0,611.0,410.9999999999412,36.94
1603053494.3462,80.0,808.0,615.0,410.9999999999412,36.94
1603053494.3482,80.0,808.0,623.0,410.9999999999412,36.94
1603053494.3502,80.0,808.0,628.0,410.9999999999412,36.94
1603053494.3522,80.0,808.0,623.0,410.9999999999412,36.94
1603053494.3542,80.0,808.0,618.0,410.9999999999412,36.94
1603053494.3562,80.0,808.0,620.0,410.9999999999412,36.94
1603053494.3582,80.0,808.0,630.0,410.9999999999412,36.94
1603053494.3602,80.0,808.0,635.0,410.9999999999412,36.94
1603053494.3622,80.0,808.0,635.0,410.9999999999412,36.94
1603053494.3642,80.0,808.0,632.0,410.9999999999412,36.94
1603053494.3662,80.0,808.0,637.0,410.9999999999412,36.94
1603053494.3684,80.0,808.0,640.0,410.9999999999412,36.94
1603053494.3703,80.0,808.0,635.0,410.9999999999412,36.94
1603053494.3722,80.0,808.0,620.0,410.9999999999412,36.94
1603053494.3742,80.0,808.0,603.0,410.9999999999412,36.94
1603053494.3762,80.0,808.0,603.0,410.9999999999412,36.94
1603053494.3782,80.0,808.0,603.0,410.9999999999412,36.94
1603053494.3802,80.0,808.0,572.0,410.9999999999412,36.94
1603053494.3822,80.0,808.0,538.0,410.9999999999412,36.94
1603053494.3842,80.0,808.0,521.0,410.9999999999412,36.94
1603053494.3862,80.0,808.0,502.0,410.9999999999412,36.94
1603053494.3882,80.0,808.0,470.0,410.9999999999412,36.94
1603053494.3902,80.0,808.0,453.0,410.9999999999412,36.94
1603053494.3922,80.0,808.0,443.0,410.9999999999412,36.94
1603053494.3942,80.0,808.0,419.0,410.9999999999412,36.94
1603053494.3962,80.0,808.0,397.0,410.9999999999412,36.94
1603053494.3984,80.0,808.0,402.0,410.9999999999412,36.94
1603053494.4002,80.0,808.0,407.0,410.9999999999412,36.94
1603053494.4022,80.0,808.0,397.0,410.9999999999412,36.94
1603053494.4042,80.0,808.0,402.0,410.9999999999412,36.94
1603053494.4062,80.0,808.0,419.0,410.9999999999412,36.94
1603053494.4082,80.0,808.0,419.0,410.9999999999412,36.94
1603053494.4102,80.0,808.0,414.0,410.9999999999412,36.94
1603053494.4122,80.0,808.0,407.0,410.9999999999412,36.94
1603053494.4143,80.0,808.0,404.0,410.9999999999412,36.94
1603053494.8403,79.0,1611.0,407.0,410.9999999999412,36.94
1603053494.8409,79.0,1611.0,407.0,410.9999999999412,36.94
1603053494.8422,79.0,1611.0,404.0,410.9999999999412,36.94
1603053494.8442,79.0,1611.0,402.0,410.9999999999412,36.94
1603053494.8462,79.0,1611.0,390.0,410.9999999999412,36.94
1603053494.8482,79.0,1611.0,380.0,410.9999999999412,36.94
1603053494.8502,79.0,1611.0,378.0,410.9999999999412,36.94
1603053494.8522,79.0,1611.0,378.0,410.9999999999412,36.94
1603053494.8542,79.0,1611.0,373.0,410.9999999999412,36.94
1603053494.8562,79.0,1611.0,371.0,410.9999999999412,36.94
1603053494.8582,79.0,1611.0,371.0,410.9999999999412,36.94
1603053494.8602,79.0,1611.0,363.0,410.9999999999412,36.94
1603053494.8622,79.0,1611.0,351.0,410.9999999999412,36.94
1603053494.8643,79.0,1611.0,354.0,410.9999999999412,36.94
1603053494.8662,79.0,1611.0,361.0,410.9999999999412,36.94
1603053494.8682,79.0,1611.0,356.0,410.9999999999412,36.94
1603053494.8702,79.0,1611.0,344.0,410.9999999999412,36.94
1603053494.8722,79.0,1611.0,346.0,410.9999999999412,36.94
1603053494.8742,79.0,1611.0,354.0,410.9999999999412,36.94
1603053494.8762,79.0,1611.0,351.0,410.9999999999412,36.94
1603053494.8782,79.0,1611.0,346.0,410.9999999999412,36.94
1603053494.8802,79.0,1611.0,339.0,410.9999999999412,36.94
1603053494.8822,79.0,1611.0,334.0,410.9999999999412,36.94
1603053494.8842,79.0,1611.0,339.0,410.9999999999412,36.94
1603053494.8862,79.0,1611.0,339.0,410.9999999999412,36.94
1603053494.8882,79.0,1611.0,329.0,410.9999999999412,36.94
1603053494.8902,79.0,1611.0,337.0,410.9999999999412,36.94
1603053494.8922,79.0,1611.0,351.0,410.9999999999412,36.94
1603053494.8942,79.0,1611.0,341.0,410.9999999999412,36.94
1603053494.8962,79.0,1611.0,324.0,410.9999999999412,36.94
1603053494.8982,79.0,1611.0,327.0,410.9999999999412,36.94
1603053494.9002,79.0,1611.0,334.0,410.9999999999412,36.94
1603053494.9022,79.0,1611.0,327.0,410.9999999999412,36.94
1603053494.9042,79.0,1611.0,315.0,410.9999999999412,36.94
1603053494.9062,79.0,1611.0,324.0,410.9999999999412,36.94
1603053494.9082,79.0,1611.0,351.0,410.9999999999412,36.94
1603053494.9102,79.0,1611.0,351.0,410.9999999999412,36.94
1603053494.9122,79.0,1611.0,329.0,410.9999999999412,36.94
1603053494.9142,79.0,1611.0,320.0,410.9999999999412,36.94
1603053494.9162,79.0,1611.0,312.0,410.9999999999412,36.94
1603053494.9182,79.0,1611.0,303.0,410.9999999999412,36.94
1603053494.9202,79.0,1611.0,300.0,410.9999999999412,36.94
1603053494.9225,79.0,1611.0,300.0,410.9999999999412,36.94
1603053494.9242,79.0,1611.0,293.0,410.9999999999412,36.94
1603053494.9262,79.0,1611.0,291.0,410.9999999999412,36.94
1603053494.9282,79.0,1611.0,300.0,410.9999999999412,36.94
1603053494.9302,79.0,1611.0,303.0,410.9999999999412,36.94
1603053494.9322,79.0,1611.0,298.0,410.9999999999412,36.94
1603053494.9342,79.0,1611.0,293.0,410.9999999999412,36.94
1603053494.9362,79.0,1611.0,293.0,410.9999999999412,36.94
1603053494.9382,79.0,1611.0,388.0,410.9999999999412,36.94
1603053494.9402,79.0,1611.0,649.0,410.9999999999412,36.94
1603053494.9422,79.0,1611.0,790.0,410.9999999999412,36.94
1603053494.9442,79.0,1611.0,368.0,410.9999999999412,36.94
1603053494.9462,79.0,1611.0,-242.0,410.9999999999412,36.94
1603053494.9482,79.0,1611.0,-198.0,410.9999999999412,36.94
1603053494.9502,79.0,1611.0,210.0,410.9999999999412,36.94
1603053494.9522,79.0,1611.0,283.0,410.9999999999412,36.94
1603053494.9542,79.0,1611.0,227.0,410.9999999999412,36.94
1603053494.9562,79.0,1611.0,295.0,410.9999999999412,36.94
1603053494.9582,79.0,1611.0,310.0,410.9999999999412,36.94
1603053494.9602,79.0,1611.0,271.0,410.9999999999412,36.94
1603053494.9622,79.0,1611.0,286.0,410.9999999999412,36.94
1603053494.9642,79.0,1611.0,305.0,410.9999999999412,36.94
1603053494.9662,79.0,1611.0,291.0,410.9999999999412,36.94
1603053494.9682,79.0,1611.0,283.0,410.9999999999412,36.94
1603053494.9702,79.0,1611.0,288.0,410.9999999999412,36.94
1603053494.9722,79.0,1611.0,288.0,410.9999999999412,36.94
1603053494.9742,79.0,1611.0,298.0,410.9999999999412,36.94
1603053494.9762,79.0,1611.0,305.0,410.9999999999412,36.94
1603053494.9782,79.0,1611.0,295.0,410.9999999999412,36.94
1603053494.9802,79.0,1611.0,293.0,410.9999999999412,36.94
1603053494.9824,79.0,1611.0,303.0,410.9999999999412,36.94
1603053495.4708,79.0,1611.0,310.0,410.9999999999412,36.94
1603053495.4717,79.0,1611.0,315.0,410.9999999999412,36.94
1603053495.4742,79.0,1611.0,327.0,410.9999999999412,36.94
1603053495.4768,79.0,1611.0,329.0,410.9999999999412,36.94
1603053495.4788,79.0,1611.0,322.0,410.9999999999412,36.94
1603053495.4808,79.0,1611.0,322.0,410.9999999999412,36.94
1603053495.4828,79.0,1611.0,324.0,410.9999999999412,36.94
1603053495.4847,79.0,1611.0,337.0,410.9999999999412,36.94
1603053495.4868,79.0,1611.0,356.0,410.9999999999412,36.94
1603053495.4888,79.0,1611.0,354.0,410.9999999999412,36.94
1603053495.4907,79.0,1611.0,349.0,410.9999999999412,36.94
1603053495.4928,79.0,1611.0,356.0,410.9999999999412,36.94
1603053495.4947,79.0,1611.0,356.0,410.9999999999412,36.94
1603053495.4966,79.0,1611.0,337.0,410.9999999999412,36.94
1603053495.4986,79.0,1611.0,310.0,410.9999999999412,36.94
1603053495.5007,79.0,1611.0,307.0,410.9999999999412,36.94
1603053495.5027,79.0,1611.0,312.0,410.9999999999412,36.94
1603053495.5047,79.0,1611.0,286.0,410.9999999999412,36.94
1603053495.5067,79.0,1611.0,237.0,410.9999999999412,36.94
1603053495.5086,79.0,1611.0,213.0,410.9999999999412,36.94
1603053495.5108,79.0,1611.0,213.0,410.9999999999412,36.94
1603053495.5128,79.0,1611.0,201.0,410.9999999999412,36.94
1603053495.5146,79.0,1611.0,179.0,410.9999999999412,36.94
1603053495.5166,79.0,1611.0,174.0,410.9999999999412,36.94
1603053495.5187,79.0,1611.0,172.0,410.9999999999412,36.94
1603053495.5206,79.0,1611.0,162.0,410.9999999999412,36.94
1603053495.5227,79.0,1611.0,152.0,410.9999999999412,36.94
1603053495.5246,79.0,1611.0,160.0,410.9999999999412,36.94
1603053495.5267,79.0,1611.0,177.0,410.9999999999412,36.94
1603053495.5286,79.0,1611.0,181.0,410.9999999999412,36.94
1603053495.5307,79.0,1611.0,179.0,410.9999999999412,36.94
1603053495.5327,79.0,1611.0,184.0,410.9999999999412,36.94
1603053495.5346,79.0,1611.0,191.0,410.9999999999412,36.94
1603053495.5367,79.0,1611.0,194.0,410.9999999999412,36.94
1603053495.5387,79.0,1611.0,210.0,410.9999999999412,36.94
1603053495.5407,79.0,1611.0,218.0,410.9999999999412,36.94
1603053495.5427,79.0,1611.0,196.0,410.9999999999412,36.94
1603053495.5447,79.0,1611.0,184.0,410.9999999999412,36.94
1603053495.5466,79.0,1611.0,206.0,410.9999999999412,36.94
1603053495.5487,79.0,1611.0,215.0,410.9999999999412,36.94
1603053495.5507,79.0,1611.0,203.0,410.9999999999412,36.94
1603053495.5526,79.0,1611.0,210.0,410.9999999999412,36.94
1603053495.5547,79.0,1611.0,223.0,410.9999999999412,36.94
1603053495.5567,79.0,1611.0,201.0,410.9999999999412,36.94
1603053495.5586,79.0,1611.0,177.0,410.9999999999412,36.94
1603053495.5607,79.0,1611.0,189.0,410.9999999999412,36.94
1603053495.5627,79.0,1611.0,198.0,410.9999999999412,36.94
1603053495.5646,79.0,1611.0,198.0,410.9999999999412,36.94
1603053495.5667,79.0,1611.0,201.0,410.9999999999412,36.94
1603053495.5687,79.0,1611.0,198.0,410.9999999999412,36.94
1603053495.5707,79.0,1611.0,184.0,410.9999999999412,36.94
1603053495.5727,79.0,1611.0,184.0,410.9999999999412,36.94
1603053495.5747,79.0,1611.0,201.0,410.9999999999412,36.94
1603053495.5767,79.0,1611.0,198.0,410.9999999999412,36.94
1603053495.5787,79.0,1611.0,181.0,410.9999999999412,36.94
1603053495.5806,79.0,1611.0,184.0,410.9999999999412,36.94
1603053495.5827,79.0,1611.0,194.0,410.9999999999412,36.94
1603053495.5847,79.0,1611.0,184.0,410.9999999999412,36.94
1603053495.5867,79.0,1611.0,174.0,410.9999999999412,36.94
1603053495.5942,79.0,1611.0,179.0,410.9999999999412,36.94
1603053495.5957,79.0,1611.0,184.0,410.9999999999412,36.94
1603053495.5977,79.0,1611.0,177.0,410.9999999999412,36.94
1603053495.5997,79.0,1611.0,172.0,410.9999999999412,36.94
1603053495.6017,79.0,1611.0,174.0,410.9999999999412,36.94
1603053495.6037,79.0,1611.0,191.0,410.9999999999412,36.94
1603053495.6057,79.0,1611.0,218.0,410.9999999999412,36.94
1603053495.6076,79.0,1611.0,225.0,410.9999999999412,36.94
1603053495.6096,79.0,1611.0,198.0,410.9999999999412,36.94
1603053495.6117,79.0,1611.0,179.0,410.9999999999412,36.94
1603053495.6137,79.0,1611.0,184.0,410.9999999999412,36.94
1603053495.6156,79.0,1611.0,184.0,410.9999999999412,36.94
1603053495.6178,79.0,1611.0,181.0,410.9999999999412,36.94
1603053495.6197,79.0,1611.0,179.0,410.9999999999412,36.94
1603053495.9803,77.0,825.0,177.0,410.9999999999412,36.94
1603053495.9809,77.0,825.0,169.0,410.9999999999412,36.94
1603053495.9833,77.0,825.0,169.0,410.9999999999412,36.94
1603053495.986,77.0,825.0,184.0,410.9999999999412,36.94
1603053495.988,77.0,825.0,194.0,410.9999999999412,36.94
1603053495.9899,77.0,825.0,196.0,410.9999999999412,36.94
1603053495.992,77.0,825.0,196.0,410.9999999999412,36.94
1603053495.9939,77.0,825.0,191.0,410.9999999999412,36.94
1603053495.9959,77.0,825.0,278.0,410.9999999999412,36.94
1603053495.998,77.0,825.0,533.0,410.9999999999412,36.94
1603053495.9999,77.0,825.0,676.0,410.9999999999412,36.94
1603053496.0019,77.0,825.0,264.0,410.9999999999412,36.94
1603053496.0039,77.0,825.0,-358.0,410.9999999999412,36.94
1603053496.0059,77.0,825.0,-327.0,410.9999999999412,36.94
1603053496.0079,77.0,825.0,104.0,410.9999999999412,36.94
1603053496.0099,77.0,825.0,181.0,410.9999999999412,36.94
1603053496.0119,77.0,825.0,118.0,410.9999999999412,36.94
1603053496.0139,77.0,825.0,194.0,410.9999999999412,36.94
1603053496.0159,77.0,825.0,215.0,410.9999999999412,36.94
1603053496.0179,77.0,825.0,179.0,410.9999999999412,36.94
1603053496.0199,77.0,825.0,191.0,410.9999999999412,36.94
1603053496.0219,77.0,825.0,198.0,410.9999999999412,36.94
1603053496.024,77.0,825.0,191.0,410.9999999999412,36.94
1603053496.0259,77.0,825.0,201.0,410.9999999999412,36.94
1603053496.0279,77.0,825.0,210.0,410.9999999999412,36.94
1603053496.0299,77.0,825.0,218.0,410.9999999999412,36.94
1603053496.0319,77.0,825.0,225.0,410.9999999999412,36.94
1603053496.0339,77.0,825.0,218.0,410.9999999999412,36.94
1603053496.0359,77.0,825.0,213.0,410.9999999999412,36.94
1603053496.0379,77.0,825.0,218.0,410.9999999999412,36.94
1603053496.04,77.0,825.0,223.0,410.9999999999412,36.94
1603053496.0419,77.0,825.0,227.0,410.9999999999412,36.94
1603053496.0439,77.0,825.0,240.0,410.9999999999412,36.94
1603053496.0459,77.0,825.0,249.0,410.9999999999412,36.94
1603053496.0479,77.0,825.0,247.0,410.9999999999412,36.94
1603053496.0499,77.0,825.0,259.0,410.9999999999412,36.94
1603053496.0519,77.0,825.0,278.0,410.9999999999412,36.94
1603053496.0539,77.0,825.0,288.0,410.9999999999412,36.94
1603053496.0559,77.0,825.0,281.0,410.9999999999412,36.94
1603053496.0579,77.0,825.0,278.0,410.9999999999412,36.94
1603053496.0599,77.0,825.0,286.0,410.9999999999412,36.94
1603053496.0619,77.0,825.0,293.0,410.9999999999412,36.94
1603053496.0639,77.0,825.0,295.0,410.9999999999412,36.94
1603053496.0659,77.0,825.0,291.0,410.9999999999412,36.94
1603053496.068,77.0,825.0,274.0,410.9999999999412,36.94
1603053496.0699,77.0,825.0,254.0,410.9999999999412,36.94
1603053496.0719,77.0,825.0,247.0,410.9999999999412,36.94
1603053496.0739,77.0,825.0,232.0,410.9999999999412,36.94
1603053496.0759,77.0,825.0,210.0,410.9999999999412,36.94
1603053496.078,77.0,825.0,186.0,410.9999999999412,36.94
1603053496.08,77.0,825.0,160.0,410.9999999999412,36.94
1603053496.0818,77.0,825.0,128.0,410.9999999999412,36.94
1603053496.0839,77.0,825.0,109.0,410.9999999999412,36.94
1603053496.0859,77.0,825.0,109.0,410.9999999999412,36.94
1603053496.0879,77.0,825.0,104.0,410.9999999999412,36.94
1603053496.0899,77.0,825.0,97.0,410.9999999999412,36.94
1603053496.0919,77.0,825.0,97.0,410.9999999999412,36.94
1603053496.094,77.0,825.0,99.0,410.9999999999412,36.94
1603053496.0959,77.0,825.0,101.0,410.9999999999412,36.94
1603053496.0979,77.0,825.0,116.0,410.9999999999412,36.94
1603053496.1,77.0,825.0,121.0,410.9999999999412,36.94
1603053496.102,77.0,825.0,111.0,410.9999999999412,36.94
1603053496.1039,77.0,825.0,116.0,410.9999999999412,36.94
1603053496.1059,77.0,825.0,130.0,410.9999999999412,36.94
1603053496.1079,77.0,825.0,140.0,410.9999999999412,36.94
1603053496.1099,77.0,825.0,143.0,410.9999999999412,36.94
1603053496.1119,77.0,825.0,135.0,410.9999999999412,36.94
1603053496.1139,77.0,825.0,135.0,410.9999999999412,36.94
1603053496.1159,77.0,825.0,145.0,410.9999999999412,36.94
1603053496.1179,77.0,825.0,150.0,410.9999999999412,36.94
1603053496.1199,77.0,825.0,147.0,410.9999999999412,36.94
1603053496.1219,77.0,825.0,145.0,410.9999999999412,36.94
1603053496.1239,77.0,825.0,143.0,410.9999999999412,36.94
1603053496.5507,77.0,825.0,140.0,410.9999999999412,36.94
1603053496.5516,77.0,825.0,138.0,410.9999999999412,36.94
1603053496.554,77.0,825.0,138.0,410.9999999999412,36.94
1603053496.5566,77.0,825.0,135.0,410.9999999999412,36.94
1603053496.5586,77.0,825.0,133.0,410.9999999999412,36.94
1603053496.5606,77.0,825.0,138.0,410.9999999999412,36.94
1603053496.5627,77.0,825.0,140.0,410.9999999999412,36.94
1603053496.5646,77.0,825.0,138.0,410.9999999999412,36.94
1603053496.5666,77.0,825.0,126.0,410.9999999999412,36.94
1603053496.5686,77.0,825.0,109.0,410.9999999999412,36.94
1603053496.5706,77.0,825.0,106.0,410.9999999999412,36.94
1603053496.5726,77.0,825.0,121.0,410.9999999999412,36.94
1603053496.5745,77.0,825.0,128.0,410.9999999999412,36.94
1603053496.5766,77.0,825.0,128.0,410.9999999999412,36.94
1603053496.5785,77.0,825.0,128.0,410.9999999999412,36.94
1603053496.5805,77.0,825.0,135.0,410.9999999999412,36.94
1603053496.5826,77.0,825.0,133.0,410.9999999999412,36.94
1603053496.5845,77.0,825.0,123.0,410.9999999999412,36.94
1603053496.5865,77.0,825.0,121.0,410.9999999999412,36.94
1603053496.5885,77.0,825.0,123.0,410.9999999999412,36.94
1603053496.5905,77.0,825.0,126.0,410.9999999999412,36.94
1603053496.5913,77.0,825.0,126.0,410.9999999999412,36.94
1603053496.5935,77.0,825.0,130.0,410.9999999999412,36.94
1603053496.5955,77.0,825.0,157.0,410.9999999999412,36.94
1603053496.5976,77.0,825.0,179.0,410.9999999999412,36.94
1603053496.5995,77.0,825.0,164.0,410.9999999999412,36.94
1603053496.6015,77.0,825.0,138.0,410.9999999999412,36.94
1603053496.6037,77.0,825.0,135.0,410.9999999999412,36.94
1603053496.6056,77.0,825.0,145.0,410.9999999999412,36.94
1603053496.6075,77.0,825.0,135.0,410.9999999999412,36.94
1603053496.6095,77.0,825.0,121.0,410.9999999999412,36.94
1603053496.6115,77.0,825.0,126.0,410.9999999999412,36.94
1603053496.6135,77.0,825.0,133.0,410.9999999999412,36.94
1603053496.6155,77.0,825.0,130.0,410.9999999999412,36.94
1603053496.6176,77.0,825.0,130.0,410.9999999999412,36.94
1603053496.6195,77.0,825.0,130.0,410.9999999999412,36.94
1603053496.6215,77.0,825.0,130.0,410.9999999999412,36.94
1603053496.6222,77.0,825.0,133.0,410.9999999999412,36.94
1603053496.6245,77.0,825.0,138.0,410.9999999999412,36.94
1603053496.6266,77.0,825.0,203.0,410.9999999999412,36.94
1603053496.6285,77.0,825.0,426.0,410.9999999999412,36.94
1603053496.6305,77.0,825.0,623.0,410.9999999999412,36.94
1603053496.6326,77.0,825.0,332.0,410.9999999999412,36.94
1603053496.6346,77.0,825.0,-312.0,410.9999999999412,36.94
1603053496.6365,77.0,825.0,-438.0,410.9999999999412,36.94
1603053496.6385,77.0,825.0,-12.0,410.9999999999412,36.94
1603053496.6405,77.0,825.0,155.0,410.9999999999412,36.94
1603053496.6426,77.0,825.0,72.0,410.9999999999412,36.94
1603053496.6445,77.0,825.0,118.0,410.9999999999412,36.94
1603053496.6465,77.0,825.0,172.0,410.9999999999412,36.94
1603053496.6485,77.0,825.0,143.0,410.9999999999412,36.94
1603053496.6505,77.0,825.0,143.0,410.9999999999412,36.94
1603053496.6513,77.0,825.0,169.0,410.9999999999412,36.94
1603053496.6535,77.0,825.0,164.0,410.9999999999412,36.94
1603053496.6556,77.0,825.0,167.0,410.9999999999412,36.94
1603053496.6575,77.0,825.0,174.0,410.9999999999412,36.94
1603053496.6595,77.0,825.0,160.0,410.9999999999412,36.94
1603053496.6615,77.0,825.0,150.0,410.9999999999412,36.94
1603053496.6635,77.0,825.0,162.0,410.9999999999412,36.94
1603053496.6656,77.0,825.0,174.0,410.9999999999412,36.94
1603053496.6675,77.0,825.0,184.0,410.9999999999412,36.94
1603053496.6695,77.0,825.0,191.0,410.9999999999412,36.94
1603053496.6715,77.0,825.0,194.0,410.9999999999412,36.94
1603053496.6736,77.0,825.0,198.0,410.9999999999412,36.94
1603053496.6756,77.0,825.0,208.0,410.9999999999412,36.94
1603053496.6776,77.0,825.0,213.0,410.9999999999412,36.94
1603053496.6795,77.0,825.0,227.0,410.9999999999412,36.94
1603053496.6815,77.0,825.0,235.0,410.9999999999412,36.94
1603053496.6822,77.0,825.0,227.0,410.9999999999412,36.94
1603053496.6835,77.0,825.0,232.0,410.9999999999412,36.94
1603053496.6855,77.0,825.0,254.0,410.9999999999412,36.94
1603053496.6875,77.0,825.0,259.0,410.9999999999412,36.94
1603053496.6895,77.0,825.0,252.0,410.9999999999412,36.94
1603053497.0898,76.0,839.0,247.0,410.9999999999412,36.94
1603053497.0904,76.0,839.0,242.0,410.9999999999412,36.94
1603053497.0929,76.0,839.0,240.0,410.9999999999412,36.94
1603053497.0955,76.0,839.0,242.0,410.9999999999412,36.94
1603053497.0975,76.0,839.0,232.0,410.9999999999412,36.94
1603053497.0996,76.0,839.0,206.0,410.9999999999412,36.94
1603053497.1015,76.0,839.0,172.0,410.9999999999412,36.94
1603053497.1035,76.0,839.0,150.0,410.9999999999412,36.94
1603053497.1041,76.0,839.0,145.0,410.9999999999412,36.94
1603053497.1064,76.0,839.0,133.0,410.9999999999412,36.94
1603053497.1084,76.0,839.0,101.0,410.9999999999412,36.94
1603053497.1104,76.0,839.0,65.0,410.9999999999412,36.94
1603053497.1125,76.0,839.0,53.0,410.9999999999412,36.94
1603053497.1145,76.0,839.0,65.0,410.9999999999412,36.94
1603053497.1164,76.0,839.0,77.0,410.9999999999412,36.94
1603053497.1184,76.0,839.0,82.0,410.9999999999412,36.94
1603053497.1204,76.0,839.0,80.0,410.9999999999412,36.94
1603053497.1225,76.0,839.0,72.0,410.9999999999412,36.94
1603053497.1244,76.0,839.0,72.0,410.9999999999412,36.94
1603053497.1264,76.0,839.0,92.0,410.9999999999412,36.94
1603053497.1284,76.0,839.0,109.0,410.9999999999412,36.94
1603053497.1304,76.0,839.0,111.0,410.9999999999412,36.94
1603053497.1325,76.0,839.0,111.0,410.9999999999412,36.94
1603053497.1344,76.0,839.0,111.0,411.01413053920874,36.94
1603053497.1351,76.0,839.0,106.0,411.0268191867142,36.94
1603053497.1364,76.0,839.0,111.0,411.0380950715843,36.94
1603053497.1384,76.0,839.0,116.0,411.04798732294535,36.94
1603053497.1404,76.0,839.0,113.0,411.05652506992385,36.94
1603053497.1425,76.0,839.0,109.0,411.0637374416465,36.94
1603053497.1444,76.0,839.0,106.0,411.0696535672397,36.94
1603053497.1464,76.0,839.0,101.0,411.07430257582985,36.94
1603053497.1484,76.0,839.0,116.0,411.0777135965435,36.94
1603053497.1504,76.0,839.0,130.0,411.07991575850735,36.94
1603053497.1525,76.0,839.0,121.0,411.08093819084763,36.94
1603053497.1544,76.0,839.0,109.0,411.080810022691,36.94
1603053497.1564,76.0,839.0,106.0,411.079560383164,36.94
1603053497.1584,76.0,839.0,106.0,411.077218401393,36.94
1603053497.1604,76.0,839.0,104.0,411.0738132065045,36.94
1603053497.1625,76.0,839.0,106.0,411.0693739276252,36.94
1603053497.1644,76.0,839.0,118.0,411.0639296938814,36.94
1603053497.1651,76.0,839.0,113.0,411.0575096343998,36.94
1603053497.1674,76.0,839.0,89.0,411.0501428783067,36.94
1603053497.1694,76.0,839.0,87.0,411.0418585547287,36.94
1603053497.1714,76.0,839.0,118.0,411.03268579279234,36.94
1603053497.1734,76.0,839.0,130.0,411.022653721624,36.94
1603053497.1754,76.0,839.0,106.0,411.0117914703503,36.94
1603053497.1775,76.0,839.0,101.0,411.00012816809783,36.94
1603053497.1794,76.0,839.0,111.0,410.9876929439929,36.94
1603053497.1814,76.0,839.0,104.0,410.9745149271621,36.94
1603053497.1834,76.0,839.0,101.0,410.96062324673187,36.94
1603053497.1854,76.0,839.0,118.0,410.9460470318288,36.94
1603053497.1874,76.0,839.0,123.0,410.9308154115795,36.94
1603053497.1894,76.0,839.0,128.0,410.91495751511025,36.94
1603053497.1914,76.0,839.0,135.0,410.89850247154754,36.94
1603053497.1935,76.0,839.0,133.0,410.8814794100182,36.94
1603053497.1954,76.0,839.0,130.0,410.8639174596484,36.94
1603053497.1963,76.0,839.0,133.0,410.8458457495648,36.94
1603053497.1984,76.0,839.0,130.0,410.82729340889375,36.94
1603053497.2004,76.0,839.0,116.0,410.808289566762,36.94
1603053497.2025,76.0,839.0,99.0,410.78886335229595,36.94
1603053497.2044,76.0,839.0,94.0,410.769043894622,36.94
1603053497.2064,76.0,839.0,99.0,410.7488603228668,36.94
1603053497.2084,76.0,839.0,109.0,410.72834176615675,36.94
1603053497.2104,76.0,839.0,109.0,410.7075173536183,36.94
1603053497.2125,76.0,839.0,101.0,410.68641621437826,36.94
1603053497.2144,76.0,839.0,106.0,410.66506747756284,36.94
1603053497.2164,76.0,839.0,121.0,410.64350027229864,36.94
1603053497.2184,76.0,839.0,118.0,410.6217437277121,36.94
1603053497.2204,76.0,839.0,140.0,410.5998269729298,36.94
1603053497.2225,76.0,839.0,298.0,410.5777791370783,36.94
1603053497.2244,76.0,839.0,545.0,410.555629349284,36.94
1603053497.2264,76.0,839.0,499.0,410.5334067386734,36.94
1603053497.2271,76.0,839.0,-67.0,410.51114043437315,36.94
1603053497.6902,76.0,839.0,-482.0,410.48885956550953,37.0
1603053497.6911,76.0,839.0,-196.0,410.46659326120925,37.0
1603053497.6935,76.0,839.0,126.0,410.44437065059867,37.0
1603053497.6962,76.0,839.0,82.0,410.42222086280435,37.0
1603053497.6982,76.0,839.0,75.0,410.4001730269528,37.0
1603053497.7002,76.0,839.0,152.0,410.3782562721705,37.0
1603053497.7023,76.0,839.0,126.0,410.356499727584,37.0
1603053497.7041,76.0,839.0,99.0,410.3349325223198,37.0
1603053497.7061,76.0,839.0,138.0,410.31358378550436,37.0
1603053497.7081,76.0,839.0,145.0,410.2924826462642,37.0
1603053497.7101,76.0,839.0,123.0,410.2716582337259,37.0
1603053497.7121,76.0,839.0,130.0,410.25113967701583,37.0
1603053497.714,76.0,839.0,145.0,410.23095610526053,37.0
1603053497.716,76.0,839.0,143.0,410.21113664758667,37.0
1603053497.7168,76.0,839.0,140.0,410.1917104331205,37.0
1603053497.719,76.0,839.0,150.0,410.17270659098875,37.0
1603053497.721,76.0,839.0,164.0,410.15415425031773,37.0
1603053497.7231,76.0,839.0,164.0,410.1360825402341,37.0
1603053497.7251,76.0,839.0,157.0,410.1185205898643,37.0
1603053497.7272,76.0,839.0,160.0,410.10149752833496,37.0
1603053497.729,76.0,839.0,174.0,410.08504248477226,37.0
1603053497.7311,76.0,839.0,181.0,410.069184588303,37.0
1603053497.7331,76.0,839.0,184.0,410.0539529680537,37.0
1603053497.735,76.0,839.0,194.0,410.03937675315063,37.0
1603053497.7371,76.0,839.0,206.0,410.0254850727204,37.0
1603053497.739,76.0,839.0,218.0,410.0123070558896,37.0
1603053497.741,76.0,839.0,230.0,409.9998718317847,37.0
1603053497.7431,76.0,839.0,240.0,409.9882085295322,37.0
1603053497.745,76.0,839.0,240.0,409.9773462782585,37.0
1603053497.7458,76.0,839.0,227.0,409.96731420709017,37.0
1603053497.748,76.0,839.0,215.0,409.9581414451538,37.0
1603053497.7501,76.0,839.0,220.0,409.9498571215758,37.0
1603053497.7521,76.0,839.0,223.0,409.9424903654827,37.0
1603053497.754,76.0,839.0,208.0,409.936070306001,37.0
1603053497.7562,76.0,839.0,184.0,409.9306260722573,37.0
1603053497.7581,76.0,839.0,167.0,409.9261867933779,37.0
1603053497.76,76.0,839.0,152.0,409.9227815984895,37.0
1603053497.762,76.0,839.0,116.0,409.9204396167185,37.0
1603053497.764,76.0,839.0,82.0,409.9191899771915,37.0
1603053497.766,76.0,839.0,80.0,409.9190618090349,37.0
1603053497.7681,76.0,839.0,82.0,409.92008424137515,37.0
1603053497.77,76.0,839.0,67.0,409.922286403339,37.0
1603053497.772,76.0,839.0,58.0,409.92569742405266,37.0
1603053497.7741,76.0,839.0,60.0,409.9303464326428,37.0
1603053497.776,76.0,839.0,63.0,409.936262558236,37.0
1603053497.7767,76.0,839.0,65.0,409.94347492995865,37.0
1603053497.778,76.0,839.0,72.0,409.95201267693716,37.0
1603053497.78,76.0,839.0,82.0,409.9619049282982,37.0
1603053497.782,76.0,839.0,84.0,409.9731808131683,37.0
1603053497.7841,76.0,839.0,82.0,409.98586946067377,37.0
1603053497.786,76.0,839.0,82.0,409.9999999999413,37.0
1603053497.7881,76.0,839.0,92.0,409.9999999999413,37.0
1603053497.79,76.0,839.0,97.0,409.9999999999413,37.0
1603053497.792,76.0,839.0,99.0,409.9999999999413,37.0
1603053497.7941,76.0,839.0,106.0,409.9999999999413,37.0
1603053497.796,76.0,839.0,109.0,409.9999999999413,37.0
1603053497.7981,76.0,839.0,109.0,409.9999999999413,37.0
1603053497.8001,76.0,839.0,111.0,409.9999999999413,37.0
1603053497.802,76.0,839.0,97.0,409.9999999999413,37.0
1603053497.8041,76.0,839.0,87.0,409.9999999999413,37.0
1603053497.806,76.0,839.0,97.0,409.9999999999413,37.0
1603053497.8068,76.0,839.0,106.0,409.9999999999413,37.0
1603053497.8081,76.0,839.0,109.0,409.9999999999413,37.0
1603053497.81,76.0,839.0,109.0,409.9999999999413,37.0
1603053497.812,76.0,839.0,101.0,409.9999999999413,37.0
1603053497.814,76.0,839.0,101.0,409.9999999999413,37.0
1603053497.816,76.0,839.0,109.0,409.9999999999413,37.0
1603053497.8181,76.0,839.0,106.0,409.9999999999413,37.0
1603053497.82,76.0,839.0,104.0,409.9999999999413,37.0
1603053497.822,76.0,839.0,97.0,409.9999999999413,37.0
1603053497.8241,76.0,839.0,94.0,409.9999999999413,37.0
1603053497.8261,76.0,839.0,104.0,409.9999999999413,37.0
1603053497.828,76.0,839.0,111.0,409.9999999999413,37.0
1603053498.2003,76.0,819.0,104.0,409.9999999999413,37.0
1603053498.2011,76.0,819.0,97.0,409.9999999999413,37.0
1603053498.2031,76.0,819.0,104.0,409.9999999999413,37.0
1603053498.205,76.0,819.0,101.0,409.9999999999413,37.0
1603053498.2069,76.0,819.0,94.0,409.9999999999413,37.0
1603053498.2089,76.0,819.0,104.0,409.9999999999413,37.0
1603053498.2109,76.0,819.0,113.0,409.9999999999413,37.0
1603053498.213,76.0,819.0,121.0,409.9999999999413,37.0
1603053498.2149,76.0,819.0,138.0,409.9999999999413,37.0
1603053498.2169,76.0,819.0,140.0,409.9999999999413,37.0
1603053498.2189,76.0,819.0,128.0,409.9999999999413,37.0
1603053498.221,76.0,819.0,118.0,409.9999999999413,37.0
1603053498.2232,76.0,819.0,109.0,409.9999999999413,37.0
1603053498.225,76.0,819.0,99.0,409.9999999999413,37.0
1603053498.2269,76.0,819.0,97.0,409.9999999999413,37.0
1603053498.2289,76.0,819.0,87.0,409.9999999999413,37.0
1603053498.2309,76.0,819.0,77.0,409.9999999999413,37.0
1603053498.233,76.0,819.0,82.0,409.9999999999413,37.0
1603053498.2349,76.0,819.0,94.0,409.9999999999413,37.0
1603053498.2369,76.0,819.0,89.0,409.9999999999413,37.0
1603053498.2389,76.0,819.0,82.0,409.9999999999413,37.0
1603053498.2409,76.0,819.0,89.0,409.9999999999413,37.0
1603053498.243,76.0,819.0,84.0,409.9999999999413,37.0
1603053498.2449,76.0,819.0,97.0,409.9999999999413,37.0
1603053498.2469,76.0,819.0,249.0,409.9999999999413,37.0
1603053498.2489,76.0,819.0,518.0,409.9999999999413,37.0
1603053498.251,76.0,819.0,528.0,409.9999999999413,37.0
1603053498.2529,76.0,819.0,-9.0,409.9999999999413,37.0
1603053498.2549,76.0,819.0,-494.0,409.9999999999413,37.0
1603053498.2569,76.0,819.0,-278.0,409.9999999999413,37.0
1603053498.2589,76.0,819.0,80.0,409.9999999999413,37.0
1603053498.2609,76.0,819.0,84.0,409.9999999999413,37.0
1603053498.2629,76.0,819.0,70.0,409.9999999999413,37.0
1603053498.2649,76.0,819.0,135.0,409.9999999999413,37.0
1603053498.2669,76.0,819.0,128.0,409.9999999999413,37.0
1603053498.2689,76.0,819.0,113.0,409.9999999999413,37.0
1603053498.2709,76.0,819.0,121.0,409.9999999999413,37.0
1603053498.273,76.0,819.0,111.0,409.9999999999413,37.0
1603053498.2749,76.0,819.0,116.0,409.9999999999413,37.0
1603053498.2769,76.0,819.0,138.0,409.9999999999413,37.0
1603053498.2789,76.0,819.0,130.0,409.9999999999413,37.0
1603053498.281,76.0,819.0,123.0,409.9999999999413,37.0
1603053498.2829,76.0,819.0,135.0,409.9999999999413,37.0
1603053498.2849,76.0,819.0,138.0,409.9999999999413,37.0
1603053498.2869,76.0,819.0,147.0,409.9999999999413,37.0
1603053498.2889,76.0,819.0,160.0,409.9999999999413,37.0
1603053498.2909,76.0,819.0,150.0,409.9999999999413,37.0
1603053498.293,76.0,819.0,147.0,409.9999999999413,37.0
1603053498.2949,76.0,819.0,167.0,409.9999999999413,37.0
1603053498.2969,76.0,819.0,181.0,409.9999999999413,37.0
1603053498.2989,76.0,819.0,179.0,409.9999999999413,37.0
1603053498.3009,76.0,819.0,181.0,409.9999999999413,37.0
1603053498.3029,76.0,819.0,196.0,409.9999999999413,37.0
1603053498.3049,76.0,819.0,213.0,409.9999999999413,37.0
1603053498.3069,76.0,819.0,220.0,409.9999999999413,37.0
1603053498.3089,76.0,819.0,220.0,409.9999999999413,37.0
1603053498.3109,76.0,819.0,225.0,409.9999999999413,37.0
1603053498.313,76.0,819.0,227.0,409.9999999999413,37.0
1603053498.3149,76.0,819.0,227.0,409.9999999999413,37.0
1603053498.3169,76.0,819.0,227.0,409.9999999999413,37.0
1603053498.3189,76.0,819.0,220.0,409.9999999999413,37.0
1603053498.3209,76.0,819.0,206.0,409.9999999999413,37.0
1603053498.3229,76.0,819.0,189.0,409.9999999999413,37.0
1603053498.3251,76.0,819.0,169.0,409.9999999999413,37.0
1603053498.3269,76.0,819.0,140.0,409.9999999999413,37.0
1603053498.3289,76.0,819.0,106.0,409.9999999999413,37.0
1603053498.3309,76.0,819.0,92.0,409.9999999999413,37.0
1603053498.333,76.0,819.0,92.0,409.9999999999413,37.0
1603053498.3349,76.0,819.0,84.0,409.9999999999413,37.0
1603053498.3369,76.0,819.0,65.0,409.9999999999413,37.0
1603053498.3389,76.0,819.0,48.0,409.9999999999413,37.0
1603053498.3409,76.0,819.0,43.0,409.9999999999413,37.0
1603053498.343,76.0,819.0,46.0,409.9999999999413,37.0
1603053498.8299,76.0,819.0,48.0,409.9999999999413,37.0
1603053498.8307,76.0,819.0,53.0,409.9999999999413,37.0
1603053498.8332,76.0,819.0,55.0,409.9999999999413,37.0
1603053498.8358,76.0,819.0,58.0,409.9999999999413,37.0
1603053498.8378,76.0,819.0,63.0,409.9999999999413,37.0
1603053498.8398,76.0,819.0,65.0,409.9999999999413,37.0
1603053498.8419,76.0,819.0,70.0,409.9999999999413,37.0
1603053498.8438,76.0,819.0,75.0,409.9999999999413,37.0
1603053498.8458,76.0,819.0,77.0,409.9999999999413,37.0
1603053498.8478,76.0,819.0,77.0,409.9999999999413,37.0
1603053498.8498,76.0,819.0,84.0,409.9999999999413,37.0
1603053498.8518,76.0,819.0,97.0,409.9999999999413,37.0
1603053498.8538,76.0,819.0,89.0,409.9999999999413,37.0
1603053498.8558,76.0,819.0,75.0,409.9999999999413,37.0
1603053498.8578,76.0,819.0,84.0,409.9999999999413,37.0
1603053498.8598,76.0,819.0,97.0,409.9999999999413,37.0
1603053498.8618,76.0,819.0,84.0,409.9999999999413,37.0
1603053498.8637,76.0,819.0,70.0,409.9999999999413,37.0
1603053498.8657,76.0,819.0,77.0,409.9999999999413,37.0
1603053498.8677,76.0,819.0,84.0,409.9999999999413,37.0
1603053498.8697,76.0,819.0,82.0,409.9999999999413,37.0
1603053498.8717,76.0,819.0,77.0,409.9999999999413,37.0
1603053498.8738,76.0,819.0,72.0,409.9999999999413,37.0
1603053498.8757,76.0,819.0,77.0,409.9999999999413,37.0
1603053498.8777,76.0,819.0,84.0,409.9999999999413,37.0
1603053498.8797,76.0,819.0,87.0,409.9999999999413,37.0
1603053498.8817,76.0,819.0,89.0,409.9999999999413,37.0
1603053498.8838,76.0,819.0,82.0,409.9999999999413,37.0
1603053498.8857,76.0,819.0,72.0,409.9999999999413,37.0
1603053498.8877,76.0,819.0,77.0,409.9999999999413,37.0
1603053498.8897,76.0,819.0,89.0,409.9999999999413,37.0
1603053498.8917,76.0,819.0,87.0,409.9999999999413,37.0
1603053498.8937,76.0,819.0,77.0,409.9999999999413,37.0
1603053498.8957,76.0,819.0,80.0,409.9999999999413,37.0
1603053498.8977,76.0,819.0,97.0,409.9999999999413,37.0
1603053498.8997,76.0,819.0,113.0,409.9999999999413,37.0
1603053498.9017,76.0,819.0,121.0,409.9999999999413,37.0
1603053498.9037,76.0,819.0,113.0,409.9999999999413,37.0
1603053498.9057,76.0,819.0,111.0,409.9999999999413,37.0
1603053498.9077,76.0,819.0,113.0,409.9999999999413,37.0
1603053498.9097,76.0,819.0,101.0,409.9999999999413,37.0
1603053498.9119,76.0,819.0,84.0,409.9999999999413,37.0
1603053498.9137,76.0,819.0,89.0,409.9999999999413,37.0
1603053498.9157,76.0,819.0,97.0,409.9999999999413,37.0
1603053498.9176,76.0,819.0,99.0,409.9999999999413,37.0
1603053498.9197,76.0,819.0,97.0,409.9999999999413,37.0
1603053498.9217,76.0,819.0,97.0,409.9999999999413,37.0
1603053498.9237,76.0,819.0,89.0,409.9999999999413,37.0
1603053498.9257,76.0,819.0,87.0,409.9999999999413,37.0
1603053498.9277,76.0,819.0,94.0,409.9999999999413,37.0
1603053498.9297,76.0,819.0,121.0,409.9999999999413,37.0
1603053498.9318,76.0,819.0,271.0,409.9999999999413,37.0
1603053498.9337,76.0,819.0,552.0,409.9999999999413,37.0
1603053498.9357,76.0,819.0,555.0,409.9999999999413,37.0
1603053498.9377,76.0,819.0,-36.0,409.9999999999413,37.0
1603053498.9397,76.0,819.0,-538.0,409.9999999999413,37.0
1603053498.9417,76.0,819.0,-276.0,409.9999999999413,37.0
1603053498.9437,76.0,819.0,104.0,409.9999999999413,37.0
1603053498.9457,76.0,819.0,80.0,409.9999999999413,37.0
1603053498.9478,76.0,819.0,50.0,409.9999999999413,37.0
1603053498.9497,76.0,819.0,138.0,409.9999999999413,37.0
1603053498.9517,76.0,819.0,140.0,409.9999999999413,37.0
1603053498.9537,76.0,819.0,111.0,409.9999999999413,37.0
1603053498.9557,76.0,819.0,133.0,409.9999999999413,37.0
1603053498.9577,76.0,819.0,147.0,409.9999999999413,37.0
1603053498.9597,76.0,819.0,138.0,409.9999999999413,37.0
1603053498.9617,76.0,819.0,133.0,409.9999999999413,37.0
1603053498.9638,76.0,819.0,138.0,409.9999999999413,37.0
1603053498.9657,76.0,819.0,143.0,409.9999999999413,37.0
1603053498.9677,76.0,819.0,147.0,409.9999999999413,37.0
1603053498.9697,76.0,819.0,147.0,409.9999999999413,37.0
1603053498.9717,76.0,819.0,140.0,409.9999999999413,37.0
1603053498.9737,76.0,819.0,138.0,409.9999999999413,37.0
1603053499.3402,75.0,820.0,147.0,409.9999999999413,36.94
1603053499.3408,75.0,820.0,157.0,409.9999999999413,36.94
1603053499.3432,75.0,820.0,174.0,409.9999999999413,36.94
1603053499.3459,75.0,820.0,186.0,409.9999999999413,36.94
1603053499.3478,75.0,820.0,181.0,409.9999999999413,36.94
1603053499.3498,75.0,820.0,174.0,409.9999999999413,36.94
1603053499.3519,75.0,820.0,191.0,409.9999999999413,36.94
1603053499.3539,75.0,820.0,213.0,409.9999999999413,36.94
1603053499.3559,75.0,820.0,220.0,409.9999999999413,36.94
1603053499.3578,75.0,820.0,208.0,409.9999999999413,36.94
1603053499.3598,75.0,820.0,196.0,409.9999999999413,36.94
1603053499.3618,75.0,820.0,198.0,409.9999999999413,36.94
1603053499.3638,75.0,820.0,203.0,409.9999999999413,36.94
1603053499.3658,75.0,820.0,201.0,409.9999999999413,36.94
1603053499.3678,75.0,820.0,186.0,409.9999999999413,36.94
1603053499.3698,75.0,820.0,162.0,409.9999999999413,36.94
1603053499.3718,75.0,820.0,140.0,409.9999999999413,36.94
1603053499.3739,75.0,820.0,123.0,409.9999999999413,36.94
1603053499.3758,75.0,820.0,94.0,409.9999999999413,36.94
1603053499.378,75.0,820.0,67.0,409.9999999999413,36.94
1603053499.3799,75.0,820.0,63.0,409.9999999999413,36.94
1603053499.3818,75.0,820.0,60.0,409.9999999999413,36.94
1603053499.3839,75.0,820.0,36.0,409.9999999999413,36.94
1603053499.3858,75.0,820.0,9.0,409.9999999999413,36.94
1603053499.3878,75.0,820.0,2.0,409.9999999999413,36.94
1603053499.3898,75.0,820.0,16.0,409.9999999999413,36.94
1603053499.3918,75.0,820.0,26.0,409.9999999999413,36.94
1603053499.3939,75.0,820.0,29.0,409.9999999999413,36.94
1603053499.3958,75.0,820.0,33.0,409.9999999999413,36.94
1603053499.3978,75.0,820.0,36.0,409.9999999999413,36.94
1603053499.3998,75.0,820.0,29.0,409.9999999999413,36.94
1603053499.4018,75.0,820.0,36.0,409.9999999999413,36.94
1603053499.4038,75.0,820.0,58.0,409.9999999999413,36.94
1603053499.4058,75.0,820.0,72.0,409.9999999999413,36.94
1603053499.4078,75.0,820.0,80.0,409.9999999999413,36.94
1603053499.4098,75.0,820.0,80.0,409.9999999999413,36.94
1603053499.4118,75.0,820.0,72.0,409.9999999999413,36.94
1603053499.4138,75.0,820.0,72.0,409.9999999999413,36.94
1603053499.4158,75.0,820.0,80.0,409.9999999999413,36.94
1603053499.4178,75.0,820.0,87.0,409.9999999999413,36.94
1603053499.4198,75.0,820.0,89.0,409.9999999999413,36.94
1603053499.4218,75.0,820.0,84.0,409.9999999999413,36.94
1603053499.4238,75.0,820.0,84.0,409.9999999999413,36.94
1603053499.4258,75.0,820.0,87.0,409.9999999999413,36.94
1603053499.4278,75.0,820.0,92.0,409.9999999999413,36.94
1603053499.4298,75.0,820.0,89.0,409.9999999999413,36.94
1603053499.4318,75.0,820.0,84.0,409.9999999999413,36.94
1603053499.4339,75.0,820.0,92.0,409.9999999999413,36.94
1603053499.4358,75.0,820.0,89.0,409.9999999999413,36.94
1603053499.4378,75.0,820.0,80.0,409.9999999999413,36.94
1603053499.4398,75.0,820.0,80.0,409.9999999999413,36.94
1603053499.4418,75.0,820.0,87.0,409.9999999999413,36.94
1603053499.4438,75.0,820.0,80.0,409.9999999999413,36.94
1603053499.4458,75.0,820.0,82.0,409.9999999999413,36.94
1603053499.4478,75.0,820.0,101.0,409.9999999999413,36.94
1603053499.4498,75.0,820.0,94.0,409.9999999999413,36.94
1603053499.4518,75.0,820.0,75.0,409.9999999999413,36.94
1603053499.4539,75.0,820.0,67.0,409.9999999999413,36.94
1603053499.4558,75.0,820.0,75.0,409.9999999999413,36.94
1603053499.4578,75.0,820.0,84.0,409.9999999999413,36.94
1603053499.4598,75.0,820.0,99.0,409.9999999999413,36.94
1603053499.4618,75.0,820.0,121.0,409.9999999999413,36.94
1603053499.4638,75.0,820.0,130.0,409.9999999999413,36.94
1603053499.4658,75.0,820.0,116.0,409.9999999999413,36.94
1603053499.4678,75.0,820.0,104.0,409.9999999999413,36.94
1603053499.4699,75.0,820.0,113.0,409.9999999999413,36.94
1603053499.4718,75.0,820.0,126.0,409.9999999999413,36.94
1603053499.4738,75.0,820.0,104.0,409.9999999999413,36.94
1603053499.4758,75.0,820.0,82.0,409.9999999999413,36.94
1603053499.4778,75.0,820.0,84.0,409.9999999999413,36.94
1603053499.48,75.0,820.0,92.0,409.9999999999413,36.94
1603053499.4818,75.0,820.0,89.0,409.9999999999413,36.94
1603053499.4838,75.0,820.0,84.0,409.9999999999413,36.94
1603053499.9104,75.0,806.0,87.0,409.9999999999413,36.94
1603053499.911,75.0,806.0,99.0,409.9999999999413,36.94
1603053499.9135,75.0,806.0,101.0,409.9999999999413,36.94
1603053499.9161,75.0,806.0,99.0,409.9999999999413,36.94
1603053499.9181,75.0,806.0,201.0,409.9999999999413,36.94
1603053499.9201,75.0,806.0,463.0,409.9999999999413,36.94
1603053499.9221,75.0,806.0,594.0,409.9999999999413,36.94
1603053499.924,75.0,806.0,162.0,409.9999999999413,36.94
1603053499.926,75.0,806.0,-475.0,409.9999999999413,36.94
1603053499.928,75.0,806.0,-436.0,409.9999999999413,36.94
1603053499.93,75.0,806.0,9.0,409.9999999999413,36.94
1603053499.932,75.0,806.0,92.0,409.9999999999413,36.94
1603053499.934,75.0,806.0,29.0,409.9999999999413,36.94
1603053499.936,75.0,806.0,104.0,409.9999999999413,36.94
1603053499.938,75.0,806.0,121.0,409.9999999999413,36.94
1603053499.94,75.0,806.0,80.0,409.9999999999413,36.94
1603053499.942,75.0,806.0,109.0,409.9999999999413,36.94
1603053499.944,75.0,806.0,138.0,409.9999999999413,36.94
1603053499.946,75.0,806.0,113.0,409.9999999999413,36.94
1603053499.948,75.0,806.0,104.0,409.9999999999413,36.94
1603053499.95,75.0,806.0,128.0,409.9999999999413,36.94
1603053499.952,75.0,806.0,145.0,409.9999999999413,36.94
1603053499.954,75.0,806.0,140.0,409.9999999999413,36.94
1603053499.956,75.0,806.0,128.0,409.9999999999413,36.94
1603053499.958,75.0,806.0,130.0,409.9999999999413,36.94
1603053499.96,75.0,806.0,140.0,409.9999999999413,36.94
1603053499.962,75.0,806.0,147.0,409.9999999999413,36.94
1603053499.964,75.0,806.0,145.0,409.9999999999413,36.94
1603053499.9661,75.0,806.0,143.0,409.9999999999413,36.94
1603053499.968,75.0,806.0,164.0,409.9999999999413,36.94
1603053499.97,75.0,806.0,179.0,409.9999999999413,36.94
1603053499.972,75.0,806.0,172.0,409.9999999999413,36.94
1603053499.974,75.0,806.0,177.0,409.9999999999413,36.94
1603053499.976,75.0,806.0,198.0,409.9999999999413,36.94
1603053499.978,75.0,806.0,208.0,409.9999999999413,36.94
1603053499.98,75.0,806.0,203.0,409.9999999999413,36.94
1603053499.982,75.0,806.0,208.0,409.9999999999413,36.94
1603053499.9841,75.0,806.0,213.0,409.9999999999413,36.94
1603053499.986,75.0,806.0,208.0,409.9999999999413,36.94
1603053499.9881,75.0,806.0,213.0,409.9999999999413,36.94
1603053499.99,75.0,806.0,213.0,409.9999999999413,36.94
1603053499.992,75.0,806.0,194.0,409.9999999999413,36.94
1603053499.9941,75.0,806.0,169.0,409.9999999999413,36.94
1603053499.996,75.0,806.0,150.0,409.9999999999413,36.94
1603053499.998,75.0,806.0,135.0,409.9999999999413,36.94
1603053500.0,75.0,806.0,113.0,409.9999999999413,36.94
1603053500.002,75.0,806.0,82.0,409.9999999999413,36.94
1603053500.004,75.0,806.0,48.0,409.9999999999413,36.94
1603053500.0062,75.0,806.0,31.0,409.9999999999413,36.94
1603053500.0081,75.0,806.0,36.0,409.9999999999413,36.94
1603053500.01,75.0,806.0,41.0,409.9999999999413,36.94
1603053500.012,75.0,806.0,36.0,409.9999999999413,36.94
1603053500.014,75.0,806.0,33.0,409.9999999999413,36.94
1603053500.016,75.0,806.0,33.0,409.9999999999413,36.94
1603053500.018,75.0,806.0,33.0,409.9999999999413,36.94
1603053500.0201,75.0,806.0,46.0,409.9999999999413,36.94
1603053500.022,75.0,806.0,63.0,409.9999999999413,36.94
1603053500.024,75.0,806.0,65.0,409.9999999999413,36.94
1603053500.026,75.0,806.0,63.0,409.9999999999413,36.94
1603053500.028,75.0,806.0,70.0,409.9999999999413,36.94
1603053500.03,75.0,806.0,80.0,409.9999999999413,36.94
1603053500.032,75.0,806.0,75.0,409.9999999999413,36.94
1603053500.034,75.0,806.0,70.0,409.9999999999413,36.94
1603053500.036,75.0,806.0,80.0,409.9999999999413,36.94
1603053500.038,75.0,806.0,92.0,409.9999999999413,36.94
1603053500.04,75.0,806.0,87.0,409.9999999999413,36.94
1603053500.042,75.0,806.0,75.0,409.9999999999413,36.94
1603053500.044,75.0,806.0,77.0,409.9999999999413,36.94
1603053500.046,75.0,806.0,84.0,409.9999999999413,36.94
1603053500.048,75.0,806.0,87.0,409.9999999999413,36.94
1603053500.05,75.0,806.0,80.0,409.9999999999413,36.94
1603053500.052,75.0,806.0,67.0,409.9999999999413,36.94
1603053500.054,75.0,806.0,60.0,409.9999999999413,36.94
1603053500.4502,75.0,806.0,63.0,409.9999999999413,36.94
1603053500.4509,75.0,806.0,82.0,409.9999999999413,36.94
1603053500.4533,75.0,806.0,94.0,409.9999999999413,36.94
1603053500.4559,75.0,806.0,80.0,409.9999999999413,36.94
1603053500.4579,75.0,806.0,65.0,409.9999999999413,36.94
1603053500.4599,75.0,806.0,65.0,409.9999999999413,36.94
1603053500.4619,75.0,806.0,75.0,409.9999999999413,36.94
1603053500.4639,75.0,806.0,80.0,409.9999999999413,36.94
1603053500.4659,75.0,806.0,63.0,409.9999999999413,36.94
1603053500.4679,75.0,806.0,48.0,409.9999999999413,36.94
1603053500.4699,75.0,806.0,63.0,409.9999999999413,36.94
1603053500.4719,75.0,806.0,67.0,409.9999999999413,36.94
1603053500.4738,75.0,806.0,46.0,409.9999999999413,36.94
1603053500.4759,75.0,806.0,50.0,409.9999999999413,36.94
1603053500.4778,75.0,806.0,89.0,409.9999999999413,36.94
1603053500.4798,75.0,806.0,111.0,409.9999999999413,36.94
1603053500.4818,75.0,806.0,113.0,409.9999999999413,36.94
1603053500.4839,75.0,806.0,113.0,409.9999999999413,36.94
1603053500.4859,75.0,806.0,97.0,409.9999999999413,36.94
1603053500.4878,75.0,806.0,80.0,409.9999999999413,36.94
1603053500.4898,75.0,806.0,87.0,409.9999999999413,36.94
1603053500.4918,75.0,806.0,94.0,409.9999999999413,36.94
1603053500.4939,75.0,806.0,77.0,409.9999999999413,36.94
1603053500.4959,75.0,806.0,70.0,409.9999999999413,36.94
1603053500.4979,75.0,806.0,77.0,409.9999999999413,36.94
1603053500.4998,75.0,806.0,84.0,409.9999999999413,36.94
1603053500.502,75.0,806.0,80.0,409.9999999999413,36.94
1603053500.5039,75.0,806.0,77.0,409.9999999999413,36.94
1603053500.5058,75.0,806.0,89.0,409.9999999999413,36.94
1603053500.5078,75.0,806.0,97.0,409.9999999999413,36.94
1603053500.5098,75.0,806.0,87.0,409.9999999999413,36.94
1603053500.5118,75.0,806.0,147.0,409.9999999999413,36.94
1603053500.5138,75.0,806.0,371.0,409.9999999999413,36.94
1603053500.5158,75.0,806.0,589.0,409.9999999999413,36.94
1603053500.5178,75.0,806.0,349.0,409.9999999999413,36.94
1603053500.5198,75.0,806.0,-300.0,409.9999999999413,36.94
1603053500.5219,75.0,806.0,-497.0,409.9999999999413,36.94
1603053500.5239,75.0,806.0,-84.0,409.9999999999413,36.94
1603053500.5259,75.0,806.0,133.0,409.9999999999413,36.94
1603053500.5279,75.0,806.0,53.0,409.9999999999413,36.94
1603053500.5299,75.0,806.0,84.0,409.9999999999413,36.94
1603053500.5318,75.0,806.0,143.0,409.9999999999413,36.94
1603053500.5339,75.0,806.0,106.0,409.9999999999413,36.94
1603053500.5359,75.0,806.0,94.0,409.9999999999413,36.94
1603053500.5378,75.0,806.0,133.0,409.9999999999413,36.94
1603053500.5398,75.0,806.0,138.0,409.9999999999413,36.94
1603053500.5418,75.0,806.0,123.0,409.9999999999413,36.94
1603053500.5439,75.0,806.0,123.0,409.9999999999413,36.94
1603053500.5458,75.0,806.0,135.0,409.9999999999413,36.94
1603053500.5478,75.0,806.0,140.0,409.9999999999413,36.94
1603053500.5499,75.0,806.0,138.0,409.9999999999413,36.94
1603053500.5518,75.0,806.0,140.0,409.9999999999413,36.94
1603053500.5539,75.0,806.0,150.0,409.9999999999413,36.94
1603053500.5558,75.0,806.0,147.0,409.9999999999413,36.94
1603053500.5579,75.0,806.0,147.0,409.9999999999413,36.94
1603053500.5598,75.0,806.0,164.0,409.9999999999413,36.94
1603053500.5618,75.0,806.0,179.0,409.9999999999413,36.94
1603053500.5638,75.0,806.0,174.0,409.9999999999413,36.94
1603053500.5658,75.0,806.0,174.0,409.9999999999413,36.94
1603053500.5678,75.0,806.0,184.0,409.9999999999413,36.94
1603053500.5698,75.0,806.0,181.0,409.9999999999413,36.94
1603053500.5718,75.0,806.0,186.0,409.9999999999413,36.94
1603053500.5739,75.0,806.0,196.0,409.9999999999413,36.94
1603053500.5758,75.0,806.0,206.0,409.9999999999413,36.94
1603053500.5778,75.0,806.0,206.0,409.9999999999413,36.94
1603053500.5798,75.0,806.0,198.0,409.9999999999413,36.94
1603053500.5819,75.0,806.0,191.0,409.9999999999413,36.94
1603053500.5839,75.0,806.0,194.0,409.9999999999413,36.94
1603053500.5858,75.0,806.0,191.0,409.9999999999413,36.94
1603053500.5879,75.0,806.0,162.0,409.9999999999413,36.94
1603053500.5898,75.0,806.0,135.0,409.9999999999413,36.94
1603053500.5918,75.0,806.0,123.0,409.9999999999413,36.94
1603053500.5938,75.0,806.0,118.0,409.9999999999413,36.94
1603053501.0199,75.0,786.0,101.0,409.9999999999413,36.94
1603053501.0205,75.0,786.0,67.0,409.9999999999413,36.94
1603053501.023,75.0,786.0,29.0,409.9999999999413,36.94
1603053501.0255,75.0,786.0,16.0,409.9999999999413,36.94
1603053501.0277,75.0,786.0,33.0,409.9999999999413,36.94
1603053501.0296,75.0,786.0,31.0,409.9999999999413,36.94
1603053501.0316,75.0,786.0,7.0,409.9999999999413,36.94
1603053501.0335,75.0,786.0,16.0,409.9999999999413,36.94
1603053501.0356,75.0,786.0,36.0,409.9999999999413,36.94
1603053501.0375,75.0,786.0,24.0,409.9999999999413,36.94
1603053501.0395,75.0,786.0,16.0,409.9999999999413,36.94
1603053501.0415,75.0,786.0,38.0,409.9999999999413,36.94
1603053501.0435,75.0,786.0,53.0,409.9999999999413,36.94
1603053501.0455,75.0,786.0,53.0,409.9999999999413,36.94
1603053501.0475,75.0,786.0,60.0,409.9999999999413,36.94
1603053501.0495,75.0,786.0,65.0,409.9999999999413,36.94
1603053501.0515,75.0,786.0,60.0,409.9999999999413,36.94
1603053501.0535,75.0,786.0,63.0,409.9999999999413,36.94
1603053501.0555,75.0,786.0,75.0,409.9999999999413,36.94
1603053501.0575,75.0,786.0,89.0,409.9999999999413,36.94
1603053501.0595,75.0,786.0,82.0,409.9999999999413,36.94
1603053501.0615,75.0,786.0,67.0,409.9999999999413,36.94
1603053501.0635,75.0,786.0,65.0,409.9999999999413,36.94
1603053501.0655,75.0,786.0,77.0,409.9999999999413,36.94
1603053501.0675,75.0,786.0,82.0,409.9999999999413,36.94
1603053501.0695,75.0,786.0,77.0,409.9999999999413,36.94
1603053501.0715,75.0,786.0,70.0,409.9999999999413,36.94
1603053501.0735,75.0,786.0,72.0,409.9999999999413,36.94
1603053501.0755,75.0,786.0,72.0,409.9999999999413,36.94
1603053501.0775,75.0,786.0,67.0,409.9999999999413,36.94
1603053501.0795,75.0,786.0,65.0,409.9999999999413,36.94
1603053501.0815,75.0,786.0,72.0,409.9999999999413,36.94
1603053501.0836,75.0,786.0,72.0,409.9999999999413,36.94
1603053501.0855,75.0,786.0,65.0,409.9999999999413,36.94
1603053501.0875,75.0,786.0,67.0,409.9999999999413,36.94
1603053501.0895,75.0,786.0,77.0,409.9999999999413,36.94
1603053501.0915,75.0,786.0,77.0,409.9999999999413,36.94
1603053501.0935,75.0,786.0,80.0,409.9999999999413,36.94
1603053501.0955,75.0,786.0,84.0,409.9999999999413,36.94
1603053501.0975,75.0,786.0,87.0,409.9999999999413,36.94
1603053501.0995,75.0,786.0,80.0,409.9999999999413,36.94
1603053501.1015,75.0,786.0,72.0,409.9999999999413,36.94
1603053501.1036,75.0,786.0,89.0,409.9999999999413,36.94
1603053501.1055,75.0,786.0,118.0,409.9999999999413,36.94
1603053501.1075,75.0,786.0,123.0,409.9999999999413,36.94
1603053501.1095,75.0,786.0,99.0,409.9999999999413,36.94
1603053501.1115,75.0,786.0,87.0,409.9999999999413,36.94
1603053501.1135,75.0,786.0,104.0,409.9999999999413,36.94
1603053501.1155,75.0,786.0,104.0,409.9999999999413,36.94
1603053501.1175,75.0,786.0,84.0,409.9999999999413,36.94
1603053501.1195,75.0,786.0,77.0,409.9999999999413,36.94
1603053501.1215,75.0,786.0,80.0,409.9999999999413,36.94
1603053501.1235,75.0,786.0,75.0,409.9999999999413,36.94
1603053501.1255,75.0,786.0,72.0,409.9999999999413,36.94
1603053501.1275,75.0,786.0,77.0,409.9999999999413,36.94
1603053501.1296,75.0,786.0,80.0,409.9999999999413,36.94
1603053501.1315,75.0,786.0,75.0,409.9999999999413,36.94
1603053501.1336,75.0,786.0,77.0,409.9999999999413,36.94
1603053501.1355,75.0,786.0,84.0,409.9999999999413,36.94
1603053501.1375,75.0,786.0,152.0,409.9999999999413,36.94
1603053501.1395,75.0,786.0,366.0,409.9999999999413,36.94
1603053501.1415,75.0,786.0,552.0,409.9999999999413,36.94
1603053501.1436,75.0,786.0,278.0,409.9999999999413,36.94
1603053501.1455,75.0,786.0,-334.0,409.9999999999413,36.94
1603053501.1476,75.0,786.0,-451.0,409.9999999999413,36.94
1603053501.1495,75.0,786.0,-60.0,409.9999999999413,36.94
1603053501.1515,75.0,786.0,89.0,409.9999999999413,36.94
1603053501.1536,75.0,786.0,33.0,409.9999999999413,36.94
1603053501.1555,75.0,786.0,94.0,409.9999999999413,36.94
1603053501.1575,75.0,786.0,133.0,409.9999999999413,36.94
1603053501.1595,75.0,786.0,89.0,409.9999999999413,36.94
1603053501.1615,75.0,786.0,89.0,409.9999999999413,36.94
1603053501.1635,75.0,786.0,123.0,409.9999999999413,36.94
1603053501.5598,75.0,786.0,123.0,409.9999999999413,36.94
1603053501.5605,75.0,786.0,116.0,409.9999999999413,36.94
1603053501.5629,75.0,786.0,118.0,409.9999999999413,36.94
1603053501.5656,75.0,786.0,126.0,409.9999999999413,36.94
1603053501.5675,75.0,786.0,123.0,409.9999999999413,36.94
1603053501.5696,75.0,786.0,116.0,409.9999999999413,36.94
1603053501.5715,75.0,786.0,123.0,409.9999999999413,36.94
1603053501.5736,75.0,786.0,135.0,409.9999999999413,36.94
1603053501.5755,75.0,786.0,130.0,409.9999999999413,36.94
1603053501.5775,75.0,786.0,130.0,409.9999999999413,36.94
1603053501.5795,75.0,786.0,143.0,409.9999999999413,36.94
1603053501.5815,75.0,786.0,150.0,409.9999999999413,36.94
1603053501.5835,75.0,786.0,155.0,409.9999999999413,36.94
1603053501.5855,75.0,786.0,160.0,409.9999999999413,36.94
1603053501.5875,75.0,786.0,164.0,409.9999999999413,36.94
1603053501.5895,75.0,786.0,172.0,409.9999999999413,36.94
1603053501.5915,75.0,786.0,181.0,409.9999999999413,36.94
1603053501.5935,75.0,786.0,191.0,409.9999999999413,36.94
1603053501.5955,75.0,786.0,194.0,409.9999999999413,36.94
1603053501.5975,75.0,786.0,189.0,409.9999999999413,36.94
1603053501.5995,75.0,786.0,184.0,409.9999999999413,36.94
1603053501.6015,75.0,786.0,186.0,409.9999999999413,36.94
1603053501.6035,75.0,786.0,184.0,409.9999999999413,36.94
1603053501.6055,75.0,786.0,174.0,410.0423916177438,36.94
1603053501.6075,75.0,786.0,160.0,410.0804575602604,36.94
1603053501.6095,75.0,786.0,140.0,410.11428521487056,36.94
1603053501.6115,75.0,786.0,126.0,410.14396196895376,36.94
1603053501.6135,75.0,786.0,111.0,410.1695752098895,36.94
1603053501.6155,75.0,786.0,87.0,410.1912123250573,36.94
1603053501.6175,75.0,786.0,60.0,410.2089607018367,36.94
1603053501.6195,75.0,786.0,50.0,410.22290772760726,36.94
1603053501.6215,75.0,786.0,41.0,410.23314078974846,36.94
1603053501.6235,75.0,786.0,14.0,410.2397472756398,36.94
1603053501.6257,75.0,786.0,-2.0,410.24281457266073,36.94
1603053501.6276,75.0,786.0,12.0,410.2424300681908,36.94
1603053501.6295,75.0,786.0,24.0,410.2386811496097,36.94
1603053501.6315,75.0,786.0,33.0,410.2316552042967,36.94
1603053501.6335,75.0,786.0,43.0,410.22143961963144,36.94
1603053501.6355,75.0,786.0,43.0,410.2081217829934,36.94
1603053501.6374,75.0,786.0,36.0,410.1917890817621,36.94
1603053501.6395,75.0,786.0,43.0,410.1725289033171,36.94
1603053501.6415,75.0,786.0,58.0,410.1504286350378,36.94
1603053501.6435,75.0,786.0,70.0,410.1255756643039,36.94
1603053501.6455,75.0,786.0,75.0,410.09805737849473,36.94
1603053501.6475,75.0,786.0,75.0,410.06796116498987,36.94
1603053501.6495,75.0,786.0,65.0,410.0353744111688,36.94
1603053501.6515,75.0,786.0,53.0,410.0003845044112,36.94
1603053501.6535,75.0,786.0,53.0,409.9630788320964,36.94
1603053501.6555,75.0,786.0,65.0,409.923544781604,36.94
1603053501.6575,75.0,786.0,75.0,409.88186974031345,36.94
1603053501.6595,75.0,786.0,80.0,409.83814109560427,36.94
1603053501.6615,75.0,786.0,70.0,409.7924462348561,36.94
1603053501.6635,75.0,786.0,53.0,409.74487254544835,36.94
1603053501.6655,75.0,786.0,48.0,409.69550741476047,36.94
1603053501.6675,75.0,786.0,63.0,409.64443823017217,36.94
1603053501.6695,75.0,786.0,67.0,409.5917523790628,36.94
1603053501.6715,75.0,786.0,67.0,409.53753724881193,36.94
1603053501.6736,75.0,786.0,67.0,409.481880226799,36.94
1603053501.6755,75.0,786.0,67.0,409.4248687004037,36.94
1603053501.6775,75.0,786.0,72.0,409.36659005700534,36.94
1603053501.6795,75.0,786.0,72.0,409.3071316839835,36.94
1603053501.6815,75.0,786.0,58.0,409.24658096871786,36.94
1603053501.6835,75.0,786.0,53.0,409.18502529858773,36.94
1603053501.6855,75.0,786.0,65.0,409.12255206097274,36.94
1603053501.6875,75.0,786.0,70.0,409.0592486432524,36.94
1603053501.6895,75.0,786.0,67.0,408.995202432806,36.94
1603053501.6915,75.0,786.0,70.0,408.9305008170134,36.94
1603053501.6935,75.0,786.0,67.0,408.865231183254,36.94
1603053501.6955,75.0,786.0,75.0,408.7994809189072,36.94
1603053501.6975,75.0,786.0,84.0,408.7333374113526,36.94
1603053501.6995,75.0,786.0,89.0,408.6668880479697,36.94
1603053501.7015,75.0,786.0,106.0,408.6002202161379,36.94
1603053501.7035,75.0,786.0,118.0,408.53342130323693,36.94
1603053502.16,76.0,782.0,97.0,408.4665786966462,36.94
1603053502.1608,76.0,782.0,82.0,408.3997797837452,36.94
1603053502.1633,76.0,782.0,97.0,408.3331119519135,36.94
1603053502.166,76.0,782.0,89.0,408.26666258853055,36.94
1603053502.1679,76.0,782.0,60.0,408.2005190809759,36.94
1603053502.1699,76.0,782.0,58.0,408.13476881662905,36.94
1603053502.1719,76.0,782.0,72.0,408.06949918286955,36.94
1603053502.1738,76.0,782.0,65.0,408.00479756707693,36.94
1603053502.1758,76.0,782.0,48.0,407.94075135663064,36.94
1603053502.1778,76.0,782.0,53.0,407.8774479389102,36.94
1603053502.1798,76.0,782.0,70.0,407.8149747012952,36.94
1603053502.182,76.0,782.0,75.0,407.7534190311651,36.94
1603053502.1838,76.0,782.0,72.0,407.69286831589943,36.94
1603053502.1858,76.0,782.0,65.0,407.6334099428777,36.94
1603053502.1878,76.0,782.0,104.0,407.5751312994794,36.94
1603053502.1898,76.0,782.0,286.0,407.51811977308404,36.94
1603053502.1918,76.0,782.0,543.0,407.46246275107114,36.94
1603053502.1938,76.0,782.0,455.0,407.40824762082025,36.94
1603053502.1959,76.0,782.0,-160.0,407.35556176971085,36.94
1603053502.1979,76.0,782.0,-550.0,407.3044925851225,36.94
1603053502.1998,76.0,782.0,-232.0,407.25512745443467,36.94
1603053502.2018,76.0,782.0,77.0,407.2075537650269,36.94
1603053502.2038,76.0,782.0,46.0,407.1618589042787,36.94
1603053502.2058,76.0,782.0,65.0,407.1322607988371,36.94
1603053502.2078,76.0,782.0,126.0,407.1032744050521,36.94
1603053502.2098,76.0,782.0,99.0,407.0750162394297,36.94
1603053502.2118,76.0,782.0,99.0,407.047602818476,36.94
1603053502.2138,76.0,782.0,123.0,407.02115065869685,36.94
1603053502.2158,76.0,782.0,116.0,406.99577627659846,36.94
1603053502.2178,76.0,782.0,104.0,406.97159618868676,36.94
1603053502.2198,76.0,782.0,104.0,406.9487269114678,36.94
1603053502.2218,76.0,782.0,111.0,406.9272849614476,36.94
1603053502.2238,76.0,782.0,126.0,406.9073868551321,36.94
1603053502.2258,76.0,782.0,138.0,406.88914910902736,36.94
1603053502.2278,76.0,782.0,138.0,406.87268823963944,36.94
1603053502.2298,76.0,782.0,135.0,406.8581207634744,36.94
1603053502.2318,76.0,782.0,130.0,406.84556319703813,36.94
1603053502.2338,76.0,782.0,133.0,406.83513205683676,36.94
1603053502.2358,76.0,782.0,138.0,406.82694385937623,36.94
1603053502.2378,76.0,782.0,135.0,406.8211151211626,36.94
1603053502.2398,76.0,782.0,140.0,406.8177623587019,36.94
1603053502.2418,76.0,782.0,147.0,406.8170020885001,36.94
1603053502.2438,76.0,782.0,126.0,406.8189508270633,36.94
1603053502.2458,76.0,782.0,118.0,406.8237250908974,36.94
1603053502.2479,76.0,782.0,160.0,406.8314413965086,36.94
1603053502.2498,76.0,782.0,194.0,406.8422162604027,36.94
1603053502.2518,76.0,782.0,186.0,406.8561661990859,36.94
1603053502.2538,76.0,782.0,186.0,406.8734077290641,36.94
1603053502.2558,76.0,782.0,201.0,406.89405736684347,36.94
1603053502.2578,76.0,782.0,194.0,406.91823162892985,36.94
1603053502.2598,76.0,782.0,167.0,406.9460470318294,36.94
1603053502.2618,76.0,782.0,147.0,406.93081541157994,36.94
1603053502.2638,76.0,782.0,145.0,406.9149575151107,36.94
1603053502.2658,76.0,782.0,150.0,406.8985024715481,36.94
1603053502.2678,76.0,782.0,155.0,406.88147941001864,36.94
1603053502.2698,76.0,782.0,121.0,406.86391745964886,36.94
1603053502.2718,76.0,782.0,41.0,406.8458457495652,36.94
1603053502.2738,76.0,782.0,7.0,406.8272934088943,36.94
1603053502.2758,76.0,782.0,38.0,406.80828956676254,36.94
1603053502.2778,76.0,782.0,48.0,406.7888633522964,36.94
1603053502.2798,76.0,782.0,29.0,406.7690438946225,36.94
1603053502.2818,76.0,782.0,9.0,406.7488603228673,36.94
1603053502.284,76.0,782.0,2.0,406.72834176615726,36.94
1603053502.2858,76.0,782.0,0.0,406.7075173536189,36.94
1603053502.2878,76.0,782.0,12.0,406.68641621437877,36.94
1603053502.2898,76.0,782.0,24.0,406.66506747756335,36.94
1603053502.2918,76.0,782.0,-7.0,406.64350027229915,36.94
1603053502.2939,76.0,782.0,-31.0,406.62174372771267,36.94
1603053502.2958,76.0,782.0,14.0,406.59982697293043,36.94
1603053502.2979,76.0,782.0,53.0,406.5777791370789,36.94
1603053502.2998,76.0,782.0,46.0,406.5556293492846,36.94
1603053502.3018,76.0,782.0,31.0,406.533406738674,36.94
1603053502.3038,76.0,782.0,58.0,406.51114043437366,36.94
1603053502.7305,76.0,782.0,89.0,406.48885956551004,36.94
1603053502.7313,76.0,782.0,87.0,406.4665932612097,36.94
1603053502.7338,76.0,782.0,70.0,406.4443706505991,36.94
1603053502.7364,76.0,782.0,41.0,406.4222208628048,36.94
1603053502.7384,76.0,782.0,16.0,406.40017302695327,36.94
1603053502.7404,76.0,782.0,16.0,406.378256272171,36.94
1603053502.7424,76.0,782.0,31.0,406.35649972758443,36.94
1603053502.7444,76.0,782.0,63.0,406.33493252232023,36.94
1603053502.7464,76.0,782.0,70.0,406.3135837855048,36.94
1603053502.7483,76.0,782.0,50.0,406.2924826462647,36.94
1603053502.7504,76.0,782.0,55.0,406.2716582337264,36.94
1603053502.7524,76.0,782.0,33.0,406.25113967701634,36.94
1603053502.7543,76.0,782.0,-19.0,406.23095610526104,36.94
1603053502.7563,76.0,782.0,26.0,406.2111366475872,36.94
1603053502.7583,76.0,782.0,89.0,406.1917104331211,36.94
1603053502.7603,76.0,782.0,60.0,406.17270659098926,36.94
1603053502.7624,76.0,782.0,55.0,406.15415425031836,36.94
1603053502.7644,76.0,782.0,84.0,406.1360825402347,36.94
1603053502.7663,76.0,782.0,46.0,406.11852058986494,36.94
1603053502.7683,76.0,782.0,24.0,406.10149752833547,36.94
1603053502.7703,76.0,782.0,72.0,406.0850424847729,36.94
1603053502.7724,76.0,782.0,50.0,406.06918458830353,36.94
1603053502.7744,76.0,782.0,-41.0,406.0539529680542,36.94
1603053502.7763,76.0,782.0,-14.0,406.03937675315115,36.94
1603053502.7783,76.0,782.0,94.0,406.0254850727209,36.94
1603053502.7803,76.0,782.0,92.0,406.0123070558901,36.94
1603053502.7824,76.0,782.0,58.0,405.9998718317852,36.94
1603053502.7843,76.0,782.0,87.0,405.9882085295327,36.94
1603053502.7863,76.0,782.0,97.0,405.977346278259,36.94
1603053502.7884,76.0,782.0,94.0,405.9673142070907,36.94
1603053502.7903,76.0,782.0,106.0,405.9581414451543,36.94
1603053502.7923,76.0,782.0,80.0,405.9498571215763,36.94
1603053502.7943,76.0,782.0,48.0,405.9424903654832,36.94
1603053502.7963,76.0,782.0,75.0,405.9360703060015,36.94
1603053502.7983,76.0,782.0,89.0,405.93062607225784,36.94
1603053502.8003,76.0,782.0,19.0,405.9261867933784,36.94
1603053502.8024,76.0,782.0,-16.0,405.92278159849,36.94
1603053502.8043,76.0,782.0,31.0,405.920439616719,36.94
1603053502.8063,76.0,782.0,29.0,405.919189977192,36.94
1603053502.8083,76.0,782.0,31.0,405.9190618090354,36.94
1603053502.8105,76.0,782.0,118.0,405.92008424137566,36.94
1603053502.8124,76.0,782.0,116.0,405.9222864033394,36.94
1603053502.8143,76.0,782.0,16.0,405.92569742405317,36.94
1603053502.8163,76.0,782.0,94.0,405.9303464326433,36.94
1603053502.8183,76.0,782.0,443.0,405.93626255823654,36.94
1603053502.8203,76.0,782.0,615.0,405.94347492995905,36.94
1603053502.8224,76.0,782.0,133.0,405.95201267693767,36.94
1603053502.8243,76.0,782.0,-431.0,405.96190492829874,36.94
1603053502.8263,76.0,782.0,-322.0,405.9731808131687,36.94
1603053502.8284,76.0,782.0,-21.0,405.9858694606743,36.94
1603053502.8303,76.0,782.0,19.0,405.9999999999418,36.94
1603053502.8323,76.0,782.0,38.0,405.9999999999418,36.94
1603053502.8343,76.0,782.0,31.0,405.9999999999418,36.94
1603053502.8363,76.0,782.0,26.0,405.9999999999418,36.94
1603053502.8383,76.0,782.0,94.0,405.9999999999418,36.94
1603053502.8403,76.0,782.0,80.0,405.9999999999418,36.94
1603053502.8424,76.0,782.0,50.0,405.9999999999418,36.94
1603053502.8443,76.0,782.0,121.0,405.9999999999418,36.94
1603053502.8463,76.0,782.0,128.0,405.9999999999418,36.94
1603053502.8469,76.0,782.0,63.0,405.9999999999418,36.94
1603053502.8483,76.0,782.0,77.0,405.9999999999418,36.94
1603053502.8503,76.0,782.0,109.0,405.9999999999418,36.94
1603053502.8524,76.0,782.0,67.0,405.9999999999418,36.94
1603053502.8543,76.0,782.0,58.0,405.9999999999418,36.94
1603053502.8563,76.0,782.0,101.0,405.9999999999418,36.94
1603053502.8583,76.0,782.0,104.0,405.9999999999418,36.94
1603053502.8603,76.0,782.0,111.0,405.9999999999418,36.94
1603053502.8624,76.0,782.0,70.0,405.9999999999418,36.94
1603053502.8643,76.0,782.0,-36.0,405.9999999999418,36.94
1603053502.8663,76.0,782.0,33.0,405.9999999999418,36.94
1603053502.8683,76.0,782.0,155.0,405.9999999999418,36.94
1603053502.8703,76.0,782.0,89.0,405.9999999999418,36.94
1603053502.8723,76.0,782.0,89.0,405.9999999999418,36.94
1603053503.2703,76.0,790.0,220.0,405.9999999999418,36.94
1603053503.2709,76.0,790.0,232.0,405.9999999999418,36.94
1603053503.2734,76.0,790.0,97.0,405.9999999999418,36.94
1603053503.276,76.0,790.0,41.0,405.9999999999418,36.94
1603053503.2779,76.0,790.0,118.0,405.9999999999418,36.94
1603053503.28,76.0,790.0,133.0,405.9999999999418,36.94
1603053503.282,76.0,790.0,77.0,405.9999999999418,36.94
1603053503.2839,76.0,790.0,116.0,405.9999999999418,36.94
1603053503.2859,76.0,790.0,169.0,405.9999999999418,36.94
1603053503.2879,76.0,790.0,77.0,405.9999999999418,36.94
1603053503.2899,76.0,790.0,-7.0,405.9999999999418,36.94
1603053503.2919,76.0,790.0,46.0,405.9999999999418,36.94
1603053503.2939,76.0,790.0,21.0,405.9999999999418,36.94
1603053503.2959,76.0,790.0,-60.0,405.9999999999418,36.94
1603053503.2979,76.0,790.0,-41.0,405.9999999999418,36.94
1603053503.2999,76.0,790.0,-24.0,405.9999999999418,36.94
1603053503.3006,76.0,790.0,-67.0,405.9999999999418,36.94
1603053503.3029,76.0,790.0,-126.0,405.9999999999418,36.94
1603053503.3051,76.0,790.0,-128.0,405.9999999999418,36.94
1603053503.307,76.0,790.0,-43.0,405.9999999999418,36.94
1603053503.3089,76.0,790.0,-9.0,405.9999999999418,36.94
1603053503.3109,76.0,790.0,-89.0,405.9999999999418,36.94
1603053503.3129,76.0,790.0,-162.0,405.9999999999418,36.94
1603053503.3149,76.0,790.0,-106.0,406.0141305392093,36.94
1603053503.3169,76.0,790.0,-21.0,406.0268191867149,36.94
1603053503.3189,76.0,790.0,-41.0,406.03809507158485,36.94
1603053503.3209,76.0,790.0,-46.0,406.0479873229459,36.94
1603053503.3229,76.0,790.0,-31.0,406.05652506992453,36.94
1603053503.3249,76.0,790.0,-104.0,406.06373744164716,36.94
1603053503.3269,76.0,790.0,-82.0,406.06965356724027,36.94
1603053503.3289,76.0,790.0,26.0,406.0743025758304,36.94
1603053503.3309,76.0,790.0,21.0,406.0777135965442,36.94
1603053503.3316,76.0,790.0,12.0,406.0799157585079,36.94
1603053503.3329,76.0,790.0,7.0,406.0809381908483,36.94
1603053503.3349,76.0,790.0,-89.0,406.0808100226916,36.94
1603053503.3369,76.0,790.0,-101.0,406.07956038316456,36.94
1603053503.3389,76.0,790.0,9.0,406.07721840139357,36.94
1603053503.3409,76.0,790.0,33.0,406.0738132065052,36.94
1603053503.3429,76.0,790.0,-26.0,406.06937392762586,36.94
1603053503.3449,76.0,790.0,-58.0,406.0639296938821,36.94
1603053503.3469,76.0,790.0,-67.0,406.0575096344004,36.94
1603053503.3489,76.0,790.0,-36.0,406.05014287830727,36.94
1603053503.351,76.0,790.0,2.0,406.0418585547293,36.94
1603053503.3529,76.0,790.0,-24.0,406.0326857927929,36.94
1603053503.3549,76.0,790.0,-31.0,406.0226537216247,36.94
1603053503.3569,76.0,790.0,63.0,406.011791470351,36.94
1603053503.3589,76.0,790.0,87.0,406.0001281680984,36.94
1603053503.3609,76.0,790.0,-29.0,405.98769294399347,36.94
1603053503.3617,76.0,790.0,-80.0,405.97451492716266,36.94
1603053503.363,76.0,790.0,14.0,405.96062324673255,36.94
1603053503.3649,76.0,790.0,67.0,405.9460470318295,36.94
1603053503.3669,76.0,790.0,-26.0,405.93081541158006,36.94
1603053503.3689,76.0,790.0,-50.0,405.9149575151108,36.94
1603053503.3709,76.0,790.0,19.0,405.8985024715482,36.94
1603053503.3729,76.0,790.0,-9.0,405.88147941001876,36.94
1603053503.3749,76.0,790.0,-21.0,405.863917459649,36.94
1603053503.3769,76.0,790.0,31.0,405.84584574956534,36.94
1603053503.3789,76.0,790.0,-26.0,405.82729340889443,36.94
1603053503.3809,76.0,790.0,-80.0,405.8082895667626,36.94
1603053503.3829,76.0,790.0,14.0,405.7888633522965,36.94
1603053503.3849,76.0,790.0,84.0,405.76904389462254,36.94
1603053503.3869,76.0,790.0,72.0,405.74886032286736,36.94
1603053503.3889,76.0,790.0,-2.0,405.7283417661573,36.94
1603053503.3909,76.0,790.0,-48.0,405.707517353619,36.94
1603053503.3916,76.0,790.0,7.0,405.6864162143788,36.94
1603053503.393,76.0,790.0,14.0,405.66506747756335,36.94
1603053503.3949,76.0,790.0,-58.0,405.64350027229915,36.94
1603053503.3969,76.0,790.0,-75.0,405.62174372771267,36.94
1603053503.3989,76.0,790.0,-46.0,405.5998269729304,36.94
1603053503.4011,76.0,790.0,-33.0,405.57777913707883,36.94
1603053503.403,76.0,790.0,9.0,405.5556293492846,36.94
1603053503.4049,76.0,790.0,65.0,405.53340673867405,36.94
1603053503.4069,76.0,790.0,55.0,405.5111404343737,36.94
1603053503.8404,76.0,798.0,174.0,405.4888595655101,36.94
1603053503.8412,76.0,798.0,480.0,405.46659326120977,36.94
1603053503.8427,76.0,798.0,356.0,405.4443706505992,36.94
1603053503.8433,76.0,798.0,-320.0,405.42222086280486,36.94
1603053503.8455,76.0,798.0,-589.0,405.4001730269533,36.94
1603053503.8475,76.0,798.0,-206.0,405.3782562721711,36.94
1603053503.8496,76.0,798.0,67.0,405.3564997275846,36.94
1603053503.8516,76.0,798.0,-7.0,405.3349325223204,36.94
1603053503.8535,76.0,798.0,-75.0,405.313583785505,36.94
1603053503.8555,76.0,798.0,-41.0,405.2924826462649,36.94
1603053503.8575,76.0,798.0,-29.0,405.27165823372655,36.94
1603053503.8595,76.0,798.0,2.0,405.2511396770165,36.94
1603053503.8615,76.0,798.0,41.0,405.23095610526127,36.94
1603053503.8636,76.0,798.0,46.0,405.21113664758735,36.94
1603053503.8656,76.0,798.0,46.0,405.1917104331213,36.94
1603053503.8675,76.0,798.0,-12.0,405.1727065909895,36.94
1603053503.8695,76.0,798.0,-24.0,405.1541542503185,36.94
1603053503.8715,76.0,798.0,97.0,405.1360825402349,36.94
1603053503.8735,76.0,798.0,106.0,405.1185205898651,36.94
1603053503.8742,76.0,798.0,14.0,405.10149752833564,36.94
1603053503.8755,76.0,798.0,-14.0,405.08504248477306,36.94
1603053503.8775,76.0,798.0,14.0,405.06918458830376,36.94
1603053503.8795,76.0,798.0,97.0,405.0539529680544,36.94
1603053503.8815,76.0,798.0,43.0,405.0393767531513,36.94
1603053503.8835,76.0,798.0,-46.0,405.02548507272115,36.94
1603053503.8855,76.0,798.0,38.0,405.01230705589035,36.94
1603053503.8875,76.0,798.0,97.0,404.9998718317854,36.94
1603053503.8895,76.0,798.0,65.0,404.98820852953287,36.94
1603053503.8915,76.0,798.0,55.0,404.9773462782592,36.94
1603053503.8935,76.0,798.0,53.0,404.9673142070909,36.94
1603053503.8955,76.0,798.0,67.0,404.9581414451545,36.94
1603053503.8975,76.0,798.0,191.0,404.94985712157654,36.94
1603053503.8995,76.0,798.0,218.0,404.9424903654834,36.94
1603053503.9015,76.0,798.0,53.0,404.9360703060018,36.94
1603053503.9035,76.0,798.0,65.0,404.930626072258,36.94
1603053503.9042,76.0,798.0,167.0,404.9261867933787,36.94
1603053503.9065,76.0,798.0,92.0,404.92278159849025,36.94
1603053503.9085,76.0,798.0,50.0,404.92043961671925,36.94
1603053503.9105,76.0,798.0,82.0,404.9191899771922,36.94
1603053503.9125,76.0,798.0,48.0,404.91906180903555,36.94
1603053503.9145,76.0,798.0,24.0,404.9200842413759,36.94
1603053503.9165,76.0,798.0,38.0,404.9222864033397,36.94
1603053503.9185,76.0,798.0,-26.0,404.9256974240534,36.94
1603053503.9205,76.0,798.0,-101.0,404.93034643264355,36.94
1603053503.9226,76.0,798.0,-48.0,404.9362625582367,36.94
1603053503.9245,76.0,798.0,-9.0,404.94347492995934,36.94
1603053503.9265,76.0,798.0,-65.0,404.9520126769379,36.94
1603053503.9287,76.0,798.0,-60.0,404.96190492829896,36.94
1603053503.9306,76.0,798.0,50.0,404.973180813169,36.94
1603053503.9326,76.0,798.0,77.0,404.9858694606745,36.94
1603053503.9345,76.0,798.0,-58.0,404.999999999942,36.94
1603053503.9352,76.0,798.0,-130.0,404.999999999942,36.94
1603053503.9365,76.0,798.0,-123.0,404.999999999942,36.94
1603053503.9385,76.0,798.0,-80.0,404.999999999942,36.94
1603053503.9405,76.0,798.0,-9.0,404.999999999942,36.94
1603053503.9425,76.0,798.0,-82.0,404.999999999942,36.94
1603053503.9445,76.0,798.0,-152.0,404.999999999942,36.94
1603053503.9465,76.0,798.0,-60.0,404.999999999942,36.94
1603053503.9485,76.0,798.0,-4.0,404.999999999942,36.94
1603053503.9505,76.0,798.0,-2.0,404.999999999942,36.94
1603053503.9527,76.0,798.0,16.0,404.999999999942,36.94
1603053503.9545,76.0,798.0,-7.0,404.999999999942,36.94
1603053503.9565,76.0,798.0,-50.0,404.999999999942,36.94
1603053503.9585,76.0,798.0,-50.0,404.999999999942,36.94
1603053503.9605,76.0,798.0,12.0,404.999999999942,36.94
1603053503.9625,76.0,798.0,65.0,404.999999999942,36.94
1603053503.9645,76.0,798.0,29.0,404.999999999942,36.94
1603053503.9652,76.0,798.0,0.0,404.999999999942,36.94
1603053503.9665,76.0,798.0,16.0,404.999999999942,36.94
1603053503.9685,76.0,798.0,9.0,404.999999999942,36.94
1603053503.9705,76.0,798.0,24.0,404.999999999942,36.94
1603053503.9725,76.0,798.0,70.0,404.999999999942,36.94
1603053503.9745,76.0,798.0,-14.0,404.999999999942,36.94
1603053504.3802,76.0,798.0,-179.0,404.999999999942,36.94
1603053504.3809,76.0,798.0,-167.0,404.999999999942,36.94
1603053504.3833,76.0,798.0,-12.0,404.999999999942,36.94
1603053504.386,76.0,798.0,48.0,404.999999999942,36.94
1603053504.3879,76.0,798.0,4.0,404.999999999942,36.94
1603053504.3899,76.0,798.0,-9.0,404.999999999942,36.94
1603053504.392,76.0,798.0,7.0,404.999999999942,36.94
1603053504.3926,76.0,798.0,16.0,404.999999999942,36.94
1603053504.3949,76.0,798.0,50.0,404.999999999942,36.94
1603053504.3969,76.0,798.0,60.0,404.999999999942,36.94
1603053504.3989,76.0,798.0,-60.0,404.999999999942,36.94
1603053504.4009,76.0,798.0,-162.0,404.999999999942,36.94
1603053504.4029,76.0,798.0,-87.0,404.999999999942,36.94
1603053504.4049,76.0,798.0,14.0,404.999999999942,36.94
1603053504.4069,76.0,798.0,16.0,404.999999999942,36.94
1603053504.4089,76.0,798.0,-9.0,404.999999999942,36.94
1603053504.411,76.0,798.0,16.0,404.999999999942,36.94
1603053504.4129,76.0,798.0,46.0,404.999999999942,36.94
1603053504.4149,76.0,798.0,41.0,404.999999999942,36.94
1603053504.4169,76.0,798.0,53.0,404.999999999942,36.94
1603053504.4189,76.0,798.0,26.0,404.999999999942,36.94
1603053504.4209,76.0,798.0,-36.0,404.999999999942,36.94
1603053504.4229,76.0,798.0,-50.0,404.999999999942,36.94
1603053504.4236,76.0,798.0,-55.0,404.999999999942,36.94
1603053504.4249,76.0,798.0,-67.0,404.999999999942,36.94
1603053504.4271,76.0,798.0,-43.0,404.999999999942,36.94
1603053504.429,76.0,798.0,-7.0,404.999999999942,36.94
1603053504.4309,76.0,798.0,2.0,404.999999999942,36.94
1603053504.433,76.0,798.0,41.0,404.999999999942,36.94
1603053504.4349,76.0,798.0,249.0,404.999999999942,36.94
1603053504.4369,76.0,798.0,557.0,404.999999999942,36.94
1603053504.4389,76.0,798.0,480.0,404.999999999942,36.94
1603053504.4409,76.0,798.0,-145.0,404.999999999942,36.94
1603053504.4429,76.0,798.0,-545.0,404.999999999942,36.94
1603053504.4449,76.0,798.0,-276.0,404.999999999942,36.94
1603053504.4469,76.0,798.0,-16.0,404.999999999942,36.94
1603053504.4489,76.0,798.0,-48.0,404.999999999942,36.94
1603053504.4509,76.0,798.0,-4.0,404.999999999942,36.94
1603053504.4529,76.0,798.0,65.0,404.999999999942,36.94
1603053504.4542,76.0,798.0,26.0,404.999999999942,36.94
1603053504.4559,76.0,798.0,36.0,404.999999999942,36.94
1603053504.4579,76.0,798.0,80.0,404.999999999942,36.94
1603053504.4599,76.0,798.0,53.0,404.999999999942,36.94
1603053504.4619,76.0,798.0,65.0,404.999999999942,36.94
1603053504.464,76.0,798.0,135.0,404.999999999942,36.94
1603053504.4659,76.0,798.0,150.0,404.999999999942,36.94
1603053504.4679,76.0,798.0,104.0,404.999999999942,36.94
1603053504.4699,76.0,798.0,53.0,404.999999999942,36.94
1603053504.4719,76.0,798.0,31.0,404.999999999942,36.94
1603053504.4739,76.0,798.0,63.0,404.999999999942,36.94
1603053504.4759,76.0,798.0,99.0,404.999999999942,36.94
1603053504.4779,76.0,798.0,75.0,404.999999999942,36.94
1603053504.4799,76.0,798.0,46.0,404.999999999942,36.94
1603053504.4819,76.0,798.0,67.0,404.999999999942,36.94
1603053504.484,76.0,798.0,116.0,404.999999999942,36.94
1603053504.4859,76.0,798.0,162.0,404.999999999942,36.94
1603053504.4879,76.0,798.0,179.0,404.999999999942,36.94
1603053504.4899,76.0,798.0,210.0,404.999999999942,36.94
1603053504.4919,76.0,798.0,232.0,404.999999999942,36.94
1603053504.4939,76.0,798.0,160.0,404.999999999942,36.94
1603053504.4959,76.0,798.0,111.0,404.999999999942,36.94
1603053504.498,76.0,798.0,167.0,404.999999999942,36.94
1603053504.4999,76.0,798.0,186.0,404.999999999942,36.94
1603053504.5019,76.0,798.0,162.0,404.999999999942,36.94
1603053504.5039,76.0,798.0,162.0,404.999999999942,36.94
1603053504.5059,76.0,798.0,130.0,404.999999999942,36.94
1603053504.508,76.0,798.0,104.0,404.999999999942,36.94
1603053504.5099,76.0,798.0,140.0,404.999999999942,36.94
1603053504.5119,76.0,798.0,155.0,404.999999999942,36.94
1603053504.5139,76.0,798.0,109.0,404.999999999942,36.94
1603053504.5159,76.0,798.0,65.0,404.999999999942,36.94
1603053504.5179,76.0,798.0,46.0,404.999999999942,36.94
1603053504.5199,76.0,798.0,33.0,404.999999999942,36.94
1603053504.9202,76.0,798.0,41.0,404.999999999942,36.94
1603053504.9208,76.0,798.0,29.0,404.999999999942,36.94
1603053504.9232,76.0,798.0,-29.0,404.999999999942,36.94
1603053504.926,76.0,798.0,-65.0,404.999999999942,36.94
1603053504.9278,76.0,798.0,-53.0,404.999999999942,36.94
1603053504.9298,76.0,798.0,-26.0,404.999999999942,36.94
1603053504.9318,76.0,798.0,0.0,404.999999999942,36.94
1603053504.9338,76.0,798.0,-2.0,404.999999999942,36.94
1603053504.9358,76.0,798.0,-12.0,404.999999999942,36.94
1603053504.9378,76.0,798.0,16.0,404.999999999942,36.94
1603053504.9398,76.0,798.0,55.0,404.999999999942,36.94
1603053504.9418,76.0,798.0,48.0,404.999999999942,36.94
1603053504.9438,76.0,798.0,24.0,404.999999999942,36.94
1603053504.9459,76.0,798.0,36.0,404.999999999942,36.94
1603053504.9478,76.0,798.0,60.0,404.999999999942,36.94
1603053504.9498,76.0,798.0,48.0,404.999999999942,36.94
1603053504.9518,76.0,798.0,29.0,404.999999999942,36.94
1603053504.9538,76.0,798.0,46.0,404.999999999942,36.94
1603053504.9558,76.0,798.0,70.0,404.999999999942,36.94
1603053504.9578,76.0,798.0,63.0,404.999999999942,36.94
1603053504.9598,76.0,798.0,63.0,404.999999999942,36.94
1603053504.9618,76.0,798.0,94.0,404.999999999942,36.94
1603053504.9638,76.0,798.0,82.0,404.999999999942,36.94
1603053504.9658,76.0,798.0,50.0,404.999999999942,36.94
1603053504.9678,76.0,798.0,58.0,404.999999999942,36.94
1603053504.9698,76.0,798.0,77.0,404.999999999942,36.94
1603053504.9718,76.0,798.0,75.0,404.999999999942,36.94
1603053504.9739,76.0,798.0,65.0,404.999999999942,36.94
1603053504.9758,76.0,798.0,46.0,404.999999999942,36.94
1603053504.9778,76.0,798.0,36.0,404.999999999942,36.94
1603053504.9798,76.0,798.0,65.0,404.999999999942,36.94
1603053504.9818,76.0,798.0,77.0,404.999999999942,36.94
1603053504.9839,76.0,798.0,70.0,404.999999999942,36.94
1603053504.9858,76.0,798.0,70.0,404.999999999942,36.94
1603053504.9878,76.0,798.0,53.0,404.999999999942,36.94
1603053504.9898,76.0,798.0,50.0,404.999999999942,36.94
1603053504.9918,76.0,798.0,77.0,404.999999999942,36.94
1603053504.9938,76.0,798.0,99.0,404.999999999942,36.94
1603053504.9958,76.0,798.0,113.0,404.999999999942,36.94
1603053504.9978,76.0,798.0,111.0,404.999999999942,36.94
1603053504.9998,76.0,798.0,92.0,404.999999999942,36.94
1603053505.0019,76.0,798.0,65.0,404.999999999942,36.94
1603053505.0038,76.0,798.0,60.0,404.999999999942,36.94
1603053505.0058,76.0,798.0,92.0,404.999999999942,36.94
1603053505.0078,76.0,798.0,89.0,404.999999999942,36.94
1603053505.0098,76.0,798.0,46.0,404.999999999942,36.94
1603053505.0118,76.0,798.0,38.0,404.999999999942,36.94
1603053505.0138,76.0,798.0,80.0,404.999999999942,36.94
1603053505.0158,76.0,798.0,87.0,404.999999999942,36.94
1603053505.0179,76.0,798.0,50.0,404.999999999942,36.94
1603053505.0199,76.0,798.0,53.0,404.999999999942,36.94
1603053505.0218,76.0,798.0,70.0,404.999999999942,36.94
1603053505.0238,76.0,798.0,70.0,404.999999999942,36.94
1603053505.0258,76.0,798.0,109.0,404.999999999942,36.94
1603053505.028,76.0,798.0,215.0,404.999999999942,36.94
1603053505.0299,76.0,798.0,366.0,404.999999999942,36.94
1603053505.0317,76.0,798.0,395.0,404.999999999942,36.94
1603053505.0338,76.0,798.0,80.0,404.999999999942,36.94
1603053505.0359,76.0,798.0,-315.0,404.999999999942,36.94
1603053505.0378,76.0,798.0,-261.0,404.999999999942,36.94
1603053505.0399,76.0,798.0,29.0,404.999999999942,36.94
1603053505.0418,76.0,798.0,77.0,404.999999999942,36.94
1603053505.0438,76.0,798.0,31.0,404.999999999942,36.94
1603053505.0458,76.0,798.0,67.0,404.999999999942,36.94
1603053505.0478,76.0,798.0,82.0,404.999999999942,36.94
1603053505.0499,76.0,798.0,80.0,404.999999999942,36.94
1603053505.0519,76.0,798.0,82.0,404.999999999942,36.94
1603053505.0538,76.0,798.0,53.0,404.999999999942,36.94
1603053505.0558,76.0,798.0,55.0,404.999999999942,36.94
1603053505.0578,76.0,798.0,87.0,404.999999999942,36.94
1603053505.0598,76.0,798.0,84.0,404.999999999942,36.94
1603053505.0618,76.0,798.0,89.0,404.999999999942,36.94
1603053505.0638,76.0,798.0,116.0,404.999999999942,36.94
1603053505.5205,76.0,798.0,128.0,404.999999999942,36.94
1603053505.5213,76.0,798.0,113.0,404.999999999942,36.94
1603053505.5238,76.0,798.0,104.0,404.999999999942,36.94
1603053505.5264,76.0,798.0,104.0,404.999999999942,36.94
1603053505.5284,76.0,798.0,104.0,404.999999999942,36.94
1603053505.5305,76.0,798.0,126.0,404.999999999942,36.94
1603053505.5325,76.0,798.0,150.0,404.999999999942,36.94
1603053505.5343,76.0,798.0,138.0,404.999999999942,36.94
1603053505.5363,76.0,798.0,138.0,404.999999999942,36.94
1603053505.5383,76.0,798.0,162.0,404.999999999942,36.94
1603053505.5403,76.0,798.0,157.0,404.999999999942,36.94
1603053505.5424,76.0,798.0,145.0,404.999999999942,36.94
1603053505.5444,76.0,798.0,157.0,404.999999999942,36.94
1603053505.5465,76.0,798.0,174.0,404.999999999942,36.94
1603053505.5484,76.0,798.0,172.0,404.999999999942,36.94
1603053505.5503,76.0,798.0,160.0,404.999999999942,36.94
1603053505.5524,76.0,798.0,167.0,404.999999999942,36.94
1603053505.5543,76.0,798.0,179.0,404.999999999942,36.94
1603053505.5563,76.0,798.0,162.0,404.999999999942,36.94
1603053505.5583,76.0,798.0,152.0,404.999999999942,36.94
1603053505.5603,76.0,798.0,155.0,404.999999999942,36.94
1603053505.5625,76.0,798.0,118.0,404.999999999942,36.94
1603053505.5644,76.0,798.0,50.0,404.999999999942,36.94
1603053505.5663,76.0,798.0,46.0,404.999999999942,36.94
1603053505.5684,76.0,798.0,87.0,404.999999999942,36.94
1603053505.5703,76.0,798.0,60.0,404.999999999942,36.94
1603053505.5724,76.0,798.0,-9.0,404.999999999942,36.94
1603053505.5743,76.0,798.0,-14.0,404.999999999942,36.94
1603053505.5764,76.0,798.0,24.0,404.999999999942,36.94
1603053505.5784,76.0,798.0,19.0,404.999999999942,36.94
1603053505.5805,76.0,798.0,7.0,404.999999999942,36.94
1603053505.5824,76.0,798.0,33.0,404.999999999942,36.94
1603053505.5845,76.0,798.0,48.0,404.999999999942,36.94
1603053505.5864,76.0,798.0,36.0,404.999999999942,36.94
1603053505.5883,76.0,798.0,36.0,404.999999999942,36.94
1603053505.5903,76.0,798.0,48.0,404.999999999942,36.94
1603053505.5924,76.0,798.0,70.0,404.999999999942,36.94
1603053505.5943,76.0,798.0,72.0,404.999999999942,36.94
1603053505.5964,76.0,798.0,53.0,404.999999999942,36.94
1603053505.5983,76.0,798.0,55.0,404.999999999942,36.94
1603053505.6003,76.0,798.0,72.0,404.999999999942,36.94
1603053505.6024,76.0,798.0,77.0,404.999999999942,36.94
1603053505.6043,76.0,798.0,84.0,404.999999999942,36.94
1603053505.6063,76.0,798.0,87.0,404.999999999942,36.94
1603053505.6083,76.0,798.0,75.0,404.999999999942,36.94
1603053505.6103,76.0,798.0,65.0,404.999999999942,36.94
1603053505.6124,76.0,798.0,70.0,404.999999999942,36.94
1603053505.6143,76.0,798.0,75.0,404.999999999942,36.94
1603053505.6163,76.0,798.0,80.0,404.999999999942,36.94
1603053505.6183,76.0,798.0,82.0,404.999999999942,36.94
1603053505.6203,76.0,798.0,67.0,404.999999999942,36.94
1603053505.6224,76.0,798.0,53.0,404.999999999942,36.94
1603053505.6243,76.0,798.0,65.0,404.999999999942,36.94
1603053505.6263,76.0,798.0,53.0,404.999999999942,36.94
1603053505.6284,76.0,798.0,46.0,404.999999999942,36.94
1603053505.6304,76.0,798.0,101.0,404.999999999942,36.94
1603053505.6324,76.0,798.0,123.0,404.999999999942,36.94
1603053505.6343,76.0,798.0,70.0,404.999999999942,36.94
1603053505.6363,76.0,798.0,43.0,404.999999999942,36.94
1603053505.6383,76.0,798.0,55.0,404.999999999942,36.94
1603053505.6403,76.0,798.0,67.0,404.999999999942,36.94
1603053505.6424,76.0,798.0,67.0,404.999999999942,36.94
1603053505.6444,76.0,798.0,55.0,404.999999999942,36.94
1603053505.6464,76.0,798.0,58.0,404.999999999942,36.94
1603053505.6483,76.0,798.0,58.0,404.999999999942,36.94
1603053505.6503,76.0,798.0,29.0,404.999999999942,36.94
1603053505.6524,76.0,798.0,33.0,404.999999999942,36.94
1603053505.6543,76.0,798.0,89.0,404.999999999942,36.94
1603053505.6563,76.0,798.0,104.0,404.999999999942,36.94
1603053505.6583,76.0,798.0,65.0,404.999999999942,36.94
1603053505.6603,76.0,798.0,67.0,404.999999999942,36.94
1603053505.6625,76.0,798.0,172.0,404.999999999942,36.94
1603053505.6643,76.0,798.0,361.0,404.999999999942,36.94
1603053506.09,76.0,807.0,436.0,404.999999999942,37.0
1603053506.0908,76.0,807.0,113.0,404.999999999942,37.0
1603053506.0932,76.0,807.0,-324.0,404.999999999942,37.0
1603053506.0958,76.0,807.0,-276.0,404.999999999942,37.0
1603053506.0978,76.0,807.0,24.0,404.999999999942,37.0
1603053506.0998,76.0,807.0,72.0,404.999999999942,37.0
1603053506.1019,76.0,807.0,46.0,404.999999999942,37.0
1603053506.1038,76.0,807.0,106.0,404.999999999942,37.0
1603053506.1058,76.0,807.0,106.0,404.999999999942,37.0
1603053506.1079,76.0,807.0,72.0,404.999999999942,37.0
1603053506.11,76.0,807.0,84.0,404.999999999942,37.0
1603053506.1118,76.0,807.0,89.0,404.999999999942,37.0
1603053506.1138,76.0,807.0,77.0,404.999999999942,37.0
1603053506.1157,76.0,807.0,89.0,404.999999999942,37.0
1603053506.1177,76.0,807.0,87.0,404.999999999942,37.0
1603053506.1197,76.0,807.0,53.0,404.999999999942,37.0
1603053506.1217,76.0,807.0,63.0,404.999999999942,37.0
1603053506.1239,76.0,807.0,101.0,404.999999999942,37.0
1603053506.1258,76.0,807.0,109.0,404.999999999942,37.0
1603053506.1277,76.0,807.0,109.0,404.999999999942,37.0
1603053506.1297,76.0,807.0,121.0,404.999999999942,37.0
1603053506.1317,76.0,807.0,111.0,404.999999999942,37.0
1603053506.1338,76.0,807.0,109.0,404.999999999942,37.0
1603053506.1358,76.0,807.0,130.0,404.999999999942,37.0
1603053506.1378,76.0,807.0,155.0,404.999999999942,37.0
1603053506.1399,76.0,807.0,167.0,404.999999999942,37.0
1603053506.1418,76.0,807.0,172.0,404.999999999942,37.0
1603053506.1437,76.0,807.0,174.0,404.999999999942,37.0
1603053506.1457,76.0,807.0,179.0,404.999999999942,37.0
1603053506.1478,76.0,807.0,189.0,404.999999999942,37.0
1603053506.1498,76.0,807.0,196.0,404.999999999942,37.0
1603053506.1517,76.0,807.0,191.0,404.999999999942,37.0
1603053506.1539,76.0,807.0,184.0,404.999999999942,37.0
1603053506.1558,76.0,807.0,181.0,404.999999999942,37.0
1603053506.1578,76.0,807.0,177.0,404.999999999942,37.0
1603053506.1597,76.0,807.0,164.0,404.999999999942,37.0
1603053506.1617,76.0,807.0,152.0,404.999999999942,37.0
1603053506.1638,76.0,807.0,133.0,404.999999999942,37.0
1603053506.1658,76.0,807.0,87.0,404.999999999942,37.0
1603053506.1677,76.0,807.0,46.0,404.999999999942,37.0
1603053506.1697,76.0,807.0,48.0,404.999999999942,37.0
1603053506.1717,76.0,807.0,46.0,404.999999999942,37.0
1603053506.1738,76.0,807.0,14.0,404.999999999942,37.0
1603053506.1757,76.0,807.0,-7.0,404.999999999942,37.0
1603053506.1777,76.0,807.0,-4.0,404.999999999942,37.0
1603053506.1797,76.0,807.0,-2.0,404.999999999942,37.0
1603053506.1817,76.0,807.0,0.0,404.999999999942,37.0
1603053506.1838,76.0,807.0,7.0,404.999999999942,37.0
1603053506.1857,76.0,807.0,12.0,404.999999999942,37.0
1603053506.1877,76.0,807.0,12.0,404.999999999942,37.0
1603053506.1898,76.0,807.0,12.0,404.999999999942,37.0
1603053506.1917,76.0,807.0,14.0,404.999999999942,37.0
1603053506.1938,76.0,807.0,19.0,404.999999999942,37.0
1603053506.1957,76.0,807.0,24.0,404.999999999942,37.0
1603053506.1977,76.0,807.0,24.0,404.999999999942,37.0
1603053506.1997,76.0,807.0,29.0,404.999999999942,37.0
1603053506.2018,76.0,807.0,43.0,404.999999999942,37.0
1603053506.2037,76.0,807.0,53.0,404.999999999942,37.0
1603053506.2058,76.0,807.0,48.0,404.999999999942,37.0
1603053506.2077,76.0,807.0,41.0,404.999999999942,37.0
1603053506.2097,76.0,807.0,46.0,404.999999999942,37.0
1603053506.2119,76.0,807.0,48.0,404.999999999942,37.0
1603053506.2138,76.0,807.0,43.0,404.999999999942,37.0
1603053506.2157,76.0,807.0,41.0,404.999999999942,37.0
1603053506.2177,76.0,807.0,43.0,404.999999999942,37.0
1603053506.2197,76.0,807.0,41.0,404.999999999942,37.0
1603053506.2218,76.0,807.0,48.0,404.999999999942,37.0
1603053506.2238,76.0,807.0,75.0,404.999999999942,37.0
1603053506.2257,76.0,807.0,92.0,404.999999999942,37.0
1603053506.2277,76.0,807.0,80.0,404.999999999942,37.0
1603053506.2297,76.0,807.0,67.0,404.999999999942,37.0
1603053506.2317,76.0,807.0,63.0,404.999999999942,37.0
1603053506.2337,76.0,807.0,58.0,404.999999999942,37.0
1603053506.63,76.0,807.0,50.0,404.999999999942,37.0
1603053506.6305,76.0,807.0,46.0,404.999999999942,37.0
1603053506.6327,76.0,807.0,43.0,404.999999999942,37.0
1603053506.6343,76.0,807.0,46.0,404.999999999942,37.0
1603053506.6363,76.0,807.0,50.0,404.999999999942,37.0
1603053506.6382,76.0,807.0,53.0,404.999999999942,37.0
1603053506.6402,76.0,807.0,43.0,404.999999999942,37.0
1603053506.6423,76.0,807.0,43.0,404.999999999942,37.0
1603053506.6442,76.0,807.0,48.0,404.999999999942,37.0
1603053506.6462,76.0,807.0,38.0,404.999999999942,37.0
1603053506.6483,76.0,807.0,94.0,404.999999999942,37.0
1603053506.6503,76.0,807.0,337.0,404.999999999942,37.0
1603053506.6524,76.0,807.0,567.0,404.999999999942,37.0
1603053506.6543,76.0,807.0,295.0,404.999999999942,37.0
1603053506.6562,76.0,807.0,-351.0,404.999999999942,37.0
1603053506.6582,76.0,807.0,-489.0,404.999999999942,37.0
1603053506.6602,76.0,807.0,-82.0,404.999999999942,37.0
1603053506.6623,76.0,807.0,75.0,404.999999999942,37.0
1603053506.664,76.0,807.0,0.0,404.999999999942,37.0
1603053506.6663,76.0,807.0,63.0,404.999999999942,37.0
1603053506.6683,76.0,807.0,113.0,404.999999999942,37.0
1603053506.6714,76.0,807.0,75.0,404.999999999942,37.0
1603053506.6733,76.0,807.0,82.0,404.999999999942,37.0
1603053506.6752,76.0,807.0,113.0,405.02826107847704,37.0
1603053506.6773,76.0,807.0,99.0,405.0536383734881,37.0
1603053506.6793,76.0,807.0,87.0,405.0761901432282,37.0
1603053506.6813,76.0,807.0,104.0,405.0959746459503,37.0
1603053506.6833,76.0,807.0,113.0,405.11305013990744,37.0
1603053506.6852,76.0,807.0,113.0,405.1274748833527,37.0
1603053506.6872,76.0,807.0,116.0,405.13930713453897,37.0
1603053506.6892,76.0,807.0,121.0,405.1486051517193,37.0
1603053506.6912,76.0,807.0,126.0,405.15542719314675,37.0
1603053506.6933,76.0,807.0,130.0,405.1598315170743,37.0
1603053506.6952,76.0,807.0,140.0,405.16187638175495,37.0
1603053506.6972,76.0,807.0,140.0,405.1616200454417,37.0
1603053506.6992,76.0,807.0,133.0,405.15912076638756,37.0
1603053506.7013,76.0,807.0,140.0,405.1544368028456,37.0
1603053506.7033,76.0,807.0,162.0,405.14762641306874,37.0
1603053506.7052,76.0,807.0,181.0,405.13874785531004,37.0
1603053506.7074,76.0,807.0,194.0,405.1278593878225,37.0
1603053506.7093,76.0,807.0,201.0,405.1150192688592,37.0
1603053506.7112,76.0,807.0,208.0,405.10028575667303,37.0
1603053506.7132,76.0,807.0,213.0,405.08371710951707,37.0
1603053506.7153,76.0,807.0,208.0,405.0653715856443,37.0
1603053506.7173,76.0,807.0,203.0,405.0453074433077,37.0
1603053506.7192,76.0,807.0,215.0,405.0235829407604,37.0
1603053506.7212,76.0,807.0,225.0,405.0002563362553,37.0
1603053506.7233,76.0,807.0,194.0,404.9753858880454,37.0
1603053506.7252,76.0,807.0,140.0,404.9490298543838,37.0
1603053506.7273,76.0,807.0,109.0,404.9212464935234,37.0
1603053506.7292,76.0,807.0,87.0,404.89209406371737,37.0
1603053506.7312,76.0,807.0,63.0,404.86163082321855,37.0
1603053506.7334,76.0,807.0,41.0,404.82991503028006,37.0
1603053506.7353,76.0,807.0,29.0,404.79700494315483,37.0
1603053506.7372,76.0,807.0,19.0,404.76295882009595,37.0
1603053506.7392,76.0,807.0,9.0,404.7278349193563,37.0
1603053506.7412,76.0,807.0,9.0,404.69169149918906,37.0
1603053506.7433,76.0,807.0,12.0,404.6545868178472,37.0
1603053506.7452,76.0,807.0,19.0,404.6165791335836,37.0
1603053506.7472,76.0,807.0,24.0,404.5777267046514,37.0
1603053506.7493,76.0,807.0,21.0,404.5380877893036,37.0
1603053506.7513,76.0,807.0,29.0,404.4977206457931,37.0
1603053506.7533,76.0,807.0,43.0,404.45668353237306,37.0
1603053506.7553,76.0,807.0,55.0,404.41503470729634,37.0
1603053506.7572,76.0,807.0,67.0,404.3728324288161,37.0
1603053506.7592,76.0,807.0,55.0,404.33013495518526,37.0
1603053506.7612,76.0,807.0,-14.0,404.28700054465685,37.0
1603053506.7633,76.0,807.0,-48.0,404.24348745548383,37.0
1603053506.7653,76.0,807.0,14.0,404.1996539459193,37.0
1603053506.7674,76.0,807.0,60.0,404.1555582742162,37.0
1603053506.7692,76.0,807.0,33.0,404.1112586986276,37.0
1603053506.7712,76.0,807.0,16.0,404.0668134774064,37.0
1603053506.7733,76.0,807.0,26.0,404.02228086880575,37.0
1603053507.2001,76.0,774.0,31.0,403.97771913107863,36.94
1603053507.2006,76.0,774.0,41.0,403.93318652247797,36.94
1603053507.202,76.0,774.0,58.0,403.88874130125686,36.94
1603053507.204,76.0,774.0,58.0,403.8444417256682,36.94
1603053507.2059,76.0,774.0,60.0,403.8003460539651,36.94
1603053507.208,76.0,774.0,84.0,403.7565125444006,36.94
1603053507.21,76.0,774.0,82.0,403.71299945522765,36.94
1603053507.2121,76.0,774.0,46.0,403.66986504469924,36.94
1603053507.214,76.0,774.0,33.0,403.6271675710683,36.94
1603053507.216,76.0,774.0,63.0,403.5849652925881,36.94
1603053507.218,76.0,774.0,80.0,403.54331646751143,36.94
1603053507.22,76.0,774.0,72.0,403.50227935409134,36.94
1603053507.222,76.0,774.0,50.0,403.46191221058086,36.94
1603053507.224,76.0,774.0,19.0,403.422273295233,36.94
1603053507.226,76.0,774.0,14.0,403.38342086630075,36.94
1603053507.228,76.0,774.0,19.0,403.3454131820372,36.94
1603053507.2301,76.0,774.0,31.0,403.30830850069526,36.94
1603053507.2322,76.0,774.0,72.0,403.2721650805281,36.94
1603053507.234,76.0,774.0,65.0,403.23704117978843,36.94
1603053507.236,76.0,774.0,-4.0,403.2029950567296,36.94
1603053507.2379,76.0,774.0,21.0,403.17008496960443,36.94
1603053507.24,76.0,774.0,213.0,403.13836917666583,36.94
1603053507.242,76.0,774.0,458.0,403.10790593616707,36.94
1603053507.2441,76.0,774.0,482.0,403.135275663431,36.94
1603053507.246,76.0,774.0,2.0,403.15824689259284,36.94
1603053507.248,76.0,774.0,-480.0,403.17699439841135,36.94
1603053507.25,76.0,774.0,-278.0,403.19169295564575,36.94
1603053507.252,76.0,774.0,75.0,403.2025173390549,36.94
1603053507.254,76.0,774.0,38.0,403.20964232339804,36.94
1603053507.256,76.0,774.0,2.0,403.21324268343403,36.94
1603053507.258,76.0,774.0,106.0,403.213493193922,36.94
1603053507.26,76.0,774.0,118.0,403.21056862962087,36.94
1603053507.2621,76.0,774.0,89.0,403.2046437652898,36.94
1603053507.264,76.0,774.0,101.0,403.19589337568766,36.94
1603053507.266,76.0,774.0,87.0,403.18449223557366,36.94
1603053507.268,76.0,774.0,75.0,403.1706151197068,36.94
1603053507.27,76.0,774.0,94.0,403.1544368028459,36.94
1603053507.272,76.0,774.0,92.0,403.13613205975025,36.94
1603053507.274,76.0,774.0,80.0,403.1158756651788,36.94
1603053507.276,76.0,774.0,97.0,403.09384239389044,36.94
1603053507.2781,76.0,774.0,97.0,403.0702070206444,36.94
1603053507.28,76.0,774.0,75.0,403.0451443201996,36.94
1603053507.282,76.0,774.0,89.0,403.0188290673151,36.94
1603053507.284,76.0,774.0,121.0,402.99143603675,36.94
1603053507.286,76.0,774.0,130.0,402.9631400032631,36.94
1603053507.288,76.0,774.0,143.0,402.9341157416136,36.94
1603053507.29,76.0,774.0,164.0,402.90453802656054,36.94
1603053507.292,76.0,774.0,172.0,402.87458163286294,36.94
1603053507.294,76.0,774.0,164.0,402.8444213352798,36.94
1603053507.2961,76.0,774.0,179.0,402.81423190857015,36.94
1603053507.298,76.0,774.0,198.0,402.78418812749305,36.94
1603053507.3,76.0,774.0,191.0,402.7232616464954,36.94
1603053507.302,76.0,774.0,179.0,402.65983006061845,36.94
1603053507.304,76.0,774.0,191.0,402.594009886368,36.94
1603053507.3061,76.0,774.0,201.0,402.5259176402501,36.94
1603053507.308,76.0,774.0,208.0,402.455669838771,36.94
1603053507.31,76.0,774.0,227.0,402.38338299843645,36.94
1603053507.3121,76.0,774.0,218.0,402.3091736357526,36.94
1603053507.314,76.0,774.0,179.0,402.23315826722546,36.94
1603053507.316,76.0,774.0,162.0,402.15545340936103,36.94
1603053507.318,76.0,774.0,123.0,402.07617557866536,36.94
1603053507.32,76.0,774.0,58.0,401.9954412916445,36.94
1603053507.322,76.0,774.0,26.0,401.91336706480433,36.94
1603053507.324,76.0,774.0,31.0,401.830069414651,36.94
1603053507.3259,76.0,774.0,38.0,401.7456648576904,36.94
1603053507.3281,76.0,774.0,46.0,401.6602699104287,36.94
1603053507.33,76.0,774.0,41.0,401.5740010893718,36.94
1603053507.332,76.0,774.0,16.0,401.48697491102587,36.94
1603053507.3342,76.0,774.0,24.0,401.3993078918967,36.94
1603053507.336,76.0,774.0,41.0,401.31111654849053,36.94
1603053507.338,76.0,774.0,19.0,401.2225173973133,36.94
1603053507.34,76.0,774.0,9.0,401.133626954871,36.94
1603053507.342,76.0,774.0,26.0,401.04456173766965,36.94
1603053507.74,76.0,774.0,29.0,400.95543826221535,37.0
1603053507.7408,76.0,774.0,36.0,400.86637304501403,37.0
1603053507.7433,76.0,774.0,63.0,400.77748260257175,37.0
1603053507.7458,76.0,774.0,67.0,400.68888345139453,37.0
1603053507.7478,76.0,774.0,41.0,400.6006921079884,37.0
1603053507.7498,76.0,774.0,16.0,400.5130250888593,37.0
1603053507.752,76.0,774.0,33.0,400.42599891051333,37.0
1603053507.7538,76.0,774.0,65.0,400.33973008945645,37.0
1603053507.7559,76.0,774.0,55.0,400.25433514219475,37.0
1603053507.7579,76.0,774.0,41.0,400.16993058523417,37.0
1603053507.7598,76.0,774.0,58.0,400.08663293508084,37.0
1603053507.7618,76.0,774.0,67.0,400.00455870824067,37.0
1603053507.7638,76.0,774.0,48.0,399.92382442121976,37.0
1603053507.7658,76.0,774.0,24.0,399.84454659052403,37.0
1603053507.7678,76.0,774.0,26.0,399.7668417326596,37.0
1603053507.7698,76.0,774.0,53.0,399.6908263641325,37.0
1603053507.7719,76.0,774.0,63.0,399.6166170014487,37.0
1603053507.7739,76.0,774.0,60.0,399.5443301611142,37.0
1603053507.7758,76.0,774.0,99.0,399.47408235963496,37.0
1603053507.7778,76.0,774.0,113.0,399.4059901135172,37.0
1603053507.7798,76.0,774.0,46.0,399.3401699392668,37.0
1603053507.7818,76.0,774.0,21.0,399.27673835338976,37.0
1603053507.7838,76.0,774.0,65.0,399.2158118723921,37.0
1603053507.7858,76.0,774.0,41.0,399.15750701278,37.0
1603053507.7878,76.0,774.0,0.0,399.1019402910593,37.0
1603053507.79,76.0,774.0,65.0,399.04922822373607,37.0
1603053507.7918,76.0,774.0,75.0,398.99948732731633,37.0
1603053507.7939,76.0,774.0,-24.0,398.9528341183061,37.0
1603053507.7958,76.0,774.0,-14.0,398.90938511321144,37.0
1603053507.7979,76.0,774.0,53.0,398.86925682853825,37.0
1603053507.7999,76.0,774.0,14.0,398.8325657807927,37.0
1603053507.8018,76.0,774.0,-2.0,398.7994284864808,37.0
1603053507.8038,76.0,774.0,53.0,398.7699614621084,37.0
1603053507.8059,76.0,774.0,162.0,398.7442812241818,37.0
1603053507.8078,76.0,774.0,400.0,398.7225042892067,37.0
1603053507.8098,76.0,774.0,545.0,398.7047471736894,37.0
1603053507.8118,76.0,774.0,152.0,398.69112639413567,37.0
1603053507.8139,76.0,774.0,-443.0,398.68175846705174,37.0
1603053507.8149,76.0,774.0,-390.0,398.6767599089435,37.0
1603053507.8164,76.0,774.0,19.0,398.67624723631695,37.0
1603053507.8178,76.0,774.0,80.0,398.6803369656783,37.0
1603053507.8199,76.0,774.0,9.0,398.68914561353336,37.0
1603053507.8218,76.0,774.0,72.0,398.7027896963882,37.0
1603053507.8239,76.0,774.0,106.0,398.7213857307489,37.0
1603053507.8258,76.0,774.0,84.0,398.7450502331215,37.0
1603053507.8278,76.0,774.0,75.0,398.77389972001197,37.0
1603053507.83,76.0,774.0,75.0,398.80805070792627,37.0
1603053507.8319,76.0,774.0,80.0,398.8476197133705,37.0
1603053507.8338,76.0,774.0,92.0,398.8927232528506,37.0
1603053507.8358,76.0,774.0,92.0,398.94347784287277,37.0
1603053507.8379,76.0,774.0,92.0,398.9999999999428,37.0
1603053507.8399,76.0,774.0,99.0,398.9999999999428,37.0
1603053507.8418,76.0,774.0,111.0,398.9999999999428,37.0
1603053507.8438,76.0,774.0,140.0,398.9999999999428,37.0
1603053507.8458,76.0,774.0,157.0,398.9999999999428,37.0
1603053507.8478,76.0,774.0,106.0,398.9999999999428,37.0
1603053507.8498,76.0,774.0,75.0,398.9999999999428,37.0
1603053507.8518,76.0,774.0,128.0,398.9999999999428,37.0
1603053507.8538,76.0,774.0,177.0,398.9999999999428,37.0
1603053507.8559,76.0,774.0,160.0,398.9999999999428,37.0
1603053507.8578,76.0,774.0,150.0,398.9999999999428,37.0
1603053507.8598,76.0,774.0,181.0,398.9999999999428,37.0
1603053507.8618,76.0,774.0,191.0,398.9999999999428,37.0
1603053507.8638,76.0,774.0,186.0,398.9999999999428,37.0
1603053507.8658,76.0,774.0,230.0,398.9999999999428,37.0
1603053507.8678,76.0,774.0,252.0,398.9999999999428,37.0
1603053507.8698,76.0,774.0,198.0,398.9999999999428,37.0
1603053507.8719,76.0,774.0,152.0,398.9999999999428,37.0
1603053507.8738,76.0,774.0,160.0,398.9999999999428,37.0
1603053507.8758,76.0,774.0,169.0,398.9999999999428,37.0
1603053507.8778,76.0,774.0,184.0,398.9999999999428,37.0
1603053507.8798,76.0,774.0,196.0,398.9999999999428,37.0
1603053507.8818,76.0,774.0,157.0,398.9999999999428,37.0
1603053508.3102,77.0,709.0,94.0,398.9999999999428,37.0
1603053508.311,77.0,709.0,92.0,398.9999999999428,37.0
1603053508.3134,77.0,709.0,101.0,398.9999999999428,37.0
1603053508.3161,77.0,709.0,46.0,398.9999999999428,37.0
1603053508.3181,77.0,709.0,-2.0,398.9999999999428,37.0
1603053508.3201,77.0,709.0,14.0,398.9999999999428,37.0
