Time,ECG
1604400459.5866,1655
1604400459.5871,4697
1604400459.5895,7038
1604400459.5921,7943
1604400459.5941,8910
1604400459.5961,9982
1604400459.5982,10583
1604400459.6002,11089
1604400459.6021,11654
1604400459.6041,12038
1604400459.6061,12346
1604400459.6082,12713
1604400459.6102,12988
1604400459.6121,13135
1604400459.6141,13292
1604400459.6161,13459
1604400459.6181,13548
1604400459.6202,13608
1604400459.6221,13698
1604400459.6242,13780
1604400459.6262,13840
1604400459.6281,13883
1604400459.6301,13922
1604400459.6321,13961
1604400459.6341,13987
1604400459.6361,13987
1604400459.6382,13900
1604400459.6401,13616
1604400459.6421,13442
1604400459.6441,14091
1604400459.6461,15626
1604400459.6481,16748
1604400459.6502,16113
1604400459.6521,14400
1604400459.6542,13437
1604400459.6562,13447
1604400459.6581,13461
1604400459.6601,13370
1604400459.6621,13435
1604400459.6642,13459
1604400459.6661,13372
1604400459.6681,13338
1604400459.6702,13341
1604400459.6721,13292
1604400459.6741,13232
1604400459.6762,13191
1604400459.6781,13143
1604400459.6802,13087
1604400459.6822,13024
1604400459.6841,12964
1604400459.6867,12913
1604400459.6882,12851
1604400459.6902,12769
1604400459.6921,12704
1604400459.6942,12648
1604400459.6961,12573
1604400459.6981,12498
1604400459.7001,12438
1604400459.7022,12380
1604400459.7041,12332
1604400459.7062,12286
1604400459.7081,12223
1604400459.7101,12163
1604400459.7121,12110
1604400459.7141,12042
1604400459.7161,11963
1604400459.7182,11886
1604400459.7202,11789
1604400459.7222,11673
1604400459.7241,11560
1604400459.7261,11463
1604400459.7281,11367
1604400459.7301,11268
1604400460.1256,11191
1604400460.1261,11118
1604400460.1285,11019
1604400460.1311,10923
1604400460.1331,10846
1604400460.1352,10766
1604400460.1371,10672
1604400460.1391,10590
1604400460.1411,10515
1604400460.1431,10433
1604400460.1451,10344
1604400460.1471,10257
1604400460.1492,10197
1604400460.1511,10139
1604400460.1530,10025
1604400460.1551,9919
1604400460.1571,9866
1604400460.1591,9796
1604400460.1611,9699
1604400460.1631,9625
1604400460.1651,9555
1604400460.1671,9468
1604400460.1691,9374
1604400460.1711,9294
1604400460.1731,9224
1604400460.1751,9149
1604400460.1771,9060
1604400460.1791,8968
1604400460.1813,8886
1604400460.1832,8811
1604400460.1851,8732
1604400460.1871,8655
1604400460.1891,8577
1604400460.1911,8491
1604400460.1931,8409
1604400460.1951,8341
1604400460.1971,8264
1604400460.1990,8172
1604400460.2011,8085
1604400460.2030,8018
1604400460.2051,7977
1604400460.2072,7950
1604400460.2091,7883
1604400460.2111,7779
1604400460.2131,7692
1604400460.2151,7617
1604400460.2172,7516
1604400460.2191,7410
1604400460.2212,7335
1604400460.2231,7270
1604400460.2251,7197
1604400460.2271,7130
1604400460.2291,7069
1604400460.2311,7002
1604400460.2331,6922
1604400460.2351,6840
1604400460.2371,6633
1604400460.2391,6247
1604400460.2411,6152
1604400460.2431,6990
1604400460.2451,8500
1604400460.2471,9222
1604400460.2491,8129
1604400460.2511,6428
1604400460.2531,5778
1604400460.2551,5848
1604400460.2571,5771
1604400460.2591,5701
1604400460.2611,5759
1604400460.2631,5725
1604400460.2651,5651
1604400460.2671,5626
1604400460.2691,5590
1604400460.6959,5532
1604400460.6963,5489
1604400460.6983,5443
1604400460.7001,5390
1604400460.7021,5342
1604400460.7041,5298
1604400460.7062,5250
1604400460.7081,5192
1604400460.7101,5139
1604400460.7121,5096
1604400460.7141,5055
1604400460.7161,4987
1604400460.7181,4919
1604400460.7201,4883
1604400460.7221,4854
1604400460.7241,4813
1604400460.7261,4787
1604400460.7281,4767
1604400460.7301,4738
1604400460.7321,4700
1604400460.7341,4669
1604400460.7361,4635
1604400460.7381,4582
1604400460.7401,4509
1604400460.7421,4434
1604400460.7441,4360
1604400460.7461,4285
1604400460.7481,4220
1604400460.7501,4169
1604400460.7521,4121
1604400460.7541,4070
1604400460.7561,4015
1604400460.7581,3969
1604400460.7601,3928
1604400460.7621,3887
1604400460.7641,3841
1604400460.7661,3797
1604400460.7681,3759
1604400460.7701,3723
1604400460.7721,3686
1604400460.7741,3657
1604400460.7761,3629
1604400460.7781,3592
1604400460.7801,3554
1604400460.7821,3530
1604400460.7842,3501
1604400460.7861,3455
1604400460.7881,3411
1604400460.7900,3380
1604400460.7921,3346
1604400460.7942,3308
1604400460.7961,3271
1604400460.7981,3238
1604400460.8001,3206
1604400460.8020,3170
1604400460.8041,3131
1604400460.8061,3100
1604400460.8082,3071
1604400460.8101,3035
1604400460.8121,2994
1604400460.8141,2965
1604400460.8161,2936
1604400460.8181,2902
1604400460.8201,2871
1604400460.8221,2837
1604400460.8241,2803
1604400460.8261,2772
1604400460.8281,2738
1604400460.8301,2709
1604400460.8321,2687
1604400460.8341,2668
1604400460.8360,2675
1604400460.8381,2685
1604400461.2060,2637
1604400461.2064,2574
1604400461.2078,2552
1604400461.2098,2516
1604400461.2117,2449
1604400461.2137,2412
1604400461.2156,2403
1604400461.2178,2376
1604400461.2197,2342
1604400461.2217,2318
1604400461.2238,2297
1604400461.2258,2270
1604400461.2277,2231
1604400461.2298,2116
1604400461.2317,1826
1604400461.2338,1604
1604400461.2357,2096
1604400461.2378,3450
1604400461.2398,4565
1604400461.2418,4063
1604400461.2437,2473
1604400461.2457,1619
1604400461.2477,1667
1604400461.2498,1657
1604400461.2518,1585
1604400461.2538,1696
1604400461.2558,1754
1604400461.2578,1710
1604400461.2598,1705
1604400461.2617,1725
1604400461.2638,1718
1604400461.2658,1703
1604400461.2678,1693
1604400461.2697,1684
1604400461.2718,1679
1604400461.2739,1667
1604400461.2758,1652
1604400461.2778,1643
1604400461.2797,1628
1604400461.2817,1609
1604400461.2838,1599
1604400461.2857,1590
1604400461.2877,1580
1604400461.2898,1570
1604400461.2918,1570
1604400461.2937,1580
1604400461.2957,1590
1604400461.2978,1594
1604400461.2998,1602
1604400461.3018,1604
1604400461.3038,1592
1604400461.3057,1573
1604400461.3078,1553
1604400461.3097,1520
1604400461.3117,1457
1604400461.3138,1399
1604400461.3157,1365
1604400461.3177,1334
1604400461.3197,1300
1604400461.3218,1276
1604400461.3238,1257
1604400461.3258,1240
1604400461.3277,1218
1604400461.3298,1204
1604400461.3316,1199
1604400461.3337,1189
1604400461.3357,1177
1604400461.3378,1167
1604400461.3398,1165
1604400461.3418,1165
1604400461.3437,1160
1604400461.3458,1153
1604400461.3478,1146
1604400461.7759,1141
1604400461.7763,1138
1604400461.7787,1134
1604400461.7814,1124
1604400461.7834,1114
1604400461.7854,1093
1604400461.7874,1068
1604400461.7894,1056
1604400461.7914,1052
1604400461.7934,1042
1604400461.7954,1030
1604400461.7973,1023
1604400461.7994,1013
1604400461.8015,1001
1604400461.8034,991
1604400461.8054,986
1604400461.8074,977
1604400461.8093,962
1604400461.8114,953
1604400461.8134,945
1604400461.8153,936
1604400461.8174,926
1604400461.8194,916
1604400461.8214,907
1604400461.8234,900
1604400461.8254,887
1604400461.8273,878
1604400461.8293,885
1604400461.8314,924
1604400461.8334,948
1604400461.8353,914
1604400461.8373,868
1604400461.8393,854
1604400461.8414,842
1604400461.8433,805
1604400461.8453,779
1604400461.8474,776
1604400461.8494,776
1604400461.8514,767
1604400461.8533,760
1604400461.8554,752
1604400461.8574,745
1604400461.8593,738
1604400461.8613,663
1604400461.8634,398
1604400461.8653,173
1604400461.8674,641
1604400461.8694,2019
1604400461.8713,3262
1604400461.8734,2922
1604400461.8754,1343
1604400461.8773,313
1604400461.8794,275
1604400461.8814,340
1604400461.8834,299
1604400461.8854,386
1604400461.8873,463
1604400461.8894,448
1604400461.8913,453
1604400461.8933,487
1604400461.8953,489
1604400461.8973,489
1604400461.8994,504
1604400461.9013,511
1604400461.9035,511
1604400461.9054,509
1604400461.9073,506
1604400461.9094,511
1604400461.9114,511
1604400461.9134,511
1604400461.9154,513
1604400461.9174,509
1604400461.9194,506
1604400462.3160,511
1604400462.3165,516
1604400462.3189,523
1604400462.3215,533
1604400462.3236,552
1604400462.3255,574
1604400462.3276,583
1604400462.3295,591
1604400462.3315,610
1604400462.3335,615
1604400462.3355,595
1604400462.3375,569
1604400462.3395,538
1604400462.3416,506
1604400462.3435,482
1604400462.3455,468
1604400462.3475,456
1604400462.3495,446
1604400462.3516,441
1604400462.3535,439
1604400462.3555,436
1604400462.3575,436
1604400462.3595,424
1604400462.3615,407
1604400462.3635,402
1604400462.3657,405
1604400462.3675,405
1604400462.3695,405
1604400462.3715,410
1604400462.3735,417
1604400462.3756,422
1604400462.3775,422
1604400462.3795,422
1604400462.3815,424
1604400462.3835,427
1604400462.3855,429
1604400462.3876,429
1604400462.3895,427
1604400462.3915,422
1604400462.3935,422
1604400462.3955,424
1604400462.3975,419
1604400462.3997,410
1604400462.4016,407
1604400462.4035,410
1604400462.4055,402
1604400462.4075,393
1604400462.4095,393
1604400462.4116,395
1604400462.4135,390
1604400462.4156,386
1604400462.4176,386
1604400462.4195,383
1604400462.4215,374
1604400462.4235,371
1604400462.4255,361
1604400462.4275,352
1604400462.4295,366
1604400462.4315,417
1604400462.4335,451
1604400462.4355,424
1604400462.4375,388
1604400462.4395,390
1604400462.4415,383
1604400462.4435,340
1604400462.4455,320
1604400462.4476,328
1604400462.4495,323
1604400462.4515,318
1604400462.4535,318
1604400462.4555,313
1604400462.4575,316
1604400462.4595,311
1604400462.9459,202
1604400462.9463,-96
1604400462.9487,-243
1604400462.9513,451
1604400462.9533,2007
1604400462.9553,3117
1604400462.9574,2437
1604400462.9594,723
1604400462.9614,-168
1604400462.9633,-110
1604400462.9653,-62
1604400462.9674,-103
1604400462.9693,0
1604400462.9713,60
1604400462.9734,36
1604400462.9753,57
1604400462.9773,91
1604400462.9794,91
1604400462.9814,101
1604400462.9834,120
1604400462.9855,127
1604400462.9874,130
1604400462.9893,142
1604400462.9913,147
1604400462.9933,149
1604400462.9953,156
1604400462.9973,161
1604400462.9994,161
1604400463.0013,164
1604400463.0033,166
1604400463.0053,166
1604400463.0073,176
1604400463.0094,193
1604400463.0114,212
1604400463.0133,238
1604400463.0154,263
1604400463.0174,287
1604400463.0193,311
1604400463.0213,330
1604400463.0234,330
1604400463.0255,316
1604400463.0273,291
1604400463.0294,263
1604400463.0314,238
1604400463.0334,221
1604400463.0353,209
1604400463.0374,197
1604400463.0394,195
1604400463.0414,193
1604400463.0433,188
1604400463.0454,180
1604400463.0474,180
1604400463.0493,178
1604400463.0514,176
1604400463.0534,178
1604400463.0554,180
1604400463.0573,180
1604400463.0593,180
1604400463.0614,188
1604400463.0635,190
1604400463.0653,195
1604400463.0673,200
1604400463.0694,202
1604400463.0714,202
1604400463.0733,209
1604400463.0754,217
1604400463.0774,212
1604400463.0794,209
1604400463.0814,214
1604400463.0833,212
1604400463.0854,202
1604400463.0875,205
1604400463.0894,205
1604400463.4856,205
1604400463.4860,205
1604400463.4884,202
1604400463.4910,197
1604400463.4930,193
1604400463.4951,193
1604400463.4971,190
1604400463.4990,193
1604400463.5010,183
1604400463.5030,166
1604400463.5050,164
1604400463.5070,173
1604400463.5090,188
1604400463.5111,224
1604400463.5130,253
1604400463.5150,226
1604400463.5170,200
1604400463.5190,202
1604400463.5211,188
1604400463.5230,152
1604400463.5250,137
1604400463.5270,147
1604400463.5291,154
1604400463.5310,152
1604400463.5330,152
1604400463.5350,154
1604400463.5370,156
1604400463.5390,130
1604400463.5410,-36
1604400463.5430,-345
1604400463.5450,-294
1604400463.5470,702
1604400463.5489,2263
1604400463.5510,2866
1604400463.5530,1679
1604400463.5550,118
1604400463.5570,-313
1604400463.5590,-171
1604400463.5610,-217
1604400463.5631,-209
1604400463.5650,-82
1604400463.5671,-60
1604400463.5690,-72
1604400463.5710,-31
1604400463.5730,-12
1604400463.5750,-12
1604400463.5771,12
1604400463.5790,31
1604400463.5810,31
1604400463.5832,38
1604400463.5851,53
1604400463.5870,57
1604400463.5890,62
1604400463.5910,72
1604400463.5930,82
1604400463.5950,86
1604400463.5970,91
1604400463.5991,98
1604400463.6010,108
1604400463.6030,123
1604400463.6050,144
1604400463.6070,173
1604400463.6090,200
1604400463.6110,221
1604400463.6130,236
1604400463.6150,250
1604400463.6171,258
1604400463.6190,248
1604400463.6210,217
1604400463.6230,176
1604400463.6250,142
1604400463.6270,123
1604400463.6290,110
1604400464.0258,91
1604400464.0263,72
1604400464.0287,67
1604400464.0313,72
1604400464.0333,72
1604400464.0353,72
1604400464.0373,72
1604400464.0393,77
1604400464.0413,82
1604400464.0433,74
1604400464.0453,69
1604400464.0473,82
1604400464.0494,98
1604400464.0513,103
1604400464.0533,110
1604400464.0553,123
1604400464.0573,127
1604400464.0593,130
1604400464.0613,132
1604400464.0633,137
1604400464.0640,139
1604400464.0653,139
1604400464.0673,135
1604400464.0693,137
1604400464.0713,142
1604400464.0733,139
1604400464.0753,137
1604400464.0774,139
1604400464.0793,135
1604400464.0813,130
1604400464.0832,135
1604400464.0853,132
1604400464.0873,127
1604400464.0893,130
1604400464.0913,135
1604400464.0933,154
1604400464.0940,197
1604400464.0953,214
1604400464.0972,183
1604400464.0993,164
1604400464.1014,168
1604400464.1032,144
1604400464.1053,115
1604400464.1073,115
1604400464.1093,127
1604400464.1113,127
1604400464.1133,123
1604400464.1153,125
1604400464.1173,130
1604400464.1193,132
1604400464.1213,108
1604400464.1220,-60
1604400464.1233,-352
1604400464.1253,-277
1604400464.1273,685
1604400464.1293,2101
1604400464.1313,2497
1604400464.1333,1278
1604400464.1353,-33
1604400464.1373,-275
1604400464.1393,-176
1604400464.1413,-246
1604400464.1433,-180
1604400464.1453,-50
1604400464.1473,-45
1604400464.1493,-53
1604400464.1513,-14
1604400464.1520,0
1604400464.1533,0
1604400464.1553,19
1604400464.1573,31
1604400464.1593,33
1604400464.1613,45
1604400464.5957,60
1604400464.5961,62
1604400464.5985,69
1604400464.6012,82
1604400464.6032,89
1604400464.6053,96
1604400464.6072,103
1604400464.6092,103
1604400464.6098,113
1604400464.6121,137
1604400464.6141,166
1604400464.6161,190
1604400464.6181,209
1604400464.6202,226
1604400464.6222,238
1604400464.6241,238
1604400464.6261,236
1604400464.6281,217
1604400464.6301,176
1604400464.6322,132
1604400464.6342,101
1604400464.6361,84
1604400464.6381,69
1604400464.6401,60
1604400464.6408,53
1604400464.6421,48
1604400464.6441,45
1604400464.6461,45
1604400464.6481,50
1604400464.6502,53
1604400464.6521,53
1604400464.6541,65
1604400464.6561,77
1604400464.6581,77
1604400464.6601,82
1604400464.6621,91
1604400464.6641,101
1604400464.6661,108
1604400464.6681,118
1604400464.6702,127
1604400464.6708,132
1604400464.6721,132
1604400464.6741,127
1604400464.6761,125
1604400464.6781,127
1604400464.6802,132
1604400464.6822,130
1604400464.6841,123
1604400464.6861,123
1604400464.6881,125
1604400464.6901,125
1604400464.6921,120
1604400464.6941,118
1604400464.6961,115
1604400464.6981,113
1604400464.7001,118
1604400464.7010,127
1604400464.7022,164
1604400464.7041,205
1604400464.7062,190
1604400464.7081,149
1604400464.7101,147
1604400464.7121,144
1604400464.7141,110
1604400464.7161,89
1604400464.7181,94
1604400464.7201,98
1604400464.7222,101
1604400464.7241,106
1604400464.7261,103
1604400464.7281,103
1604400464.7301,108
1604400464.7308,45
1604400465.1358,-202
1604400465.1362,-427
1604400465.1386,14
1604400465.1412,1370
1604400465.1432,2637
1604400465.1452,2355
1604400465.1473,793
1604400465.1491,-275
1604400465.1512,-332
1604400465.1532,-243
1604400465.1552,-270
1604400465.1572,-190
1604400465.1592,-118
1604400465.1612,-127
1604400465.1632,-110
1604400465.1639,-72
1604400465.1662,-65
1604400465.1682,-57
1604400465.1702,-38
1604400465.1722,-31
1604400465.1742,-26
1604400465.1763,-14
1604400465.1782,-7
1604400465.1803,-7
1604400465.1822,-2
1604400465.1842,7
1604400465.1862,9
1604400465.1882,12
1604400465.1902,19
1604400465.1922,26
1604400465.1929,28
1604400465.1942,41
1604400465.1962,65
1604400465.1982,91
1604400465.2003,118
1604400465.2023,137
1604400465.2042,159
1604400465.2061,176
1604400465.2082,183
1604400465.2102,171
1604400465.2122,144
1604400465.2142,113
1604400465.2162,91
1604400465.2182,77
1604400465.2202,69
1604400465.2222,65
1604400465.2229,60
1604400465.2242,57
1604400465.2262,57
1604400465.2282,57
1604400465.2302,60
1604400465.2322,53
1604400465.2342,41
1604400465.2362,43
1604400465.2382,55
1604400465.2402,62
1604400465.2422,60
1604400465.2442,65
1604400465.2462,74
1604400465.2482,77
1604400465.2502,79
1604400465.2522,91
1604400465.2529,101
1604400465.2542,101
1604400465.2562,103
1604400465.2582,110
1604400465.2602,108
1604400465.2622,108
1604400465.2642,113
1604400465.2662,110
1604400465.2682,106
1604400465.2702,108
1604400465.2722,110
1604400465.7060,108
1604400465.7064,106
1604400465.7089,106
1604400465.7115,101
1604400465.7134,94
1604400465.7155,84
1604400465.7175,103
1604400465.7195,164
1604400465.7215,183
1604400465.7235,144
1604400465.7255,127
1604400465.7275,135
1604400465.7296,106
1604400465.7315,72
1604400465.7335,72
1604400465.7354,82
1604400465.7374,79
1604400465.7394,77
1604400465.7415,82
1604400465.7435,86
1604400465.7454,89
1604400465.7474,57
1604400465.7495,-123
1604400465.7514,-429
1604400465.7535,-316
1604400465.7555,786
1604400465.7575,2374
1604400465.7595,2847
1604400465.7614,1524
1604400465.7635,-21
1604400465.7655,-405
1604400465.7674,-255
1604400465.7694,-287
1604400465.7715,-267
1604400465.7735,-154
1604400465.7755,-142
1604400465.7775,-149
1604400465.7794,-106
1604400465.7815,-82
1604400465.7835,-82
1604400465.7855,-72
1604400465.7874,-62
1604400465.7895,-53
1604400465.7915,-45
1604400465.7934,-45
1604400465.7954,-48
1604400465.7975,-36
1604400465.7995,-26
1604400465.8015,-24
1604400465.8035,-19
1604400465.8055,-19
1604400465.8075,-16
1604400465.8094,-4
1604400465.8115,12
1604400465.8135,36
1604400465.8155,65
1604400465.8175,86
1604400465.8194,108
1604400465.8215,135
1604400465.8235,154
1604400465.8255,161
1604400465.8275,156
1604400465.8295,132
1604400465.8316,98
1604400465.8335,74
1604400465.8354,57
1604400465.8374,43
1604400465.8395,33
1604400465.8414,31
1604400465.8434,31
1604400465.8455,31
1604400465.8475,31
1604400465.8495,26
1604400466.3062,21
1604400466.3066,21
1604400466.3090,26
1604400466.3117,28
1604400466.3136,31
1604400466.3156,36
1604400466.3176,33
1604400466.3196,31
1604400466.3216,43
1604400466.3236,50
1604400466.3256,43
1604400466.3276,43
1604400466.3296,57
1604400466.3316,65
1604400466.3336,60
1604400466.3355,62
1604400466.3376,69
1604400466.3396,72
1604400466.3416,72
1604400466.3436,77
1604400466.3457,77
1604400466.3476,67
1604400466.3496,69
1604400466.3516,77
1604400466.3537,74
1604400466.3555,67
1604400466.3576,67
1604400466.3596,72
1604400466.3616,69
1604400466.3636,65
1604400466.3656,65
1604400466.3676,82
1604400466.3696,130
1604400466.3716,164
1604400466.3736,144
1604400466.3756,115
1604400466.3776,115
1604400466.3796,98
1604400466.3816,55
1604400466.3836,45
1604400466.3856,55
1604400466.3877,53
1604400466.3897,53
1604400466.3916,62
1604400466.3935,62
1604400466.3957,57
1604400466.3976,53
1604400466.3997,-55
1604400466.4016,-364
1604400466.4036,-489
1604400466.4056,260
1604400466.4075,1845
1604400466.4096,2895
1604400466.4116,2104
1604400466.4136,378
1604400466.4156,-410
1604400466.4176,-306
1604400466.4196,-296
1604400466.4216,-340
1604400466.4236,-217
1604400466.4256,-159
1604400466.4276,-185
1604400466.4296,-154
1604400466.4316,-115
1604400466.4336,-113
1604400466.4356,-103
1604400466.4376,-82
1604400466.4396,-69
1604400466.4417,-65
1604400466.4436,-62
1604400466.4456,-55
1604400466.4477,-48
1604400466.4497,-43
1604400466.8460,-41
1604400466.8464,-36
1604400466.8488,-31
1604400466.8514,-26
1604400466.8534,-19
1604400466.8554,-2
1604400466.8575,21
1604400466.8594,43
1604400466.8615,67
1604400466.8634,91
1604400466.8654,113
1604400466.8674,120
1604400466.8694,123
1604400466.8715,120
1604400466.8734,103
1604400466.8810,69
1604400466.8824,36
1604400466.8844,14
1604400466.8864,4
1604400466.8887,-2
1604400466.8904,-9
1604400466.8925,-12
1604400466.8946,-16
1604400466.8964,-21
1604400466.8985,-19
1604400466.9005,-14
1604400466.9025,-16
1604400466.9045,-14
1604400466.9064,-4
1604400466.9084,0
1604400466.9105,-4
1604400466.9124,-4
1604400466.9144,9
1604400466.9164,24
1604400466.9184,33
1604400466.9205,33
1604400466.9224,36
1604400466.9244,41
1604400466.9264,45
1604400466.9284,45
1604400466.9304,50
1604400466.9324,55
1604400466.9344,55
1604400466.9364,55
1604400466.9385,57
1604400466.9404,62
1604400466.9424,57
1604400466.9444,53
1604400466.9464,53
1604400466.9484,55
1604400466.9504,55
1604400466.9524,55
1604400466.9545,60
1604400466.9564,57
1604400466.9584,50
1604400466.9604,50
1604400466.9624,62
1604400466.9644,82
1604400466.9665,120
1604400466.9684,149
1604400466.9706,125
1604400466.9724,96
1604400466.9744,96
1604400466.9765,79
1604400466.9784,45
1604400466.9805,41
1604400466.9824,53
1604400466.9844,53
1604400466.9864,55
1604400466.9885,62
1604400466.9906,65
1604400466.9924,67
1604400466.9944,41
1604400467.3860,-142
1604400467.3869,-443
1604400467.3894,-352
1604400467.3920,646
1604400467.3940,2101
1604400467.3960,2504
1604400467.3981,1240
1604400467.4000,-123
1604400467.4019,-361
1604400467.4039,-250
1604400467.4059,-328
1604400467.4079,-267
1604400467.4100,-142
1604400467.4119,-142
1604400467.4139,-137
1604400467.4159,-89
1604400467.4179,-74
1604400467.4200,-74
1604400467.4219,-55
1604400467.4239,-36
1604400467.4260,-28
1604400467.4279,-21
1604400467.4299,-12
1604400467.4319,-9
1604400467.4339,-9
1604400467.4359,-2
1604400467.4379,12
1604400467.4399,19
1604400467.4419,21
1604400467.4439,33
1604400467.4459,57
1604400467.4479,82
1604400467.4499,103
1604400467.4519,130
1604400467.4539,154
1604400467.4559,171
1604400467.4579,178
1604400467.4600,180
1604400467.4619,171
1604400467.4639,137
1604400467.4659,94
1604400467.4679,57
1604400467.4700,21
1604400467.4719,-9
1604400467.4739,-21
1604400467.4759,-24
1604400467.4779,-31
1604400467.4799,-41
1604400467.4821,-45
1604400467.4839,-43
1604400467.4859,-38
1604400467.4879,-36
1604400467.4899,-33
1604400467.4919,-26
1604400467.4939,-14
1604400467.4959,-7
1604400467.4979,0
1604400467.4999,12
1604400467.5019,21
1604400467.5039,33
1604400467.5059,43
1604400467.5079,50
1604400467.5099,53
1604400467.5119,50
1604400467.5139,55
1604400467.5159,60
1604400467.5179,53
1604400467.5199,45
1604400467.5219,48
1604400467.5239,50
1604400467.5259,48
1604400467.5279,43
1604400467.5299,45
1604400467.9560,50
1604400467.9569,50
1604400467.9593,48
1604400467.9620,48
1604400467.9639,50
1604400467.9659,43
1604400467.9682,26
1604400467.9700,28
1604400467.9719,72
1604400467.9739,120
1604400467.9759,118
1604400467.9779,86
1604400467.9799,82
1604400467.9819,82
1604400467.9839,53
1604400467.9859,28
1604400467.9879,26
1604400467.9899,24
1604400467.9918,26
1604400467.9938,36
1604400467.9958,38
1604400467.9978,36
1604400467.9998,41
1604400468.0018,0
1604400468.0039,-221
1604400468.0058,-492
1604400468.0080,-224
1604400468.0099,989
1604400468.0118,2381
1604400468.0138,2398
1604400468.0159,933
1604400468.0178,-253
1604400468.0199,-374
1604400468.0218,-287
1604400468.0238,-332
1604400468.0258,-246
1604400468.0278,-144
1604400468.0299,-152
1604400468.0319,-142
1604400468.0338,-101
1604400468.0358,-89
1604400468.0378,-82
1604400468.0399,-65
1604400468.0418,-57
1604400468.0438,-50
1604400468.0458,-36
1604400468.0478,-26
1604400468.0498,-24
1604400468.0518,-24
1604400468.0538,-21
1604400468.0558,-19
1604400468.0578,-16
1604400468.0599,-9
1604400468.0619,0
1604400468.0639,9
1604400468.0658,21
1604400468.0678,41
1604400468.0699,69
1604400468.0718,96
1604400468.0738,113
1604400468.0758,125
1604400468.0778,135
1604400468.0799,135
1604400468.0818,120
1604400468.0838,91
1604400468.0858,53
1604400468.0878,24
1604400468.0899,9
1604400468.0918,2
1604400468.0938,-4
1604400468.0958,-7
1604400468.0978,-9
1604400468.0999,-14
1604400468.4960,-16
1604400468.4969,-12
1604400468.4994,-12
1604400468.5020,-16
1604400468.5042,-12
1604400468.5060,-4
1604400468.5081,-2
1604400468.5101,-9
1604400468.5119,-12
1604400468.5139,-2
1604400468.5159,4
1604400468.5179,9
1604400468.5200,21
1604400468.5219,28
1604400468.5239,28
1604400468.5259,33
1604400468.5279,38
1604400468.5300,38
1604400468.5319,38
1604400468.5339,41
1604400468.5359,41
1604400468.5379,38
1604400468.5399,36
1604400468.5419,41
1604400468.5439,43
1604400468.5459,38
1604400468.5479,36
1604400468.5499,43
1604400468.5519,43
1604400468.5539,43
1604400468.5559,43
1604400468.5579,36
1604400468.5600,36
1604400468.5619,48
1604400468.5639,86
1604400468.5660,132
1604400468.5679,125
1604400468.5699,91
1604400468.5719,86
1604400468.5739,86
1604400468.5759,60
1604400468.5779,31
1604400468.5800,28
1604400468.5819,36
1604400468.5839,41
1604400468.5859,43
1604400468.5879,41
1604400468.5900,41
1604400468.5919,43
1604400468.5939,-28
1604400468.5959,-289
1604400468.5979,-521
1604400468.5999,-53
1604400468.6020,1368
1604400468.6039,2716
1604400468.6061,2456
1604400468.6081,813
1604400468.6099,-332
1604400468.6119,-395
1604400468.6139,-304
1604400468.6159,-349
1604400468.6179,-263
1604400468.6199,-173
1604400468.6219,-190
1604400468.6239,-178
1604400468.6259,-132
1604400468.6280,-123
1604400468.6300,-115
1604400468.6319,-98
1604400468.6339,-91
1604400468.6359,-89
1604400468.6379,-79
1604400468.6400,-72
1604400469.0659,-67
1604400469.0668,-67
1604400469.0693,-67
1604400469.0719,-65
1604400469.0739,-67
1604400469.0759,-69
1604400469.0781,-57
1604400469.0800,-45
1604400469.0818,-36
1604400469.0838,-7
1604400469.0858,26
1604400469.0879,50
1604400469.0899,72
1604400469.0918,96
1604400469.0938,115
1604400469.0958,118
1604400469.0978,103
1604400469.0998,79
1604400469.1018,50
1604400469.1038,28
1604400469.1058,14
1604400469.1078,2
1604400469.1098,-4
1604400469.1118,-7
1604400469.1138,-7
1604400469.1158,-12
1604400469.1179,-9
1604400469.1198,-9
1604400469.1218,-12
1604400469.1239,-12
1604400469.1261,-7
1604400469.1277,-4
1604400469.1298,-4
1604400469.1323,2
1604400469.1339,9
1604400469.1359,9
1604400469.1378,9
1604400469.1399,24
1604400469.1419,33
1604400469.1438,36
1604400469.1459,38
1604400469.1478,45
1604400469.1499,48
1604400469.1518,48
1604400469.1538,53
1604400469.1559,53
1604400469.1578,48
1604400469.1601,48
1604400469.1620,50
1604400469.1640,55
1604400469.1662,53
1604400469.1681,48
1604400469.1698,53
1604400469.1718,55
1604400469.1738,50
1604400469.1761,48
1604400469.1779,50
1604400469.1801,43
1604400469.1819,33
1604400469.1839,45
1604400469.1858,86
1604400469.1878,132
1604400469.1898,132
1604400469.1918,96
1604400469.1938,82
1604400469.1958,82
1604400469.1978,53
1604400469.1998,19
1604400469.2018,19
1604400469.2038,31
1604400469.2058,24
1604400469.2078,14
1604400469.2098,19
1604400469.6660,28
1604400469.6670,28
1604400469.6695,-53
1604400469.6721,-335
1604400469.6741,-547
1604400469.6761,-26
1604400469.6783,1421
1604400469.6801,2716
1604400469.6821,2347
1604400469.6840,661
1604400469.6860,-400
1604400469.6882,-378
1604400469.6901,-306
1604400469.6920,-378
1604400469.6940,-275
1604400469.6960,-183
1604400469.6980,-207
1604400469.6999,-190
1604400469.7020,-139
1604400469.7040,-137
1604400469.7060,-142
1604400469.7080,-125
1604400469.7100,-115
1604400469.7120,-108
1604400469.7140,-96
1604400469.7159,-84
1604400469.7181,-77
1604400469.7200,-72
1604400469.7220,-62
1604400469.7240,-57
1604400469.7260,-50
1604400469.7280,-45
1604400469.7300,-38
1604400469.7320,-24
1604400469.7340,-2
1604400469.7359,21
1604400469.7380,48
1604400469.7400,79
1604400469.7420,96
1604400469.7440,110
1604400469.7460,125
1604400469.7480,125
1604400469.7500,101
1604400469.7520,69
1604400469.7540,36
1604400469.7560,9
1604400469.7580,-4
1604400469.7601,-14
1604400469.7620,-26
1604400469.7640,-31
1604400469.7660,-31
1604400469.7679,-31
1604400469.7700,-36
1604400469.7720,-41
1604400469.7740,-38
1604400469.7760,-36
1604400469.7780,-31
1604400469.7800,-21
1604400469.7820,-14
1604400469.7839,-16
1604400469.7860,-16
1604400469.7880,0
1604400469.7902,9
1604400469.7920,9
1604400469.7940,14
1604400469.7960,21
1604400469.7980,24
1604400469.7999,28
1604400469.8020,31
1604400469.8040,31
1604400469.8060,33
1604400469.8080,31
1604400469.8100,26
1604400470.2064,31
1604400470.2074,36
1604400470.2087,31
1604400470.2108,31
1604400470.2126,38
1604400470.2147,33
1604400470.2167,26
1604400470.2187,31
1604400470.2206,43
1604400470.2226,67
1604400470.2246,101
1604400470.2266,101
1604400470.2286,67
1604400470.2306,60
1604400470.2326,60
1604400470.2346,33
1604400470.2366,12
1604400470.2386,16
1604400470.2406,21
1604400470.2426,21
1604400470.2446,24
1604400470.2466,24
1604400470.2486,28
1604400470.2506,28
1604400470.2526,-38
1604400470.2546,-284
1604400470.2566,-506
1604400470.2586,-94
1604400470.2606,1175
1604400470.2626,2350
1604400470.2646,2024
1604400470.2667,538
1604400470.2686,-342
1604400470.2706,-308
1604400470.2726,-284
1604400470.2746,-330
1604400470.2766,-207
1604400470.2786,-130
1604400470.2806,-142
1604400470.2826,-118
1604400470.2847,-82
1604400470.2866,-79
1604400470.2887,-72
1604400470.2893,-50
1604400470.2906,-43
1604400470.2926,-43
1604400470.2946,-36
1604400470.2966,-26
1604400470.2986,-19
1604400470.3006,-14
1604400470.3026,-12
1604400470.3046,-7
1604400470.3066,0
1604400470.3086,12
1604400470.3106,26
1604400470.3126,45
1604400470.3146,74
1604400470.3166,98
1604400470.3186,108
1604400470.3192,125
1604400470.3206,144
1604400470.3226,154
1604400470.3246,149
1604400470.3266,135
1604400470.3286,103
1604400470.3306,60
1604400470.3326,24
1604400470.3346,-2
1604400470.3366,-26
1604400470.3386,-36
1604400470.3406,-38
1604400470.3426,-43
1604400470.3446,-48
1604400470.7764,-48
1604400470.7773,-45
1604400470.7798,-43
1604400470.7824,-43
1604400470.7844,-36
1604400470.7864,-26
1604400470.7885,-16
1604400470.7904,-19
1604400470.7923,-21
1604400470.7943,-7
1604400470.7963,9
1604400470.7983,14
1604400470.8003,14
1604400470.8023,19
1604400470.8043,24
1604400470.8063,28
1604400470.8083,28
1604400470.8090,24
1604400470.8115,24
1604400470.8134,26
1604400470.8153,19
1604400470.8173,21
1604400470.8193,28
1604400470.8213,24
1604400470.8233,21
1604400470.8253,24
1604400470.8273,26
1604400470.8293,21
1604400470.8313,19
1604400470.8333,28
1604400470.8353,62
1604400470.8373,106
1604400470.8393,113
1604400470.8400,82
1604400470.8413,69
1604400470.8433,72
1604400470.8453,48
1604400470.8473,16
1604400470.8493,16
1604400470.8513,21
1604400470.8533,24
1604400470.8553,28
1604400470.8573,33
1604400470.8593,31
1604400470.8613,28
1604400470.8633,-12
1604400470.8653,-214
1604400470.8673,-489
1604400470.8693,-258
1604400470.8700,921
1604400470.8724,2338
1604400470.8743,2458
1604400470.8763,1042
1604400470.8783,-226
1604400470.8803,-422
1604400470.8823,-311
1604400470.8843,-345
1604400470.8863,-272
1604400470.8883,-171
1604400470.8903,-178
1604400470.8923,-176
1604400470.8943,-130
1604400470.8963,-115
1604400470.8983,-115
1604400470.9003,-96
1604400470.9010,-82
1604400470.9023,-79
1604400470.9043,-74
1604400470.9063,-65
1604400470.9085,-57
1604400470.9104,-55
1604400470.9123,-55
1604400470.9143,-53
1604400471.3160,-53
1604400471.3170,-50
1604400471.3194,-41
1604400471.3221,-33
1604400471.3240,-24
1604400471.3260,-4
1604400471.3267,21
1604400471.3291,45
1604400471.3310,60
1604400471.3329,67
1604400471.3349,79
1604400471.3370,94
1604400471.3389,86
1604400471.3409,57
1604400471.3429,26
1604400471.3449,7
1604400471.3469,-4
1604400471.3489,-14
1604400471.3509,-19
1604400471.3529,-24
1604400471.3549,-26
1604400471.3556,-26
1604400471.3579,-26
1604400471.3600,-28
1604400471.3619,-26
1604400471.3640,-28
1604400471.3659,-26
1604400471.3679,-16
1604400471.3700,-14
1604400471.3719,-14
1604400471.3740,-9
1604400471.3759,0
1604400471.3781,4
1604400471.3800,14
1604400471.3819,24
1604400471.3839,28
1604400471.3859,31
1604400471.3866,26
1604400471.3889,21
1604400471.3910,26
1604400471.3929,26
1604400471.3949,24
1604400471.3970,26
1604400471.3989,33
1604400471.4009,33
1604400471.4029,33
1604400471.4049,38
1604400471.4071,36
1604400471.4090,28
1604400471.4110,24
1604400471.4129,26
1604400471.4149,28
1604400471.4169,55
1604400471.4176,110
1604400471.4189,132
1604400471.4209,94
1604400471.4229,74
1604400471.4249,82
1604400471.4269,55
1604400471.4289,16
1604400471.4310,14
1604400471.4329,26
1604400471.4349,26
1604400471.4370,24
1604400471.4389,31
1604400471.4410,38
1604400471.4429,38
1604400471.4449,-2
1604400471.4469,-205
1604400471.4476,-497
1604400471.4489,-294
1604400471.4509,900
1604400471.4529,2432
1604400471.8858,2690
1604400471.8867,1261
1604400471.8886,-168
1604400471.8907,-446
1604400471.8925,-313
1604400471.8945,-354
1604400471.8965,-318
1604400471.8986,-217
1604400471.9005,-212
1604400471.9025,-207
1604400471.9045,-164
1604400471.9052,-149
1604400471.9075,-144
1604400471.9095,-123
1604400471.9115,-108
1604400471.9135,-101
1604400471.9155,-91
1604400471.9175,-86
1604400471.9196,-82
1604400471.9215,-72
1604400471.9235,-67
1604400471.9255,-67
1604400471.9275,-67
1604400471.9296,-65
1604400471.9315,-57
1604400471.9337,-50
1604400471.9355,-36
1604400471.9362,-12
1604400471.9385,14
1604400471.9405,38
1604400471.9425,55
1604400471.9446,67
1604400471.9465,86
1604400471.9485,98
1604400471.9505,89
1604400471.9525,65
1604400471.9545,36
1604400471.9565,14
1604400471.9585,2
1604400471.9605,-9
1604400471.9625,-21
1604400471.9645,-24
1604400471.9665,-24
1604400471.9685,-26
1604400471.9705,-26
1604400471.9725,-28
1604400471.9745,-28
1604400471.9765,-24
1604400471.9785,-21
1604400471.9805,-24
1604400471.9825,-19
1604400471.9845,-7
1604400471.9865,-4
1604400471.9885,-2
1604400471.9905,4
1604400471.9925,12
1604400471.9945,19
1604400471.9965,24
1604400471.9985,28
1604400472.0005,31
1604400472.0025,33
1604400472.0045,38
1604400472.0065,38
1604400472.0085,31
1604400472.0105,31
1604400472.0125,31
1604400472.0145,28
1604400472.0165,33
1604400472.0185,38
1604400472.0205,33
1604400472.0225,31
1604400472.0245,36
1604400472.0265,28
1604400472.4260,16
1604400472.4268,28
1604400472.4293,72
1604400472.4321,123
1604400472.4339,123
1604400472.4359,86
1604400472.4379,79
1604400472.4399,67
1604400472.4419,24
1604400472.4439,0
1604400472.4459,9
1604400472.4479,12
1604400472.4499,7
1604400472.4519,14
1604400472.4539,26
1604400472.4559,26
1604400472.4578,21
1604400472.4599,-41
1604400472.4618,-299
1604400472.4638,-554
1604400472.4658,-130
1604400472.4678,1281
1604400472.4700,2692
1604400472.4718,2514
1604400472.4738,859
1604400472.4758,-347
1604400472.4779,-410
1604400472.4799,-316
1604400472.4818,-386
1604400472.4838,-301
1604400472.4858,-200
1604400472.4878,-217
1604400472.4899,-209
1604400472.4918,-161
1604400472.4938,-152
1604400472.4958,-144
1604400472.4978,-123
1604400472.4998,-106
1604400472.5018,-103
1604400472.5038,-96
1604400472.5058,-86
1604400472.5078,-79
1604400472.5099,-79
1604400472.5119,-74
1604400472.5138,-62
1604400472.5158,-57
1604400472.5178,-57
1604400472.5199,-53
1604400472.5218,-43
1604400472.5238,-28
1604400472.5258,-7
1604400472.5278,14
1604400472.5299,33
1604400472.5318,55
1604400472.5340,77
1604400472.5359,84
1604400472.5378,86
1604400472.5398,77
1604400472.5418,48
1604400472.5438,16
1604400472.5458,-2
1604400472.5478,-12
1604400472.5498,-26
1604400472.5518,-38
1604400472.5538,-43
1604400472.5559,-43
1604400472.5578,-45
1604400472.5599,-43
1604400472.5618,-38
1604400472.5638,-36
1604400472.5658,-36
1604400472.5678,-31
1604400472.5699,-24
1604400473.0258,-21
1604400473.0267,-21
1604400473.0292,-14
1604400473.0318,-7
1604400473.0338,-7
1604400473.0358,-7
1604400473.0379,0
1604400473.0398,4
1604400473.0418,4
1604400473.0438,7
1604400473.0458,9
1604400473.0478,14
1604400473.0498,19
1604400473.0517,14
1604400473.0537,12
1604400473.0557,7
1604400473.0577,2
1604400473.0598,2
1604400473.0617,4
1604400473.0637,4
1604400473.0657,4
1604400473.0678,4
1604400473.0697,7
1604400473.0717,24
1604400473.0737,69
1604400473.0757,108
1604400473.0777,86
1604400473.0798,50
1604400473.0817,50
1604400473.0837,41
1604400473.0857,7
1604400473.0877,2
1604400473.0900,12
1604400473.0917,9
1604400473.0937,9
1604400473.0957,14
1604400473.0977,16
1604400473.0997,21
1604400473.1017,7
1604400473.1037,-142
1604400473.1058,-448
1604400473.1077,-468
1604400473.1098,398
1604400473.1117,1908
1604400473.1137,2625
1604400473.1157,1568
1604400473.1177,26
1604400473.1197,-419
1604400473.1217,-277
1604400473.1237,-337
1604400473.1257,-332
1604400473.1277,-195
1604400473.1297,-168
1604400473.1317,-183
1604400473.1337,-139
1604400473.1357,-113
1604400473.1377,-118
1604400473.1397,-103
1604400473.1417,-79
1604400473.1437,-72
1604400473.1457,-69
1604400473.1477,-55
1604400473.1497,-45
1604400473.1517,-41
1604400473.1537,-31
1604400473.1557,-21
1604400473.1577,-9
1604400473.1597,-2
1604400473.1617,4
1604400473.1637,21
1604400473.1657,45
1604400473.1677,69
1604400473.1697,94
1604400473.5660,115
1604400473.5669,125
1604400473.5685,130
1604400473.5705,127
1604400473.5725,123
1604400473.5745,106
1604400473.5765,72
1604400473.5785,26
1604400473.5805,-21
1604400473.5825,-48
1604400473.5847,-65
1604400473.5865,-82
1604400473.5885,-94
1604400473.5905,-94
1604400473.5925,-89
1604400473.5945,-86
1604400473.5965,-82
1604400473.5985,-77
1604400473.6004,-67
1604400473.6025,-57
1604400473.6046,-50
1604400473.6065,-45
1604400473.6086,-36
1604400473.6105,-21
1604400473.6124,-9
1604400473.6145,-4
1604400473.6165,0
1604400473.6185,9
1604400473.6204,12
1604400473.6224,7
1604400473.6244,2
1604400473.6264,4
1604400473.6284,4
1604400473.6305,4
1604400473.6324,7
1604400473.6344,9
1604400473.6364,7
1604400473.6384,4
1604400473.6405,0
1604400473.6424,0
1604400473.6444,9
1604400473.6464,16
1604400473.6484,50
1604400473.6504,96
1604400473.6524,82
1604400473.6544,43
1604400473.6564,45
1604400473.6584,41
1604400473.6605,7
1604400473.6624,-4
1604400473.6644,4
1604400473.6664,7
1604400473.6686,7
1604400473.6705,12
1604400473.6724,16
1604400473.6744,19
1604400473.6764,4
1604400473.6785,-125
1604400473.6804,-412
1604400473.6824,-465
1604400473.6844,306
1604400473.6866,1727
1604400473.6885,2441
1604400473.6905,1488
1604400473.6924,57
1604400473.6944,-376
1604400473.6964,-272
1604400473.6984,-332
1604400473.7004,-311
1604400473.7024,-173
1604400473.7045,-139
1604400473.7064,-144
1604400473.7084,-110
1604400474.1357,-98
1604400474.1366,-106
1604400474.1391,-89
1604400474.1417,-69
1604400474.1436,-67
1604400474.1457,-55
1604400474.1477,-48
1604400474.1497,-50
1604400474.1517,-43
1604400474.1537,-26
1604400474.1557,-16
1604400474.1577,-14
1604400474.1596,-2
1604400474.1617,12
1604400474.1637,21
1604400474.1656,38
1604400474.1676,65
1604400474.1697,94
1604400474.1716,115
1604400474.1737,125
1604400474.1756,130
1604400474.1777,135
1604400474.1797,127
1604400474.1816,106
1604400474.1836,65
1604400474.1856,12
1604400474.1876,-14
1604400474.1897,-28
1604400474.1916,-48
1604400474.1936,-55
1604400474.1956,-57
1604400474.1976,-65
1604400474.1996,-65
1604400474.2016,-60
1604400474.2036,-57
1604400474.2056,-55
1604400474.2076,-55
1604400474.2097,-45
1604400474.2116,-31
1604400474.2138,-26
1604400474.2157,-19
1604400474.2176,-7
1604400474.2196,0
1604400474.2216,2
1604400474.2236,14
1604400474.2256,21
1604400474.2276,21
1604400474.2296,19
1604400474.2316,16
1604400474.2336,16
1604400474.2356,16
1604400474.2376,16
1604400474.2396,19
1604400474.2416,19
1604400474.2436,14
1604400474.2457,9
1604400474.2478,12
1604400474.2499,12
1604400474.2517,24
1604400474.2538,67
1604400474.2557,106
1604400474.2576,84
1604400474.2598,55
1604400474.2618,57
1604400474.2637,43
1604400474.2656,4
1604400474.2676,-9
1604400474.2696,0
1604400474.2716,4
1604400474.2736,4
1604400474.2756,9
1604400474.2776,7
1604400474.2796,12
1604400474.6762,4
1604400474.6769,-120
1604400474.6794,-402
1604400474.6820,-460
1604400474.6840,325
1604400474.6859,1826
1604400474.6880,2656
1604400474.6900,1744
1604400474.6919,166
1604400474.6939,-465
1604400474.6959,-366
1604400474.6979,-349
1604400474.6999,-349
1604400474.7019,-231
1604400474.7039,-185
1604400474.7059,-200
1604400474.7079,-168
1604400474.7101,-135
1604400474.7119,-139
1604400474.7139,-135
1604400474.7159,-113
1604400474.7179,-108
1604400474.7199,-106
1604400474.7219,-94
1604400474.7239,-84
1604400474.7259,-79
1604400474.7279,-74
1604400474.7299,-74
1604400474.7319,-69
1604400474.7339,-62
1604400474.7359,-60
1604400474.7379,-55
1604400474.7399,-43
1604400474.7419,-19
1604400474.7439,4
1604400474.7459,19
1604400474.7479,38
1604400474.7499,65
1604400474.7519,79
1604400474.7539,86
1604400474.7559,86
1604400474.7579,69
1604400474.7599,38
1604400474.7619,7
1604400474.7639,-7
1604400474.7659,-16
1604400474.7679,-33
1604400474.7699,-43
1604400474.7719,-38
1604400474.7739,-38
1604400474.7759,-45
1604400474.7778,-48
1604400474.7799,-48
1604400474.7819,-48
1604400474.7839,-48
1604400474.7859,-43
1604400474.7879,-33
1604400474.7899,-26
1604400474.7919,-26
1604400474.7939,-31
1604400474.7959,-26
1604400474.7979,-12
1604400474.7999,-4
1604400474.8019,-4
1604400474.8039,0
1604400474.8059,9
1604400474.8079,9
1604400474.8099,7
1604400474.8121,14
1604400474.8139,14
1604400474.8159,7
1604400474.8179,2
1604400474.8199,2
1604400475.2461,2
1604400475.2468,12
1604400475.2492,57
1604400475.2519,108
1604400475.2538,94
1604400475.2558,45
1604400475.2580,38
1604400475.2599,33
1604400475.2618,-4
1604400475.2638,-24
1604400475.2658,-12
1604400475.2678,-4
1604400475.2699,-4
1604400475.2719,-4
1604400475.2738,-2
1604400475.2758,7
1604400475.2778,4
1604400475.2798,-98
1604400475.2818,-378
1604400475.2838,-518
1604400475.2858,142
1604400475.2878,1648
1604400475.2899,2729
1604400475.2918,2050
1604400475.2939,381
1604400475.2958,-458
1604400475.2978,-381
1604400475.2998,-328
1604400475.3018,-354
1604400475.3038,-250
1604400475.3058,-188
1604400475.3078,-205
1604400475.3098,-178
1604400475.3119,-144
1604400475.3138,-142
1604400475.3158,-135
1604400475.3178,-113
1604400475.3198,-106
1604400475.3218,-98
1604400475.3238,-84
1604400475.3258,-77
1604400475.3278,-82
1604400475.3298,-74
1604400475.3318,-67
1604400475.3338,-67
1604400475.3358,-67
1604400475.3380,-62
1604400475.3399,-55
1604400475.3418,-43
1604400475.3438,-21
1604400475.3459,4
1604400475.3479,24
1604400475.3499,41
1604400475.3518,57
1604400475.3539,77
1604400475.3558,91
1604400475.3578,86
1604400475.3598,60
1604400475.3618,31
1604400475.3638,9
1604400475.3658,-9
1604400475.3678,-16
1604400475.3698,-16
1604400475.3718,-21
1604400475.3738,-31
1604400475.3758,-33
1604400475.3778,-33
1604400475.3798,-38
1604400475.3818,-43
1604400475.3838,-45
1604400475.3858,-41
1604400475.3878,-38
1604400475.3899,-33
1604400475.7863,-26
1604400475.7873,-24
1604400475.7897,-24
1604400475.7924,-16
1604400475.7943,-4
1604400475.7964,2
1604400475.7984,-4
1604400475.8004,-14
1604400475.8023,-4
1604400475.8043,7
1604400475.8063,7
1604400475.8083,7
1604400475.8103,9
1604400475.8122,7
1604400475.8142,2
1604400475.8162,-2
1604400475.8182,-4
1604400475.8204,16
1604400475.8222,72
1604400475.8243,115
1604400475.8262,89
1604400475.8282,55
1604400475.8304,57
1604400475.8323,43
1604400475.8345,7
1604400475.8363,-4
1604400475.8382,7
1604400475.8403,12
1604400475.8423,9
1604400475.8443,12
1604400475.8462,16
1604400475.8482,24
1604400475.8502,14
1604400475.8522,-113
1604400475.8542,-415
1604400475.8562,-497
1604400475.8582,301
1604400475.8602,1860
1604400475.8622,2777
1604400475.8642,1886
1604400475.8662,224
1604400475.8682,-460
1604400475.8703,-345
1604400475.8723,-335
1604400475.8743,-352
1604400475.8762,-234
1604400475.8783,-185
1604400475.8803,-207
1604400475.8823,-178
1604400475.8843,-144
1604400475.8862,-137
1604400475.8883,-123
1604400475.8903,-108
1604400475.8923,-98
1604400475.8942,-89
1604400475.8962,-79
1604400475.8983,-74
1604400475.9002,-67
1604400475.9022,-60
1604400475.9043,-57
1604400475.9063,-55
1604400475.9083,-45
1604400475.9103,-36
1604400475.9122,-28
1604400475.9142,-16
1604400475.9162,-2
1604400475.9182,21
1604400475.9202,48
1604400475.9222,60
1604400475.9243,72
1604400475.9263,89
1604400475.9282,98
1604400475.9302,89
1604400476.3857,62
1604400476.3866,33
1604400476.3893,14
1604400476.3917,-2
1604400476.3937,-26
1604400476.3957,-33
1604400476.3978,-28
1604400476.3996,-36
1604400476.4016,-45
1604400476.4036,-43
1604400476.4057,-38
1604400476.4077,-43
1604400476.4096,-38
1604400476.4116,-26
1604400476.4137,-24
1604400476.4156,-21
1604400476.4176,-19
1604400476.4196,-19
1604400476.4216,-12
1604400476.4236,-4
1604400476.4256,-2
1604400476.4276,4
1604400476.4296,9
1604400476.4316,9
1604400476.4336,9
1604400476.4356,12
1604400476.4376,16
1604400476.4396,14
1604400476.4416,12
1604400476.4436,16
1604400476.4456,12
1604400476.4476,2
1604400476.4496,4
1604400476.4516,24
1604400476.4536,60
1604400476.4556,98
1604400476.4576,89
1604400476.4596,55
1604400476.4616,48
1604400476.4636,33
1604400476.4656,2
1604400476.4676,-7
1604400476.4696,0
1604400476.4718,2
1604400476.4737,2
1604400476.4757,7
1604400476.4776,12
1604400476.4796,16
1604400476.4817,14
1604400476.4836,-98
1604400476.4856,-388
1604400476.4876,-499
1604400476.4896,195
1604400476.4918,1648
1604400476.4936,2586
1604400476.4956,1790
1604400476.4976,197
1604400476.4995,-431
1604400476.5016,-299
1604400476.5036,-323
1604400476.5056,-347
1604400476.5076,-207
1604400476.5096,-156
1604400476.5116,-180
1604400476.5136,-144
1604400476.5156,-108
1604400476.5176,-113
1604400476.5196,-101
1604400476.5216,-77
1604400476.5236,-69
1604400476.5256,-62
1604400476.5276,-48
1604400476.5296,-38
1604400476.9557,-36
1604400476.9565,-33
1604400476.9590,-26
1604400476.9615,-14
1604400476.9635,-2
1604400476.9655,9
1604400476.9675,26
1604400476.9682,45
1604400476.9705,60
1604400476.9724,74
1604400476.9744,94
1604400476.9764,113
1604400476.9784,120
1604400476.9805,115
1604400476.9824,115
1604400476.9844,91
1604400476.9864,45
1604400476.9886,12
1604400476.9906,-7
1604400476.9925,-26
1604400476.9944,-43
1604400476.9965,-55
1604400476.9984,-62
1604400476.9991,-67
1604400477.0014,-67
1604400477.0036,-67
1604400477.0054,-62
1604400477.0074,-60
1604400477.0095,-60
1604400477.0114,-53
1604400477.0134,-36
1604400477.0156,-26
1604400477.0175,-26
1604400477.0195,-14
1604400477.0214,2
1604400477.0235,4
1604400477.0254,0
1604400477.0274,0
1604400477.0295,7
1604400477.0302,4
1604400477.0324,2
1604400477.0344,4
1604400477.0364,4
1604400477.0385,-2
1604400477.0405,-4
1604400477.0424,-2
1604400477.0444,-2
1604400477.0464,16
1604400477.0484,65
1604400477.0504,84
1604400477.0524,50
1604400477.0544,36
1604400477.0564,31
1604400477.0584,2
1604400477.0605,-14
1604400477.0612,-7
1604400477.0635,-9
1604400477.0654,-9
1604400477.0674,4
1604400477.0695,9
1604400477.0714,9
1604400477.0734,12
1604400477.0754,-41
1604400477.0774,-277
1604400477.0795,-518
1604400477.0814,-173
1604400477.0835,1064
1604400477.0855,2338
1604400477.0874,2169
1604400477.0895,680
1604400477.0901,-332
1604400477.0925,-354
1604400477.0944,-299
1604400477.4954,-349
1604400477.4960,-243
1604400477.4984,-154
1604400477.5010,-159
1604400477.5030,-142
1604400477.5050,-106
1604400477.5070,-103
1604400477.5090,-101
1604400477.5097,-77
1604400477.5122,-67
1604400477.5141,-77
1604400477.5161,-67
1604400477.5180,-48
1604400477.5200,-48
1604400477.5220,-50
1604400477.5240,-33
1604400477.5260,-21
1604400477.5280,-19
1604400477.5300,-9
1604400477.5320,2
1604400477.5340,12
1604400477.5360,28
1604400477.5380,53
1604400477.5400,77
1604400477.5407,84
1604400477.5431,94
1604400477.5450,103
1604400477.5470,106
1604400477.5490,91
1604400477.5510,62
1604400477.5530,31
1604400477.5550,4
1604400477.5570,-16
1604400477.5590,-33
1604400477.5610,-43
1604400477.5631,-45
1604400477.5650,-50
1604400477.5670,-53
1604400477.5690,-53
1604400477.5710,-55
1604400477.5717,-48
1604400477.5740,-43
1604400477.5760,-41
1604400477.5780,-33
1604400477.5800,-26
1604400477.5820,-21
1604400477.5840,-12
1604400477.5860,0
1604400477.5880,4
1604400477.5900,9
1604400477.5920,19
1604400477.5940,21
1604400477.5960,19
1604400477.5980,19
1604400477.6000,16
1604400477.6020,12
1604400477.6027,9
1604400477.6050,7
1604400477.6070,2
1604400477.6090,-2
1604400477.6112,-2
1604400477.6131,9
1604400477.6150,55
1604400477.6170,98
1604400477.6190,82
1604400477.6210,50
1604400477.6230,50
1604400477.6250,33
1604400477.6270,-7
1604400477.6290,-16
1604400477.6310,-4
1604400477.6330,-2
1604400477.6337,-4
1604400478.0659,-4
1604400478.0668,-2
1604400478.0692,7
1604400478.0718,-7
1604400478.0738,-164
1604400478.0758,-463
1604400478.0778,-431
1604400478.0799,506
1604400478.0818,2036
1604400478.0838,2659
1604400478.0858,1510
1604400478.0878,-31
1604400478.0898,-487
1604400478.0918,-354
1604400478.0937,-371
1604400478.0945,-349
1604400478.0968,-226
1604400478.0988,-205
1604400478.1008,-221
1604400478.1028,-178
1604400478.1048,-149
1604400478.1067,-147
1604400478.1088,-132
1604400478.1108,-113
1604400478.1128,-108
1604400478.1147,-103
1604400478.1168,-94
1604400478.1187,-84
1604400478.1207,-79
1604400478.1227,-79
1604400478.1248,-77
1604400478.1255,-72
1604400478.1278,-65
1604400478.1298,-55
1604400478.1319,-43
1604400478.1337,-28
1604400478.1358,-12
1604400478.1378,9
1604400478.1400,36
1604400478.1418,57
1604400478.1438,74
1604400478.1458,84
1604400478.1478,86
1604400478.1497,77
1604400478.1517,57
1604400478.1537,26
1604400478.1544,4
1604400478.1567,-7
1604400478.1587,-14
1604400478.1608,-21
1604400478.1628,-26
1604400478.1647,-31
1604400478.1668,-33
1604400478.1687,-36
1604400478.1707,-36
1604400478.1727,-36
1604400478.1747,-38
1604400478.1768,-38
1604400478.1788,-31
1604400478.1808,-24
1604400478.1828,-24
1604400478.1848,-19
1604400478.1855,-12
1604400478.1878,-2
1604400478.1899,4
1604400478.1918,2
1604400478.1938,2
1604400478.1957,12
1604400478.1978,16
1604400478.1998,19
1604400478.2017,21
1604400478.2037,16
1604400478.2057,7
1604400478.6057,2
1604400478.6064,4
1604400478.6089,38
1604400478.6115,94
1604400478.6135,94
1604400478.6155,50
1604400478.6175,38
1604400478.6196,36
1604400478.6215,-2
1604400478.6235,-33
1604400478.6255,-28
1604400478.6275,-24
1604400478.6296,-26
1604400478.6315,-21
1604400478.6335,-9
1604400478.6355,-7
1604400478.6377,-12
1604400478.6395,-94
1604400478.6415,-366
1604400478.6435,-545
1604400478.6454,43
1604400478.6474,1517
1604400478.6494,2683
1604400478.6514,2130
1604400478.6535,456
1604400478.6554,-456
1604400478.6574,-393
1604400478.6594,-335
1604400478.6614,-374
1604400478.6634,-265
1604400478.6655,-195
1604400478.6674,-212
1604400478.6695,-190
1604400478.6714,-154
1604400478.6734,-152
1604400478.6755,-142
1604400478.6775,-120
1604400478.6795,-110
1604400478.6814,-101
1604400478.6835,-89
1604400478.6856,-89
1604400478.6874,-86
1604400478.6895,-74
1604400478.6914,-69
1604400478.6934,-65
1604400478.6954,-60
1604400478.6974,-55
1604400478.6994,-48
1604400478.7014,-31
1604400478.7034,-7
1604400478.7054,12
1604400478.7074,31
1604400478.7095,50
1604400478.7114,69
1604400478.7134,84
1604400478.7154,89
1604400478.7174,74
1604400478.7194,55
1604400478.7214,33
1604400478.7234,7
1604400478.7254,-14
1604400478.7274,-21
1604400478.7295,-21
1604400478.7315,-24
1604400478.7334,-28
1604400478.7354,-38
1604400478.7374,-45
1604400478.7397,-45
1604400478.7415,-41
1604400478.7434,-41
1604400478.7454,-41
1604400478.7474,-38
1604400478.7495,-36
1604400479.1758,-28
1604400479.1768,-21
1604400479.1794,-21
1604400479.1819,-14
1604400479.1839,-2
1604400479.1859,-2
1604400479.1879,-12
1604400479.1899,-7
1604400479.1918,4
1604400479.1938,0
1604400479.1958,-7
1604400479.1978,0
1604400479.1999,-2
1604400479.2018,-9
1604400479.2038,-2
1604400479.2058,14
1604400479.2078,48
1604400479.2098,82
1604400479.2118,57
1604400479.2138,28
1604400479.2158,31
1604400479.2178,14
1604400479.2199,-19
1604400479.2218,-24
1604400479.2238,-19
1604400479.2258,-14
1604400479.2278,-7
1604400479.2299,-4
1604400479.2318,-4
1604400479.2338,0
1604400479.2358,-48
1604400479.2378,-267
1604400479.2398,-518
1604400479.2418,-229
1604400479.2438,955
1604400479.2458,2301
1604400479.2478,2282
1604400479.2498,798
1604400479.2518,-323
1604400479.2538,-364
1604400479.2558,-294
1604400479.2579,-374
1604400479.2598,-267
1604400479.2618,-164
1604400479.2638,-188
1604400479.2660,-176
1604400479.2678,-127
1604400479.2698,-120
1604400479.2718,-118
1604400479.2738,-94
1604400479.2758,-82
1604400479.2778,-77
1604400479.2798,-65
1604400479.2818,-60
1604400479.2838,-55
1604400479.2858,-45
1604400479.2878,-33
1604400479.2898,-24
1604400479.2918,-19
1604400479.2938,-14
1604400479.2958,2
1604400479.2978,31
1604400479.2998,57
1604400479.3018,77
1604400479.3038,101
1604400479.3058,118
1604400479.3078,108
1604400479.3098,94
1604400479.3118,91
1604400479.3138,79
1604400479.3158,48
1604400479.3178,7
1604400479.3198,-26
1604400479.7463,-33
1604400479.7472,-19
1604400479.7498,-19
1604400479.7523,-43
1604400479.7543,-38
1604400479.7563,2
1604400479.7584,41
1604400479.7603,79
1604400479.7622,118
1604400479.7642,108
1604400479.7662,45
1604400479.7682,-31
1604400479.7702,-60
1604400479.7722,-19
1604400479.7742,7
1604400479.7762,19
1604400479.7782,77
1604400479.7803,137
1604400479.7822,176
1604400479.7842,229
1604400479.7862,282
1604400479.7882,318
1604400479.7903,359
1604400479.7924,402
1604400479.7943,439
1604400479.7963,472
1604400479.7982,530
1604400479.8003,595
1604400479.8022,646
1604400479.8042,702
1604400479.8062,719
1604400479.8082,678
1604400479.8102,661
1604400479.8122,658
1604400479.8142,612
1604400479.8162,583
1604400479.8182,598
1604400479.8203,598
1604400479.8222,588
1604400479.8242,588
1604400479.8262,593
1604400479.8283,593
1604400479.8302,581
1604400479.8322,456
1604400479.8342,171
1604400479.8362,118
1604400479.8382,863
1604400479.8402,2219
1604400479.8422,2883
1604400479.8442,1925
1604400479.8462,526
1604400479.8482,135
1604400479.8503,253
1604400479.8523,178
1604400479.8542,188
1604400479.8562,313
1604400479.8582,320
1604400479.8602,299
1604400479.8622,328
1604400479.8642,345
1604400479.8662,347
1604400479.8682,352
1604400479.8703,352
1604400479.8722,352
1604400479.8742,361
1604400479.8762,364
1604400479.8782,349
1604400479.8802,337
1604400479.8822,342
1604400479.8842,347
1604400479.8862,352
1604400479.8882,369
1604400479.8902,374
1604400480.3156,366
1604400480.3164,386
1604400480.3187,412
1604400480.3213,412
1604400480.3233,407
1604400480.3253,417
1604400480.3274,417
1604400480.3293,395
1604400480.3312,366
1604400480.3332,328
1604400480.3352,282
1604400480.3372,234
1604400480.3393,207
1604400480.3412,197
1604400480.3432,178
1604400480.3452,149
1604400480.3472,130
1604400480.3493,130
1604400480.3512,132
1604400480.3532,130
1604400480.3552,125
1604400480.3572,127
1604400480.3593,137
1604400480.3612,142
1604400480.3632,139
1604400480.3652,135
1604400480.3672,139
1604400480.3693,139
1604400480.3712,137
1604400480.3732,142
1604400480.3752,152
1604400480.3772,147
1604400480.3793,132
1604400480.3812,132
1604400480.3832,135
1604400480.3852,123
1604400480.3872,106
1604400480.3893,101
1604400480.3912,103
1604400480.3932,125
1604400480.3952,176
1604400480.3972,183
1604400480.3993,135
1604400480.4012,118
1604400480.4032,118
1604400480.4052,82
1604400480.4073,50
1604400480.4093,50
1604400480.4112,55
1604400480.4132,43
1604400480.4152,38
1604400480.4172,43
1604400480.4195,41
1604400480.4213,2
1604400480.4232,-188
1604400480.4252,-475
1604400480.4272,-296
1604400480.4293,820
1604400480.4313,2280
1604400480.4332,2538
1604400480.4352,1167
1604400480.4372,-202
1604400480.4393,-460
1604400480.4412,-345
1604400480.4432,-383
1604400480.4452,-318
1604400480.4472,-209
1604400480.4493,-221
1604400480.4512,-231
1604400480.4532,-185
1604400480.4552,-168
1604400480.4572,-168
1604400480.4593,-152
1604400480.8557,-139
1604400480.8563,-139
1604400480.8588,-130
1604400480.8614,-118
1604400480.8633,-123
1604400480.8653,-123
1604400480.8674,-113
1604400480.8694,-110
1604400480.8713,-118
1604400480.8733,-120
1604400480.8753,-113
1604400480.8773,-96
1604400480.8794,-79
1604400480.8813,-65
1604400480.8833,-43
1604400480.8853,-16
1604400480.8873,0
1604400480.8894,4
1604400480.8913,12
1604400480.8933,19
1604400480.8953,7
1604400480.8973,-16
1604400480.8993,-41
1604400480.9013,-57
1604400480.9033,-72
1604400480.9053,-84
1604400480.9073,-89
1604400480.9093,-86
1604400480.9113,-96
1604400480.9133,-110
1604400480.9155,-113
1604400480.9173,-110
1604400480.9193,-120
1604400480.9213,-123
1604400480.9233,-123
1604400480.9253,-125
1604400480.9273,-123
1604400480.9293,-118
1604400480.9313,-118
1604400480.9333,-118
1604400480.9353,-115
1604400480.9373,-113
1604400480.9393,-110
1604400480.9413,-103
1604400480.9433,-103
1604400480.9453,-110
1604400480.9473,-113
1604400480.9494,-110
1604400480.9513,-96
1604400480.9533,-48
1604400480.9553,-4
1604400480.9573,-28
1604400480.9594,-74
1604400480.9613,-77
1604400480.9634,-91
1604400480.9653,-132
1604400480.9673,-142
1604400480.9694,-130
1604400480.9713,-130
1604400480.9733,-135
1604400480.9753,-132
1604400480.9774,-127
1604400480.9794,-123
1604400480.9813,-190
1604400480.9833,-451
1604400480.9853,-687
1604400480.9873,-231
1604400480.9894,1177
1604400480.9913,2552
1604400480.9933,2328
1604400480.9953,658
1604400480.9973,-516
1604400480.9994,-547
1604400481.4258,-446
1604400481.4266,-506
1604400481.4291,-415
1604400481.4316,-323
1604400481.4337,-347
1604400481.4356,-337
1604400481.4377,-299
1604400481.4397,-301
1604400481.4418,-294
1604400481.4436,-265
1604400481.4456,-253
1604400481.4476,-246
1604400481.4496,-231
1604400481.4516,-219
1604400481.4536,-217
1604400481.4556,-214
1604400481.4576,-205
1604400481.4596,-200
1604400481.4616,-202
1604400481.4636,-197
1604400481.4655,-183
1604400481.4675,-168
1604400481.4696,-152
1604400481.4715,-125
1604400481.4735,-101
1604400481.4756,-82
1604400481.4775,-62
1604400481.4796,-43
1604400481.4871,-36
1604400481.4885,-53
1604400481.4906,-84
1604400481.4925,-106
1604400481.4945,-123
1604400481.4965,-142
1604400481.4986,-156
1604400481.5006,-159
1604400481.5026,-156
1604400481.5046,-161
1604400481.5066,-161
1604400481.5086,-164
1604400481.5106,-173
1604400481.5125,-178
1604400481.5146,-178
1604400481.5166,-173
1604400481.5185,-168
1604400481.5206,-164
1604400481.5226,-159
1604400481.5245,-152
1604400481.5265,-149
1604400481.5285,-147
1604400481.5306,-135
1604400481.5326,-123
1604400481.5346,-118
1604400481.5366,-118
1604400481.5386,-123
1604400481.5406,-127
1604400481.5426,-130
1604400481.5446,-118
1604400481.5466,-65
1604400481.5487,-19
1604400481.5506,-43
1604400481.5526,-74
1604400481.5545,-62
1604400481.5566,-77
1604400481.5586,-120
1604400481.5606,-130
1604400481.5626,-120
1604400481.5646,-120
1604400481.5666,-120
1604400481.5686,-110
1604400481.5706,-101
1604400481.5726,-101
1604400481.5746,-161
1604400481.9656,-407
1604400481.9663,-670
1604400481.9687,-325
1604400481.9713,1008
1604400481.9733,2478
1604400481.9753,2444
1604400481.9773,827
1604400481.9794,-443
1604400481.9813,-538
1604400481.9833,-434
1604400481.9853,-506
1604400481.9873,-429
1604400481.9893,-323
1604400481.9913,-335
1604400481.9932,-325
1604400481.9952,-272
1604400481.9973,-258
1604400481.9993,-253
1604400482.0013,-226
1604400482.0033,-209
1604400482.0052,-200
1604400482.0072,-188
1604400482.0093,-183
1604400482.0112,-176
1604400482.0133,-161
1604400482.0152,-154
1604400482.0172,-159
1604400482.0194,-152
1604400482.0213,-135
1604400482.0233,-120
1604400482.0253,-108
1604400482.0272,-86
1604400482.0293,-57
1604400482.0313,-33
1604400482.0332,-14
1604400482.0352,2
1604400482.0373,9
1604400482.0395,19
1604400482.0413,12
1604400482.0432,-12
1604400482.0452,-36
1604400482.0472,-55
1604400482.0493,-67
1604400482.0512,-77
1604400482.0532,-84
1604400482.0552,-82
1604400482.0573,-79
1604400482.0593,-89
1604400482.0613,-89
1604400482.0632,-79
1604400482.0652,-82
1604400482.0673,-84
1604400482.0693,-77
1604400482.0712,-67
1604400482.0733,-65
1604400482.0753,-57
1604400482.0773,-50
1604400482.0793,-43
1604400482.0812,-33
1604400482.0832,-26
1604400482.0853,-21
1604400482.0872,-21
1604400482.0893,-19
1604400482.0913,-16
1604400482.0932,-14
1604400482.0952,-16
1604400482.0973,-24
1604400482.0993,-33
1604400482.1013,-19
1604400482.1032,28
1604400482.1052,82
1604400482.1072,72
1604400482.1093,31
1604400482.5358,28
1604400482.5367,26
1604400482.5393,-7
1604400482.5418,-31
1604400482.5438,-28
1604400482.5458,-31
1604400482.5479,-31
1604400482.5498,-26
1604400482.5517,-16
1604400482.5538,-14
1604400482.5558,-43
1604400482.5577,-234
1604400482.5598,-540
1604400482.5617,-400
1604400482.5637,726
1604400482.5659,2316
1604400482.5677,2745
1604400482.5697,1356
1604400482.5717,-176
1604400482.5737,-489
1604400482.5757,-349
1604400482.5777,-417
1604400482.5797,-381
1604400482.5817,-248
1604400482.5838,-241
1604400482.5857,-253
1604400482.5878,-202
1604400482.5898,-180
1604400482.5917,-185
1604400482.5937,-164
1604400482.5957,-142
1604400482.5977,-135
1604400482.5998,-127
1604400482.6017,-113
1604400482.6037,-101
1604400482.6057,-96
1604400482.6077,-98
1604400482.6097,-89
1604400482.6117,-74
1604400482.6137,-72
1604400482.6157,-67
1604400482.6177,-50
1604400482.6198,-26
1604400482.6217,-7
1604400482.6237,12
1604400482.6257,33
1604400482.6277,50
1604400482.6297,57
1604400482.6317,67
1604400482.6337,67
1604400482.6357,45
1604400482.6377,19
1604400482.6397,-2
1604400482.6417,-24
1604400482.6437,-41
1604400482.6457,-45
1604400482.6477,-50
1604400482.6497,-53
1604400482.6517,-53
1604400482.6537,-53
1604400482.6557,-55
1604400482.6577,-55
1604400482.6597,-48
1604400482.6617,-43
1604400482.6637,-41
1604400482.6657,-36
1604400482.6679,-28
1604400482.6698,-24
1604400482.6717,-19
1604400482.6737,-9
1604400482.6757,-4
1604400482.6777,0
1604400482.6797,9
1604400483.1362,14
1604400483.1367,14
1604400483.1386,9
1604400483.1406,7
1604400483.1426,12
1604400483.1446,9
1604400483.1466,-9
1604400483.1486,-24
1604400483.1506,-16
1604400483.1526,21
1604400483.1546,72
1604400483.1566,79
1604400483.1585,45
1604400483.1606,28
1604400483.1626,24
1604400483.1646,-2
1604400483.1666,-28
1604400483.1686,-28
1604400483.1708,-21
1604400483.1726,-19
1604400483.1746,-12
1604400483.1767,-7
1604400483.1786,-7
1604400483.1806,-26
1604400483.1826,-190
1604400483.1846,-506
1604400483.1866,-463
1604400483.1886,533
1604400483.1906,2137
1604400483.1926,2791
1604400483.1933,1578
1604400483.1946,-36
1604400483.1966,-477
1604400483.1986,-337
1604400483.2006,-395
1604400483.2027,-376
1604400483.2046,-234
1604400483.2066,-221
1604400483.2086,-243
1604400483.2106,-195
1604400483.2126,-168
1604400483.2146,-173
1604400483.2166,-154
1604400483.2186,-132
1604400483.2208,-127
1604400483.2214,-120
1604400483.2226,-115
1604400483.2246,-110
1604400483.2266,-101
1604400483.2286,-89
1604400483.2306,-82
1604400483.2326,-77
1604400483.2346,-74
1604400483.2366,-65
1604400483.2386,-45
1604400483.2406,-31
1604400483.2426,-19
1604400483.2446,0
1604400483.2466,21
1604400483.2486,38
1604400483.2506,53
1604400483.2513,67
1604400483.2526,65
1604400483.2546,41
1604400483.2566,12
1604400483.2586,-7
1604400483.2606,-19
1604400483.2626,-26
1604400483.2646,-38
1604400483.2666,-53
1604400483.2686,-55
1604400483.2706,-50
1604400483.2726,-53
1604400483.6757,-48
1604400483.6767,-48
1604400483.6791,-53
1604400483.6817,-50
1604400483.6837,-53
1604400483.6857,-50
1604400483.6877,-41
1604400483.6897,-38
1604400483.6916,-31
1604400483.6936,-21
1604400483.6956,-19
1604400483.6976,-24
1604400483.6996,-19
1604400483.7016,-7
1604400483.7036,-9
1604400483.7056,-19
1604400483.7076,-16
1604400483.7084,-7
1604400483.7107,-7
1604400483.7127,-26
1604400483.7146,-28
1604400483.7166,-7
1604400483.7188,9
1604400483.7207,31
1604400483.7226,69
1604400483.7246,67
1604400483.7266,41
1604400483.7286,36
1604400483.7307,21
1604400483.7326,-12
1604400483.7346,-16
1604400483.7366,-7
1604400483.7386,-7
1604400483.7394,-4
1604400483.7406,4
1604400483.7426,7
1604400483.7446,-12
1604400483.7466,-135
1604400483.7486,-415
1604400483.7506,-477
1604400483.7526,246
1604400483.7546,1609
1604400483.7566,2299
1604400483.7586,1353
1604400483.7607,-36
1604400483.7626,-407
1604400483.7646,-289
1604400483.7666,-359
1604400483.7686,-325
1604400483.7694,-180
1604400483.7706,-154
1604400483.7726,-161
1604400483.7746,-125
1604400483.7758,-103
1604400483.7776,-103
1604400483.7797,-86
1604400483.7816,-72
1604400483.7836,-69
1604400483.7857,-62
1604400483.7876,-53
1604400483.7897,-45
1604400483.7916,-43
1604400483.7936,-36
1604400483.7943,-26
1604400483.7966,-16
1604400483.7987,-12
1604400483.8006,-4
1604400483.8026,7
1604400483.8046,16
1604400483.8066,26
1604400483.8086,38
1604400483.8107,50
1604400483.8126,53
1604400484.2462,48
1604400484.2471,41
1604400484.2495,28
1604400484.2521,2
1604400484.2528,-33
1604400484.2551,-65
1604400484.2571,-84
1604400484.2592,-108
1604400484.2610,-130
1604400484.2630,-139
1604400484.2650,-137
1604400484.2670,-137
1604400484.2691,-137
1604400484.2712,-137
1604400484.2730,-130
1604400484.2750,-123
1604400484.2770,-115
1604400484.2790,-98
1604400484.2810,-84
1604400484.2817,-89
1604400484.2840,-91
1604400484.2860,-77
1604400484.2880,-65
1604400484.2901,-67
1604400484.2920,-65
1604400484.2940,-62
1604400484.2960,-65
1604400484.2980,-67
1604400484.3000,-67
1604400484.3020,-72
1604400484.3040,-84
1604400484.3060,-94
1604400484.3080,-94
1604400484.3101,-86
1604400484.3120,-69
1604400484.3127,-19
1604400484.3150,9
1604400484.3170,-26
1604400484.3192,-50
1604400484.3210,-36
1604400484.3230,-53
1604400484.3250,-91
1604400484.3270,-94
1604400484.3290,-84
1604400484.3310,-84
1604400484.3330,-77
1604400484.3351,-69
1604400484.3370,-65
1604400484.3391,-110
1604400484.3412,-304
1604400484.3432,-530
1604400484.3439,-238
1604400484.3451,916
1604400484.3470,2087
1604400484.3491,1918
1604400484.3511,588
1604400484.3530,-410
1604400484.3550,-526
1604400484.3570,-395
1604400484.3590,-357
1604400484.3610,-291
1604400484.3630,-234
1604400484.3650,-236
1604400484.3670,-231
1604400484.3691,-207
1604400484.3711,-190
1604400484.3730,-183
1604400484.3737,-176
1604400484.3750,-168
1604400484.3770,-159
1604400484.3790,-152
1604400484.3810,-149
1604400484.3830,-149
1604400484.7857,-147
1604400484.7866,-144
1604400484.7891,-142
1604400484.7918,-142
1604400484.7936,-144
1604400484.7956,-152
1604400484.7977,-149
1604400484.7996,-135
1604400484.8016,-127
1604400484.8036,-125
1604400484.8056,-115
1604400484.8076,-89
1604400484.8097,-62
1604400484.8116,-41
1604400484.8136,-19
1604400484.8156,-12
1604400484.8176,-19
1604400484.8197,-33
1604400484.8216,-41
1604400484.8236,-48
1604400484.8256,-53
1604400484.8276,-57
1604400484.8296,-67
1604400484.8316,-74
1604400484.8336,-82
1604400484.8356,-82
1604400484.8376,-79
1604400484.8397,-79
1604400484.8416,-77
1604400484.8437,-77
1604400484.8456,-72
1604400484.8476,-65
1604400484.8496,-60
1604400484.8516,-57
1604400484.8536,-48
1604400484.8556,-41
1604400484.8576,-41
1604400484.8596,-41
1604400484.8616,-33
1604400484.8636,-31
1604400484.8656,-38
1604400484.8676,-41
1604400484.8696,-43
1604400484.8716,-53
1604400484.8736,-53
1604400484.8756,-21
1604400484.8776,31
1604400484.8797,36
1604400484.8816,-9
1604400484.8836,-21
1604400484.8856,-24
1604400484.8876,-57
1604400484.8896,-74
1604400484.8916,-67
1604400484.8936,-62
1604400484.8956,-62
1604400484.8976,-62
1604400484.8996,-62
1604400484.9016,-72
1604400484.9036,-185
1604400484.9056,-439
1604400484.9076,-456
1604400484.9096,328
1604400484.9116,1645
1604400484.9136,2176
1604400484.9156,1216
1604400484.9176,-86
1604400484.9196,-526
1604400484.9216,-417
1604400484.9236,-364
1604400484.9256,-325
1604400484.9276,-246
1604400484.9296,-221
1604400485.3557,-224
1604400485.3565,-197
1604400485.3590,-173
1604400485.3615,-168
1604400485.3635,-156
1604400485.3656,-142
1604400485.3675,-144
1604400485.3697,-149
1604400485.3716,-135
1604400485.3735,-123
1604400485.3755,-125
1604400485.3775,-125
1604400485.3796,-113
1604400485.3815,-106
1604400485.3835,-108
1604400485.3855,-103
1604400485.3876,-96
1604400485.3896,-89
1604400485.3915,-77
1604400485.3935,-62
1604400485.3955,-50
1604400485.3975,-41
1604400485.3995,-31
1604400485.4015,-21
1604400485.4035,-12
1604400485.4055,-7
1604400485.4075,-14
1604400485.4095,-24
1604400485.4115,-31
1604400485.4135,-38
1604400485.4155,-48
1604400485.4175,-62
1604400485.4195,-79
1604400485.4215,-86
1604400485.4235,-84
1604400485.4255,-84
1604400485.4275,-84
1604400485.4295,-77
1604400485.4315,-72
1604400485.4335,-69
1604400485.4355,-62
1604400485.4375,-57
1604400485.4395,-62
1604400485.4415,-55
1604400485.4435,-41
1604400485.4455,-41
1604400485.4475,-45
1604400485.4495,-36
1604400485.4515,-36
1604400485.4535,-53
1604400485.4555,-50
1604400485.4575,-31
1604400485.4595,-45
1604400485.4615,-77
1604400485.4636,-67
1604400485.4655,-48
1604400485.4675,-33
1604400485.4696,14
1604400485.4716,31
1604400485.4735,-4
1604400485.4755,-21
1604400485.4775,-24
1604400485.4796,-50
1604400485.4815,-65
1604400485.4835,-67
1604400485.4855,-79
1604400485.4875,-77
1604400485.4895,-67
1604400485.4915,-62
1604400485.4935,-65
1604400485.4955,-132
1604400485.4975,-354
1604400485.4995,-509
1604400485.8956,-12
1604400485.8962,1213
1604400485.8987,2041
1604400485.9012,1421
1604400485.9032,118
1604400485.9052,-516
1604400485.9073,-475
1604400485.9093,-383
1604400485.9112,-340
1604400485.9132,-258
1604400485.9152,-219
1604400485.9173,-231
1604400485.9193,-209
1604400485.9212,-185
1604400485.9232,-190
1604400485.9253,-183
1604400485.9272,-161
1604400485.9293,-149
1604400485.9312,-135
1604400485.9332,-120
1604400485.9352,-108
1604400485.9372,-110
1604400485.9393,-106
1604400485.9412,-91
1604400485.9432,-91
1604400485.9452,-103
1604400485.9472,-96
1604400485.9493,-84
1604400485.9512,-86
1604400485.9532,-77
1604400485.9552,-60
1604400485.9572,-60
1604400485.9593,-60
1604400485.9612,-41
1604400485.9632,-16
1604400485.9652,-4
1604400485.9674,7
1604400485.9693,14
1604400485.9712,12
1604400485.9732,-7
1604400485.9752,-21
1604400485.9772,-19
1604400485.9793,-21
1604400485.9812,-45
1604400485.9832,-55
1604400485.9852,-48
1604400485.9872,-43
1604400485.9893,-45
1604400485.9912,-43
1604400485.9932,-28
1604400485.9952,-14
1604400485.9972,-16
1604400485.9993,-19
1604400486.0012,-7
1604400486.0032,0
1604400486.0052,-7
1604400486.0072,-9
1604400486.0093,-2
1604400486.0112,-2
1604400486.0132,-9
1604400486.0154,-9
1604400486.0172,-7
1604400486.0193,-2
1604400486.0212,-4
1604400486.0232,-14
1604400486.0252,-16
1604400486.0272,-9
1604400486.0278,7
1604400486.0293,48
1604400486.0312,74
1604400486.0332,41
1604400486.0352,9
1604400486.0372,19
1604400486.4957,0
1604400486.4966,-36
1604400486.4990,-28
1604400486.5016,-9
1604400486.5036,-12
1604400486.5056,-21
1604400486.5077,-28
1604400486.5097,-26
1604400486.5102,-48
1604400486.5116,-200
1604400486.5136,-441
1604400486.5156,-311
1604400486.5176,637
1604400486.5196,1824
1604400486.5217,1884
1604400486.5236,699
1604400486.5255,-308
1604400486.5275,-465
1604400486.5296,-354
1604400486.5316,-306
1604400486.5335,-221
1604400486.5356,-161
1604400486.5375,-171
1604400486.5396,-164
1604400486.5402,-130
1604400486.5416,-120
1604400486.5435,-125
1604400486.5455,-125
1604400486.5476,-127
1604400486.5496,-118
1604400486.5515,-101
1604400486.5536,-94
1604400486.5555,-96
1604400486.5575,-96
1604400486.5596,-94
1604400486.5616,-96
1604400486.5636,-94
1604400486.5655,-86
1604400486.5675,-89
1604400486.5696,-94
1604400486.5703,-89
1604400486.5716,-82
1604400486.5736,-72
1604400486.5756,-55
1604400486.5775,-43
1604400486.5796,-33
1604400486.5815,-16
1604400486.5835,0
1604400486.5856,4
1604400486.5875,-2
1604400486.5896,-21
1604400486.5915,-33
1604400486.5936,-26
1604400486.5956,-26
1604400486.5975,-36
1604400486.5996,-43
1604400486.6002,-41
1604400486.6015,-45
1604400486.6035,-43
1604400486.6056,-33
1604400486.6075,-28
1604400486.6096,-19
1604400486.6115,-4
1604400486.6136,-4
1604400486.6155,-7
1604400486.6177,-2
1604400486.6196,0
1604400486.6215,-2
1604400486.6235,0
1604400486.6256,4
1604400486.6275,2
1604400486.6296,7
1604400486.6302,12
1604400487.0356,4
1604400487.0362,-2
1604400487.0386,-7
1604400487.0412,-12
1604400487.0432,-7
1604400487.0452,4
1604400487.0472,38
1604400487.0493,86
1604400487.0512,74
1604400487.0532,26
1604400487.0553,16
1604400487.0573,9
1604400487.0592,-19
1604400487.0612,-31
1604400487.0619,-31
1604400487.0632,-28
1604400487.0652,-16
1604400487.0672,-12
1604400487.0692,-16
1604400487.0712,-16
1604400487.0732,-86
1604400487.0752,-328
1604400487.0772,-475
1604400487.0793,86
1604400487.0812,1348
1604400487.0832,2096
1604400487.0852,1368
1604400487.0872,79
1604400487.0892,-460
1604400487.0913,-398
1604400487.0919,-330
1604400487.0942,-277
1604400487.0962,-190
1604400487.0982,-161
1604400487.1002,-166
1604400487.1022,-139
1604400487.1042,-115
1604400487.1062,-113
1604400487.1082,-108
1604400487.1102,-96
1604400487.1122,-89
1604400487.1142,-84
1604400487.1162,-72
1604400487.1183,-69
1604400487.1202,-69
1604400487.1221,-69
1604400487.1228,-67
1604400487.1242,-69
1604400487.1262,-69
1604400487.1282,-74
1604400487.1303,-72
1604400487.1322,-62
1604400487.1342,-57
1604400487.1362,-53
1604400487.1382,-38
1604400487.1401,-33
1604400487.1422,-41
1604400487.1442,-28
1604400487.1462,-7
1604400487.1482,0
1604400487.1502,-4
1604400487.1522,-14
1604400487.1528,-31
1604400487.1542,-38
1604400487.1563,-31
1604400487.1582,-41
1604400487.1602,-65
1604400487.1622,-72
1604400487.1641,-60
1604400487.1662,-48
1604400487.1682,-41
1604400487.1702,-28
1604400487.1722,-21
1604400487.6062,-31
1604400487.6071,-31
1604400487.6095,-9
1604400487.6106,-4
1604400487.6121,-21
1604400487.6141,-21
1604400487.6162,-16
1604400487.6181,-26
1604400487.6202,-28
1604400487.6221,-21
1604400487.6241,-21
1604400487.6261,-24
1604400487.6282,-21
1604400487.6301,-21
1604400487.6320,-26
1604400487.6341,-26
1604400487.6360,-16
1604400487.6380,21
1604400487.6388,69
1604400487.6401,57
1604400487.6420,14
1604400487.6442,9
1604400487.6461,7
1604400487.6480,-26
1604400487.6500,-45
1604400487.6521,-38
1604400487.6540,-38
1604400487.6561,-38
1604400487.6581,-28
1604400487.6602,-24
1604400487.6620,-21
1604400487.6640,-50
1604400487.6661,-231
1604400487.6680,-494
1604400487.6687,-284
1604400487.6701,810
1604400487.6720,1995
1604400487.6741,1877
1604400487.6760,571
1604400487.6781,-381
1604400487.6801,-458
1604400487.6821,-345
1604400487.6840,-320
1604400487.6860,-243
1604400487.6880,-178
1604400487.6900,-176
1604400487.6921,-159
1604400487.6940,-135
1604400487.6961,-127
1604400487.6980,-118
1604400487.6992,-108
1604400487.7011,-98
1604400487.7030,-91
1604400487.7050,-84
1604400487.7070,-82
1604400487.7091,-77
1604400487.7111,-69
1604400487.7131,-67
1604400487.7150,-67
1604400487.7171,-65
1604400487.7191,-57
1604400487.7211,-53
1604400487.7230,-48
1604400487.7250,-41
1604400487.7270,-31
1604400487.7291,-24
1604400487.7297,-14
1604400487.7310,-7
1604400487.7330,7
1604400487.7350,21
1604400487.7370,28
1604400487.7391,19
1604400487.7412,7
1604400488.1759,-4
1604400488.1767,-19
1604400488.1792,-26
1604400488.1818,-26
1604400488.1838,-31
1604400488.1858,-36
1604400488.1879,-33
1604400488.1898,-31
1604400488.1918,-38
1604400488.1924,-36
1604400488.1937,-24
1604400488.1957,-19
1604400488.1978,-24
1604400488.1998,-21
1604400488.2017,-12
1604400488.2037,-4
1604400488.2057,-4
1604400488.2077,-9
1604400488.2098,-9
1604400488.2117,-2
1604400488.2137,-4
1604400488.2157,-7
1604400488.2177,-4
1604400488.2197,-4
1604400488.2217,-12
1604400488.2223,-16
1604400488.2237,-19
1604400488.2257,-4
1604400488.2277,36
1604400488.2298,77
1604400488.2318,67
1604400488.2337,33
1604400488.2357,26
1604400488.2377,16
1604400488.2397,-16
1604400488.2417,-31
1604400488.2437,-24
1604400488.2457,-19
1604400488.2477,-16
1604400488.2497,-9
1604400488.2517,-7
1604400488.2523,-9
1604400488.2537,-45
1604400488.2557,-217
1604400488.2577,-475
1604400488.2598,-304
1604400488.2617,728
1604400488.2637,1973
1604400488.2657,2009
1604400488.2677,709
1604400488.2699,-335
1604400488.2717,-412
1604400488.2737,-316
1604400488.2757,-342
1604400488.2777,-253
1604400488.2797,-159
1604400488.2817,-166
1604400488.2823,-161
1604400488.2837,-125
1604400488.2857,-113
1604400488.2877,-110
1604400488.2898,-101
1604400488.2917,-96
1604400488.2937,-84
1604400488.2957,-67
1604400488.2977,-57
1604400488.2997,-50
1604400488.3017,-41
1604400488.3037,-36
1604400488.3057,-36
1604400488.3077,-26
1604400488.3098,-12
1604400488.3117,-7
1604400488.7757,4
1604400488.7765,24
1604400488.7789,31
1604400488.7816,33
1604400488.7836,45
1604400488.7856,53
1604400488.7876,53
1604400488.7896,53
1604400488.7915,48
1604400488.7935,26
1604400488.7955,-7
1604400488.7975,-36
1604400488.7995,-60
1604400488.8002,-74
1604400488.8015,-69
1604400488.8035,-69
1604400488.8055,-79
1604400488.8075,-74
1604400488.8095,-62
1604400488.8115,-53
1604400488.8134,-50
1604400488.8154,-43
1604400488.8175,-33
1604400488.8201,-24
1604400488.8215,-16
1604400488.8235,-9
1604400488.8254,-7
1604400488.8274,-7
1604400488.8297,-7
1604400488.8302,-7
1604400488.8315,-4
1604400488.8335,-2
1604400488.8355,-9
1604400488.8374,-12
1604400488.8395,-7
1604400488.8415,-12
1604400488.8434,-24
1604400488.8455,-24
1604400488.8475,7
1604400488.8495,57
1604400488.8515,91
1604400488.8535,69
1604400488.8555,31
1604400488.8574,21
1604400488.8595,7
1604400488.8601,-19
1604400488.8615,-24
1604400488.8635,-16
1604400488.8655,-19
1604400488.8674,-19
1604400488.8694,-7
1604400488.8715,0
1604400488.8734,-12
1604400488.8755,-67
1604400488.8775,-277
1604400488.8795,-499
1604400488.8815,-123
1604400488.8834,1107
1604400488.8854,2193
1604400488.8874,1819
1604400488.8895,412
1604400488.8902,-456
1604400488.8914,-460
1604400488.8934,-337
1604400488.8955,-311
1604400488.8974,-231
1604400488.8995,-171
1604400488.9014,-176
1604400488.9034,-161
1604400488.9054,-130
1604400488.9074,-127
1604400488.9095,-125
1604400488.9114,-110
1604400489.2555,-103
1604400489.2561,-101
1604400489.2578,-91
1604400489.2602,-82
1604400489.2622,-79
1604400489.2642,-74
1604400489.2664,-79
1604400489.2682,-89
1604400489.2702,-82
1604400489.2721,-72
1604400489.2741,-82
1604400489.2762,-96
1604400489.2782,-86
1604400489.2802,-72
1604400489.2821,-74
1604400489.2841,-74
1604400489.2861,-53
1604400489.2881,-26
1604400489.2888,-9
1604400489.2901,-2
1604400489.2921,4
1604400489.2941,0
1604400489.2961,-9
1604400489.2981,-12
1604400489.3001,-16
1604400489.3021,-26
1604400489.3041,-28
1604400489.3061,-26
1604400489.3081,-26
1604400489.3102,-28
1604400489.3121,-24
1604400489.3141,-12
1604400489.3161,-7
1604400489.3181,-14
1604400489.3188,-16
1604400489.3201,-4
1604400489.3221,2
1604400489.3241,4
1604400489.3261,9
1604400489.3282,14
1604400489.3301,16
1604400489.3321,14
1604400489.3341,9
1604400489.3362,4
1604400489.3381,4
1604400489.3402,2
1604400489.3421,-7
1604400489.3442,-9
1604400489.3461,7
1604400489.3468,43
1604400489.3481,89
1604400489.3502,89
1604400489.3521,50
1604400489.3541,36
1604400489.3561,26
1604400489.3581,-7
1604400489.3601,-19
1604400489.3623,-14
1604400489.3642,-12
1604400489.3661,-7
1604400489.3681,-2
1604400489.3701,-9
1604400489.3721,-12
1604400489.3741,-33
1604400489.3761,-193
1604400489.3768,-468
1604400489.3781,-366
1604400489.3801,612
1604400489.3821,1942
1604400489.3841,2171
1604400489.3861,945
1604400489.3881,-282
1604400489.3902,-528
1604400489.8558,-366
1604400489.8566,-320
1604400489.8590,-267
1604400489.8616,-193
1604400489.8636,-195
1604400489.8657,-195
1604400489.8676,-154
1604400489.8697,-144
1604400489.8703,-147
1604400489.8716,-125
1604400489.8736,-108
1604400489.8756,-106
1604400489.8776,-98
1604400489.8796,-91
1604400489.8816,-86
1604400489.8836,-82
1604400489.8855,-79
1604400489.8876,-79
1604400489.8896,-77
1604400489.8916,-77
1604400489.8936,-77
1604400489.8955,-74
1604400489.8975,-69
1604400489.8996,-65
1604400489.9003,-53
1604400489.9015,-41
1604400489.9036,-31
1604400489.9055,-14
1604400489.9075,9
1604400489.9096,31
1604400489.9115,41
1604400489.9135,33
1604400489.9156,14
1604400489.9175,0
1604400489.9196,0
1604400489.9217,-2
1604400489.9236,-7
1604400489.9256,-9
1604400489.9276,-7
1604400489.9296,-7
1604400489.9302,-9
1604400489.9316,-7
1604400489.9336,-2
1604400489.9355,-4
1604400489.9375,2
1604400489.9397,16
1604400489.9415,16
1604400489.9435,16
1604400489.9455,21
1604400489.9475,26
1604400489.9496,21
1604400489.9516,21
1604400489.9535,24
1604400489.9555,24
1604400489.9575,21
1604400489.9596,14
1604400489.9602,2
1604400489.9615,-4
1604400489.9636,12
1604400489.9655,62
1604400489.9675,101
1604400489.9696,82
1604400489.9715,48
1604400489.9735,43
1604400489.9756,21
1604400489.9775,-12
1604400489.9796,-16
1604400489.9815,-14
1604400489.9835,-16
1604400489.9855,-12
1604400489.9875,-4
1604400489.9896,0
1604400489.9902,2
1604400490.4256,-48
1604400490.4264,-279
1604400490.4288,-535
1604400490.4315,-176
1604400490.4334,1107
1604400490.4354,2347
1604400490.4375,2092
1604400490.4395,593
1604400490.4415,-419
1604400490.4434,-448
1604400490.4455,-335
1604400490.4474,-342
1604400490.4481,-255
1604400490.4497,-183
1604400490.4515,-202
1604400490.4534,-190
1604400490.4554,-147
1604400490.4574,-137
1604400490.4595,-132
1604400490.4614,-115
1604400490.4634,-103
1604400490.4654,-94
1604400490.4675,-84
1604400490.4694,-82
1604400490.4714,-79
1604400490.4734,-74
1604400490.4754,-69
1604400490.4774,-65
1604400490.4781,-57
1604400490.4794,-50
1604400490.4814,-45
1604400490.4834,-45
1604400490.4854,-41
1604400490.4875,-33
1604400490.4894,-24
1604400490.4914,-14
1604400490.4934,0
1604400490.4954,12
1604400490.4974,24
1604400490.4994,31
1604400490.5014,26
1604400490.5034,7
1604400490.5054,-7
1604400490.5074,-12
1604400490.5080,-21
1604400490.5094,-26
1604400490.5114,-28
1604400490.5134,-28
1604400490.5154,-28
1604400490.5174,-31
1604400490.5194,-33
1604400490.5214,-28
1604400490.5234,-24
1604400490.5254,-16
1604400490.5274,-7
1604400490.5294,-2
1604400490.5314,-4
1604400490.5334,-4
1604400490.5354,-2
1604400490.5374,-4
1604400490.5381,0
1604400490.5394,4
1604400490.5414,0
1604400490.5434,-9
1604400490.5455,-12
1604400490.5475,-9
1604400490.5494,0
1604400490.5514,19
1604400490.5534,62
1604400490.5554,89
1604400490.5574,60
1604400490.5595,31
1604400490.5614,24
1604400491.0258,-4
1604400491.0266,-28
1604400491.0291,-21
1604400491.0301,-16
1604400491.0317,-26
1604400491.0336,-24
1604400491.0357,-12
1604400491.0378,-7
1604400491.0397,-12
1604400491.0418,-96
1604400491.0436,-361
1604400491.0456,-538
1604400491.0476,-7
1604400491.0496,1300
1604400491.0516,2251
1604400491.0536,1643
1604400491.0556,197
1604400491.0576,-458
1604400491.0596,-359
1604400491.0602,-335
1604400491.0616,-342
1604400491.0636,-221
1604400491.0655,-166
1604400491.0675,-178
1604400491.0682,-149
1604400491.0706,-118
1604400491.0725,-118
1604400491.0746,-113
1604400491.0766,-89
1604400491.0785,-74
1604400491.0806,-74
1604400491.0825,-69
1604400491.0845,-50
1604400491.0865,-38
1604400491.0872,-38
1604400491.0886,-28
1604400491.0906,-16
1604400491.0925,-7
1604400491.0945,2
1604400491.0965,16
1604400491.0985,28
1604400491.1006,38
1604400491.1027,48
1604400491.1046,53
1604400491.1065,57
1604400491.1085,65
1604400491.1106,69
1604400491.1126,65
1604400491.1145,43
1604400491.1165,9
1604400491.1172,-19
1604400491.1185,-41
1604400491.1206,-53
1604400491.1225,-69
1604400491.1245,-77
1604400491.1265,-72
1604400491.1285,-65
1604400491.1306,-57
1604400491.1325,-50
1604400491.1346,-41
1604400491.1365,-31
1604400491.1385,-31
1604400491.1406,-21
1604400491.1426,-9
1604400491.1446,-4
1604400491.1465,-4
1604400491.1472,-2
1604400491.1486,-2
1604400491.1506,0
1604400491.1525,0
1604400491.1545,2
1604400491.1565,2
1604400491.1585,-2
1604400491.5355,-4
1604400491.5361,9
1604400491.5385,38
1604400491.5411,72
1604400491.5432,79
1604400491.5451,50
1604400491.5472,28
1604400491.5478,16
1604400491.5492,-12
1604400491.5511,-26
1604400491.5531,-24
1604400491.5552,-28
1604400491.5571,-36
1604400491.5591,-24
1604400491.5611,-16
1604400491.5631,-19
1604400491.5651,-33
1604400491.5671,-120
1604400491.5692,-359
1604400491.5711,-492
1604400491.5733,50
1604400491.5751,1278
1604400491.5771,2038
1604400491.5777,1346
1604400491.5790,79
1604400491.5811,-427
1604400491.5831,-374
1604400491.5851,-361
1604400491.5871,-308
1604400491.5891,-178
1604400491.5911,-135
1604400491.5931,-144
1604400491.5951,-130
1604400491.5971,-108
1604400491.5991,-106
1604400491.6011,-103
1604400491.6031,-89
1604400491.6051,-77
1604400491.6071,-69
1604400491.6077,-62
1604400491.6091,-55
1604400491.6111,-50
1604400491.6131,-48
1604400491.6151,-45
1604400491.6171,-38
1604400491.6192,-28
1604400491.6211,-19
1604400491.6231,-19
1604400491.6251,-16
1604400491.6271,-4
1604400491.6292,7
1604400491.6311,7
1604400491.6331,12
1604400491.6351,16
1604400491.6357,16
1604400491.6371,24
1604400491.6391,24
1604400491.6411,4
1604400491.6431,-19
1604400491.6451,-28
1604400491.6471,-36
1604400491.6491,-45
1604400491.6511,-43
1604400491.6531,-41
1604400491.6551,-38
1604400491.6571,-38
1604400491.6592,-38
1604400491.6611,-33
1604400491.6631,-26
1604400491.6651,-21
1604400491.6657,-19
1604400491.6672,-14
1604400491.6691,-9
1604400492.0757,-4
1604400492.0766,-4
1604400492.0790,-4
1604400492.0806,-4
1604400492.0826,-4
1604400492.0846,-7
1604400492.0866,-9
1604400492.0886,-12
1604400492.0906,-12
1604400492.0926,9
1604400492.0946,60
1604400492.0966,67
1604400492.0972,24
1604400492.0986,7
1604400492.1006,9
1604400492.1026,-14
1604400492.1046,-33
1604400492.1066,-28
1604400492.1086,-28
1604400492.1105,-33
1604400492.1126,-28
1604400492.1146,-21
1604400492.1167,-12
1604400492.1185,-4
1604400492.1206,-82
1604400492.1226,-318
1604400492.1246,-468
1604400492.1266,60
1604400492.1272,1288
1604400492.1285,2036
1604400492.1306,1372
1604400492.1325,123
1604400492.1345,-489
1604400492.1365,-451
1604400492.1385,-316
1604400492.1406,-250
1604400492.1426,-195
1604400492.1445,-159
1604400492.1465,-154
1604400492.1485,-144
1604400492.1506,-135
1604400492.1526,-127
1604400492.1545,-115
1604400492.1566,-108
1604400492.1572,-108
1604400492.1586,-94
1604400492.1606,-82
1604400492.1625,-82
1604400492.1645,-82
1604400492.1667,-77
1604400492.1686,-82
1604400492.1705,-91
1604400492.1725,-86
1604400492.1746,-72
1604400492.1766,-65
1604400492.1785,-69
1604400492.1806,-72
1604400492.1826,-60
1604400492.1845,-41
1604400492.1865,-19
1604400492.1871,4
1604400492.1886,24
1604400492.1905,36
1604400492.1925,50
1604400492.1945,60
1604400492.1965,45
1604400492.1986,31
1604400492.2005,36
1604400492.2025,36
1604400492.2046,16
1604400492.2065,7
1604400492.2085,9
1604400492.2106,9
1604400492.6158,9
1604400492.6166,12
1604400492.6190,12
1604400492.6217,12
1604400492.6237,9
1604400492.6257,12
1604400492.6279,7
1604400492.6298,4
1604400492.6316,16
1604400492.6336,24
1604400492.6356,19
1604400492.6376,21
1604400492.6397,26
1604400492.6416,21
1604400492.6436,26
1604400492.6456,57
1604400492.6476,101
1604400492.6483,113
1604400492.6497,74
1604400492.6516,38
1604400492.6536,21
1604400492.6556,-7
1604400492.6576,-26
1604400492.6597,-19
1604400492.6616,-14
1604400492.6636,-16
1604400492.6656,-9
1604400492.6678,-4
1604400492.6697,-2
1604400492.6716,-2
1604400492.6736,-33
1604400492.6757,-188
1604400492.6776,-419
1604400492.6782,-229
1604400492.6796,784
1604400492.6816,1855
1604400492.6836,1701
1604400492.6856,533
1604400492.6876,-349
1604400492.6896,-482
1604400492.6916,-340
1604400492.6936,-250
1604400492.6956,-183
1604400492.6976,-139
1604400492.6996,-137
1604400492.7016,-125
1604400492.7036,-98
1604400492.7056,-91
1604400492.7076,-101
1604400492.7082,-96
1604400492.7097,-82
1604400492.7116,-74
1604400492.7136,-77
1604400492.7156,-74
1604400492.7176,-74
1604400492.7197,-82
1604400492.7216,-82
1604400492.7236,-82
1604400492.7256,-84
1604400492.7276,-91
1604400492.7296,-91
1604400492.7316,-89
1604400492.7336,-82
1604400492.7356,-72
1604400492.7376,-57
1604400492.7382,-38
1604400492.7396,-19
1604400492.7416,0
1604400492.7436,21
1604400492.7456,28
1604400492.7476,21
1604400492.7496,24
1604400492.7516,19
1604400493.2459,4
1604400493.2467,0
1604400493.2483,-4
1604400493.2504,-24
1604400493.2523,-36
1604400493.2546,-24
1604400493.2553,-26
1604400493.2563,-33
1604400493.2583,-24
1604400493.2603,-12
1604400493.2623,-12
1604400493.2643,-9
1604400493.2663,-2
1604400493.2683,-2
1604400493.2703,-7
1604400493.2724,-4
1604400493.2743,4
1604400493.2763,14
1604400493.2783,16
1604400493.2803,16
1604400493.2823,21
1604400493.2843,26
1604400493.2849,57
1604400493.2863,113
1604400493.2883,120
1604400493.2904,69
1604400493.2922,38
1604400493.2943,21
1604400493.2963,-4
1604400493.2983,-9
1604400493.3003,4
1604400493.3022,21
1604400493.3043,50
1604400493.3063,62
1604400493.3083,12
1604400493.3103,-26
1604400493.3122,-9
1604400493.3142,-50
1604400493.3148,-260
1604400493.3162,-441
1604400493.3182,-19
1604400493.3203,1143
1604400493.3222,1981
1604400493.3242,1469
1604400493.3262,265
1604400493.3282,-405
1604400493.3302,-398
1604400493.3322,-236
1604400493.3343,-149
1604400493.3362,-89
1604400493.3383,-69
1604400493.3403,-74
1604400493.3423,-43
1604400493.3442,-19
1604400493.3448,-24
1604400493.3462,-12
1604400493.3484,2
1604400493.3503,4
1604400493.3522,9
1604400493.3542,9
1604400493.3562,2
1604400493.3582,2
1604400493.3603,-2
1604400493.3623,-19
1604400493.3642,-26
1604400493.3663,-24
1604400493.3682,-28
1604400493.3703,-33
1604400493.3723,-36
1604400493.3742,-36
1604400493.3749,-31
1604400493.3762,-21
1604400493.3783,-7
1604400493.7857,4
1604400493.7865,19
1604400493.7880,33
1604400493.7900,36
1604400493.7920,24
1604400493.7940,9
1604400493.7959,4
1604400493.7979,-2
1604400493.8000,-21
1604400493.8019,-41
1604400493.8039,-38
1604400493.8045,-41
1604400493.8059,-60
1604400493.8079,-69
1604400493.8099,-57
1604400493.8119,-45
1604400493.8139,-45
1604400493.8159,-36
1604400493.8179,-24
1604400493.8199,-26
1604400493.8219,-28
1604400493.8238,-16
1604400493.8259,-9
1604400493.8278,-14
1604400493.8299,-26
1604400493.8318,-24
1604400493.8339,-19
1604400493.8345,-26
1604400493.8358,-31
1604400493.8379,-7
1604400493.8399,43
1604400493.8419,69
1604400493.8439,43
1604400493.8458,16
1604400493.8480,16
1604400493.8499,-12
1604400493.8518,-50
1604400493.8539,-50
1604400493.8558,-43
1604400493.8578,-50
1604400493.8598,-45
1604400493.8618,-36
1604400493.8638,-28
1604400493.8644,-24
1604400493.8659,-41
1604400493.8678,-176
1604400493.8698,-424
1604400493.8718,-364
1604400493.8738,540
1604400493.8758,1790
1604400493.8778,1983
1604400493.8799,844
1604400493.8819,-275
1604400493.8838,-509
1604400493.8859,-342
1604400493.8878,-279
1604400493.8899,-250
1604400493.8918,-185
1604400493.8939,-166
1604400493.8944,-168
1604400493.8959,-139
1604400493.8978,-123
1604400493.8999,-123
1604400493.9018,-115
1604400493.9038,-101
1604400493.9058,-94
1604400493.9078,-91
1604400493.9099,-82
1604400493.9118,-79
1604400493.9138,-79
1604400493.9159,-82
1604400493.9178,-91
1604400493.9199,-94
1604400494.3255,-91
1604400494.3261,-98
1604400494.3285,-98
1604400494.3311,-86
1604400494.3332,-79
1604400494.3351,-77
1604400494.3371,-65
1604400494.3392,-45
1604400494.3411,-31
1604400494.3431,-21
1604400494.3451,-16
1604400494.3471,-19
1604400494.3493,-24
1604400494.3512,-28
1604400494.3531,-33
1604400494.3551,-36
1604400494.3558,-36
1604400494.3572,-36
1604400494.3592,-38
1604400494.3612,-41
1604400494.3632,-38
1604400494.3651,-36
1604400494.3671,-31
1604400494.3691,-24
1604400494.3711,-16
1604400494.3731,-9
1604400494.3751,-12
1604400494.3771,-12
1604400494.3792,-7
1604400494.3811,-7
1604400494.3831,-4
1604400494.3851,-2
1604400494.3857,-4
1604400494.3871,-2
1604400494.3891,4
1604400494.3911,2
1604400494.3931,-2
1604400494.3951,0
1604400494.3971,24
1604400494.3991,74
1604400494.4011,96
1604400494.4031,60
1604400494.4051,31
1604400494.4071,28
1604400494.4091,7
1604400494.4111,-16
1604400494.4131,-12
1604400494.4151,-4
1604400494.4157,-9
1604400494.4171,-9
1604400494.4191,-4
1604400494.4211,2
1604400494.4231,0
1604400494.4251,-41
1604400494.4271,-221
1604400494.4292,-463
1604400494.4311,-207
1604400494.4331,900
1604400494.4351,2024
1604400494.4371,1824
1604400494.4391,516
1604400494.4411,-410
1604400494.4431,-470
1604400494.4453,-332
1604400494.4457,-291
1604400494.4471,-224
1604400494.4492,-164
1604400494.4511,-164
1604400494.4531,-154
1604400494.4551,-125
1604400494.4571,-115
1604400494.4591,-108
1604400494.4611,-96
1604400494.9257,-91
1604400494.9265,-82
1604400494.9289,-69
1604400494.9306,-67
1604400494.9326,-65
1604400494.9345,-62
1604400494.9366,-72
1604400494.9372,-84
1604400494.9386,-82
1604400494.9405,-74
1604400494.9425,-79
1604400494.9446,-82
1604400494.9465,-72
1604400494.9485,-62
1604400494.9505,-55
1604400494.9525,-43
1604400494.9545,-24
1604400494.9565,-12
1604400494.9585,-7
1604400494.9606,-4
1604400494.9625,-7
1604400494.9645,-16
1604400494.9665,-26
1604400494.9671,-36
1604400494.9685,-41
1604400494.9705,-38
1604400494.9725,-36
1604400494.9745,-38
1604400494.9765,-36
1604400494.9785,-33
1604400494.9805,-31
1604400494.9825,-28
1604400494.9845,-21
1604400494.9865,-12
1604400494.9885,-4
1604400494.9905,-4
1604400494.9925,-2
1604400494.9944,2
1604400494.9964,2
1604400494.9971,4
1604400494.9984,7
1604400495.0006,4
1604400495.0025,2
1604400495.0044,4
1604400495.0064,4
1604400495.0084,0
1604400495.0105,0
1604400495.0124,9
1604400495.0145,38
1604400495.0164,77
1604400495.0184,77
1604400495.0204,41
1604400495.0224,28
1604400495.0245,24
1604400495.0264,-14
1604400495.0271,-38
1604400495.0284,-26
1604400495.0305,-21
1604400495.0324,-24
1604400495.0344,-16
1604400495.0364,-16
1604400495.0384,-14
1604400495.0405,-12
1604400495.0424,-79
1604400495.0445,-313
1604400495.0464,-477
1604400495.0484,45
1604400495.0504,1322
1604400495.0524,2174
1604400495.0544,1515
1604400495.0565,139
1604400495.0571,-499
1604400495.0584,-407
1604400495.4355,-308
1604400495.4362,-279
1604400495.4386,-193
1604400495.4412,-152
1604400495.4432,-166
1604400495.4452,-147
1604400495.4472,-118
1604400495.4493,-115
1604400495.4512,-108
1604400495.4532,-94
1604400495.4552,-94
1604400495.4559,-94
1604400495.4573,-94
1604400495.4593,-89
1604400495.4612,-79
1604400495.4632,-77
1604400495.4652,-79
1604400495.4672,-79
1604400495.4693,-79
1604400495.4713,-79
1604400495.4732,-74
1604400495.4752,-67
1604400495.4771,-60
1604400495.4792,-57
1604400495.4812,-48
1604400495.4832,-28
1604400495.4838,-14
1604400495.4851,-2
1604400495.4871,7
1604400495.4892,7
1604400495.4911,-4
1604400495.4931,-21
1604400495.4951,-26
1604400495.4971,-28
1604400495.4992,-38
1604400495.5011,-45
1604400495.5031,-43
1604400495.5051,-36
1604400495.5072,-33
1604400495.5093,-33
1604400495.5112,-33
1604400495.5131,-33
1604400495.5138,-28
1604400495.5151,-19
1604400495.5172,-14
1604400495.5192,-9
1604400495.5211,-2
1604400495.5231,-4
1604400495.5253,-9
1604400495.5272,-9
1604400495.5291,-7
1604400495.5311,-4
1604400495.5332,-7
1604400495.5352,-7
1604400495.5371,-7
1604400495.5392,-9
1604400495.5412,-4
1604400495.5432,9
1604400495.5438,43
1604400495.5452,79
1604400495.5471,72
1604400495.5492,38
1604400495.5511,24
1604400495.5531,12
1604400495.5551,-16
1604400495.5571,-28
1604400495.5593,-21
1604400495.5612,-16
1604400495.5631,-16
1604400495.5651,-14
1604400495.5673,-12
1604400495.5693,-9
1604400495.5711,-14
1604400496.0062,-123
1604400496.0070,-386
1604400496.0096,-439
1604400496.0121,304
1604400496.0141,1638
1604400496.0161,2205
1604400496.0181,1237
1604400496.0201,-101
1604400496.0221,-533
1604400496.0242,-386
1604400496.0261,-311
1604400496.0281,-275
1604400496.0301,-195
1604400496.0321,-176
1604400496.0340,-176
1604400496.0360,-147
1604400496.0367,-130
1604400496.0380,-127
1604400496.0401,-113
1604400496.0421,-98
1604400496.0440,-98
1604400496.0460,-96
1604400496.0480,-89
1604400496.0501,-84
1604400496.0520,-82
1604400496.0540,-82
1604400496.0560,-79
1604400496.0580,-77
1604400496.0600,-82
1604400496.0620,-82
1604400496.0641,-72
1604400496.0660,-69
1604400496.0666,-65
1604400496.0680,-55
1604400496.0701,-41
1604400496.0720,-28
1604400496.0741,-16
1604400496.0760,0
1604400496.0780,12
1604400496.0801,9
1604400496.0820,-7
1604400496.0840,-28
1604400496.0861,-33
1604400496.0880,-33
1604400496.0900,-41
1604400496.0920,-45
1604400496.0940,-43
1604400496.0960,-38
1604400496.0969,-36
1604400496.0981,-36
1604400496.1001,-28
1604400496.1020,-26
1604400496.1040,-24
1604400496.1060,-16
1604400496.1080,-9
1604400496.1101,-4
1604400496.1120,0
1604400496.1140,4
1604400496.1160,2
1604400496.1180,2
1604400496.1200,4
1604400496.1220,7
1604400496.1240,7
1604400496.1260,2
1604400496.1267,0
1604400496.1280,0
1604400496.1301,2
1604400496.1320,9
1604400496.1340,45
1604400496.1360,86
1604400496.1380,77
1604400496.1400,41
1604400496.1420,33
1604400496.6061,24
1604400496.6069,-7
1604400496.6083,-19
1604400496.6103,-9
1604400496.6110,-4
1604400496.6122,-12
1604400496.6142,-21
1604400496.6162,-26
1604400496.6182,-19
1604400496.6202,-21
1604400496.6222,-123
1604400496.6242,-366
1604400496.6262,-448
1604400496.6282,231
1604400496.6302,1549
1604400496.6322,2198
1604400496.6342,1312
1604400496.6362,-38
1604400496.6382,-526
1604400496.6402,-386
1604400496.6409,-299
1604400496.6422,-263
1604400496.6442,-183
1604400496.6462,-161
1604400496.6482,-166
1604400496.6502,-139
1604400496.6523,-118
1604400496.6542,-115
1604400496.6562,-110
1604400496.6582,-101
1604400496.6602,-94
1604400496.6622,-91
1604400496.6642,-86
1604400496.6662,-84
1604400496.6682,-82
1604400496.6702,-74
1604400496.6708,-69
1604400496.6722,-72
1604400496.6742,-69
1604400496.6762,-65
1604400496.6782,-60
1604400496.6802,-57
1604400496.6822,-50
1604400496.6842,-41
1604400496.6862,-28
1604400496.6881,-16
1604400496.6902,0
1604400496.6922,14
1604400496.6942,16
1604400496.6962,7
1604400496.6981,-2
1604400496.7002,-12
1604400496.7008,-16
1604400496.7022,-19
1604400496.7042,-21
1604400496.7062,-38
1604400496.7082,-45
1604400496.7102,-41
1604400496.7122,-43
1604400496.7142,-43
1604400496.7162,-33
1604400496.7182,-28
1604400496.7202,-21
1604400496.7222,-12
1604400496.7242,-7
1604400496.7262,-2
1604400496.7282,0
1604400496.7302,-2
1604400496.7308,-2
1604400496.7332,-2
1604400496.7352,2
1604400496.7372,12
1604400496.7392,12
1604400497.1455,9
1604400497.1462,14
1604400497.1486,4
1604400497.1512,-4
1604400497.1534,2
1604400497.1552,19
1604400497.1574,50
1604400497.1593,96
1604400497.1612,106
1604400497.1633,79
1604400497.1639,67
1604400497.1652,48
1604400497.1672,-2
1604400497.1693,-24
1604400497.1712,-19
1604400497.1732,-19
1604400497.1752,-9
1604400497.1772,2
1604400497.1792,7
1604400497.1812,9
1604400497.1832,12
1604400497.1852,-41
1604400497.1872,-267
1604400497.1892,-470
1604400497.1912,-33
1604400497.1932,1240
1604400497.1939,2265
1604400497.1952,1768
1604400497.1972,325
1604400497.1992,-468
1604400497.2012,-412
1604400497.2031,-294
1604400497.2052,-279
1604400497.2072,-197
1604400497.2093,-147
1604400497.2112,-164
1604400497.2132,-152
1604400497.2152,-120
1604400497.2173,-118
1604400497.2193,-118
1604400497.2212,-103
1604400497.2233,-96
1604400497.2238,-89
1604400497.2252,-79
1604400497.2272,-77
1604400497.2293,-74
1604400497.2312,-69
1604400497.2332,-69
1604400497.2352,-72
1604400497.2358,-67
1604400497.2372,-67
1604400497.2392,-69
1604400497.2412,-62
1604400497.2432,-53
1604400497.2452,-48
1604400497.2473,-45
1604400497.2492,-28
1604400497.2498,-12
1604400497.2511,2
1604400497.2532,14
1604400497.2552,14
1604400497.2572,4
1604400497.2592,-9
1604400497.2612,-19
1604400497.2632,-26
1604400497.2653,-31
1604400497.2672,-36
1604400497.2692,-36
1604400497.2712,-36
1604400497.2732,-33
1604400497.2752,-28
1604400497.2772,-26
1604400497.2792,-28
1604400497.7158,-28
1604400497.7170,-24
1604400497.7194,-19
1604400497.7210,-14
1604400497.7230,-9
1604400497.7250,-7
1604400497.7270,-12
1604400497.7291,-14
1604400497.7310,-14
1604400497.7330,-19
1604400497.7350,-21
1604400497.7370,-16
1604400497.7391,-16
1604400497.7412,-28
1604400497.7419,-33
1604400497.7431,-24
1604400497.7450,-19
1604400497.7470,-9
1604400497.7490,16
1604400497.7509,45
1604400497.7529,41
1604400497.7549,16
1604400497.7569,4
1604400497.7590,0
1604400497.7610,-31
1604400497.7629,-55
1604400497.7650,-43
1604400497.7669,-36
1604400497.7690,-38
1604400497.7709,-31
1604400497.7715,-28
1604400497.7730,-28
1604400497.7749,-21
1604400497.7772,-48
1604400497.7790,-226
1604400497.7809,-487
1604400497.7829,-284
1604400497.7849,817
1604400497.7870,2096
1604400497.7890,2089
1604400497.7909,731
1604400497.7929,-381
1604400497.7949,-494
1604400497.7970,-335
1604400497.7990,-316
1604400497.8010,-255
1604400497.8015,-180
1604400497.8030,-178
1604400497.8050,-173
1604400497.8070,-144
1604400497.8090,-132
1604400497.8109,-125
1604400497.8129,-110
1604400497.8149,-103
1604400497.8170,-103
1604400497.8190,-91
1604400497.8209,-77
1604400497.8229,-69
1604400497.8249,-62
1604400497.8269,-62
1604400497.8290,-65
1604400497.8309,-57
1604400497.8315,-55
1604400497.8329,-72
1604400497.8349,-67
1604400497.8369,-48
1604400497.8389,-41
1604400497.8409,-36
1604400497.8429,-19
1604400497.8449,-7
1604400497.8469,9
1604400497.8490,28
1604400497.8509,31
1604400498.2556,12
1604400498.2564,-16
1604400498.2569,-21
1604400498.2582,-16
1604400498.2602,-19
1604400498.2621,-24
1604400498.2641,-24
1604400498.2662,-16
1604400498.2681,-14
1604400498.2701,-24
1604400498.2721,-26
1604400498.2744,-14
1604400498.2761,-12
1604400498.2781,-19
1604400498.2801,-7
1604400498.2821,14
1604400498.2841,19
1604400498.2861,16
1604400498.2867,26
1604400498.2881,36
1604400498.2901,26
1604400498.2921,16
1604400498.2940,24
1604400498.2960,26
1604400498.2980,16
1604400498.3001,16
1604400498.3020,26
1604400498.3040,24
1604400498.3061,-2
1604400498.3080,-21
1604400498.3101,-19
1604400498.3121,0
1604400498.3141,36
1604400498.3161,69
1604400498.3166,55
1604400498.3181,24
1604400498.3201,21
1604400498.3221,9
1604400498.3241,-31
1604400498.3260,-48
1604400498.3281,-43
1604400498.3300,-43
1604400498.3321,-38
1604400498.3340,-28
1604400498.3360,-26
1604400498.3380,-16
1604400498.3401,-14
1604400498.3421,-110
1604400498.3440,-376
1604400498.3460,-470
1604400498.3466,190
1604400498.3480,1517
1604400498.3501,2265
1604400498.3520,1430
1604400498.3540,2
1604400498.3560,-516
1604400498.3581,-366
1604400498.3600,-330
1604400498.3620,-325
1604400498.3641,-214
1604400498.3661,-180
1604400498.3680,-205
1604400498.3702,-168
1604400498.3721,-132
1604400498.3741,-139
1604400498.3760,-147
1604400498.3766,-127
1604400498.3781,-103
1604400498.3800,-91
1604400498.3820,-84
1604400498.3841,-65
1604400498.3860,-65
1604400498.3880,-77
1604400498.7957,-65
1604400498.7966,-50
1604400498.7991,-50
1604400498.8017,-33
1604400498.8047,-4
1604400498.8066,7
1604400498.8088,12
1604400498.8106,14
1604400498.8112,24
1604400498.8126,38
1604400498.8146,41
1604400498.8166,26
1604400498.8186,21
1604400498.8206,12
1604400498.8226,-12
1604400498.8246,-33
1604400498.8266,-45
1604400498.8286,-62
1604400498.8306,-74
1604400498.8326,-74
1604400498.8346,-79
1604400498.8366,-84
1604400498.8386,-67
1604400498.8406,-50
1604400498.8412,-53
1604400498.8426,-45
1604400498.8446,-24
1604400498.8466,-19
1604400498.8486,-26
1604400498.8505,-16
1604400498.8526,-7
1604400498.8545,-2
1604400498.8565,-2
1604400498.8586,-2
1604400498.8606,0
1604400498.8625,0
1604400498.8645,0
1604400498.8665,2
1604400498.8686,9
1604400498.8706,2
1604400498.8713,-9
1604400498.8726,2
1604400498.8746,24
1604400498.8765,41
1604400498.8787,62
1604400498.8806,55
1604400498.8825,28
1604400498.8845,16
1604400498.8865,2
1604400498.8885,-19
1604400498.8905,-19
1604400498.8926,-16
1604400498.8945,-24
1604400498.8966,-21
1604400498.8985,-16
1604400498.9006,-14
1604400498.9012,-7
1604400498.9025,-12
1604400498.9046,-98
1604400498.9065,-328
1604400498.9086,-427
1604400498.9105,139
1604400498.9125,1302
1604400498.9145,1903
1604400498.9166,1117
1604400498.9185,-48
1604400498.9205,-415
1604400498.9225,-340
1604400498.9245,-359
1604400498.9266,-294
1604400498.9285,-156
1604400498.9305,-120
1604400498.9312,-115
1604400499.3657,-86
1604400499.3666,-77
1604400499.3690,-74
1604400499.3717,-62
1604400499.3736,-62
1604400499.3756,-60
1604400499.3777,-33
1604400499.3796,-14
1604400499.3816,-14
1604400499.3836,-19
1604400499.3856,-14
1604400499.3876,0
1604400499.3896,12
1604400499.3902,14
1604400499.3917,14
1604400499.3936,38
1604400499.3956,65
1604400499.3976,67
1604400499.3998,67
1604400499.4016,84
1604400499.4037,86
1604400499.4056,67
1604400499.4075,50
1604400499.4096,36
1604400499.4115,2
1604400499.4135,-26
1604400499.4155,-31
1604400499.4175,-43
1604400499.4196,-65
1604400499.4201,-72
1604400499.4216,-69
1604400499.4235,-77
1604400499.4255,-79
1604400499.4275,-65
1604400499.4295,-55
1604400499.4315,-62
1604400499.4335,-60
1604400499.4355,-38
1604400499.4375,-24
1604400499.4396,-28
1604400499.4415,-26
1604400499.4435,-14
1604400499.4455,-14
1604400499.4475,-19
1604400499.4496,-16
1604400499.4501,-16
1604400499.4515,-19
1604400499.4535,-21
1604400499.4555,-24
1604400499.4575,-28
1604400499.4597,-26
1604400499.4615,-24
1604400499.4635,-31
1604400499.4655,-28
1604400499.4675,0
1604400499.4696,43
1604400499.4715,50
1604400499.4735,12
1604400499.4755,-19
1604400499.4775,-16
1604400499.4781,-36
1604400499.4796,-67
1604400499.4815,-60
1604400499.4835,-50
1604400499.4855,-55
1604400499.4875,-53
1604400499.4896,-45
1604400499.4915,-45
1604400499.4935,-50
1604400499.4956,-74
1604400499.4976,-212
1604400499.4996,-443
1604400499.5015,-325
1604400499.9657,600
1604400499.9666,1759
1604400499.9683,1819
1604400499.9707,673
1604400499.9727,-349
1604400499.9748,-564
1604400499.9767,-446
1604400499.9787,-366
1604400499.9807,-291
1604400499.9827,-231
1604400499.9847,-224
1604400499.9867,-229
1604400499.9887,-205
1604400499.9907,-183
1604400499.9927,-183
1604400499.9946,-185
1604400499.9966,-173
1604400499.9986,-161
1604400499.9992,-159
1604400500.0007,-161
1604400500.0027,-156
1604400500.0046,-156
1604400500.0066,-159
1604400500.0086,-154
1604400500.0107,-147
1604400500.0126,-149
1604400500.0146,-144
1604400500.0166,-132
1604400500.0186,-115
1604400500.0206,-101
1604400500.0226,-86
1604400500.0246,-65
1604400500.0267,-41
1604400500.0286,-26
1604400500.0292,-19
1604400500.0306,-12
1604400500.0326,-12
1604400500.0346,-21
1604400500.0366,-26
1604400500.0387,-28
1604400500.0407,-33
1604400500.0426,-33
1604400500.0446,-33
1604400500.0466,-33
1604400500.0486,-41
1604400500.0507,-45
1604400500.0526,-43
1604400500.0548,-38
1604400500.0566,-41
1604400500.0586,-43
1604400500.0592,-45
1604400500.0607,-43
1604400500.0626,-28
1604400500.0646,-14
1604400500.0666,-19
1604400500.0686,-14
1604400500.0706,12
1604400500.0726,14
1604400500.0746,-4
1604400500.0766,-9
1604400500.0786,-4
1604400500.0806,-4
1604400500.0826,-4
1604400500.0846,-7
1604400500.0866,-4
1604400500.0886,7
1604400500.0892,38
1604400500.0907,72
1604400500.0926,57
1604400500.0946,14
1604400500.0966,14
1604400500.0986,14
1604400500.1006,-19
1604400500.5061,-33
1604400500.5069,-26
1604400500.5093,-26
1604400500.5119,-31
1604400500.5139,-26
1604400500.5159,-19
1604400500.5180,-16
1604400500.5184,-24
1604400500.5199,-79
1604400500.5219,-267
1604400500.5239,-458
1604400500.5259,-86
1604400500.5279,1064
1604400500.5299,1990
1604400500.5319,1556
1604400500.5339,291
1604400500.5359,-456
1604400500.5379,-472
1604400500.5399,-342
1604400500.5419,-282
1604400500.5438,-209
1604400500.5459,-166
1604400500.5478,-168
1604400500.5485,-152
1604400500.5498,-127
1604400500.5520,-130
1604400500.5539,-127
1604400500.5559,-108
1604400500.5578,-98
1604400500.5599,-101
1604400500.5618,-94
1604400500.5638,-84
1604400500.5658,-82
1604400500.5679,-84
1604400500.5698,-79
1604400500.5718,-77
1604400500.5738,-77
1604400500.5758,-74
1604400500.5778,-69
1604400500.5784,-60
1604400500.5799,-48
1604400500.5819,-33
1604400500.5839,-14
1604400500.5858,0
1604400500.5878,9
1604400500.5898,21
1604400500.5918,26
1604400500.5938,16
1604400500.5958,2
1604400500.5978,-12
1604400500.5999,-19
1604400500.6019,-21
1604400500.6038,-24
1604400500.6059,-28
1604400500.6079,-31
1604400500.6085,-36
1604400500.6099,-43
1604400500.6119,-48
1604400500.6138,-43
1604400500.6158,-41
1604400500.6179,-38
1604400500.6199,-36
1604400500.6218,-33
1604400500.6238,-28
1604400500.6259,-19
1604400500.6278,-12
1604400500.6299,-7
1604400500.6319,-4
1604400500.6338,0
1604400500.6359,4
1604400500.6378,4
1604400500.6384,2
1604400500.6399,2
1604400501.0760,4
1604400501.0769,0
1604400501.0794,-2
1604400501.0821,2
1604400501.0839,4
1604400501.0859,2
1604400501.0879,7
1604400501.0899,26
1604400501.0918,60
1604400501.0938,69
1604400501.0958,36
1604400501.0978,14
1604400501.0998,16
1604400501.1019,-4
1604400501.1025,-28
1604400501.1039,-26
1604400501.1059,-24
1604400501.1078,-26
1604400501.1099,-21
1604400501.1118,-21
1604400501.1138,-21
1604400501.1158,-16
1604400501.1179,-26
1604400501.1199,-132
1604400501.1218,-371
1604400501.1238,-400
1604400501.1258,332
1604400501.1278,1565
1604400501.1299,1993
1604400501.1318,1044
1604400501.1324,-130
1604400501.1338,-509
1604400501.1358,-400
1604400501.1379,-308
1604400501.1399,-243
1604400501.1418,-168
1604400501.1438,-149
1604400501.1458,-152
1604400501.1478,-127
1604400501.1498,-108
1604400501.1518,-108
1604400501.1538,-103
1604400501.1558,-96
1604400501.1578,-94
1604400501.1598,-84
1604400501.1618,-74
1604400501.1624,-72
1604400501.1638,-74
1604400501.1658,-69
1604400501.1678,-72
1604400501.1698,-74
1604400501.1718,-69
1604400501.1738,-65
1604400501.1758,-55
1604400501.1780,-41
1604400501.1798,-31
1604400501.1818,-19
1604400501.1838,-4
1604400501.1858,7
1604400501.1878,24
1604400501.1898,38
1604400501.1918,31
1604400501.1924,16
1604400501.1938,7
1604400501.1958,2
1604400501.1978,-4
1604400501.1998,-12
1604400501.2018,-19
1604400501.2038,-21
1604400501.2058,-24
1604400501.2078,-26
1604400501.2098,-28
1604400501.2118,-28
1604400501.6156,-26
1604400501.6164,-26
1604400501.6180,-24
1604400501.6205,-16
1604400501.6225,-9
1604400501.6244,-7
1604400501.6265,-4
1604400501.6285,-2
1604400501.6304,-2
1604400501.6326,-9
1604400501.6344,-7
1604400501.6364,-4
1604400501.6384,-7
1604400501.6404,-7
1604400501.6424,0
1604400501.6444,2
1604400501.6464,-2
1604400501.6484,-7
1604400501.6490,-4
1604400501.6504,0
1604400501.6524,-4
1604400501.6544,-4
1604400501.6564,-2
1604400501.6584,0
1604400501.6604,-2
1604400501.6624,-2
1604400501.6644,7
1604400501.6664,36
1604400501.6684,77
1604400501.6704,72
1604400501.6724,36
1604400501.6744,24
1604400501.6766,21
1604400501.6784,-14
1604400501.6790,-48
1604400501.6803,-45
1604400501.6823,-41
1604400501.6843,-38
1604400501.6863,-31
1604400501.6884,-33
1604400501.6904,-36
1604400501.6924,-31
1604400501.6944,-36
1604400501.6963,-152
1604400501.6984,-395
1604400501.7004,-390
1604400501.7023,405
1604400501.7043,1662
1604400501.7063,2041
1604400501.7084,1023
1604400501.7090,-168
1604400501.7104,-518
1604400501.7124,-395
1604400501.7143,-311
1604400501.7163,-248
1604400501.7183,-173
1604400501.7204,-159
1604400501.7223,-154
1604400501.7244,-125
1604400501.7263,-115
1604400501.7283,-113
1604400501.7304,-96
1604400501.7324,-86
1604400501.7343,-89
1604400501.7364,-79
1604400501.7383,-72
1604400501.7390,-69
1604400501.7403,-67
1604400501.7424,-67
1604400501.7443,-65
1604400501.7463,-65
1604400501.7484,-69
1604400501.7503,-65
1604400502.1872,-55
1604400502.1880,-45
1604400502.1894,-36
1604400502.1914,-21
1604400502.1933,-4
1604400502.1955,7
1604400502.1973,9
1604400502.1980,14
1604400502.1993,21
1604400502.2014,16
1604400502.2035,4
1604400502.2054,-4
1604400502.2074,-9
1604400502.2095,-19
1604400502.2114,-24
1604400502.2133,-24
1604400502.2153,-28
1604400502.2173,-36
1604400502.2194,-31
1604400502.2214,-24
1604400502.2233,-26
1604400502.2253,-28
1604400502.2273,-24
1604400502.2279,-19
1604400502.2293,-19
1604400502.2313,-19
1604400502.2332,-16
1604400502.2352,-12
1604400502.2372,-4
1604400502.2393,0
1604400502.2412,0
1604400502.2433,2
1604400502.2452,4
1604400502.2473,7
1604400502.2493,7
1604400502.2513,7
1604400502.2532,7
1604400502.2552,7
1604400502.2573,7
1604400502.2578,9
1604400502.2593,7
1604400502.2613,7
1604400502.2633,12
1604400502.2652,9
1604400502.2672,7
1604400502.2693,4
1604400502.2713,2
1604400502.2732,2
1604400502.2752,2
1604400502.2772,2
1604400502.2793,0
1604400502.2813,0
1604400502.2832,0
1604400502.2852,2
1604400502.2872,0
1604400502.2878,0
1604400502.2893,26
1604400502.2913,72
1604400502.2932,89
1604400502.2953,57
1604400502.2972,36
1604400502.2994,36
1604400502.3014,9
1604400502.3032,-24
1604400502.3052,-24
1604400502.3073,-14
1604400502.3093,-14
1604400502.3112,-12
1604400502.3132,-9
1604400502.3152,-7
1604400502.3172,-2
1604400502.3178,-2
1604400502.3193,-89
1604400502.7257,-352
1604400502.7266,-499
1604400502.7290,96
1604400502.7306,1474
1604400502.7326,2417
1604400502.7347,1746
1604400502.7367,236
1604400502.7386,-501
1604400502.7406,-429
1604400502.7426,-347
1604400502.7446,-328
1604400502.7466,-229
1604400502.7486,-178
1604400502.7506,-188
1604400502.7512,-166
1604400502.7526,-139
1604400502.7546,-135
1604400502.7566,-125
1604400502.7586,-115
1604400502.7606,-113
1604400502.7625,-103
1604400502.7646,-96
1604400502.7666,-91
1604400502.7685,-86
1604400502.7705,-77
1604400502.7725,-72
1604400502.7746,-65
1604400502.7765,-60
1604400502.7785,-55
1604400502.7806,-43
1604400502.7811,-28
1604400502.7825,-12
1604400502.7845,9
1604400502.7866,26
1604400502.7885,28
1604400502.7905,36
1604400502.7925,50
1604400502.7945,48
1604400502.7966,31
1604400502.7987,14
1604400502.8006,-4
1604400502.8025,-16
1604400502.8045,-24
1604400502.8065,-33
1604400502.8085,-36
1604400502.8106,-38
1604400502.8112,-43
1604400502.8125,-45
1604400502.8146,-43
1604400502.8166,-38
1604400502.8185,-36
1604400502.8205,-33
1604400502.8226,-31
1604400502.8245,-31
1604400502.8266,-28
1604400502.8285,-21
1604400502.8305,-16
1604400502.8325,-16
1604400502.8345,-14
1604400502.8365,-9
1604400502.8386,-2
1604400502.8405,0
1604400502.8411,-4
1604400502.8426,-4
1604400502.8445,2
1604400502.8466,0
1604400502.8485,-2
1604400502.8505,-2
1604400502.8525,-2
1604400502.8545,-7
1604400502.8565,-4
1604400502.8586,4
1604400502.8605,0
1604400503.3256,-2
1604400503.3264,2
1604400503.3281,2
1604400503.3305,0
1604400503.3324,-4
1604400503.3344,-12
1604400503.3365,-9
1604400503.3385,-2
1604400503.3404,-4
1604400503.3424,-7
1604400503.3444,-7
1604400503.3464,-7
1604400503.3484,-12
1604400503.3504,-7
1604400503.3524,-4
1604400503.3544,-9
1604400503.3564,-9
1604400503.3586,-7
1604400503.3590,-4
1604400503.3604,-4
1604400503.3624,-7
1604400503.3643,0
1604400503.3663,38
1604400503.3683,79
1604400503.3703,79
1604400503.3724,48
1604400503.3743,41
1604400503.3765,36
1604400503.3783,2
1604400503.3804,-24
1604400503.3823,-12
1604400503.3843,-2
1604400503.3863,-7
1604400503.3869,-4
1604400503.3883,-2
1604400503.3904,2
1604400503.3923,4
1604400503.3943,-31
1604400503.3963,-231
1604400503.3984,-516
1604400503.4004,-313
1604400503.4023,849
1604400503.4043,2280
1604400503.4063,2417
1604400503.4083,996
1604400503.4103,-291
1604400503.4123,-484
1604400503.4143,-354
1604400503.4164,-369
1604400503.4169,-296
1604400503.4183,-197
1604400503.4204,-200
1604400503.4223,-195
1604400503.4244,-152
1604400503.4263,-139
1604400503.4283,-135
1604400503.4304,-115
1604400503.4323,-106
1604400503.4343,-103
1604400503.4363,-94
1604400503.4383,-79
1604400503.4404,-69
1604400503.4423,-67
1604400503.4443,-65
1604400503.4464,-57
1604400503.4469,-48
1604400503.4483,-43
1604400503.4503,-41
1604400503.4525,-28
1604400503.4544,-7
1604400503.4563,4
1604400503.4584,16
1604400503.4604,33
1604400503.8957,50
1604400503.8965,57
1604400503.8986,55
1604400503.9006,43
1604400503.9026,16
1604400503.9046,-12
1604400503.9066,-26
1604400503.9072,-38
1604400503.9086,-50
1604400503.9105,-65
1604400503.9125,-77
1604400503.9145,-74
1604400503.9165,-74
1604400503.9185,-79
1604400503.9206,-77
1604400503.9225,-69
1604400503.9245,-67
1604400503.9265,-62
1604400503.9285,-55
1604400503.9305,-50
1604400503.9325,-50
1604400503.9345,-45
1604400503.9365,-31
1604400503.9371,-19
1604400503.9385,-16
1604400503.9405,-12
1604400503.9425,-7
1604400503.9445,-4
1604400503.9465,-2
1604400503.9485,0
1604400503.9505,0
1604400503.9525,0
1604400503.9545,-2
1604400503.9565,0
1604400503.9585,4
1604400503.9605,-2
1604400503.9625,-7
1604400503.9645,-7
1604400503.9665,-4
1604400503.9671,0
1604400503.9685,2
1604400503.9705,0
1604400503.9725,-2
1604400503.9745,-2
1604400503.9765,-4
1604400503.9785,-4
1604400503.9807,-2
1604400503.9825,4
1604400503.9845,7
1604400503.9865,7
1604400503.9885,7
1604400503.9905,7
1604400503.9925,16
1604400503.9945,21
1604400503.9965,14
1604400503.9971,12
1604400503.9985,12
1604400504.0005,7
1604400504.0025,2
1604400504.0045,0
1604400504.0065,-4
1604400504.0085,-2
1604400504.0105,14
1604400504.0125,62
1604400504.0145,96
1604400504.0165,72
1604400504.0185,43
1604400504.0205,43
1604400504.0225,19
1604400504.0245,-24
1604400504.0265,-33
1604400504.0271,-24
1604400504.0285,-24
1604400504.4354,-21
1604400504.4361,-14
1604400504.4385,-12
1604400504.4401,-7
1604400504.4422,-7
1604400504.4442,-118
1604400504.4461,-419
1604400504.4482,-550
1604400504.4502,173
1604400504.4521,1710
1604400504.4541,2721
1604400504.4561,1959
1604400504.4568,289
1604400504.4582,-518
1604400504.4601,-439
1604400504.4621,-378
1604400504.4641,-383
1604400504.4661,-277
1604400504.4682,-229
1604400504.4701,-243
1604400504.4721,-207
1604400504.4741,-168
1604400504.4761,-164
1604400504.4782,-149
1604400504.4804,-132
1604400504.4822,-127
1604400504.4841,-123
1604400504.4861,-108
1604400504.4867,-106
1604400504.4881,-98
1604400504.4901,-89
1604400504.4921,-86
1604400504.4941,-84
1604400504.4961,-77
1604400504.4981,-67
1604400504.5001,-50
1604400504.5021,-33
1604400504.5041,-16
1604400504.5061,7
1604400504.5081,31
1604400504.5101,50
1604400504.5121,60
1604400504.5141,67
1604400504.5161,65
1604400504.5167,50
1604400504.5181,28
1604400504.5201,-2
1604400504.5221,-24
1604400504.5241,-26
1604400504.5261,-36
1604400504.5281,-48
1604400504.5301,-45
1604400504.5321,-45
1604400504.5341,-55
1604400504.5361,-60
1604400504.5381,-53
1604400504.5401,-48
1604400504.5421,-53
1604400504.5441,-53
1604400504.5461,-45
1604400504.5467,-41
1604400504.5481,-43
1604400504.5501,-41
1604400504.5521,-31
1604400504.5541,-16
1604400504.5561,-9
1604400504.5581,-9
1604400504.5601,-7
1604400504.5621,0
1604400504.5641,0
1604400504.5661,0
1604400504.5681,2
1604400504.5701,0
1604400504.9760,-7
1604400504.9768,-4
1604400504.9787,4
1604400504.9808,4
1604400504.9828,0
1604400504.9848,0
1604400504.9868,0
1604400504.9888,-4
1604400504.9908,-16
1604400504.9928,-16
1604400504.9949,-9
1604400504.9968,-9
1604400504.9989,-14
1604400505.0009,-9
1604400505.0028,-2
1604400505.0048,-4
1604400505.0068,-7
1604400505.0089,-7
1604400505.0094,-7
1604400505.0107,-9
1604400505.0127,-9
1604400505.0147,-12
1604400505.0168,-12
1604400505.0188,-14
1604400505.0208,-12
1604400505.0228,-14
1604400505.0248,-19
1604400505.0268,-16
1604400505.0289,0
1604400505.0308,43
1604400505.0327,82
1604400505.0348,60
1604400505.0367,33
1604400505.0388,41
1604400505.0393,26
1604400505.0407,-21
1604400505.0427,-38
1604400505.0447,-24
1604400505.0467,-16
1604400505.0488,-16
1604400505.0507,-14
1604400505.0527,-9
1604400505.0547,-4
1604400505.0568,-14
1604400505.0588,-142
1604400505.0607,-451
1604400505.0627,-557
1604400505.0647,217
1604400505.0667,1809
1604400505.0688,2820
1604400505.0693,2000
1604400505.0708,296
1604400505.0728,-492
1604400505.0749,-410
1604400505.0769,-386
1604400505.0788,-405
1604400505.0808,-287
1604400505.0828,-236
1604400505.0847,-263
1604400505.0868,-226
1604400505.0888,-180
1604400505.0907,-178
1604400505.0928,-168
1604400505.0947,-149
1604400505.0967,-137
1604400505.0988,-130
1604400505.0993,-123
1604400505.1007,-108
1604400505.1027,-96
1604400505.1047,-91
1604400505.1067,-89
1604400505.1088,-82
1604400505.1108,-79
1604400505.5458,-67
1604400505.5464,-48
1604400505.5488,-28
1604400505.5504,-4
1604400505.5524,16
1604400505.5544,28
1604400505.5565,43
1604400505.5571,67
1604400505.5584,74
1604400505.5604,57
1604400505.5625,38
1604400505.5644,14
1604400505.5664,-19
1604400505.5684,-36
1604400505.5704,-38
1604400505.5724,-48
1604400505.5744,-55
1604400505.5764,-62
1604400505.5784,-65
1604400505.5804,-67
1604400505.5824,-69
1604400505.5844,-67
1604400505.5864,-69
1604400505.5871,-67
1604400505.5884,-60
1604400505.5904,-55
1604400505.5924,-50
1604400505.5944,-38
1604400505.5964,-33
1604400505.5984,-31
1604400505.6004,-24
1604400505.6025,-14
1604400505.6044,-14
1604400505.6064,-7
1604400505.6084,-2
1604400505.6104,-2
1604400505.6124,-7
1604400505.6144,-4
1604400505.6164,0
1604400505.6170,4
1604400505.6184,-2
1604400505.6205,-7
1604400505.6224,-7
1604400505.6244,-9
1604400505.6264,-9
1604400505.6284,-7
1604400505.6304,-12
1604400505.6324,-21
1604400505.6344,-24
1604400505.6364,-19
1604400505.6384,-14
1604400505.6404,-12
