Time,ECG
1606836170.6078,-496
1606836170.6104,-29
1606836170.6128,1626
1606836170.6151,3861
1606836170.6172,5157
1606836170.6193,5852
1606836170.6218,6725
1606836170.6233,7412
1606836170.6253,7820
1606836170.6273,8243
1606836170.6293,8617
1606836170.6316,8869
1606836170.6340,9109
1606836170.6366,9334
1606836170.6386,9481
1606836170.6407,9588
1606836170.6425,9708
1606836170.6443,9813
1606836170.6463,9882
1606836170.6483,9935
1606836170.6503,9989
1606836170.6523,10004
1606836170.6543,9965
1606836170.6563,9899
1606836170.6583,9855
1606836170.6603,9838
1606836170.6622,9808
1606836170.6642,9755
1606836170.6662,9696
1606836170.6682,9652
1606836170.6702,9610
1606836170.6722,9554
1606836170.6742,9500
1606836170.6762,9441
1606836170.6782,9378
1606836170.6802,9329
1606836170.6822,9268
1606836170.6843,9185
1606836170.6863,9111
1606836170.6882,9053
1606836170.6902,8989
1606836170.6922,8901
1606836170.6942,8823
1606836170.6963,8771
1606836170.6982,8701
1606836170.7002,8595
1606836170.7023,8515
1606836170.7043,8454
1606836170.7062,8383
1606836170.7082,8299
1606836170.7143,8216
1606836170.7149,8136
1606836170.7162,8055
1606836170.7182,7982
1606836170.7202,7898
1606836170.7222,7813
1606836170.7242,7732
1606836170.7262,7637
1606836170.7282,7539
1606836170.7302,7463
1606836170.7322,7402
1606836170.7342,7341
1606836170.7362,7289
1606836170.7382,7223
1606836170.7402,7128
1606836170.7422,7035
1606836170.7442,6952
1606836170.7462,6871
1606836170.7482,6800
1606836170.7502,6727
1606836170.7522,6644
1606836170.7542,6605
1606836170.7562,6641
1606836171.1423,6734
1606836171.1432,6835
1606836171.1457,6908
1606836171.1485,7020
1606836171.1503,7311
1606836171.1523,7639
1606836171.1544,7348
1606836171.1563,6297
1606836171.1583,5561
1606836171.1603,5568
1606836171.1623,5553
1606836171.1643,5355
1606836171.1663,5318
1606836171.1683,5326
1606836171.1703,5235
1606836171.1722,5162
1606836171.1742,5142
1606836171.1763,5103
1606836171.1782,5047
1606836171.1802,4986
1606836171.1822,4922
1606836171.1843,4876
1606836171.1863,4837
1606836171.1882,4778
1606836171.1902,4727
1606836171.1922,4690
1606836171.1942,4641
1606836171.1962,4602
1606836171.1985,4570
1606836171.2003,4516
1606836171.2022,4470
1606836171.2042,4443
1606836171.2063,4404
1606836171.2082,4362
1606836171.2102,4313
1606836171.2123,4242
1606836171.2142,4167
1606836171.2162,4098
1606836171.2182,4027
1606836171.2202,3959
1606836171.2222,3902
1606836171.2242,3861
1606836171.2263,3810
1606836171.2282,3761
1606836171.2302,3724
1606836171.2322,3685
1606836171.2342,3638
1606836171.2362,3587
1606836171.2382,3553
1606836171.2402,3526
1606836171.2422,3484
1606836171.2442,3440
1606836171.2462,3404
1606836171.2482,3360
1606836171.2502,3323
1606836171.2522,3284
1606836171.2542,3240
1606836171.2562,3208
1606836171.2582,3179
1606836171.2602,3135
1606836171.2623,3091
1606836171.2642,3054
1606836171.2662,3017
1606836171.2682,2983
1606836171.2702,2951
1606836171.2723,2919
1606836171.2742,2890
1606836171.2762,2853
1606836171.2782,2819
1606836171.2802,2782
1606836171.2822,2736
1606836171.2842,2702
1606836171.2863,2685
1606836171.7420,2658
1606836171.7429,2611
1606836171.7454,2570
1606836171.7480,2540
1606836171.7500,2513
1606836171.7521,2494
1606836171.7543,2482
1606836171.7561,2460
1606836171.7580,2435
1606836171.7600,2403
1606836171.7620,2359
1606836171.7640,2320
1606836171.7660,2281
1606836171.7680,2244
1606836171.7700,2227
1606836171.7720,2215
1606836171.7740,2213
1606836171.7760,2266
1606836171.7780,2386
1606836171.7800,2533
1606836171.7820,2660
1606836171.7839,2787
1606836171.7860,3034
1606836171.7879,3406
1606836171.7900,3384
1606836171.7920,2562
1606836171.7939,1746
1606836171.7959,1680
1606836171.7979,1755
1606836171.7999,1599
1606836171.8019,1567
1606836171.8039,1618
1606836171.8059,1584
1606836171.8079,1557
1606836171.8099,1569
1606836171.8120,1562
1606836171.8139,1550
1606836171.8159,1538
1606836171.8179,1525
1606836171.8199,1513
1606836171.8220,1506
1606836171.8239,1508
1606836171.8259,1494
1606836171.8279,1462
1606836171.8299,1452
1606836171.8320,1462
1606836171.8339,1459
1606836171.8359,1457
1606836171.8379,1452
1606836171.8408,1447
1606836171.8419,1447
1606836171.8439,1442
1606836171.8459,1423
1606836171.8479,1396
1606836171.8500,1357
1606836171.8520,1308
1606836171.8539,1274
1606836171.8561,1249
1606836171.8580,1225
1606836171.8599,1205
1606836171.8619,1186
1606836171.8639,1183
1606836171.8660,1176
1606836171.8679,1142
1606836171.8699,1127
1606836171.8720,1142
1606836171.8739,1139
1606836171.8759,1117
1606836171.8779,1102
1606836171.8799,1088
1606836171.8820,1078
1606836171.8840,1071
1606836171.8860,1061
1606836172.2530,1051
1606836172.2539,1039
1606836172.2564,1031
1606836172.2590,1029
1606836172.2611,1009
1606836172.2630,980
1606836172.2651,968
1606836172.2670,968
1606836172.2690,961
1606836172.2710,946
1606836172.2729,936
1606836172.2749,921
1606836172.2769,909
1606836172.2789,897
1606836172.2810,882
1606836172.2829,873
1606836172.2849,868
1606836172.2869,853
1606836172.2889,833
1606836172.2910,826
1606836172.2929,819
1606836172.2949,807
1606836172.2969,804
1606836172.2989,802
1606836172.3010,792
1606836172.3029,782
1606836172.3049,782
1606836172.3069,780
1606836172.3089,753
1606836172.3109,716
1606836172.3129,716
1606836172.3149,736
1606836172.3169,718
1606836172.3189,704
1606836172.3210,721
1606836172.3231,728
1606836172.3250,714
1606836172.3269,704
1606836172.3289,694
1606836172.3310,677
1606836172.3330,645
1606836172.3349,621
1606836172.3369,633
1606836172.3389,665
1606836172.3410,704
1606836172.3430,794
1606836172.3449,958
1606836172.3469,1117
1606836172.3489,1242
1606836172.3509,1472
1606836172.3529,1875
1606836172.3549,1995
1606836172.3569,1332
1606836172.3589,491
1606836172.3610,313
1606836172.3629,396
1606836172.3650,283
1606836172.3669,256
1606836172.3689,330
1606836172.3710,320
1606836172.3729,298
1606836172.3749,332
1606836172.3769,352
1606836172.3789,344
1606836172.3810,349
1606836172.3829,364
1606836172.3849,371
1606836172.3869,374
1606836172.3889,376
1606836172.3909,386
1606836172.3929,393
1606836172.3949,393
1606836172.3969,405
1606836172.8227,423
1606836172.8236,427
1606836172.8261,440
1606836172.8287,459
1606836172.8308,467
1606836172.8327,469
1606836172.8348,462
1606836172.8367,437
1606836172.8387,410
1606836172.8407,386
1606836172.8427,349
1606836172.8446,325
1606836172.8467,322
1606836172.8489,317
1606836172.8508,305
1606836172.8526,298
1606836172.8546,300
1606836172.8566,308
1606836172.8587,310
1606836172.8607,310
1606836172.8626,313
1606836172.8647,308
1606836172.8666,303
1606836172.8686,308
1606836172.8706,313
1606836172.8726,313
1606836172.8746,315
1606836172.8766,317
1606836172.8786,310
1606836172.8806,300
1606836172.8826,293
1606836172.8846,305
1606836172.8866,317
1606836172.8886,313
1606836172.8906,308
1606836172.8926,308
1606836172.8946,293
1606836172.8966,286
1606836172.8987,298
1606836172.9006,295
1606836172.9026,276
1606836172.9046,261
1606836172.9066,273
1606836172.9086,293
1606836172.9106,281
1606836172.9126,264
1606836172.9147,266
1606836172.9167,261
1606836172.9187,254
1606836172.9206,261
1606836172.9226,273
1606836172.9246,291
1606836172.9266,295
1606836172.9286,276
1606836172.9306,256
1606836172.9326,251
1606836172.9346,244
1606836172.9366,239
1606836172.9386,249
1606836172.9406,269
1606836172.9426,322
1606836172.9446,447
1606836172.9466,611
1606836172.9486,738
1606836172.9508,846
1606836172.9527,1112
1606836172.9546,1533
1606836172.9566,1565
1606836172.9586,829
1606836172.9606,53
1606836172.9626,-41
1606836172.9646,61
1606836172.9666,-31
1606836173.3626,-44
1606836173.3634,19
1606836173.3658,17
1606836173.3684,12
1606836173.3704,36
1606836173.3724,51
1606836173.3745,61
1606836173.3764,68
1606836173.3784,68
1606836173.3805,78
1606836173.3824,95
1606836173.3844,107
1606836173.3864,119
1606836173.3884,132
1606836173.3904,146
1606836173.3924,163
1606836173.3944,180
1606836173.3964,193
1606836173.3984,200
1606836173.4005,215
1606836173.4024,227
1606836173.4044,227
1606836173.4064,227
1606836173.4084,222
1606836173.4104,188
1606836173.4124,141
1606836173.4144,110
1606836173.4164,95
1606836173.4184,90
1606836173.4204,85
1606836173.4224,78
1606836173.4244,88
1606836173.4264,100
1606836173.4284,97
1606836173.4304,95
1606836173.4324,90
1606836173.4344,95
1606836173.4364,105
1606836173.4384,112
1606836173.4404,122
1606836173.4424,122
1606836173.4444,114
1606836173.4466,124
1606836173.4484,134
1606836173.4504,134
1606836173.4524,134
1606836173.4544,136
1606836173.4564,141
1606836173.4584,146
1606836173.4604,149
1606836173.4625,141
1606836173.4644,124
1606836173.4664,117
1606836173.4684,127
1606836173.4704,127
1606836173.4724,114
1606836173.4744,107
1606836173.4764,110
1606836173.4784,105
1606836173.4805,97
1606836173.4824,100
1606836173.4844,100
1606836173.4864,90
1606836173.4884,90
1606836173.4904,97
1606836173.4924,90
1606836173.4944,80
1606836173.4964,83
1606836173.4984,88
1606836173.5004,90
1606836173.5024,110
1606836173.5044,134
1606836173.5064,139
1606836173.9629,129
1606836173.9644,119
1606836173.9660,112
1606836173.9678,102
1606836173.9699,92
1606836173.9719,85
1606836173.9738,100
1606836173.9758,188
1606836173.9778,342
1606836173.9798,513
1606836173.9818,665
1606836173.9838,841
1606836173.9858,1151
1606836173.9878,1479
1606836173.9898,1276
1606836173.9918,440
1606836173.9937,-124
1606836173.9957,-83
1606836173.9977,-83
1606836173.9997,-200
1606836174.0019,-163
1606836174.0037,-112
1606836174.0057,-129
1606836174.0077,-110
1606836174.0097,-80
1606836174.0118,-78
1606836174.0137,-68
1606836174.0157,-46
1606836174.0177,-31
1606836174.0197,-22
1606836174.0217,-7
1606836174.0237,4
1606836174.0257,12
1606836174.0277,19
1606836174.0297,29
1606836174.0317,58
1606836174.0337,80
1606836174.0357,88
1606836174.0377,102
1606836174.0397,122
1606836174.0417,127
1606836174.0437,132
1606836174.0457,144
1606836174.0477,136
1606836174.0497,102
1606836174.0517,61
1606836174.0537,36
1606836174.0557,24
1606836174.0577,9
1606836174.0597,2
1606836174.0617,12
1606836174.0637,7
1606836174.0657,4
1606836174.0677,17
1606836174.0697,22
1606836174.0717,19
1606836174.0737,31
1606836174.0757,44
1606836174.0777,39
1606836174.0797,36
1606836174.0817,44
1606836174.0837,44
1606836174.0858,46
1606836174.0877,53
1606836174.0897,53
1606836174.0917,56
1606836174.0937,58
1606836174.0957,61
1606836174.0977,68
1606836174.0997,66
1606836174.1017,61
1606836174.1039,61
1606836174.1058,61
1606836174.5024,58
1606836174.5033,58
1606836174.5058,61
1606836174.5085,58
1606836174.5105,56
1606836174.5124,56
1606836174.5145,53
1606836174.5164,51
1606836174.5184,56
1606836174.5204,56
1606836174.5223,44
1606836174.5243,41
1606836174.5263,51
1606836174.5285,56
1606836174.5304,51
1606836174.5323,39
1606836174.5343,41
1606836174.5363,53
1606836174.5383,61
1606836174.5403,78
1606836174.5424,88
1606836174.5443,88
1606836174.5463,95
1606836174.5483,80
1606836174.5503,58
1606836174.5523,58
1606836174.5543,58
1606836174.5563,66
1606836174.5583,92
1606836174.5603,154
1606836174.5623,271
1606836174.5643,435
1606836174.5663,594
1606836174.5684,743
1606836174.5703,965
1606836174.5724,1300
1606836174.5743,1379
1606836174.5763,760
1606836174.5783,2
1606836174.5803,-134
1606836174.5823,-75
1606836174.5843,-205
1606836174.5863,-224
1606836174.5883,-144
1606836174.5903,-144
1606836174.5924,-156
1606836174.5943,-129
1606836174.5963,-107
1606836174.5983,-88
1606836174.6005,-75
1606836174.6024,-70
1606836174.6043,-63
1606836174.6063,-53
1606836174.6083,-44
1606836174.6103,-22
1606836174.6123,-2
1606836174.6143,2
1606836174.6163,12
1606836174.6183,29
1606836174.6203,48
1606836174.6224,70
1606836174.6243,85
1606836174.6263,88
1606836174.6284,97
1606836174.6303,112
1606836174.6323,102
1606836174.6343,68
1606836174.6364,36
1606836174.6383,12
1606836174.6403,-4
1606836174.6424,-19
1606836174.6443,-29
1606836174.6463,-26
1606836175.0721,-19
1606836175.0730,-19
1606836175.0755,-24
1606836175.0782,-14
1606836175.0801,-2
1606836175.0822,-2
1606836175.0841,-7
1606836175.0861,-7
1606836175.0880,9
1606836175.0900,22
1606836175.0921,-2
1606836175.0940,-26
1606836175.0960,-12
1606836175.0980,12
1606836175.1000,14
1606836175.1020,17
1606836175.1040,24
1606836175.1061,29
1606836175.1080,39
1606836175.1100,34
1606836175.1120,22
1606836175.1140,34
1606836175.1160,53
1606836175.1180,51
1606836175.1201,39
1606836175.1221,36
1606836175.1240,34
1606836175.1262,41
1606836175.1267,58
1606836175.1290,56
1606836175.1310,34
1606836175.1331,26
1606836175.1350,31
1606836175.1370,31
1606836175.1390,39
1606836175.1410,61
1606836175.1430,75
1606836175.1450,78
1606836175.1470,73
1606836175.1490,58
1606836175.1510,51
1606836175.1530,51
1606836175.1550,53
1606836175.1570,66
1606836175.1577,92
1606836175.1600,168
1606836175.1621,313
1606836175.1640,481
1606836175.1660,616
1606836175.1681,758
1606836175.1700,1068
1606836175.1720,1464
1606836175.1740,1327
1606836175.1761,474
1606836175.1780,-171
1606836175.1800,-149
1606836175.1821,-102
1606836175.1841,-217
1606836175.1860,-207
1606836175.1867,-151
1606836175.1890,-156
1606836175.1910,-151
1606836175.1930,-124
1606836175.1950,-112
1606836175.1970,-100
1606836175.1990,-80
1606836175.2010,-66
1606836175.2030,-61
1606836175.2050,-63
1606836175.2071,-44
1606836175.2090,-17
1606836175.2111,-7
1606836175.2131,4
1606836175.6127,24
1606836175.6137,41
1606836175.6155,53
1606836175.6179,68
1606836175.6198,83
1606836175.6220,100
1606836175.6238,105
1606836175.6257,92
1606836175.6277,70
1606836175.6297,24
1606836175.6318,-14
1606836175.6337,-34
1606836175.6357,-41
1606836175.6377,-44
1606836175.6397,-46
1606836175.6417,-58
1606836175.6437,-61
1606836175.6457,-34
1606836175.6464,-17
1606836175.6488,-26
1606836175.6508,-29
1606836175.6527,-24
1606836175.6547,-22
1606836175.6567,-19
1606836175.6587,-12
1606836175.6608,-17
1606836175.6627,-39
1606836175.6647,-34
1606836175.6667,-4
1606836175.6687,4
1606836175.6708,0
1606836175.6727,12
1606836175.6747,14
1606836175.6767,12
1606836175.6774,12
1606836175.6797,12
1606836175.6818,12
1606836175.6838,17
1606836175.6857,19
1606836175.6877,22
1606836175.6897,19
1606836175.6917,19
1606836175.6937,24
1606836175.6957,19
1606836175.6977,-2
1606836175.6997,-7
1606836175.7017,9
1606836175.7037,22
1606836175.7057,24
1606836175.7077,34
1606836175.7084,51
1606836175.7108,53
1606836175.7127,44
1606836175.7147,31
1606836175.7167,9
1606836175.7187,9
1606836175.7210,31
1606836175.7228,58
1606836175.7247,122
1606836175.7267,271
1606836175.7287,464
1606836175.7308,630
1606836175.7327,809
1606836175.7347,1122
1606836175.7367,1518
1606836175.7387,1447
1606836175.7394,601
1606836175.7418,-139
1606836175.7437,-158
1606836175.7458,-124
1606836175.7477,-269
1606836175.7497,-244
1606836175.7517,-178
1606836176.1826,-198
1606836176.1836,-188
1606836176.1860,-158
1606836176.1887,-144
1606836176.1908,-119
1606836176.1926,-112
1606836176.1947,-124
1606836176.1954,-112
1606836176.1977,-75
1606836176.1996,-63
1606836176.2016,-73
1606836176.2035,-63
1606836176.2055,-41
1606836176.2076,-31
1606836176.2095,-19
1606836176.2116,-2
1606836176.2135,12
1606836176.2156,39
1606836176.2175,68
1606836176.2196,68
1606836176.2215,56
1606836176.2235,44
1606836176.2255,7
1606836176.2262,-31
1606836176.2285,-51
1606836176.2307,-56
1606836176.2325,-68
1606836176.2347,-75
1606836176.2365,-70
1606836176.2386,-68
1606836176.2406,-70
1606836176.2425,-53
1606836176.2445,-29
1606836176.2465,-31
1606836176.2487,-44
1606836176.2506,-41
1606836176.2526,-34
1606836176.2546,-34
1606836176.2553,-22
1606836176.2575,-4
1606836176.2596,-14
1606836176.2616,-24
1606836176.2635,-17
1606836176.2656,-14
1606836176.2675,-14
1606836176.2695,2
1606836176.2716,7
1606836176.2735,2
1606836176.2755,2
1606836176.2775,9
1606836176.2796,14
1606836176.2816,9
1606836176.2835,-4
1606836176.2855,-7
1606836176.2863,0
1606836176.2886,-2
1606836176.2906,-17
1606836176.2926,-22
1606836176.2945,-9
1606836176.2965,12
1606836176.2985,19
1606836176.3007,19
1606836176.3026,36
1606836176.3045,44
1606836176.3065,17
1606836176.3085,0
1606836176.3105,7
1606836176.3125,4
1606836176.3145,12
1606836176.3165,66
1606836176.3172,154
1606836176.3196,293
1606836176.3216,489
1606836176.7529,674
1606836176.7542,865
1606836176.7567,1190
1606836176.7593,1521
1606836176.7613,1259
1606836176.7633,335
1606836176.7652,-246
1606836176.7673,-202
1606836176.7693,-220
1606836176.7712,-317
1606836176.7731,-254
1606836176.7751,-229
1606836176.7761,-276
1606836176.7784,-244
1606836176.7803,-198
1606836176.7822,-193
1606836176.7841,-171
1606836176.7861,-146
1606836176.7881,-139
1606836176.7901,-122
1606836176.7922,-97
1606836176.7941,-85
1606836176.7961,-80
1606836176.7981,-68
1606836176.8001,-56
1606836176.8021,-36
1606836176.8042,-12
1606836176.8061,-4
1606836176.8081,0
1606836176.8101,22
1606836176.8123,41
1606836176.8141,48
1606836176.8161,48
1606836176.8181,29
1606836176.8201,-4
1606836176.8222,-34
1606836176.8242,-48
1606836176.8261,-51
1606836176.8281,-44
1606836176.8301,-56
1606836176.8322,-83
1606836176.8341,-75
1606836176.8361,-53
1606836176.8381,-48
1606836176.8401,-39
1606836176.8422,-26
1606836176.8441,-14
1606836176.8461,-4
1606836176.8481,-12
1606836176.8501,-29
1606836176.8522,-29
1606836176.8541,-19
1606836176.8561,-12
1606836176.8581,-7
1606836176.8601,0
1606836176.8622,2
1606836176.8642,9
1606836176.8661,17
1606836176.8681,9
1606836176.8701,2
1606836176.8722,17
1606836176.8741,34
1606836176.8761,14
1606836176.8783,-19
1606836176.8802,-12
1606836176.8822,19
1606836176.8841,17
1606836176.8861,-2
1606836176.8881,-4
1606836176.8901,0
1606836176.8922,-4
1606836176.8941,-12
1606836176.8961,-12
1606836177.3227,0
1606836177.3237,24
1606836177.3262,36
1606836177.3290,29
1606836177.3308,9
1606836177.3327,9
1606836177.3349,31
1606836177.3367,29
1606836177.3387,14
1606836177.3409,0
1606836177.3427,0
1606836177.3447,51
1606836177.3467,161
1606836177.3487,315
1606836177.3507,484
1606836177.3527,613
1606836177.3547,762
1606836177.3567,1058
1606836177.3587,1318
1606836177.3608,990
1606836177.3627,185
1606836177.3647,-207
1606836177.3667,-134
1606836177.3687,-176
1606836177.3707,-254
1606836177.3727,-188
1606836177.3747,-166
1606836177.3767,-195
1606836177.3787,-166
1606836177.3807,-134
1606836177.3827,-132
1606836177.3846,-107
1606836177.3867,-95
1606836177.3887,-107
1606836177.3907,-97
1606836177.3926,-75
1606836177.3947,-58
1606836177.3966,-29
1606836177.3986,-17
1606836177.4007,-22
1606836177.4026,-12
1606836177.4048,9
1606836177.4068,26
1606836177.4087,31
1606836177.4107,26
1606836177.4126,22
1606836177.4146,36
1606836177.4166,51
1606836177.4187,39
1606836177.4207,9
1606836177.4226,-7
1606836177.4246,-22
1606836177.4267,-34
1606836177.4287,-36
1606836177.4307,-34
1606836177.4327,-34
1606836177.4346,-36
1606836177.4366,-34
1606836177.4386,-34
1606836177.4407,-31
1606836177.4427,-24
1606836177.4446,-19
1606836177.4466,-19
1606836177.4487,-17
1606836177.4507,-14
1606836177.4526,-4
1606836177.4546,2
1606836177.4566,0
1606836177.4587,-7
1606836177.4607,-7
1606836177.4626,-7
1606836177.4646,-2
1606836177.4667,7
1606836177.8924,9
1606836177.8931,4
1606836177.8950,7
1606836177.8970,9
1606836177.8990,4
1606836177.9011,0
1606836177.9030,0
1606836177.9050,0
1606836177.9070,-4
1606836177.9090,-14
1606836177.9111,-17
1606836177.9130,-12
1606836177.9150,-12
1606836177.9170,-12
1606836177.9190,-7
1606836177.9211,4
1606836177.9230,22
1606836177.9251,29
1606836177.9270,22
1606836177.9292,12
1606836177.9311,4
1606836177.9330,-2
1606836177.9350,-12
1606836177.9370,-14
1606836177.9390,7
1606836177.9410,48
1606836177.9430,132
1606836177.9450,276
1606836177.9469,437
1606836177.9490,552
1606836177.9511,694
1606836177.9530,1007
1606836177.9550,1313
1606836177.9570,1049
1606836177.9590,232
1606836177.9610,-242
1606836177.9630,-171
1606836177.9650,-161
1606836177.9670,-244
1606836177.9690,-205
1606836177.9710,-178
1606836177.9730,-176
1606836177.9750,-117
1606836177.9770,-97
1606836177.9790,-134
1606836177.9810,-119
1606836177.9830,-80
1606836177.9850,-85
1606836177.9870,-80
1606836177.9890,-48
1606836177.9910,-24
1606836177.9930,-17
1606836177.9950,-17
1606836177.9970,-19
1606836177.9990,-9
1606836178.0010,36
1606836178.0030,78
1606836178.0050,58
1606836178.0070,41
1606836178.0090,63
1606836178.0111,78
1606836178.0130,70
1606836178.0150,46
1606836178.0170,12
1606836178.0190,-7
1606836178.0210,-17
1606836178.0230,-34
1606836178.0250,-48
1606836178.0270,-48
1606836178.0290,-44
1606836178.0312,-41
1606836178.0330,-36
1606836178.0350,-31
1606836178.4323,-26
1606836178.4333,-26
1606836178.4358,-22
1606836178.4384,-14
1606836178.4405,-9
1606836178.4424,0
1606836178.4445,9
1606836178.4464,14
1606836178.4484,12
1606836178.4504,9
1606836178.4523,4
1606836178.4543,0
1606836178.4563,2
1606836178.4583,9
1606836178.4603,12
1606836178.4624,9
1606836178.4643,7
1606836178.4663,7
1606836178.4683,2
1606836178.4703,-7
1606836178.4723,-4
1606836178.4743,7
1606836178.4763,19
1606836178.4783,31
1606836178.4803,44
1606836178.4824,39
1606836178.4843,14
1606836178.4863,2
1606836178.4883,2
1606836178.4903,-4
1606836178.4923,-4
1606836178.4943,19
1606836178.4963,75
1606836178.4983,185
1606836178.5003,347
1606836178.5024,503
1606836178.5043,618
1606836178.5063,799
1606836178.5083,1146
1606836178.5103,1345
1606836178.5123,853
1606836178.5143,7
1606836178.5163,-283
1606836178.5183,-171
1606836178.5203,-220
1606836178.5223,-273
1606836178.5243,-205
1606836178.5263,-188
1606836178.5285,-200
1606836178.5303,-168
1606836178.5323,-141
1606836178.5344,-134
1606836178.5363,-117
1606836178.5383,-100
1606836178.5403,-95
1606836178.5423,-90
1606836178.5443,-78
1606836178.5463,-63
1606836178.5483,-48
1606836178.5503,-31
1606836178.5523,-17
1606836178.5544,-4
1606836178.5563,12
1606836178.5583,29
1606836178.5603,39
1606836178.5623,46
1606836178.5643,56
1606836178.5663,61
1606836178.5683,48
1606836178.5703,19
1606836178.5723,-4
1606836178.5743,-26
1606836178.5763,-51
1606836178.9721,-58
1606836178.9731,-51
1606836178.9755,-44
1606836178.9782,-41
1606836178.9801,-36
1606836178.9821,-34
1606836178.9841,-31
1606836178.9861,-31
1606836178.9881,-34
1606836178.9901,-29
1606836178.9922,-22
1606836178.9941,-17
1606836178.9961,-14
1606836178.9981,-4
1606836179.0001,9
1606836179.0021,12
1606836179.0041,14
1606836179.0061,24
1606836179.0081,31
1606836179.0101,26
1606836179.0121,26
1606836179.0141,34
1606836179.0161,36
1606836179.0181,36
1606836179.0201,36
1606836179.0221,34
1606836179.0243,29
1606836179.0261,26
1606836179.0281,24
1606836179.0301,26
1606836179.0321,39
1606836179.0340,56
1606836179.0361,66
1606836179.0381,68
1606836179.0400,58
1606836179.0421,44
1606836179.0441,34
1606836179.0460,29
1606836179.0480,31
1606836179.0501,48
1606836179.0521,90
1606836179.0540,180
1606836179.0561,330
1606836179.0581,503
1606836179.0600,643
1606836179.0621,797
1606836179.0641,1083
1606836179.0660,1371
1606836179.0681,1115
1606836179.0701,278
1606836179.0721,-220
1606836179.0740,-156
1606836179.0760,-171
1606836179.0781,-273
1606836179.0801,-227
1606836179.0821,-185
1606836179.0840,-205
1606836179.0861,-188
1606836179.0880,-161
1606836179.0900,-156
1606836179.0921,-141
1606836179.0941,-117
1606836179.0960,-107
1606836179.0981,-100
1606836179.1001,-88
1606836179.1021,-78
1606836179.1041,-68
1606836179.1060,-56
1606836179.1080,-44
1606836179.1100,-24
1606836179.1121,-9
1606836179.1140,2
1606836179.1161,19
1606836179.5421,34
1606836179.5428,44
1606836179.5439,53
1606836179.5459,56
1606836179.5481,29
1606836179.5499,-14
1606836179.5519,-41
1606836179.5540,-48
1606836179.5559,-58
1606836179.5579,-68
1606836179.5599,-63
1606836179.5619,-58
1606836179.5639,-58
1606836179.5658,-53
1606836179.5679,-46
1606836179.5699,-41
1606836179.5719,-34
1606836179.5738,-31
1606836179.5758,-26
1606836179.5779,-22
1606836179.5799,-17
1606836179.5819,-12
1606836179.5838,-9
1606836179.5858,-14
1606836179.5878,-12
1606836179.5898,-7
1606836179.5919,2
1606836179.5938,7
1606836179.5958,7
1606836179.5978,7
1606836179.5998,14
1606836179.6019,19
1606836179.6038,19
1606836179.6058,22
1606836179.6078,24
1606836179.6098,24
1606836179.6119,22
1606836179.6138,22
1606836179.6158,24
1606836179.6178,22
1606836179.6198,14
1606836179.6218,7
1606836179.6238,12
1606836179.6258,31
1606836179.6278,44
1606836179.6298,53
1606836179.6319,56
1606836179.6339,46
1606836179.6359,31
1606836179.6378,29
1606836179.6398,29
1606836179.6419,29
1606836179.6438,46
1606836179.6458,88
1606836179.6478,180
1606836179.6500,335
1606836179.6519,501
1606836179.6539,633
1606836179.6558,784
1606836179.6579,1073
1606836179.6599,1357
1606836179.6619,1085
1606836179.6638,256
1606836179.6658,-222
1606836179.6678,-156
1606836179.6698,-173
1606836179.6719,-271
1606836179.6739,-222
1606836179.6758,-185
1606836179.6778,-210
1606836179.6798,-188
1606836179.6818,-156
1606836179.6839,-151
1606836180.0826,-139
1606836180.0836,-119
1606836180.0862,-110
1606836180.0887,-97
1606836180.0907,-85
1606836180.0926,-80
1606836180.0947,-80
1606836180.0966,-73
1606836180.0986,-53
1606836180.1007,-36
1606836180.1026,-24
1606836180.1046,-9
1606836180.1066,7
1606836180.1086,22
1606836180.1106,31
1606836180.1126,41
1606836180.1146,41
1606836180.1166,26
1606836180.1186,-2
1606836180.1206,-26
1606836180.1226,-39
1606836180.1246,-46
1606836180.1266,-58
1606836180.1286,-61
1606836180.1306,-51
1606836180.1327,-48
1606836180.1346,-46
1606836180.1366,-39
1606836180.1386,-34
1606836180.1406,-29
1606836180.1426,-22
1606836180.1446,-14
1606836180.1466,-14
1606836180.1488,-19
1606836180.1507,-19
1606836180.1526,-12
1606836180.1547,-7
1606836180.1566,-7
1606836180.1586,-7
1606836180.1606,-2
1606836180.1626,0
1606836180.1646,2
1606836180.1667,7
1606836180.1686,9
1606836180.1706,12
1606836180.1726,14
1606836180.1746,14
1606836180.1766,17
1606836180.1786,17
1606836180.1806,14
1606836180.1826,17
1606836180.1846,22
1606836180.1866,17
1606836180.1886,14
1606836180.1906,24
1606836180.1926,26
1606836180.1946,22
1606836180.1966,24
1606836180.1986,29
1606836180.2006,29
1606836180.2026,29
1606836180.2046,26
1606836180.2066,22
1606836180.2086,26
1606836180.2107,31
1606836180.2126,36
1606836180.2146,53
1606836180.2166,63
1606836180.2186,61
1606836180.2206,56
1606836180.2226,46
1606836180.2246,34
1606836180.2266,29
1606836180.7129,31
1606836180.7141,44
1606836180.7165,68
1606836180.7192,124
1606836180.7212,244
1606836180.7231,410
1606836180.7252,557
1606836180.7271,679
1606836180.7292,902
1606836180.7312,1232
1606836180.7331,1232
1606836180.7353,564
1606836180.7371,-122
1606836180.7391,-198
1606836180.7411,-136
1606836180.7430,-249
1606836180.7450,-251
1606836180.7470,-178
1606836180.7492,-188
1606836180.7511,-188
1606836180.7530,-154
1606836180.7550,-139
1606836180.7570,-132
1606836180.7590,-112
1606836180.7611,-100
1606836180.7630,-92
1606836180.7650,-83
1606836180.7670,-75
1606836180.7691,-66
1606836180.7711,-48
1606836180.7730,-34
1606836180.7750,-24
1606836180.7770,-9
1606836180.7790,7
1606836180.7811,22
1606836180.7830,36
1606836180.7850,46
1606836180.7870,53
1606836180.7890,61
1606836180.7911,53
1606836180.7930,31
1606836180.7950,4
1606836180.7970,-19
1606836180.7990,-34
1606836180.8010,-36
1606836180.8030,-41
1606836180.8050,-48
1606836180.8070,-44
1606836180.8090,-34
1606836180.8111,-31
1606836180.8130,-31
1606836180.8150,-24
1606836180.8170,-12
1606836180.8190,-9
1606836180.8211,-12
1606836180.8230,-7
1606836180.8250,-2
1606836180.8270,-2
1606836180.8290,0
1606836180.8311,4
1606836180.8330,9
1606836180.8350,12
1606836180.8372,9
1606836180.8391,7
1606836180.8411,12
1606836180.8430,19
1606836180.8450,19
1606836180.8470,19
1606836180.8491,19
1606836180.8511,14
1606836180.8530,12
1606836180.8550,14
1606836180.8570,17
1606836181.2523,17
1606836181.2530,17
1606836181.2554,19
1606836181.2580,22
1606836181.2600,14
1606836181.2621,12
1606836181.2641,17
1606836181.2660,19
1606836181.2680,9
1606836181.2700,0
1606836181.2720,0
1606836181.2740,4
1606836181.2760,-2
1606836181.2780,-12
1606836181.2800,-7
1606836181.2820,0
1606836181.2840,-4
1606836181.2860,-7
1606836181.2881,-2
1606836181.2900,4
1606836181.2921,7
1606836181.2940,17
1606836181.2960,26
1606836181.2980,24
1606836181.3000,17
1606836181.3020,9
1606836181.3040,0
1606836181.3060,-7
1606836181.3080,-4
1606836181.3100,14
1606836181.3120,56
1606836181.3140,141
1606836181.3160,281
1606836181.3180,440
1606836181.3200,567
1606836181.3220,721
1606836181.3240,1031
1606836181.3260,1315
1606836181.3280,1014
1606836181.3300,200
1606836181.3322,-224
1606836181.3341,-146
1606836181.3360,-163
1606836181.3380,-244
1606836181.3400,-190
1606836181.3420,-156
1606836181.3440,-171
1606836181.3460,-149
1606836181.3480,-124
1606836181.3500,-119
1606836181.3520,-105
1606836181.3540,-88
1606836181.3560,-78
1606836181.3580,-68
1606836181.3600,-56
1606836181.3620,-44
1606836181.3640,-31
1606836181.3660,-12
1606836181.3680,4
1606836181.3700,17
1606836181.3720,31
1606836181.3740,51
1606836181.3760,68
1606836181.3780,75
1606836181.3800,88
1606836181.3820,100
1606836181.3840,95
1606836181.3846,70
1606836181.3860,36
1606836181.3880,-2
1606836181.3900,-29
1606836181.3920,-39
1606836181.3940,-41
1606836181.7928,-39
1606836181.7936,-44
1606836181.7961,-48
1606836181.7987,-41
1606836181.8007,-29
1606836181.8026,-24
1606836181.8046,-24
1606836181.8066,-22
1606836181.8086,-19
1606836181.8106,-19
1606836181.8113,-24
1606836181.8126,-24
1606836181.8147,-22
1606836181.8166,-17
1606836181.8186,-9
1606836181.8207,-2
1606836181.8226,2
1606836181.8246,4
1606836181.8267,4
1606836181.8286,2
1606836181.8306,4
1606836181.8326,7
1606836181.8346,12
1606836181.8367,9
1606836181.8386,0
1606836181.8406,-4
1606836181.8413,2
1606836181.8426,4
1606836181.8446,0
1606836181.8466,0
1606836181.8486,0
1606836181.8506,2
1606836181.8527,7
1606836181.8546,4
1606836181.8566,-4
1606836181.8586,-9
1606836181.8606,-7
1606836181.8626,0
1606836181.8646,22
1606836181.8666,34
1606836181.8686,31
1606836181.8706,29
1606836181.8713,22
1606836181.8726,9
1606836181.8746,4
1606836181.8767,7
1606836181.8786,14
1606836181.8806,36
1606836181.8826,90
1606836181.8846,210
1606836181.8866,366
1606836181.8886,493
1606836181.8906,599
1606836181.8926,829
1606836181.8946,1220
1606836181.8966,1332
1606836181.8986,709
1606836181.9006,-90
1606836181.9012,-254
1606836181.9026,-136
1606836181.9046,-212
1606836181.9066,-244
1606836181.9086,-176
1606836181.9106,-176
1606836181.9126,-188
1606836181.9146,-154
1606836181.9166,-132
1606836181.9186,-129
1606836181.9206,-112
1606836181.9227,-95
1606836181.9246,-85
1606836181.9266,-70
1606836181.9286,-61
1606836182.3625,-51
1606836182.3633,-39
1606836182.3657,-22
1606836182.3684,-4
1606836182.3704,7
1606836182.3723,19
1606836182.3745,31
1606836182.3763,41
1606836182.3784,51
1606836182.3803,56
1606836182.3823,51
1606836182.3843,36
1606836182.3863,4
1606836182.3883,-34
1606836182.3903,-63
1606836182.3910,-80
1606836182.3923,-85
1606836182.3943,-85
1606836182.3963,-88
1606836182.3983,-85
1606836182.4003,-75
1606836182.4023,-70
1606836182.4043,-61
1606836182.4063,-56
1606836182.4083,-53
1606836182.4103,-53
1606836182.4123,-48
1606836182.4143,-41
1606836182.4163,-34
1606836182.4183,-31
1606836182.4203,-29
1606836182.4210,-24
1606836182.4223,-14
1606836182.4243,-7
1606836182.4263,-4
1606836182.4283,-2
1606836182.4303,0
1606836182.4323,4
1606836182.4343,4
1606836182.4363,4
1606836182.4383,9
1606836182.4403,4
1606836182.4423,-4
1606836182.4443,-7
1606836182.4463,-7
1606836182.4483,-9
1606836182.4503,-12
1606836182.4512,-9
1606836182.4523,-9
1606836182.4543,-9
1606836182.4563,-7
1606836182.4583,-4
1606836182.4603,-2
1606836182.4624,-2
1606836182.4643,-4
1606836182.4663,-2
1606836182.4683,-2
1606836182.4703,-7
1606836182.4723,-7
1606836182.4743,9
1606836182.4763,26
1606836182.4783,39
1606836182.4803,44
1606836182.4810,41
1606836182.4823,31
1606836182.4843,19
1606836182.4863,9
1606836182.4883,12
1606836182.4903,26
1606836182.4923,48
1606836182.4943,105
1606836182.4963,229
1606836182.4983,401
1606836182.9028,550
1606836182.9037,692
1606836182.9062,953
1606836182.9088,1320
1606836182.9109,1293
1606836182.9114,560
1606836182.9128,-129
1606836182.9148,-190
1606836182.9167,-158
1606836182.9187,-278
1606836182.9208,-261
1606836182.9227,-198
1606836182.9247,-215
1606836182.9267,-207
1606836182.9287,-168
1606836182.9308,-158
1606836182.9327,-154
1606836182.9347,-132
1606836182.9367,-114
1606836182.9387,-107
1606836182.9394,-97
1606836182.9407,-80
1606836182.9427,-66
1606836182.9447,-61
1606836182.9467,-48
1606836182.9488,-26
1606836182.9508,-4
1606836182.9527,9
1606836182.9547,29
1606836182.9567,48
1606836182.9587,63
1606836182.9608,68
1606836182.9627,68
1606836182.9647,53
1606836182.9667,22
1606836182.9687,-14
1606836182.9694,-44
1606836182.9708,-58
1606836182.9727,-68
1606836182.9747,-73
1606836182.9767,-73
1606836182.9787,-70
1606836182.9808,-66
1606836182.9827,-63
1606836182.9847,-56
1606836182.9867,-48
1606836182.9888,-44
1606836182.9908,-41
1606836182.9928,-39
1606836182.9947,-39
1606836182.9967,-36
1606836182.9987,-34
1606836183.0008,-34
1606836183.0027,-31
1606836183.0047,-26
1606836183.0067,-24
1606836183.0087,-22
1606836183.0108,-14
1606836183.0127,-12
1606836183.0147,-9
1606836183.0167,-4
1606836183.0187,0
1606836183.0208,-7
1606836183.0227,-9
1606836183.0247,-9
1606836183.0267,-12
1606836183.0287,-17
1606836183.0308,-12
1606836183.0327,-4
1606836183.0347,-7
1606836183.0367,-9
1606836183.0387,-7
1606836183.0408,-7
1606836183.4722,-4
1606836183.4732,-2
1606836183.4757,0
1606836183.4785,2
1606836183.4803,0
1606836183.4823,-7
1606836183.4843,-12
1606836183.4864,-4
1606836183.4883,0
1606836183.4903,-4
1606836183.4922,-7
1606836183.4942,-7
1606836183.4962,0
1606836183.4982,14
1606836183.5002,29
1606836183.5022,36
1606836183.5042,36
1606836183.5062,29
1606836183.5082,22
1606836183.5102,19
1606836183.5123,12
1606836183.5142,9
1606836183.5162,24
1606836183.5182,61
1606836183.5202,134
1606836183.5222,269
1606836183.5242,440
1606836183.5262,584
1606836183.5282,738
1606836183.5302,1034
1606836183.5322,1335
1606836183.5342,1078
1606836183.5363,273
1606836183.5382,-188
1606836183.5402,-136
1606836183.5422,-166
1606836183.5442,-256
1606836183.5462,-205
1606836183.5482,-168
1606836183.5502,-190
1606836183.5522,-168
1606836183.5542,-139
1606836183.5562,-134
1606836183.5582,-124
1606836183.5602,-105
1606836183.5622,-95
1606836183.5642,-83
1606836183.5662,-68
1606836183.5682,-58
1606836183.5702,-46
1606836183.5722,-29
1606836183.5742,-17
1606836183.5762,-7
1606836183.5782,9
1606836183.5803,29
1606836183.5822,41
1606836183.5842,53
1606836183.5862,68
1606836183.5882,80
1606836183.5902,73
1606836183.5922,51
1606836183.5942,19
1606836183.5962,-19
1606836183.5982,-48
1606836183.6002,-66
1606836183.6022,-78
1606836183.6042,-80
1606836183.6062,-78
1606836183.6083,-78
1606836183.6102,-73
1606836183.6122,-68
1606836183.6142,-63
1606836183.6162,-58
1606836184.0724,-51
1606836184.0732,-44
1606836184.0757,-41
1606836184.0783,-39
1606836184.0803,-36
1606836184.0823,-36
1606836184.0844,-39
1606836184.0863,-44
1606836184.0884,-39
1606836184.0903,-34
1606836184.0922,-31
1606836184.0942,-24
1606836184.0962,-14
1606836184.0982,-9
1606836184.1002,-14
1606836184.1022,-12
1606836184.1042,-4
1606836184.1062,-2
1606836184.1082,-2
1606836184.1102,-2
1606836184.1122,-2
1606836184.1142,-4
1606836184.1162,-2
1606836184.1182,-2
1606836184.1202,0
1606836184.1222,4
1606836184.1242,2
1606836184.1262,-2
1606836184.1282,2
1606836184.1302,4
1606836184.1322,2
1606836184.1342,4
1606836184.1363,9
1606836184.1382,12
1606836184.1402,12
1606836184.1422,12
1606836184.1442,14
1606836184.1462,17
1606836184.1482,14
1606836184.1502,9
1606836184.1522,7
1606836184.1542,9
1606836184.1562,17
1606836184.1583,34
1606836184.1602,48
1606836184.1622,48
1606836184.1642,36
1606836184.1662,17
1606836184.1682,7
1606836184.1702,9
1606836184.1722,9
1606836184.1742,14
1606836184.1762,44
1606836184.1782,105
1606836184.1803,220
1606836184.1822,381
1606836184.1842,530
1606836184.1862,665
1606836184.1882,907
1606836184.1902,1259
1606836184.1922,1269
1606836184.1942,586
1606836184.1962,-112
1606836184.1982,-190
1606836184.2002,-127
1606836184.2022,-232
1606836184.2042,-232
1606836184.2062,-166
1606836184.2082,-178
1606836184.2102,-185
1606836184.2123,-154
1606836184.2142,-134
1606836184.2162,-117
1606836184.6128,-102
1606836184.6137,-105
1606836184.6162,-95
1606836184.6188,-75
1606836184.6209,-68
1606836184.6228,-63
1606836184.6249,-51
1606836184.6268,-36
1606836184.6288,-22
1606836184.6308,-2
1606836184.6330,24
1606836184.6348,34
1606836184.6368,36
1606836184.6387,56
1606836184.6409,70
1606836184.6427,61
1606836184.6447,48
1606836184.6467,22
1606836184.6487,-17
1606836184.6508,-51
1606836184.6527,-68
1606836184.6547,-80
1606836184.6568,-88
1606836184.6587,-83
1606836184.6608,-78
1606836184.6627,-75
1606836184.6647,-73
1606836184.6667,-68
1606836184.6687,-63
1606836184.6709,-56
1606836184.6727,-46
1606836184.6747,-44
1606836184.6767,-44
1606836184.6787,-36
1606836184.6808,-31
1606836184.6827,-29
1606836184.6847,-26
1606836184.6868,-22
1606836184.6888,-24
1606836184.6908,-31
1606836184.6927,-24
1606836184.6947,-17
1606836184.6967,-17
1606836184.6987,-19
1606836184.7008,-12
1606836184.7027,-2
1606836184.7047,0
1606836184.7067,0
1606836184.7087,0
1606836184.7108,2
1606836184.7127,4
1606836184.7147,4
1606836184.7167,7
1606836184.7187,7
1606836184.7208,7
1606836184.7227,14
1606836184.7247,17
1606836184.7267,17
1606836184.7287,17
1606836184.7308,17
1606836184.7327,26
1606836184.7348,31
1606836184.7368,24
1606836184.7387,26
1606836184.7408,44
1606836184.7427,58
1606836184.7447,70
1606836184.7467,83
1606836184.7487,85
1606836184.7507,75
1606836184.7527,61
1606836184.7547,53
1606836184.7567,51
1606836185.1524,56
1606836185.1531,68
1606836185.1555,100
1606836185.1582,183
1606836185.1602,313
1606836185.1622,452
1606836185.1642,562
1606836185.1662,716
1606836185.1682,1058
1606836185.1702,1391
1606836185.1722,1098
1606836185.1742,239
1606836185.1762,-227
1606836185.1782,-141
1606836185.1802,-139
1606836185.1821,-229
1606836185.1841,-178
1606836185.1861,-139
1606836185.1882,-163
1606836185.1901,-149
1606836185.1921,-119
1606836185.1941,-114
1606836185.1961,-102
1606836185.1981,-85
1606836185.2002,-78
1606836185.2021,-70
1606836185.2041,-53
1606836185.2061,-41
1606836185.2082,-31
1606836185.2101,-22
1606836185.2121,-9
1606836185.2141,9
1606836185.2161,31
1606836185.2181,48
1606836185.2202,68
1606836185.2221,85
1606836185.2241,97
1606836185.2261,97
1606836185.2281,75
1606836185.2303,44
1606836185.2322,2
1606836185.2342,-46
1606836185.2362,-78
1606836185.2382,-95
1606836185.2403,-105
1606836185.2422,-102
1606836185.2442,-95
1606836185.2463,-92
1606836185.2481,-90
1606836185.2501,-85
1606836185.2521,-75
1606836185.2541,-70
1606836185.2561,-70
1606836185.2581,-66
1606836185.2601,-61
1606836185.2621,-61
1606836185.2642,-53
1606836185.2717,-46
1606836185.2731,-44
1606836185.2751,-41
1606836185.2771,-36
1606836185.2791,-31
1606836185.2811,-26
1606836185.2831,-22
1606836185.2851,-14
1606836185.2871,-12
1606836185.2891,-9
1606836185.2912,-7
1606836185.2931,-4
1606836185.2952,-4
1606836185.2971,-4
1606836185.2991,-7
1606836185.3012,-9
1606836185.7230,-9
1606836185.7242,-7
1606836185.7267,-7
1606836185.7293,-9
1606836185.7313,-9
1606836185.7333,-17
1606836185.7355,-26
1606836185.7373,-29
1606836185.7393,-22
1606836185.7413,-14
1606836185.7433,-2
1606836185.7454,17
1606836185.7473,26
1606836185.7493,26
1606836185.7513,17
1606836185.7532,7
1606836185.7553,2
1606836185.7576,-4
1606836185.7593,-2
1606836185.7613,22
1606836185.7633,68
1606836185.7653,163
1606836185.7673,317
1606836185.7694,479
1606836185.7714,611
1606836185.7732,799
1606836185.7752,1144
1606836185.7772,1376
1606836185.7792,936
1606836185.7813,75
1606836185.7832,-266
1606836185.7852,-161
1606836185.7873,-217
1606836185.7892,-288
1606836185.7913,-217
1606836185.7932,-193
1606836185.7952,-210
1606836185.7972,-188
1606836185.7992,-163
1606836185.8012,-156
1606836185.8032,-139
1606836185.8052,-124
1606836185.8072,-112
1606836185.8092,-97
1606836185.8112,-85
1606836185.8133,-78
1606836185.8152,-66
1606836185.8172,-53
1606836185.8192,-39
1606836185.8212,-24
1606836185.8232,-2
1606836185.8252,19
1606836185.8272,34
1606836185.8292,46
1606836185.8312,63
1606836185.8332,68
1606836185.8352,53
1606836185.8372,26
1606836185.8392,-9
1606836185.8414,-48
1606836185.8433,-78
1606836185.8452,-88
1606836185.8472,-88
1606836185.8492,-90
1606836185.8512,-90
1606836185.8532,-88
1606836185.8552,-85
1606836185.8572,-78
1606836185.8593,-73
1606836185.8613,-68
1606836185.8632,-63
1606836185.8652,-56
1606836185.8672,-51
1606836186.2625,-48
1606836186.2632,-46
1606836186.2656,-44
1606836186.2683,-39
1606836186.2702,-36
1606836186.2722,-34
1606836186.2743,-34
1606836186.2762,-36
1606836186.2782,-36
1606836186.2802,-26
1606836186.2822,-19
1606836186.2843,-22
1606836186.2862,-17
1606836186.2882,-14
1606836186.2902,-17
1606836186.2922,-14
1606836186.2942,-12
1606836186.2962,-14
1606836186.2982,-19
1606836186.3002,-19
1606836186.3022,-14
1606836186.3042,-9
1606836186.3062,-12
1606836186.3082,-14
1606836186.3102,-12
1606836186.3122,-7
1606836186.3142,-4
1606836186.3163,-4
1606836186.3182,-4
1606836186.3202,0
1606836186.3222,2
1606836186.3242,4
1606836186.3262,4
1606836186.3282,0
1606836186.3302,-4
1606836186.3322,0
1606836186.3342,12
1606836186.3362,26
1606836186.3382,41
1606836186.3402,48
1606836186.3422,44
1606836186.3442,34
1606836186.3462,22
1606836186.3482,9
1606836186.3502,4
1606836186.3522,14
1606836186.3544,39
1606836186.3563,97
1606836186.3582,215
1606836186.3602,379
1606836186.3622,530
1606836186.3642,665
1606836186.3662,892
1606836186.3682,1237
1606836186.3702,1278
1606836186.3722,633
1606836186.3742,-83
1606836186.3762,-185
1606836186.3782,-122
1606836186.3802,-232
1606836186.3822,-244
1606836186.3842,-173
1606836186.3862,-183
1606836186.3882,-188
1606836186.3902,-151
1606836186.3922,-136
1606836186.3942,-134
1606836186.3962,-117
1606836186.3982,-102
1606836186.4002,-97
1606836186.4022,-90
1606836186.4042,-75
1606836186.4062,-58
1606836186.8327,-48
1606836186.8336,-36
1606836186.8361,-19
1606836186.8388,-9
1606836186.8408,-2
1606836186.8426,7
1606836186.8447,24
1606836186.8467,46
1606836186.8486,56
1606836186.8507,53
1606836186.8526,41
1606836186.8547,12
1606836186.8566,-31
1606836186.8586,-61
1606836186.8607,-78
1606836186.8626,-90
1606836186.8646,-95
1606836186.8666,-95
1606836186.8686,-92
1606836186.8707,-85
1606836186.8726,-75
1606836186.8746,-73
1606836186.8766,-73
1606836186.8786,-63
1606836186.8809,-58
1606836186.8827,-51
1606836186.8846,-41
1606836186.8866,-39
1606836186.8886,-44
1606836186.8907,-41
1606836186.8926,-31
1606836186.8946,-24
1606836186.8966,-26
1606836186.8986,-29
1606836186.9006,-24
1606836186.9026,-24
1606836186.9046,-24
1606836186.9066,-19
1606836186.9086,-12
1606836186.9106,-7
1606836186.9126,-9
1606836186.9146,-4
1606836186.9166,2
1606836186.9186,2
1606836186.9206,0
1606836186.9227,0
1606836186.9246,0
1606836186.9266,2
1606836186.9286,2
1606836186.9306,2
1606836186.9326,2
1606836186.9346,4
1606836186.9366,4
1606836186.9386,7
1606836186.9406,9
1606836186.9426,9
1606836186.9446,9
1606836186.9466,14
1606836186.9486,14
1606836186.9507,12
1606836186.9526,14
1606836186.9546,17
1606836186.9566,17
1606836186.9586,17
1606836186.9606,19
1606836186.9626,17
1606836186.9646,14
1606836186.9666,14
1606836186.9686,17
1606836186.9707,14
1606836186.9726,9
1606836186.9746,9
1606836186.9766,22
1606836187.4629,39
1606836187.4641,46
1606836187.4668,48
1606836187.4692,44
1606836187.4712,31
1606836187.4732,12
1606836187.4753,-4
1606836187.4772,-4
1606836187.4792,7
1606836187.4812,26
1606836187.4831,75
1606836187.4851,180
1606836187.4871,337
1606836187.4891,498
1606836187.4912,633
1606836187.4931,826
1606836187.4951,1144
1606836187.4971,1274
1606836187.4991,753
1606836187.5011,-4
1606836187.5030,-215
1606836187.5051,-134
1606836187.5071,-220
1606836187.5090,-256
1606836187.5111,-190
1606836187.5131,-195
1606836187.5151,-210
1606836187.5171,-176
1606836187.5191,-154
1606836187.5211,-151
1606836187.5231,-132
1606836187.5250,-117
1606836187.5270,-117
1606836187.5291,-112
1606836187.5311,-95
1606836187.5331,-83
1606836187.5351,-70
1606836187.5370,-58
1606836187.5390,-39
1606836187.5411,-24
1606836187.5430,-12
1606836187.5451,9
1606836187.5471,31
1606836187.5491,46
1606836187.5511,58
1606836187.5531,68
1606836187.5551,63
1606836187.5571,36
1606836187.5591,0
1606836187.5611,-36
1606836187.5631,-58
1606836187.5650,-70
1606836187.5670,-78
1606836187.5692,-78
1606836187.5712,-75
1606836187.5731,-75
1606836187.5751,-73
1606836187.5770,-73
1606836187.5790,-68
1606836187.5811,-63
1606836187.5831,-51
1606836187.5850,-41
1606836187.5870,-39
1606836187.5890,-44
1606836187.5911,-46
1606836187.5931,-36
1606836187.5950,-22
1606836187.5971,-17
1606836187.5990,-22
1606836187.6011,-24
1606836187.6030,-19
1606836187.6050,-17
1606836187.6071,-22
1606836188.0020,-19
1606836188.0027,-7
1606836188.0051,-4
1606836188.0078,-7
1606836188.0098,-4
1606836188.0118,-2
1606836188.0139,-2
1606836188.0158,0
1606836188.0178,0
1606836188.0198,2
1606836188.0218,-2
1606836188.0237,-12
1606836188.0258,-9
1606836188.0277,-4
1606836188.0297,-12
1606836188.0318,-22
1606836188.0337,-14
1606836188.0358,-9
1606836188.0379,-12
1606836188.0397,-14
1606836188.0418,-17
1606836188.0424,-9
1606836188.0437,2
1606836188.0457,4
1606836188.0477,2
1606836188.0497,0
1606836188.0518,4
1606836188.0537,7
1606836188.0558,4
1606836188.0577,7
1606836188.0597,12
1606836188.0619,19
1606836188.0638,34
1606836188.0657,48
1606836188.0677,46
1606836188.0697,39
1606836188.0718,36
1606836188.0724,29
1606836188.0737,12
1606836188.0757,9
1606836188.0777,29
1606836188.0797,61
1606836188.0818,119
1606836188.0837,242
1606836188.0857,391
1606836188.0877,493
1606836188.0897,606
1606836188.0918,912
1606836188.0937,1298
1606836188.0957,1161
1606836188.0977,369
1606836188.0997,-202
1606836188.1018,-173
1606836188.1024,-134
1606836188.1037,-227
1606836188.1057,-198
1606836188.1077,-149
1606836188.1097,-166
1606836188.1118,-158
1606836188.1137,-129
1606836188.1157,-122
1606836188.1177,-114
1606836188.1197,-105
1606836188.1217,-97
1606836188.1237,-88
1606836188.1257,-73
1606836188.1277,-61
1606836188.1297,-48
1606836188.1317,-34
1606836188.1324,-17
1606836188.1337,7
1606836188.1357,31
1606836188.1377,48
1606836188.5424,68
1606836188.5433,92
1606836188.5458,105
1606836188.5484,107
1606836188.5504,102
1606836188.5524,80
1606836188.5544,39
1606836188.5563,-4
1606836188.5583,-46
1606836188.5606,-75
1606836188.5610,-85
1606836188.5623,-92
1606836188.5643,-107
1606836188.5663,-105
1606836188.5683,-85
1606836188.5703,-78
1606836188.5723,-80
1606836188.5743,-73
1606836188.5763,-63
1606836188.5783,-66
1606836188.5803,-58
1606836188.5823,-53
1606836188.5843,-48
1606836188.5863,-39
1606836188.5883,-31
1606836188.5890,-29
1606836188.5903,-19
1606836188.5923,-14
1606836188.5943,-7
1606836188.5963,0
1606836188.5983,0
1606836188.6003,-4
1606836188.6023,0
1606836188.6043,4
1606836188.6063,7
1606836188.6083,4
1606836188.6103,0
1606836188.6123,0
1606836188.6143,4
1606836188.6163,2
1606836188.6183,-4
1606836188.6190,-4
1606836188.6203,-2
1606836188.6224,-4
1606836188.6243,-4
1606836188.6263,0
1606836188.6283,2
1606836188.6303,0
1606836188.6323,2
1606836188.6343,2
1606836188.6363,0
1606836188.6383,-2
1606836188.6403,4
1606836188.6423,19
1606836188.6443,31
1606836188.6463,34
1606836188.6483,36
1606836188.6490,36
1606836188.6503,24
1606836188.6523,9
1606836188.6544,4
1606836188.6563,7
1606836188.6583,19
1606836188.6603,53
1606836188.6623,127
1606836188.6643,261
1606836188.6663,423
1606836188.6683,550
1606836188.6703,689
1606836188.6723,975
1606836188.6743,1310
1606836188.6763,1156
1606836188.6783,374
1606836189.0825,-210
1606836189.0835,-193
1606836189.0859,-156
1606836189.0886,-256
1606836189.0906,-232
1606836189.0925,-183
1606836189.0945,-198
1606836189.0965,-185
1606836189.0985,-154
1606836189.1005,-154
1606836189.1025,-151
1606836189.1045,-134
1606836189.1065,-124
1606836189.1084,-119
1606836189.1091,-107
1606836189.1104,-90
1606836189.1124,-78
1606836189.1144,-63
1606836189.1164,-48
1606836189.1184,-31
1606836189.1204,-14
1606836189.1225,2
1606836189.1244,26
1606836189.1265,46
1606836189.1284,56
1606836189.1304,66
1606836189.1324,70
1606836189.1344,53
1606836189.1364,17
1606836189.1384,-24
1606836189.1391,-56
1606836189.1404,-80
1606836189.1424,-90
1606836189.1444,-90
1606836189.1465,-88
1606836189.1484,-85
1606836189.1504,-83
1606836189.1524,-78
1606836189.1546,-68
1606836189.1565,-61
1606836189.1584,-58
1606836189.1604,-53
1606836189.1625,-48
1606836189.1645,-44
1606836189.1664,-41
1606836189.1684,-36
1606836189.1691,-31
1606836189.1704,-31
1606836189.1724,-31
1606836189.1744,-29
1606836189.1764,-17
1606836189.1784,-12
1606836189.1804,-12
1606836189.1824,-7
1606836189.1845,0
1606836189.1864,4
1606836189.1884,4
1606836189.1904,7
1606836189.1924,12
1606836189.1944,12
1606836189.1964,7
1606836189.1984,7
1606836189.1991,12
1606836189.2004,7
1606836189.2024,4
1606836189.2045,7
1606836189.2064,4
1606836189.2084,2
1606836189.2104,4
1606836189.2124,7
1606836189.2144,7
1606836189.2164,9
1606836189.2184,9
1606836189.6527,12
1606836189.6537,12
1606836189.6561,14
1606836189.6588,14
1606836189.6595,17
1606836189.6608,14
1606836189.6627,4
1606836189.6647,-4
1606836189.6667,-2
1606836189.6689,2
1606836189.6708,7
1606836189.6727,22
1606836189.6747,41
1606836189.6767,46
1606836189.6787,39
1606836189.6808,31
1606836189.6829,26
1606836189.6847,17
1606836189.6867,9
1606836189.6887,24
1606836189.6907,58
1606836189.6927,132
1606836189.6947,266
1606836189.6967,430
1606836189.6986,572
1606836189.7007,726
1606836189.7027,1024
1606836189.7047,1327
1606836189.7067,1093
1606836189.7087,298
1606836189.7108,-185
1606836189.7127,-149
1606836189.7147,-178
1606836189.7167,-276
1606836189.7187,-224
1606836189.7207,-185
1606836189.7227,-207
1606836189.7247,-193
1606836189.7267,-163
1606836189.7287,-156
1606836189.7307,-144
1606836189.7327,-129
1606836189.7347,-119
1606836189.7367,-107
1606836189.7387,-95
1606836189.7407,-80
1606836189.7427,-66
1606836189.7447,-51
1606836189.7467,-36
1606836189.7487,-24
1606836189.7508,-7
1606836189.7527,19
1606836189.7547,44
1606836189.7567,58
1606836189.7587,70
1606836189.7607,85
1606836189.7627,85
1606836189.7646,63
1606836189.7667,34
1606836189.7686,0
1606836189.7707,-34
1606836189.7727,-53
1606836189.7747,-63
1606836189.7767,-70
1606836189.7787,-70
1606836189.7807,-68
1606836189.7827,-63
1606836189.7848,-53
1606836189.7867,-48
1606836189.7886,-44
1606836189.7907,-39
1606836189.7927,-36
1606836189.7946,-29
1606836190.1927,-24
1606836190.1936,-22
1606836190.1961,-19
1606836190.1987,-17
1606836190.2007,-17
1606836190.2026,-14
1606836190.2047,-7
1606836190.2067,-12
1606836190.2086,-19
1606836190.2107,-14
1606836190.2126,-7
1606836190.2146,-7
1606836190.2167,-7
1606836190.2186,-7
1606836190.2207,-7
1606836190.2226,-4
1606836190.2246,2
1606836190.2266,7
1606836190.2286,4
1606836190.2306,2
1606836190.2326,4
1606836190.2346,9
1606836190.2367,7
1606836190.2386,7
1606836190.2407,7
1606836190.2426,7
1606836190.2446,9
1606836190.2466,9
1606836190.2486,7
1606836190.2507,12
1606836190.2527,14
1606836190.2546,14
1606836190.2566,14
1606836190.2586,12
1606836190.2607,4
1606836190.2626,4
1606836190.2647,9
1606836190.2667,9
1606836190.2687,7
1606836190.2707,7
1606836190.2727,7
1606836190.2746,9
1606836190.2766,12
1606836190.2786,24
1606836190.2806,36
1606836190.2828,44
1606836190.2846,39
1606836190.2866,26
1606836190.2886,22
1606836190.2906,19
1606836190.2926,12
1606836190.2946,4
1606836190.2966,22
1606836190.2986,58
1606836190.3007,139
1606836190.3026,286
1606836190.3046,445
1606836190.3066,569
1606836190.3086,731
1606836190.3106,1041
1606836190.3126,1305
1606836190.3146,983
1606836190.3166,173
1606836190.3186,-229
1606836190.3207,-156
1606836190.3226,-188
1606836190.3246,-271
1606836190.3266,-217
1606836190.3286,-185
1606836190.3307,-198
1606836190.3326,-171
1606836190.3346,-146
1606836190.3366,-146
1606836190.7927,-134
1606836190.7935,-114
1606836190.7960,-100
1606836190.7987,-92
1606836190.8007,-92
1606836190.8026,-83
1606836190.8047,-61
1606836190.8066,-48
1606836190.8086,-39
1606836190.8107,-22
1606836190.8126,4
1606836190.8146,29
1606836190.8166,51
1606836190.8186,70
1606836190.8207,88
1606836190.8226,95
1606836190.8246,92
1606836190.8266,73
1606836190.8286,39
1606836190.8306,-4
1606836190.8326,-39
1606836190.8346,-58
1606836190.8367,-66
1606836190.8388,-66
1606836190.8408,-66
1606836190.8425,-70
1606836190.8445,-70
1606836190.8466,-66
1606836190.8486,-61
1606836190.8505,-51
1606836190.8526,-46
1606836190.8546,-44
1606836190.8566,-36
1606836190.8585,-31
1606836190.8606,-34
1606836190.8625,-31
1606836190.8645,-26
1606836190.8665,-19
1606836190.8685,-12
1606836190.8706,-14
1606836190.8725,-17
1606836190.8745,-4
1606836190.8765,0
1606836190.8785,-2
1606836190.8806,2
1606836190.8825,7
1606836190.8845,9
1606836190.8865,4
1606836190.8885,7
1606836190.8905,14
1606836190.8925,17
1606836190.8946,17
1606836190.8965,14
1606836190.8985,9
1606836190.9005,9
1606836190.9025,17
1606836190.9045,19
1606836190.9065,17
1606836190.9085,14
1606836190.9105,14
1606836190.9125,9
1606836190.9146,12
1606836190.9165,22
1606836190.9185,34
1606836190.9205,48
1606836190.9225,58
1606836190.9245,53
1606836190.9265,44
1606836190.9285,34
1606836190.9305,24
1606836190.9325,17
1606836190.9345,22
1606836190.9366,39
1606836191.3326,80
1606836191.3337,168
1606836191.3359,310
1606836191.3385,445
1606836191.3404,540
1606836191.3425,694
1606836191.3445,1041
1606836191.3465,1357
1606836191.3485,1046
1606836191.3505,183
1606836191.3525,-278
1606836191.3544,-178
1606836191.3564,-163
1606836191.3585,-251
1606836191.3604,-210
1606836191.3624,-171
1606836191.3644,-185
1606836191.3664,-168
1606836191.3684,-141
1606836191.3704,-144
1606836191.3724,-136
1606836191.3744,-119
1606836191.3764,-117
1606836191.3784,-110
1606836191.3804,-92
1606836191.3824,-78
1606836191.3844,-63
1606836191.3864,-46
1606836191.3884,-34
1606836191.3904,-14
1606836191.3924,9
1606836191.3944,29
1606836191.3964,46
1606836191.3984,68
1606836191.4004,80
1606836191.4024,85
1606836191.4044,83
1606836191.4064,53
1606836191.4084,2
1606836191.4104,-39
1606836191.4124,-61
1606836191.4144,-80
1606836191.4164,-88
1606836191.4184,-90
1606836191.4206,-92
1606836191.4224,-92
1606836191.4244,-80
1606836191.4264,-68
1606836191.4284,-68
1606836191.4304,-68
1606836191.4324,-56
1606836191.4344,-46
1606836191.4365,-46
1606836191.4385,-46
1606836191.4404,-39
1606836191.4424,-36
1606836191.4444,-34
1606836191.4464,-29
1606836191.4484,-19
1606836191.4504,-17
1606836191.4524,-17
1606836191.4544,-17
1606836191.4564,-7
1606836191.4584,0
1606836191.4604,-4
1606836191.4624,-2
1606836191.4644,4
1606836191.4664,4
1606836191.4684,0
1606836191.4704,2
1606836191.4724,4
1606836191.4744,4
1606836191.4765,2
1606836191.9024,0
1606836191.9033,-2
1606836191.9057,0
1606836191.9083,0
1606836191.9103,4
1606836191.9123,4
1606836191.9143,-7
1606836191.9163,-22
1606836191.9183,-14
1606836191.9203,7
1606836191.9223,24
1606836191.9243,26
1606836191.9263,26
1606836191.9283,17
1606836191.9303,4
1606836191.9322,0
1606836191.9342,-4
1606836191.9362,-2
1606836191.9382,14
1606836191.9402,53
1606836191.9423,139
1606836191.9442,286
1606836191.9462,447
1606836191.9482,572
1606836191.9502,721
1606836191.9522,1022
1606836191.9542,1335
1606836191.9562,1110
1606836191.9582,288
1606836191.9602,-242
1606836191.9626,-185
1606836191.9643,-171
1606836191.9663,-271
1606836191.9682,-229
1606836191.9702,-180
1606836191.9722,-200
1606836191.9742,-188
1606836191.9762,-158
1606836191.9782,-151
1606836191.9802,-144
1606836191.9822,-129
1606836191.9843,-117
1606836191.9863,-102
1606836191.9882,-92
1606836191.9903,-83
1606836191.9922,-68
1606836191.9942,-53
1606836191.9962,-39
1606836191.9982,-24
1606836192.0002,-9
1606836192.0023,4
1606836192.0043,19
1606836192.0063,39
1606836192.0082,53
1606836192.0102,58
1606836192.0122,58
1606836192.0142,44
1606836192.0162,12
1606836192.0182,-26
1606836192.0202,-51
1606836192.0223,-63
1606836192.0242,-75
1606836192.0262,-80
1606836192.0282,-75
1606836192.0302,-73
1606836192.0322,-70
1606836192.0342,-66
1606836192.0363,-61
1606836192.0382,-58
1606836192.0402,-51
1606836192.0422,-46
1606836192.0442,-44
1606836192.0463,-41
1606836192.4421,-39
1606836192.4427,-31
1606836192.4452,-31
1606836192.4479,-26
1606836192.4499,-24
1606836192.4519,-29
1606836192.4539,-31
1606836192.4559,-29
1606836192.4580,-29
1606836192.4598,-36
1606836192.4618,-31
1606836192.4638,-19
1606836192.4658,-22
1606836192.4678,-22
1606836192.4698,-14
1606836192.4718,-9
1606836192.4737,-12
1606836192.4757,-9
1606836192.4778,-7
1606836192.4797,-4
1606836192.4818,-9
1606836192.4837,-9
1606836192.4857,-4
1606836192.4878,-2
1606836192.4898,-4
1606836192.4918,-7
1606836192.4937,-2
1606836192.4957,2
1606836192.4977,4
1606836192.4998,4
1606836192.5018,7
1606836192.5037,7
1606836192.5058,0
1606836192.5078,-2
1606836192.5097,4
1606836192.5118,14
1606836192.5137,22
1606836192.5157,39
1606836192.5177,51
1606836192.5197,41
1606836192.5218,29
1606836192.5237,24
1606836192.5258,9
1606836192.5278,2
1606836192.5298,17
1606836192.5318,44
1606836192.5337,95
1606836192.5357,200
1606836192.5378,361
1606836192.5397,518
1606836192.5418,650
1606836192.5437,860
1606836192.5458,1198
1606836192.5477,1305
1606836192.5498,736
1606836192.5518,-24
1606836192.5537,-202
1606836192.5558,-122
1606836192.5577,-227
1606836192.5599,-266
1606836192.5618,-190
1606836192.5637,-190
1606836192.5658,-202
1606836192.5678,-168
1606836192.5698,-146
1606836192.5718,-149
1606836192.5738,-134
1606836192.5757,-119
1606836192.5778,-110
1606836192.5798,-97
1606836192.5818,-90
1606836192.5838,-90
1606836192.5858,-78
1606836193.0423,-66
1606836193.0432,-61
1606836193.0450,-46
1606836193.0470,-19
1606836193.0490,-2
1606836193.0511,4
1606836193.0530,17
1606836193.0550,36
1606836193.0570,48
1606836193.0590,46
1606836193.0610,19
1606836193.0629,-17
1606836193.0649,-41
1606836193.0669,-68
1606836193.0689,-88
1606836193.0710,-83
1606836193.0729,-83
1606836193.0749,-90
1606836193.0769,-88
1606836193.0789,-80
1606836193.0810,-73
1606836193.0829,-66
1606836193.0849,-63
1606836193.0869,-56
1606836193.0889,-46
1606836193.0911,-46
1606836193.0929,-46
1606836193.0949,-36
1606836193.0969,-31
1606836193.0989,-34
1606836193.1010,-34
1606836193.1029,-31
1606836193.1049,-26
1606836193.1069,-26
1606836193.1090,-24
1606836193.1110,-22
1606836193.1130,-19
1606836193.1151,-14
1606836193.1170,-12
1606836193.1189,-9
1606836193.1210,-7
1606836193.1229,-12
1606836193.1249,-12
1606836193.1269,-4
1606836193.1289,-4
1606836193.1310,-12
1606836193.1330,-12
1606836193.1349,-9
1606836193.1369,-7
1606836193.1389,-2
1606836193.1410,2
1606836193.1429,-2
1606836193.1450,-4
1606836193.1469,-2
1606836193.1490,0
1606836193.1510,2
1606836193.1529,4
1606836193.1549,2
1606836193.1570,4
1606836193.1589,7
1606836193.1610,7
1606836193.1629,7
1606836193.1649,9
1606836193.1669,2
1606836193.1689,-7
1606836193.1710,-7
1606836193.1729,-7
1606836193.1749,-7
1606836193.1769,4
1606836193.1789,26
1606836193.1810,39
1606836193.1829,36
1606836193.1849,31
1606836193.5526,24
1606836193.5533,17
1606836193.5558,12
1606836193.5583,7
1606836193.5603,14
1606836193.5623,41
1606836193.5644,90
1606836193.5663,198
1606836193.5683,359
1606836193.5703,508
1606836193.5723,628
1606836193.5743,838
1606836193.5763,1183
1606836193.5783,1239
1606836193.5803,608
1606836193.5824,-107
1606836193.5843,-222
1606836193.5863,-151
1606836193.5883,-254
1606836193.5903,-269
1606836193.5923,-202
1606836193.5943,-210
1606836193.5963,-212
1606836193.5983,-178
1606836193.6003,-166
1606836193.6023,-158
1606836193.6043,-144
1606836193.6063,-129
1606836193.6083,-119
1606836193.6103,-112
1606836193.6123,-100
1606836193.6143,-85
1606836193.6163,-80
1606836193.6183,-73
1606836193.6203,-51
1606836193.6223,-29
1606836193.6243,-12
1606836193.6263,7
1606836193.6283,31
1606836193.6303,53
1606836193.6323,66
1606836193.6343,70
1606836193.6363,63
1606836193.6383,46
1606836193.6403,7
1606836193.6423,-39
1606836193.6443,-63
1606836193.6463,-70
1606836193.6483,-78
1606836193.6503,-78
1606836193.6524,-73
1606836193.6543,-70
1606836193.6563,-68
1606836193.6583,-61
1606836193.6603,-58
1606836193.6623,-53
1606836193.6643,-48
1606836193.6663,-48
1606836193.6683,-51
1606836193.6703,-41
1606836193.6723,-31
1606836193.6743,-31
1606836193.6763,-34
1606836193.6783,-26
1606836193.6803,-22
1606836193.6823,-24
1606836193.6844,-22
1606836193.6864,-17
1606836193.6883,-12
1606836193.6903,-9
1606836193.6923,-4
1606836193.6943,2
1606836193.6963,2
1606836194.1526,0
1606836194.1536,4
1606836194.1561,9
1606836194.1587,2
1606836194.1607,-7
1606836194.1626,-4
1606836194.1647,-2
1606836194.1666,-9
1606836194.1686,-7
1606836194.1706,2
1606836194.1725,0
1606836194.1745,0
1606836194.1765,4
1606836194.1785,4
1606836194.1807,-2
1606836194.1825,-7
1606836194.1846,-12
1606836194.1865,-9
1606836194.1885,2
1606836194.1906,19
1606836194.1925,34
1606836194.1945,39
1606836194.1965,39
1606836194.1985,31
1606836194.2006,14
1606836194.2025,12
1606836194.2045,12
1606836194.2065,9
1606836194.2085,24
1606836194.2106,66
1606836194.2125,146
1606836194.2145,288
1606836194.2166,435
1606836194.2185,525
1606836194.2206,670
1606836194.2225,1017
1606836194.2245,1357
1606836194.2265,1080
1606836194.2285,212
1606836194.2306,-276
1606836194.2326,-171
1606836194.2345,-154
1606836194.2365,-249
1606836194.2385,-202
1606836194.2408,-163
1606836194.2425,-185
1606836194.2445,-168
1606836194.2465,-144
1606836194.2485,-144
1606836194.2506,-134
1606836194.2525,-114
1606836194.2545,-110
1606836194.2566,-105
1606836194.2585,-80
1606836194.2606,-66
1606836194.2625,-58
1606836194.2645,-41
1606836194.2665,-24
1606836194.2685,-7
1606836194.2692,17
1606836194.2706,44
1606836194.2725,56
1606836194.2746,66
1606836194.2766,78
1606836194.2785,88
1606836194.2806,80
1606836194.2825,53
1606836194.2845,9
1606836194.2865,-34
1606836194.2885,-66
1606836194.2906,-85
1606836194.2925,-97
1606836194.2945,-100
1606836194.7227,-92
1606836194.7236,-88
1606836194.7253,-85
1606836194.7277,-80
1606836194.7297,-75
1606836194.7317,-73
1606836194.7336,-70
1606836194.7356,-66
1606836194.7376,-68
1606836194.7396,-78
1606836194.7416,-80
1606836194.7436,-68
1606836194.7456,-58
1606836194.7476,-56
1606836194.7495,-51
1606836194.7516,-44
1606836194.7536,-36
1606836194.7555,-29
1606836194.7562,-24
1606836194.7575,-26
1606836194.7595,-26
1606836194.7616,-19
1606836194.7637,-12
1606836194.7656,-12
1606836194.7675,-14
1606836194.7695,-12
1606836194.7716,-12
1606836194.7736,-14
1606836194.7755,-17
1606836194.7776,-14
1606836194.7795,-12
1606836194.7815,-12
1606836194.7836,-14
1606836194.7855,-12
1606836194.7862,-9
1606836194.7875,-12
1606836194.7895,-9
1606836194.7916,-7
1606836194.7935,-17
1606836194.7955,-22
1606836194.7975,-17
1606836194.7995,-12
1606836194.8016,-2
1606836194.8036,14
1606836194.8055,22
1606836194.8076,14
1606836194.8095,4
1606836194.8116,0
1606836194.8135,-12
1606836194.8155,-12
1606836194.8162,2
1606836194.8175,24
1606836194.8195,78
1606836194.8216,202
1606836194.8235,369
1606836194.8255,508
1606836194.8275,626
1606836194.8295,851
1606836194.8316,1225
1606836194.8335,1345
1606836194.8355,743
1606836194.8375,-73
1606836194.8395,-264
1606836194.8416,-154
1606836194.8435,-244
1606836194.8455,-283
1606836194.8462,-207
1606836194.8476,-205
1606836194.8496,-217
1606836194.8516,-178
1606836194.8536,-161
1606836194.8556,-168
1606836194.8575,-154
1606836195.2624,-132
1606836195.2634,-127
1606836195.2659,-117
1606836195.2686,-102
1606836195.2707,-95
1606836195.2725,-80
1606836195.2746,-66
1606836195.2753,-53
1606836195.2775,-36
1606836195.2795,-19
1606836195.2815,-12
1606836195.2834,2
1606836195.2854,22
1606836195.2874,34
1606836195.2894,34
1606836195.2915,34
1606836195.2934,14
1606836195.2954,-26
1606836195.2974,-66
1606836195.2994,-83
1606836195.3015,-90
1606836195.3035,-100
1606836195.3054,-102
1606836195.3061,-95
1606836195.3084,-92
1606836195.3105,-92
1606836195.3125,-88
1606836195.3144,-78
1606836195.3164,-70
1606836195.3184,-68
1606836195.3204,-68
1606836195.3224,-63
1606836195.3244,-53
1606836195.3264,-56
1606836195.3284,-61
1606836195.3304,-56
1606836195.3324,-48
1606836195.3344,-48
1606836195.3351,-44
1606836195.3374,-34
1606836195.3394,-26
1606836195.3414,-26
1606836195.3434,-26
1606836195.3454,-22
1606836195.3474,-17
1606836195.3495,-12
1606836195.3514,-7
1606836195.3534,-2
1606836195.3554,-2
1606836195.3573,-4
1606836195.3594,-4
1606836195.3616,-2
1606836195.3634,0
1606836195.3655,0
1606836195.3661,-2
1606836195.3674,0
1606836195.3694,4
1606836195.3714,7
1606836195.3734,2
1606836195.3754,2
1606836195.3774,4
1606836195.3794,4
1606836195.3814,7
1606836195.3834,9
1606836195.3854,9
1606836195.3874,9
1606836195.3894,17
1606836195.3914,19
1606836195.3934,12
1606836195.3954,7
1606836195.3961,7
1606836195.3974,9
1606836195.3994,17
1606836195.8325,29
1606836195.8333,44
1606836195.8356,53
1606836195.8383,51
1606836195.8403,39
1606836195.8422,31
1606836195.8442,19
1606836195.8462,7
1606836195.8483,9
1606836195.8503,34
1606836195.8522,85
1606836195.8542,190
1606836195.8549,349
1606836195.8573,508
1606836195.8592,648
1606836195.8613,865
1606836195.8632,1208
1606836195.8652,1310
1606836195.8673,728
1606836195.8692,-24
1606836195.8713,-195
1606836195.8732,-134
1606836195.8752,-242
1606836195.8772,-271
1606836195.8793,-198
1606836195.8813,-195
1606836195.8832,-202
1606836195.8852,-180
1606836195.8859,-171
1606836195.8874,-163
1606836195.8893,-146
1606836195.8913,-139
1606836195.8932,-127
1606836195.8952,-112
1606836195.8972,-102
1606836195.8992,-95
1606836195.9012,-78
1606836195.9032,-63
1606836195.9052,-48
1606836195.9073,-26
1606836195.9092,-4
1606836195.9113,9
1606836195.9132,24
1606836195.9152,44
1606836195.9172,66
1606836195.9192,78
1606836195.9212,66
1606836195.9232,39
1606836195.9252,7
1606836195.9274,-24
1606836195.9292,-53
1606836195.9313,-68
1606836195.9333,-75
1606836195.9352,-80
1606836195.9372,-85
1606836195.9392,-78
1606836195.9413,-68
1606836195.9432,-66
1606836195.9452,-63
1606836195.9472,-58
1606836195.9492,-53
1606836195.9512,-46
1606836195.9532,-41
1606836195.9552,-36
1606836195.9572,-31
1606836195.9592,-31
1606836195.9613,-34
1606836195.9632,-29
1606836195.9652,-22
1606836195.9672,-19
1606836195.9692,-22
1606836195.9712,-19
1606836195.9732,-12
1606836196.3721,-9
1606836196.3728,-9
1606836196.3752,-9
1606836196.3778,-2
1606836196.3798,-2
1606836196.3819,-4
1606836196.3839,-4
1606836196.3860,-2
1606836196.3878,-7
1606836196.3898,-9
1606836196.3918,-7
1606836196.3939,-14
1606836196.3958,-19
1606836196.3978,-12
1606836196.3998,-7
1606836196.4019,-4
1606836196.4038,-7
1606836196.4058,-4
1606836196.4078,-4
1606836196.4098,-7
1606836196.4118,-14
1606836196.4139,-14
1606836196.4158,-9
1606836196.4178,-9
1606836196.4198,-9
1606836196.4218,-2
1606836196.4238,0
1606836196.4258,-2
1606836196.4278,-4
1606836196.4298,-7
1606836196.4318,-7
1606836196.4338,-4
1606836196.4359,-2
1606836196.4378,7
1606836196.4398,24
1606836196.4418,34
1606836196.4438,31
1606836196.4458,34
1606836196.4478,31
1606836196.4498,22
1606836196.4518,4
1606836196.4537,2
1606836196.4558,19
1606836196.4578,41
1606836196.4598,95
1606836196.4618,220
1606836196.4638,383
1606836196.4658,513
1606836196.4678,635
1606836196.4698,885
1606836196.4718,1237
1606836196.4738,1225
1606836196.4758,533
1606836196.4778,-139
1606836196.4798,-205
1606836196.4818,-151
1606836196.4838,-256
1606836196.4858,-256
1606836196.4879,-200
1606836196.4898,-207
1606836196.4918,-205
1606836196.4937,-171
1606836196.4958,-158
1606836196.4977,-154
1606836196.4998,-136
1606836196.5018,-117
1606836196.5038,-110
1606836196.5058,-102
1606836196.5078,-85
1606836196.5098,-73
1606836196.5118,-61
1606836196.5138,-48
1606836196.5158,-29
1606836196.9126,-9
1606836196.9133,7
1606836196.9158,24
1606836196.9184,46
1606836196.9204,63
1606836196.9224,68
1606836196.9244,61
1606836196.9264,53
1606836196.9284,34
1606836196.9304,-7
1606836196.9324,-53
1606836196.9344,-78
1606836196.9364,-92
1606836196.9384,-105
1606836196.9405,-102
1606836196.9423,-97
1606836196.9443,-97
1606836196.9463,-92
1606836196.9483,-83
1606836196.9503,-75
1606836196.9523,-70
1606836196.9544,-68
1606836196.9563,-63
1606836196.9584,-56
1606836196.9603,-53
1606836196.9623,-48
1606836196.9643,-39
1606836196.9663,-39
1606836196.9683,-44
1606836196.9703,-34
1606836196.9723,-19
1606836196.9744,-22
1606836196.9763,-26
1606836196.9784,-24
1606836196.9803,-24
1606836196.9823,-24
1606836196.9845,-17
1606836196.9864,-12
1606836196.9883,-7
1606836196.9903,-7
1606836196.9923,-12
1606836196.9943,-12
1606836196.9963,-4
1606836196.9983,0
1606836197.0003,0
1606836197.0023,-2
1606836197.0043,-9
1606836197.0063,-9
1606836197.0083,-7
1606836197.0103,-2
1606836197.0123,2
1606836197.0143,2
1606836197.0163,-4
1606836197.0183,-4
1606836197.0204,-2
1606836197.0223,0
1606836197.0243,9
1606836197.0263,26
1606836197.0283,41
1606836197.0303,44
1606836197.0323,34
1606836197.0343,24
1606836197.0363,22
1606836197.0383,12
1606836197.0403,7
1606836197.0423,12
1606836197.0443,31
1606836197.0463,70
1606836197.0483,173
1606836197.0503,325
1606836197.0523,449
1606836197.0543,540
1606836197.0563,731
1606836197.5128,1112
1606836197.5137,1352
1606836197.5162,892
1606836197.5188,31
1606836197.5208,-293
1606836197.5228,-178
1606836197.5249,-217
1606836197.5268,-278
1606836197.5288,-212
1606836197.5308,-193
1606836197.5327,-205
1606836197.5347,-176
1606836197.5367,-156
1606836197.5387,-156
1606836197.5410,-139
1606836197.5428,-122
1606836197.5447,-117
1606836197.5467,-107
1606836197.5487,-92
1606836197.5508,-80
1606836197.5527,-68
1606836197.5547,-51
1606836197.5567,-34
1606836197.5587,-17
1606836197.5608,0
1606836197.5627,22
1606836197.5647,39
1606836197.5668,53
1606836197.5687,70
1606836197.5708,78
1606836197.5727,68
1606836197.5747,41
1606836197.5767,4
1606836197.5786,-39
1606836197.5807,-70
1606836197.5827,-85
1606836197.5847,-88
1606836197.5867,-92
1606836197.5887,-95
1606836197.5907,-90
1606836197.5927,-80
1606836197.5947,-75
1606836197.5967,-73
1606836197.5973,-63
1606836197.5987,-56
1606836197.6007,-56
1606836197.6027,-51
1606836197.6047,-41
1606836197.6067,-39
1606836197.6087,-39
1606836197.6107,-34
1606836197.6127,-29
1606836197.6147,-19
1606836197.6167,-12
1606836197.6187,-9
1606836197.6207,-7
1606836197.6227,-2
1606836197.6247,-4
1606836197.6267,-4
1606836197.6273,2
1606836197.6287,4
1606836197.6307,2
1606836197.6327,2
1606836197.6347,0
1606836197.6367,2
1606836197.6388,0
1606836197.6407,0
1606836197.6427,4
1606836197.6447,4
1606836197.6467,-2
1606836197.6487,-4
1606836197.6507,-4
1606836197.6527,-4
1606836198.0823,-2
1606836198.0829,0
1606836198.0852,-2
1606836198.0879,0
1606836198.0899,2
1606836198.0919,4
1606836198.0939,7
1606836198.0959,4
1606836198.0979,-7
1606836198.0986,-17
1606836198.0999,-9
1606836198.1019,2
1606836198.1039,12
1606836198.1059,26
1606836198.1079,34
1606836198.1099,36
1606836198.1120,31
1606836198.1139,19
1606836198.1158,12
1606836198.1179,4
1606836198.1199,4
1606836198.1219,29
1606836198.1239,73
1606836198.1259,161
1606836198.1279,315
1606836198.1286,476
1606836198.1299,599
1606836198.1319,767
1606836198.1339,1100
1606836198.1359,1374
1606836198.1379,1036
1606836198.1399,195
1606836198.1419,-227
1606836198.1439,-149
1606836198.1459,-185
1606836198.1479,-276
1606836198.1499,-217
1606836198.1519,-185
1606836198.1538,-207
1606836198.1559,-188
1606836198.1579,-163
1606836198.1586,-161
1606836198.1599,-144
1606836198.1620,-127
1606836198.1639,-122
1606836198.1659,-112
1606836198.1679,-95
1606836198.1699,-88
1606836198.1719,-80
1606836198.1739,-68
1606836198.1758,-51
1606836198.1779,-41
1606836198.1799,-24
1606836198.1819,2
1606836198.1839,24
1606836198.1859,39
1606836198.1879,53
1606836198.1885,66
1606836198.1898,70
1606836198.1919,53
1606836198.1939,22
1606836198.1958,-12
1606836198.1978,-41
1606836198.1999,-66
1606836198.2019,-78
1606836198.2039,-80
1606836198.2059,-80
1606836198.2079,-83
1606836198.2099,-78
1606836198.2119,-68
1606836198.2139,-66
1606836198.2159,-63
1606836198.2179,-53
1606836198.6227,-46
1606836198.6236,-46
1606836198.6260,-41
1606836198.6288,-34
1606836198.6307,-29
1606836198.6326,-29
1606836198.6346,-29
1606836198.6366,-29
1606836198.6386,-34
1606836198.6406,-39
1606836198.6426,-39
1606836198.6446,-31
1606836198.6466,-26
1606836198.6486,-29
1606836198.6506,-24
1606836198.6526,-14
1606836198.6533,-12
1606836198.6546,-9
1606836198.6566,-7
1606836198.6586,-4
1606836198.6606,-4
1606836198.6627,-2
1606836198.6647,-4
1606836198.6666,-4
1606836198.6686,0
1606836198.6705,4
1606836198.6726,2
1606836198.6745,2
1606836198.6765,7
1606836198.6785,4
1606836198.6806,4
1606836198.6825,12
1606836198.6832,14
1606836198.6846,9
1606836198.6866,12
1606836198.6885,17
1606836198.6906,12
1606836198.6925,9
1606836198.6945,17
1606836198.6966,17
1606836198.6985,9
1606836198.7006,9
1606836198.7026,12
1606836198.7045,2
1606836198.7066,2
1606836198.7086,14
1606836198.7106,29
1606836198.7112,44
1606836198.7125,48
1606836198.7145,44
1606836198.7166,36
1606836198.7185,29
1606836198.7205,19
1606836198.7225,9
1606836198.7245,14
1606836198.7266,36
1606836198.7285,75
1606836198.7306,168
1606836198.7326,322
1606836198.7345,486
1606836198.7365,618
1606836198.7385,804
1606836198.7406,1137
1606836198.7412,1305
1606836198.7425,824
1606836198.7445,44
1606836198.7466,-210
1606836198.7485,-136
1606836198.7506,-224
1606836198.7525,-273
1606836198.7545,-202
1606836198.7566,-198
1606836198.7587,-215
1606836199.1928,-183
1606836199.1936,-161
1606836199.1960,-156
1606836199.1972,-136
1606836199.1987,-119
1606836199.2007,-112
1606836199.2027,-112
1606836199.2047,-107
1606836199.2067,-88
1606836199.2088,-73
1606836199.2107,-66
1606836199.2127,-51
1606836199.2146,-31
1606836199.2167,-14
1606836199.2186,4
1606836199.2206,29
1606836199.2226,48
1606836199.2246,63
1606836199.2266,70
1606836199.2273,68
1606836199.2286,51
1606836199.2307,14
1606836199.2327,-24
1606836199.2346,-56
1606836199.2366,-73
1606836199.2386,-75
1606836199.2406,-80
1606836199.2426,-85
1606836199.2446,-75
1606836199.2466,-73
1606836199.2486,-78
1606836199.2506,-78
1606836199.2526,-63
1606836199.2546,-53
1606836199.2566,-51
1606836199.2573,-53
1606836199.2586,-48
1606836199.2607,-44
1606836199.2626,-36
1606836199.2646,-34
1606836199.2666,-34
1606836199.2686,-36
1606836199.2706,-36
1606836199.2726,-29
1606836199.2746,-22
1606836199.2766,-22
1606836199.2786,-24
1606836199.2806,-22
1606836199.2826,-19
1606836199.2846,-22
1606836199.2867,-24
1606836199.2874,-22
1606836199.2887,-14
1606836199.2907,-14
1606836199.2926,-17
1606836199.2946,-17
1606836199.2966,-12
1606836199.2986,-14
1606836199.3006,-19
1606836199.3026,-12
1606836199.3046,-9
1606836199.3066,-12
1606836199.3086,-12
1606836199.3106,-12
1606836199.3126,-12
1606836199.3146,-9
1606836199.3166,-12
1606836199.3173,-14
1606836199.3186,-9
1606836199.3206,-4
1606836199.3226,-2
1606836199.3246,-4
1606836199.3266,-4
1606836199.7328,-2
1606836199.7338,7
1606836199.7362,19
1606836199.7389,31
1606836199.7409,39
1606836199.7428,34
1606836199.7448,22
1606836199.7468,4
1606836199.7488,-9
1606836199.7508,-17
1606836199.7515,-9
1606836199.7528,12
1606836199.7548,63
1606836199.7568,161
1606836199.7588,305
1606836199.7608,442
1606836199.7627,542
1606836199.7647,745
1606836199.7668,1139
1606836199.7687,1308
1606836199.7707,738
1606836199.7727,-68
1606836199.7748,-271
1606836199.7768,-161
1606836199.7787,-229
1606836199.7808,-271
1606836199.7814,-210
1606836199.7828,-202
1606836199.7849,-207
1606836199.7868,-168
1606836199.7887,-151
1606836199.7908,-154
1606836199.7927,-136
1606836199.7948,-114
1606836199.7967,-105
1606836199.7987,-100
1606836199.8008,-83
1606836199.8027,-63
1606836199.8047,-51
1606836199.8068,-36
1606836199.8087,-19
1606836199.8108,-7
1606836199.8114,7
1606836199.8127,34
1606836199.8148,66
1606836199.8168,83
1606836199.8187,92
1606836199.8207,97
1606836199.8228,90
1606836199.8247,61
1606836199.8267,17
1606836199.8288,-29
1606836199.8308,-61
1606836199.8327,-78
1606836199.8348,-92
1606836199.8368,-97
1606836199.8387,-88
1606836199.8408,-80
1606836199.8415,-83
1606836199.8437,-78
1606836199.8458,-66
1606836199.8478,-61
1606836199.8497,-56
1606836199.8518,-48
1606836199.8538,-46
1606836199.8557,-44
1606836199.8578,-41
1606836199.8597,-39
1606836199.8618,-29
1606836199.8637,-22
1606836199.8657,-19
1606836199.8677,-14
1606836199.8697,-4
1606836200.3027,0
1606836200.3035,0
1606836200.3051,2
1606836200.3071,4
1606836200.3090,0
1606836200.3111,-7
1606836200.3132,-9
1606836200.3150,-4
1606836200.3170,-2
1606836200.3190,-4
1606836200.3210,-7
1606836200.3229,-2
1606836200.3250,-2
1606836200.3269,-9
1606836200.3277,-7
1606836200.3300,-4
1606836200.3320,-7
1606836200.3339,-7
1606836200.3359,-2
1606836200.3379,0
1606836200.3400,7
1606836200.3420,22
1606836200.3439,36
1606836200.3460,44
1606836200.3479,44
1606836200.3499,31
1606836200.3520,22
1606836200.3539,17
1606836200.3559,12
1606836200.3579,24
1606836200.3586,56
1606836200.3599,117
1606836200.3620,234
1606836200.3639,396
1606836200.3659,533
1606836200.3679,652
1606836200.3699,880
1606836200.3719,1252
1606836200.3739,1352
1606836200.3759,736
1606836200.3779,-70
1606836200.3799,-249
1606836200.3819,-141
1606836200.3839,-234
1606836200.3859,-269
1606836200.3879,-198
1606836200.3886,-198
1606836200.3910,-210
1606836200.3929,-173
1606836200.3949,-151
1606836200.3969,-149
1606836200.3989,-134
1606836200.4010,-122
1606836200.4029,-114
1606836200.4049,-102
1606836200.4069,-90
1606836200.4089,-83
1606836200.4111,-68
1606836200.4130,-56
1606836200.4149,-46
1606836200.4169,-29
1606836200.4189,-9
1606836200.4196,12
1606836200.4209,34
1606836200.4229,46
1606836200.4249,56
1606836200.4269,68
1606836200.4289,66
1606836200.4310,34
1606836200.4329,0
1606836200.4349,-31
1606836200.4370,-61
1606836200.4390,-73
1606836200.9029,-78
1606836200.9042,-78
1606836200.9065,-78
1606836200.9092,-75
1606836200.9176,-75
1606836200.9192,-75
1606836200.9212,-78
1606836200.9232,-78
1606836200.9252,-66
1606836200.9272,-61
1606836200.9292,-58
1606836200.9313,-53
1606836200.9332,-51
1606836200.9352,-48
1606836200.9372,-44
1606836200.9392,-36
1606836200.9412,-34
1606836200.9431,-29
1606836200.9452,-26
1606836200.9458,-22
1606836200.9471,-17
1606836200.9492,-14
1606836200.9512,-12
1606836200.9531,-7
1606836200.9551,-2
1606836200.9571,0
1606836200.9591,-4
1606836200.9612,-9
1606836200.9631,-9
1606836200.9652,-7
1606836200.9671,-4
1606836200.9691,-2
1606836200.9711,-4
1606836200.9731,-12
1606836200.9751,-9
1606836200.9760,-7
1606836200.9772,-7
1606836200.9791,-7
1606836200.9812,-4
1606836200.9831,-2
1606836200.9851,-4
1606836200.9871,-12
1606836200.9892,-12
1606836200.9912,-2
1606836200.9931,12
1606836200.9951,22
1606836200.9971,31
1606836200.9991,44
1606836201.0011,41
1606836201.0031,24
1606836201.0052,14
1606836201.0058,12
1606836201.0081,9
1606836201.0101,17
1606836201.0121,44
1606836201.0141,107
1606836201.0161,224
1606836201.0181,388
1606836201.0201,540
1606836201.0221,672
1606836201.0241,904
1606836201.0261,1254
1606836201.0281,1291
1606836201.0301,630
1606836201.0321,-95
1606836201.0341,-205
1606836201.0361,-139
1606836201.0369,-254
1606836201.0391,-269
1606836201.0411,-202
1606836201.0431,-205
1606836201.0451,-210
1606836201.0471,-180
1606836201.4424,-163
1606836201.4433,-154
1606836201.4451,-139
1606836201.4469,-129
1606836201.4489,-122
1606836201.4508,-110
1606836201.4527,-100
1606836201.4548,-92
1606836201.4555,-80
1606836201.4578,-66
1606836201.4597,-53
1606836201.4618,-46
1606836201.4638,-29
1606836201.4661,-7
1606836201.4678,12
1606836201.4698,24
1606836201.4717,39
1606836201.4737,46
1606836201.4757,41
1606836201.4777,14
1606836201.4797,-26
1606836201.4818,-58
1606836201.4838,-80
1606836201.4858,-97
1606836201.4865,-105
1606836201.4888,-100
1606836201.4908,-95
1606836201.4927,-97
1606836201.4947,-95
1606836201.4967,-88
1606836201.4987,-78
1606836201.5008,-73
1606836201.5027,-68
1606836201.5048,-61
1606836201.5067,-53
1606836201.5087,-51
1606836201.5107,-46
1606836201.5127,-41
1606836201.5147,-41
1606836201.5167,-41
1606836201.5174,-36
1606836201.5197,-29
1606836201.5217,-29
1606836201.5238,-26
1606836201.5257,-22
1606836201.5277,-19
1606836201.5297,-19
1606836201.5317,-17
1606836201.5337,-14
1606836201.5357,-12
1606836201.5377,-7
1606836201.5397,-9
1606836201.5417,-9
1606836201.5437,-7
1606836201.5457,-4
1606836201.5477,-2
1606836201.5485,-2
1606836201.5508,-2
1606836201.5527,-2
1606836201.5547,0
1606836201.5567,0
1606836201.5588,-2
1606836201.5607,-2
1606836201.5627,0
1606836201.5649,2
1606836201.5667,4
1606836201.5687,2
1606836201.5707,2
1606836201.5727,7
1606836201.5747,7
1606836201.5767,2
1606836201.5787,0
1606836201.5796,4
1606836202.0726,9
1606836202.0735,19
1606836202.0750,31
1606836202.0770,46
1606836202.0790,48
1606836202.0809,36
1606836202.0829,22
1606836202.0850,12
1606836202.0869,2
1606836202.0890,2
1606836202.0910,26
1606836202.0929,68
1606836202.0937,151
1606836202.0960,300
1606836202.0979,464
1606836202.0999,594
1606836202.1020,760
1606836202.1039,1068
1606836202.1059,1296
1606836202.1080,914
1606836202.1099,110
1606836202.1120,-242
1606836202.1139,-156
1606836202.1158,-210
1606836202.1179,-288
1606836202.1199,-224
1606836202.1219,-198
1606836202.1239,-215
1606836202.1246,-190
1606836202.1259,-166
1606836202.1279,-161
1606836202.1299,-154
1606836202.1320,-141
1606836202.1339,-134
1606836202.1359,-122
1606836202.1379,-105
1606836202.1399,-95
1606836202.1419,-90
1606836202.1439,-75
1606836202.1459,-53
1606836202.1479,-44
1606836202.1499,-29
1606836202.1521,-2
1606836202.1540,17
1606836202.1546,31
1606836202.1559,53
1606836202.1579,63
1606836202.1599,61
1606836202.1619,48
1606836202.1639,14
1606836202.1659,-29
1606836202.1679,-58
1606836202.1699,-68
1606836202.1719,-75
1606836202.1739,-85
1606836202.1759,-85
1606836202.1779,-78
1606836202.1799,-75
1606836202.1819,-73
1606836202.1839,-66
1606836202.1846,-58
1606836202.1859,-61
1606836202.1880,-58
1606836202.1899,-48
1606836202.1919,-44
1606836202.1939,-39
1606836202.1959,-31
1606836202.1979,-34
1606836202.1999,-41
1606836202.2019,-36
1606836202.2039,-26
1606836202.2059,-29
1606836202.2072,-29
1606836202.5533,-22
1606836202.5542,-17
1606836202.5560,-26
1606836202.5583,-29
1606836202.5604,-24
1606836202.5623,-29
1606836202.5643,-34
1606836202.5663,-26
1606836202.5683,-17
1606836202.5702,-24
1606836202.5723,-29
1606836202.5743,-24
1606836202.5763,-24
1606836202.5783,-39
1606836202.5802,-48
1606836202.5822,-34
1606836202.5843,-29
1606836202.5862,-46
1606836202.5869,-56
1606836202.5882,-41
1606836202.5905,-29
1606836202.5923,-31
1606836202.5942,-39
1606836202.5963,-36
1606836202.5982,-31
1606836202.6004,-26
1606836202.6022,-17
1606836202.6042,0
1606836202.6062,12
1606836202.6082,17
1606836202.6102,12
1606836202.6122,0
1606836202.6142,-7
1606836202.6162,-7
1606836202.6168,-14
1606836202.6183,-17
1606836202.6202,12
1606836202.6222,66
1606836202.6242,166
1606836202.6262,317
1606836202.6282,449
1606836202.6302,540
1606836202.6322,726
1606836202.6342,1110
1606836202.6363,1318
1606836202.6382,814
1606836202.6402,-14
1606836202.6422,-276
1606836202.6442,-156
1606836202.6462,-205
1606836202.6468,-259
1606836202.6482,-195
1606836202.6502,-178
1606836202.6522,-190
1606836202.6542,-163
1606836202.6562,-149
1606836202.6582,-146
1606836202.6602,-127
1606836202.6622,-110
1606836202.6642,-102
1606836202.6662,-90
1606836202.6682,-73
1606836202.6702,-63
1606836202.6722,-51
1606836202.6742,-39
1606836202.6762,-26
1606836202.6768,-12
1606836202.6782,9
1606836202.6802,26
1606836202.6822,46
1606836202.6842,61
1606836202.6863,66
1606836202.6883,70
1606836203.0926,63
1606836203.0934,31
1606836203.0959,-12
1606836203.0976,-48
1606836203.0995,-78
1606836203.1015,-100
1606836203.1021,-112
1606836203.1035,-117
1606836203.1055,-117
1606836203.1075,-112
1606836203.1095,-112
1606836203.1115,-107
1606836203.1135,-92
1606836203.1155,-83
1606836203.1175,-78
1606836203.1195,-73
1606836203.1214,-66
1606836203.1234,-63
1606836203.1254,-58
1606836203.1274,-53
1606836203.1295,-48
1606836203.1315,-41
1606836203.1321,-36
1606836203.1334,-31
1606836203.1354,-22
1606836203.1374,-19
1606836203.1395,-19
1606836203.1414,-14
1606836203.1434,-9
1606836203.1454,-7
1606836203.1474,-4
1606836203.1494,-4
1606836203.1515,-4
1606836203.1534,-2
1606836203.1554,-4
1606836203.1574,-14
1606836203.1594,-12
1606836203.1615,-2
1606836203.1620,-7
1606836203.1634,-14
1606836203.1654,-14
1606836203.1674,-7
1606836203.1694,-7
1606836203.1714,-2
1606836203.1734,17
1606836203.1754,34
1606836203.1774,36
1606836203.1794,26
1606836203.1815,17
1606836203.1836,9
1606836203.1855,2
1606836203.1874,4
1606836203.1894,19
1606836203.1915,41
1606836203.1921,107
1606836203.1935,239
1606836203.1954,391
1606836203.1974,503
1606836203.1994,616
1606836203.2014,855
1606836203.2034,1232
1606836203.2055,1323
1606836203.2075,684
1606836203.2094,-124
1606836203.2115,-283
1606836203.2134,-161
1606836203.2154,-237
1606836203.2174,-266
1606836203.2194,-195
1606836203.2214,-193
1606836203.2220,-198
1606836203.2234,-163
1606836203.2254,-151
1606836203.6630,-149
1606836203.6641,-127
1606836203.6665,-110
1606836203.6692,-110
1606836203.6712,-110
1606836203.6732,-100
1606836203.6752,-78
1606836203.6772,-58
1606836203.6792,-46
1606836203.6812,-34
1606836203.6832,-14
1606836203.6852,4
1606836203.6858,14
1606836203.6872,34
1606836203.6892,56
1606836203.6912,70
1606836203.6931,68
1606836203.6951,61
1606836203.6971,39
1606836203.6991,-4
1606836203.7011,-46
1606836203.7031,-68
1606836203.7051,-80
1606836203.7071,-92
1606836203.7091,-102
1606836203.7112,-100
1606836203.7131,-88
1606836203.7152,-83
1606836203.7157,-80
1606836203.7171,-73
1606836203.7191,-68
1606836203.7211,-68
1606836203.7232,-61
1606836203.7252,-51
1606836203.7271,-48
1606836203.7291,-51
1606836203.7311,-48
1606836203.7331,-36
1606836203.7351,-29
1606836203.7371,-26
1606836203.7391,-29
1606836203.7412,-26
1606836203.7431,-19
1606836203.7451,-14
1606836203.7457,-14
1606836203.7471,-7
1606836203.7490,-4
1606836203.7511,-4
1606836203.7531,-2
1606836203.7551,2
1606836203.7571,2
1606836203.7591,2
1606836203.7611,0
1606836203.7631,-2
1606836203.7651,0
1606836203.7670,0
1606836203.7691,-2
1606836203.7711,-4
1606836203.7731,-4
1606836203.7751,-7
1606836203.7757,-2
1606836203.7771,0
1606836203.7791,-2
1606836203.7811,-7
1606836203.7831,-7
1606836203.7851,2
1606836203.7871,14
1606836203.7891,29
1606836203.7911,39
1606836203.7931,44
1606836203.7951,34
1606836203.7971,22
1606836203.7990,19
1606836204.2627,14
1606836204.2637,12
1606836204.2660,24
1606836204.2678,53
1606836204.2697,127
1606836204.2719,254
1606836204.2738,410
1606836204.2757,545
1606836204.2777,674
1606836204.2797,926
1606836204.2817,1293
1606836204.2837,1291
1606836204.2856,564
1606836204.2877,-173
1606836204.2896,-246
1606836204.2917,-158
1606836204.2923,-264
1606836204.2936,-269
1606836204.2956,-200
1606836204.2976,-212
1606836204.2996,-212
1606836204.3016,-178
1606836204.3036,-161
1606836204.3056,-154
1606836204.3076,-136
1606836204.3096,-124
1606836204.3116,-114
1606836204.3136,-100
1606836204.3156,-90
1606836204.3176,-83
1606836204.3196,-68
1606836204.3216,-51
1606836204.3222,-41
1606836204.3236,-31
1606836204.3257,-12
1606836204.3276,9
1606836204.3296,29
1606836204.3317,44
1606836204.3336,56
1606836204.3356,63
1606836204.3376,53
1606836204.3396,29
1606836204.3416,-7
1606836204.3436,-39
1606836204.3456,-63
1606836204.3476,-78
1606836204.3496,-88
1606836204.3516,-90
1606836204.3522,-88
1606836204.3536,-88
1606836204.3556,-88
1606836204.3576,-83
1606836204.3596,-75
1606836204.3616,-70
1606836204.3636,-61
1606836204.3656,-58
1606836204.3677,-56
1606836204.3696,-51
1606836204.3716,-41
1606836204.3736,-39
1606836204.3756,-41
1606836204.3776,-39
1606836204.3796,-34
1606836204.3816,-31
1606836204.3822,-29
1606836204.3837,-24
1606836204.3856,-22
1606836204.3876,-19
1606836204.3896,-17
1606836204.3916,-14
1606836204.3936,-9
1606836204.3956,-7
1606836204.3976,-9
1606836204.8027,-7
1606836204.8036,-2
1606836204.8060,-2
1606836204.8087,-2
1606836204.8106,0
1606836204.8126,-2
1606836204.8147,-4
1606836204.8152,-2
1606836204.8166,-2
1606836204.8186,-4
1606836204.8207,-12
1606836204.8226,-17
1606836204.8246,-9
1606836204.8266,-4
1606836204.8286,-7
1606836204.8307,-7
1606836204.8326,0
1606836204.8346,4
1606836204.8366,4
1606836204.8386,0
1606836204.8406,-2
1606836204.8426,2
1606836204.8446,7
1606836204.8452,7
1606836204.8466,12
1606836204.8486,9
1606836204.8506,2
1606836204.8525,2
1606836204.8546,7
1606836204.8565,12
1606836204.8586,22
1606836204.8606,36
1606836204.8626,44
1606836204.8645,41
1606836204.8667,39
1606836204.8686,31
1606836204.8706,26
1606836204.8726,14
1606836204.8746,9
1606836204.8752,24
1606836204.8767,66
1606836204.8785,141
1606836204.8806,276
1606836204.8826,437
1606836204.8846,572
1606836204.8866,706
1606836204.8886,978
1606836204.8906,1332
1606836204.8926,1249
1606836204.8946,479
1606836204.8965,-176
1606836204.8985,-195
1606836204.9005,-161
1606836204.9025,-276
1606836204.9045,-261
1606836204.9052,-200
1606836204.9065,-215
1606836204.9086,-207
1606836204.9106,-176
1606836204.9126,-168
1606836204.9145,-161
1606836204.9165,-136
1606836204.9186,-127
1606836204.9206,-127
1606836204.9226,-117
1606836204.9245,-102
1606836204.9265,-95
1606836204.9286,-85
1606836204.9306,-70
1606836204.9326,-61
1606836204.9346,-46
1606836204.9352,-24
1606836204.9365,-4
1606836205.3726,9
1606836205.3738,24
1606836205.3762,46
1606836205.3779,56
1606836205.3799,53
1606836205.3819,31
1606836205.3839,0
1606836205.3859,-41
1606836205.3879,-78
1606836205.3899,-88
1606836205.3919,-88
1606836205.3926,-92
1606836205.3942,-90
1606836205.3959,-88
1606836205.3979,-80
1606836205.3999,-73
1606836205.4018,-68
1606836205.4038,-63
1606836205.4058,-58
1606836205.4078,-56
1606836205.4098,-51
1606836205.4119,-44
1606836205.4139,-41
1606836205.4159,-39
1606836205.4178,-39
1606836205.4198,-36
1606836205.4218,-29
1606836205.4224,-29
1606836205.4238,-29
1606836205.4258,-26
1606836205.4278,-26
1606836205.4298,-26
1606836205.4320,-22
1606836205.4338,-17
1606836205.4358,-19
1606836205.4378,-19
1606836205.4398,-19
1606836205.4419,-19
1606836205.4438,-17
1606836205.4458,-14
1606836205.4478,-9
1606836205.4499,-7
1606836205.4518,-7
1606836205.4524,-9
1606836205.4538,-7
1606836205.4559,-2
1606836205.4578,-4
1606836205.4598,-4
1606836205.4619,0
1606836205.4638,2
1606836205.4658,2
1606836205.4678,2
1606836205.4698,4
1606836205.4719,7
1606836205.4738,4
1606836205.4758,4
1606836205.4778,12
1606836205.4798,14
1606836205.4818,9
1606836205.4824,7
1606836205.4838,9
1606836205.4858,4
1606836205.4878,2
1606836205.4899,7
1606836205.4919,7
1606836205.4938,9
1606836205.4958,9
1606836205.4978,7
1606836205.4998,12
1606836205.5018,17
1606836205.5038,12
1606836205.5058,4
1606836205.5078,2
1606836205.9129,7
1606836205.9141,22
1606836205.9158,39
1606836205.9182,46
1606836205.9202,46
1606836205.9222,36
1606836205.9242,26
1606836205.9262,22
1606836205.9282,9
1606836205.9302,-4
1606836205.9322,7
1606836205.9342,41
1606836205.9362,114
1606836205.9382,249
1606836205.9402,415
1606836205.9422,542
1606836205.9442,672
1606836205.9462,939
1606836205.9469,1298
1606836205.9482,1247
1606836205.9502,498
1606836205.9521,-183
1606836205.9542,-222
1606836205.9562,-173
1606836205.9581,-293
1606836205.9601,-278
1606836205.9622,-212
1606836205.9642,-234
1606836205.9661,-237
1606836205.9682,-198
1606836205.9702,-185
1606836205.9722,-178
1606836205.9742,-158
1606836205.9762,-139
1606836205.9767,-127
1606836205.9782,-119
1606836205.9802,-107
1606836205.9821,-95
1606836205.9841,-80
1606836205.9861,-68
1606836205.9881,-53
1606836205.9904,-34
1606836205.9922,-9
1606836205.9941,14
1606836205.9961,31
1606836205.9982,46
1606836206.0002,63
1606836206.0021,70
1606836206.0041,63
1606836206.0062,46
1606836206.0068,12
1606836206.0081,-26
1606836206.0101,-53
1606836206.0121,-66
1606836206.0141,-70
1606836206.0161,-80
1606836206.0182,-83
1606836206.0201,-75
1606836206.0221,-63
1606836206.0241,-58
1606836206.0261,-58
1606836206.0281,-53
1606836206.0301,-46
1606836206.0322,-48
1606836206.0342,-41
1606836206.0361,-29
1606836206.0367,-26
1606836206.0381,-26
1606836206.0402,-24
1606836206.0421,-17
1606836206.0441,-17
1606836206.0461,-17
1606836206.0481,-12
1606836206.4825,-9
1606836206.4831,-7
1606836206.4849,-7
1606836206.4867,-2
1606836206.4873,0
1606836206.4887,-7
1606836206.4908,-14
1606836206.4928,-9
1606836206.4947,-4
1606836206.4967,-4
1606836206.4988,-7
1606836206.5007,-7
1606836206.5027,-7
1606836206.5047,-7
1606836206.5067,-7
1606836206.5088,-7
1606836206.5108,-7
1606836206.5127,-9
1606836206.5147,-9
1606836206.5169,-4
1606836206.5174,-7
1606836206.5188,-14
1606836206.5208,-12
1606836206.5227,-7
1606836206.5248,-2
1606836206.5268,-4
1606836206.5287,-4
1606836206.5308,0
1606836206.5327,2
1606836206.5347,0
1606836206.5367,-2
1606836206.5387,-2
1606836206.5408,2
1606836206.5428,4
1606836206.5448,7
1606836206.5467,19
1606836206.5473,34
1606836206.5487,44
1606836206.5507,44
1606836206.5527,29
1606836206.5547,17
1606836206.5567,9
1606836206.5588,2
1606836206.5608,7
1606836206.5627,26
1606836206.5647,66
1606836206.5668,156
1606836206.5687,303
1606836206.5707,437
1606836206.5727,525
1606836206.5747,694
1606836206.5753,1056
1606836206.5768,1345
1606836206.5787,1002
1606836206.5808,158
1606836206.5827,-271
1606836206.5847,-178
1606836206.5867,-183
1606836206.5887,-264
1606836206.5907,-217
1606836206.5928,-185
1606836206.5947,-198
1606836206.5967,-178
1606836206.5987,-156
1606836206.6008,-149
1606836206.6027,-134
1606836206.6047,-114
1606836206.6053,-107
1606836206.6067,-97
1606836206.6088,-78
1606836206.6109,-66
1606836206.6128,-58
1606836206.6147,-41
1606836207.0226,-19
1606836207.0235,-2
1606836207.0252,7
1606836207.0271,24
1606836207.0291,48
1606836207.0312,66
1606836207.0331,75
1606836207.0338,80
1606836207.0351,75
1606836207.0371,61
1606836207.0391,29
1606836207.0410,-14
1606836207.0431,-48
1606836207.0451,-75
1606836207.0471,-97
1606836207.0491,-102
1606836207.0510,-97
1606836207.0531,-92
1606836207.0550,-85
1606836207.0571,-80
1606836207.0591,-78
1606836207.0612,-70
1606836207.0631,-66
1606836207.0637,-61
1606836207.0651,-53
1606836207.0671,-48
1606836207.0691,-46
1606836207.0710,-44
1606836207.0730,-41
1606836207.0750,-36
1606836207.0770,-31
1606836207.0790,-26
1606836207.0811,-19
1606836207.0831,-12
1606836207.0850,-14
1606836207.0870,-12
1606836207.0890,-7
1606836207.0911,-12
1606836207.0930,-9
1606836207.0936,-2
1606836207.0950,0
1606836207.0970,-2
1606836207.0990,-2
1606836207.1010,-2
1606836207.1030,0
1606836207.1050,-2
1606836207.1071,-7
1606836207.1090,-4
1606836207.1113,0
1606836207.1131,0
1606836207.1150,0
1606836207.1170,0
1606836207.1190,-4
1606836207.1210,-7
1606836207.1230,-4
1606836207.1236,-2
1606836207.1250,2
1606836207.1270,4
1606836207.1290,2
1606836207.1311,0
1606836207.1331,2
1606836207.1350,2
1606836207.1370,2
1606836207.1390,2
1606836207.1410,0
1606836207.1431,-7
1606836207.1450,-14
1606836207.1470,-12
1606836207.1491,-4
1606836207.1510,2
1606836207.1530,14
1606836207.1536,29
1606836207.1550,31
1606836207.6229,24
1606836207.6242,14
1606836207.6265,4
1606836207.6282,-7
1606836207.6302,-17
1606836207.6322,-7
1606836207.6342,26
1606836207.6362,97
1606836207.6382,234
1606836207.6403,398
1606836207.6422,530
1606836207.6442,670
1606836207.6462,956
1606836207.6483,1300
1606836207.6489,1181
1606836207.6502,410
1606836207.6522,-202
1606836207.6543,-205
1606836207.6562,-173
1606836207.6582,-281
1606836207.6602,-259
1606836207.6622,-200
1606836207.6642,-215
1606836207.6662,-202
1606836207.6682,-168
1606836207.6702,-163
1606836207.6724,-158
1606836207.6743,-139
1606836207.6762,-124
1606836207.6782,-112
1606836207.6788,-97
1606836207.6802,-88
1606836207.6821,-73
1606836207.6841,-61
1606836207.6861,-46
1606836207.6882,-29
1606836207.6902,-12
1606836207.6921,7
1606836207.6941,31
1606836207.6961,51
1606836207.6981,66
1606836207.7001,80
1606836207.7021,92
1606836207.7041,85
1606836207.7061,58
1606836207.7082,22
1606836207.7087,-14
1606836207.7101,-44
1606836207.7121,-58
1606836207.7141,-63
1606836207.7161,-66
1606836207.7181,-66
1606836207.7201,-61
1606836207.7221,-56
1606836207.7241,-51
1606836207.7261,-51
1606836207.7281,-51
1606836207.7301,-46
1606836207.7321,-41
1606836207.7341,-36
1606836207.7361,-31
1606836207.7381,-26
1606836207.7387,-26
1606836207.7401,-22
1606836207.7421,-17
1606836207.7441,-17
1606836207.7461,-17
1606836207.7482,-17
1606836207.7501,-12
1606836207.7521,-4
1606836207.7541,-4
1606836207.7561,-4
1606836207.7583,-7
1606836208.1927,-12
1606836208.1937,-9
1606836208.1961,-9
1606836208.1972,-7
1606836208.1990,-4
1606836208.2008,-4
1606836208.2028,-4
1606836208.2048,-4
1606836208.2068,-7
1606836208.2088,-17
1606836208.2108,-24
1606836208.2128,-19
1606836208.2148,-14
1606836208.2168,-19
1606836208.2188,-22
1606836208.2208,-22
1606836208.2227,-26
1606836208.2247,-31
1606836208.2267,-24
1606836208.2273,-19
1606836208.2288,-19
1606836208.2307,-17
1606836208.2327,-9
1606836208.2347,-7
1606836208.2367,-9
1606836208.2387,-9
1606836208.2408,-9
1606836208.2427,-4
1606836208.2447,-4
1606836208.2467,-7
1606836208.2487,-4
1606836208.2508,0
1606836208.2527,-4
1606836208.2547,-4
1606836208.2567,7
1606836208.2573,26
1606836208.2587,36
1606836208.2608,36
1606836208.2627,34
1606836208.2647,26
1606836208.2667,17
1606836208.2687,9
1606836208.2707,12
1606836208.2727,22
1606836208.2747,51
1606836208.2767,122
1606836208.2787,249
1606836208.2807,410
1606836208.2827,545
1606836208.2847,682
1606836208.2867,941
1606836208.2873,1261
1606836208.2887,1178
1606836208.2907,474
1606836208.2927,-127
1606836208.2949,-163
1606836208.2967,-146
1606836208.2987,-256
1606836208.3008,-232
1606836208.3027,-176
1606836208.3047,-195
1606836208.3067,-188
1606836208.3087,-154
1606836208.3107,-144
1606836208.3127,-141
1606836208.3147,-129
1606836208.3167,-117
1606836208.3173,-102
1606836208.3187,-92
1606836208.3207,-80
1606836208.3227,-68
1606836208.3247,-56
1606836208.3267,-44
1606836208.7631,-29
1606836208.7643,-12
1606836208.7667,9
1606836208.7684,29
1606836208.7705,48
1606836208.7724,73
1606836208.7744,85
1606836208.7765,85
1606836208.7784,78
1606836208.7791,58
1606836208.7804,17
1606836208.7825,-29
1606836208.7844,-51
1606836208.7864,-66
1606836208.7884,-80
1606836208.7904,-85
1606836208.7923,-80
1606836208.7944,-75
1606836208.7963,-73
1606836208.7984,-70
1606836208.8005,-63
1606836208.8023,-58
1606836208.8043,-58
1606836208.8063,-51
1606836208.8083,-41
1606836208.8089,-41
1606836208.8104,-36
1606836208.8123,-29
1606836208.8144,-24
1606836208.8163,-26
1606836208.8170,-29
1606836208.8183,-24
1606836208.8204,-17
1606836208.8225,-14
1606836208.8244,-14
1606836208.8263,-12
1606836208.8283,-12
1606836208.8304,-14
1606836208.8323,-12
1606836208.8343,-9
1606836208.8349,-12
1606836208.8363,-14
1606836208.8383,-12
1606836208.8404,-12
1606836208.8423,-14
1606836208.8443,-14
1606836208.8463,-14
1606836208.8483,-9
1606836208.8504,-9
1606836208.8523,-17
1606836208.8543,-17
1606836208.8563,-12
1606836208.8583,-14
1606836208.8604,-22
1606836208.8623,-17
1606836208.8643,-12
1606836208.8649,-19
1606836208.8663,-26
1606836208.8683,-24
1606836208.8703,-22
1606836208.8723,-19
1606836208.8744,-17
1606836208.8763,-22
1606836208.8783,-17
1606836208.8803,-12
1606836208.8823,-17
1606836208.8843,-22
1606836208.8863,-12
1606836208.8883,-9
1606836208.8904,-9
1606836208.8923,-4
1606836208.8943,7
1606836208.8949,14
1606836209.2726,19
1606836209.2733,19
1606836209.2757,9
1606836209.2784,-2
1606836209.2805,-7
1606836209.2824,-9
1606836209.2844,-4
1606836209.2864,12
1606836209.2884,63
1606836209.2905,178
1606836209.2924,332
1606836209.2946,459
1606836209.2965,569
1606836209.2970,794
1606836209.2984,1166
1606836209.3004,1232
1606836209.3023,604
1606836209.3044,-114
1606836209.3063,-234
1606836209.3084,-158
1606836209.3104,-246
1606836209.3123,-259
1606836209.3143,-200
1606836209.3164,-207
1606836209.3184,-207
1606836209.3205,-178
1606836209.3224,-166
1606836209.3243,-154
1606836209.3263,-134
1606836209.3269,-122
1606836209.3283,-114
1606836209.3304,-105
1606836209.3323,-90
1606836209.3343,-75
1606836209.3363,-61
1606836209.3383,-44
1606836209.3405,-26
1606836209.3423,-7
1606836209.3443,17
1606836209.3463,39
1606836209.3483,53
1606836209.3505,70
1606836209.3523,90
1606836209.3543,100
1606836209.3563,95
1606836209.3569,75
1606836209.3584,34
1606836209.3605,-17
1606836209.3623,-56
1606836209.3643,-83
1606836209.3663,-97
1606836209.3683,-97
1606836209.3704,-95
1606836209.3723,-90
1606836209.3743,-85
1606836209.3763,-83
1606836209.3784,-75
1606836209.3804,-63
1606836209.3823,-63
1606836209.3843,-61
1606836209.3863,-51
1606836209.3869,-44
1606836209.3885,-48
1606836209.3904,-48
1606836209.3923,-41
1606836209.3943,-39
1606836209.3963,-36
1606836209.3983,-34
1606836209.4004,-26
1606836209.4023,-14
1606836209.4043,-12
1606836209.4063,-19
1606836209.4083,-17
1606836209.8428,-7
1606836209.8441,-2
1606836209.8465,-2
1606836209.8482,2
1606836209.8490,2
1606836209.8501,-12
1606836209.8522,-24
1606836209.8541,-22
1606836209.8561,-14
1606836209.8581,-14
1606836209.8601,-19
1606836209.8621,-24
1606836209.8641,-22
1606836209.8661,-19
1606836209.8681,-22
1606836209.8701,-24
1606836209.8721,-19
1606836209.8741,-19
1606836209.8761,-12
1606836209.8781,-2
1606836209.8788,7
1606836209.8802,14
1606836209.8821,17
1606836209.8841,14
1606836209.8861,4
1606836209.8881,-7
1606836209.8901,-14
1606836209.8922,-14
1606836209.8941,-4
1606836209.8962,17
1606836209.8981,63
1606836209.9001,171
1606836209.9021,327
1606836209.9041,449
1606836209.9061,542
1606836209.9080,750
1606836209.9087,1139
1606836209.9100,1320
1606836209.9120,787
1606836209.9141,-34
1606836209.9162,-276
1606836209.9181,-158
1606836209.9200,-217
1606836209.9221,-266
1606836209.9242,-198
1606836209.9260,-185
1606836209.9280,-195
1606836209.9300,-171
1606836209.9320,-158
1606836209.9340,-154
1606836209.9360,-127
1606836209.9380,-110
1606836209.9386,-105
1606836209.9400,-95
1606836209.9421,-80
1606836209.9440,-68
1606836209.9461,-58
1606836209.9480,-41
1606836209.9500,-19
1606836209.9521,2
1606836209.9540,22
1606836209.9560,48
1606836209.9580,73
1606836209.9600,85
1606836209.9620,100
1606836209.9641,107
1606836209.9660,102
1606836209.9680,80
1606836209.9686,34
1606836209.9700,-12
1606836209.9720,-48
1606836209.9740,-70
1606836209.9761,-83
1606836210.4124,-80
1606836210.4134,-78
1606836210.4158,-73
1606836210.4185,-68
1606836210.4206,-66
1606836210.4225,-63
1606836210.4245,-66
1606836210.4265,-70
1606836210.4271,-58
1606836210.4285,-46
1606836210.4305,-51
1606836210.4324,-51
1606836210.4344,-46
1606836210.4364,-46
1606836210.4384,-41
1606836210.4405,-31
1606836210.4424,-24
1606836210.4444,-19
1606836210.4466,-17
1606836210.4485,-12
1606836210.4505,-9
1606836210.4524,-9
1606836210.4544,-7
1606836210.4565,-2
1606836210.4584,2
1606836210.4605,0
1606836210.4624,-2
1606836210.4644,-2
1606836210.4664,-2
1606836210.4684,-7
1606836210.4705,-4
1606836210.4724,2
1606836210.4744,4
1606836210.4764,-2
1606836210.4784,-12
1606836210.4804,-12
1606836210.4824,-4
1606836210.4844,-4
1606836210.4864,-7
1606836210.4870,-9
1606836210.4884,-12
1606836210.4904,-14
1606836210.4924,-9
1606836210.4944,2
1606836210.4964,12
1606836210.4983,17
1606836210.5005,24
1606836210.5023,22
1606836210.5044,12
1606836210.5064,2
1606836210.5084,-2
1606836210.5104,-4
1606836210.5124,4
1606836210.5143,26
1606836210.5163,85
1606836210.5170,210
1606836210.5183,369
1606836210.5204,506
1606836210.5224,628
1606836210.5243,853
1606836210.5264,1208
1606836210.5283,1296
1606836210.5304,682
1606836210.5324,-95
1606836210.5344,-261
1606836210.5363,-163
1606836210.5383,-256
1606836210.5404,-288
1606836210.5424,-215
1606836210.5445,-215
1606836210.5464,-222
1606836210.5469,-188
1606836210.5484,-171
1606836210.9828,-168
1606836210.9838,-146
1606836210.9862,-134
1606836210.9889,-129
1606836210.9908,-112
1606836210.9929,-100
1606836210.9950,-95
1606836210.9968,-88
1606836210.9988,-78
1606836211.0008,-61
1606836211.0028,-41
1606836211.0048,-26
1606836211.0054,-7
1606836211.0068,19
1606836211.0088,36
1606836211.0109,48
1606836211.0128,63
1606836211.0148,66
1606836211.0168,44
1606836211.0189,9
1606836211.0208,-24
1606836211.0227,-48
1606836211.0247,-68
1606836211.0267,-75
1606836211.0287,-73
1606836211.0309,-70
1606836211.0328,-75
1606836211.0347,-85
1606836211.0354,-78
1606836211.0367,-63
1606836211.0387,-53
1606836211.0408,-51
1606836211.0427,-48
1606836211.0447,-44
1606836211.0467,-39
1606836211.0487,-36
1606836211.0507,-34
1606836211.0528,-29
1606836211.0547,-26
1606836211.0567,-24
1606836211.0587,-22
1606836211.0608,-17
1606836211.0627,-12
1606836211.0647,-9
1606836211.0653,-7
1606836211.0667,-7
1606836211.0687,-4
1606836211.0710,0
1606836211.0728,4
1606836211.0747,4
1606836211.0767,2
1606836211.0787,4
1606836211.0808,9
1606836211.0827,9
1606836211.0847,9
1606836211.0867,12
1606836211.0887,12
1606836211.0907,9
1606836211.0927,9
1606836211.0947,9
1606836211.0954,12
1606836211.0967,14
1606836211.0987,9
1606836211.1007,7
1606836211.1028,12
1606836211.1047,19
1606836211.1067,14
1606836211.1087,7
1606836211.1108,7
1606836211.1128,12
1606836211.1147,12
1606836211.1167,9
1606836211.1187,12
1606836211.5529,12
1606836211.5542,12
1606836211.5566,9
1606836211.5583,14
1606836211.5603,22
1606836211.5622,29
1606836211.5642,41
1606836211.5662,51
1606836211.5682,34
1606836211.5702,9
1606836211.5722,9
1606836211.5743,9
1606836211.5762,2
1606836211.5782,9
1606836211.5802,41
1606836211.5822,105
1606836211.5829,229
1606836211.5842,393
1606836211.5862,533
1606836211.5882,665
1606836211.5903,907
1606836211.5922,1247
1606836211.5942,1242
1606836211.5962,562
1606836211.5982,-132
1606836211.6004,-215
1606836211.6022,-168
1606836211.6042,-288
1606836211.6062,-283
1606836211.6082,-215
1606836211.6102,-227
1606836211.6121,-227
1606836211.6128,-188
1606836211.6142,-178
1606836211.6161,-171
1606836211.6181,-144
1606836211.6201,-127
1606836211.6221,-122
1606836211.6242,-107
1606836211.6262,-97
1606836211.6281,-90
1606836211.6301,-70
1606836211.6321,-56
1606836211.6341,-46
1606836211.6361,-26
1606836211.6381,-7
1606836211.6402,12
1606836211.6421,39
1606836211.6427,58
1606836211.6441,70
1606836211.6461,80
1606836211.6481,78
1606836211.6501,58
1606836211.6521,31
1606836211.6542,0
1606836211.6562,-31
1606836211.6581,-48
1606836211.6602,-51
1606836211.6622,-58
1606836211.6641,-66
1606836211.6661,-58
1606836211.6681,-53
1606836211.6701,-53
1606836211.6721,-48
1606836211.6727,-39
1606836211.6742,-34
1606836211.6761,-29
1606836211.6781,-24
1606836211.6801,-26
1606836211.6821,-22
1606836211.6841,-17
1606836211.6861,-14
1606836211.6881,-12
1606836212.0927,-9
1606836212.0937,-9
1606836212.0961,-7
1606836212.0991,-4
1606836212.1009,-4
1606836212.1016,-7
1606836212.1027,-4
1606836212.1050,2
1606836212.1067,7
1606836212.1087,-2
1606836212.1107,-12
1606836212.1127,-14
1606836212.1147,-14
1606836212.1168,-14
1606836212.1187,-9
1606836212.1208,-4
1606836212.1227,-4
1606836212.1247,-4
1606836212.1267,-4
1606836212.1287,0
1606836212.1307,0
1606836212.1313,-2
1606836212.1326,-2
1606836212.1346,2
1606836212.1366,2
1606836212.1387,-2
1606836212.1407,2
1606836212.1427,7
1606836212.1446,4
1606836212.1467,9
1606836212.1487,12
1606836212.1506,7
1606836212.1526,4
1606836212.1546,12
1606836212.1566,14
1606836212.1587,17
1606836212.1607,19
1606836212.1612,17
1606836212.1626,12
1606836212.1646,12
1606836212.1666,12
1606836212.1687,9
1606836212.1707,17
1606836212.1726,31
1606836212.1746,44
1606836212.1767,44
1606836212.1786,41
1606836212.1807,39
1606836212.1826,26
1606836212.1846,12
1606836212.1866,7
1606836212.1886,7
1606836212.1906,26
1606836212.1912,70
1606836212.1928,158
1606836212.1947,298
1606836212.1966,445
1606836212.1986,555
1606836212.2007,709
1606836212.2026,1027
1606836212.2046,1330
1606836212.2066,1068
1606836212.2086,244
1606836212.2107,-239
1606836212.2126,-180
1606836212.2146,-188
1606836212.2166,-278
1606836212.2186,-234
1606836212.2206,-198
1606836212.2212,-217
1606836212.2226,-195
1606836212.2246,-166
1606836212.2266,-163
1606836212.6625,-151
1606836212.6637,-129
1606836212.6662,-119
1606836212.6688,-112
1606836212.6708,-107
1606836212.6728,-92
1606836212.6748,-83
1606836212.6768,-83
1606836212.6788,-73
1606836212.6809,-48
1606836212.6829,-26
1606836212.6848,-14
1606836212.6854,7
1606836212.6868,36
1606836212.6888,53
1606836212.6907,63
1606836212.6928,73
1606836212.6947,68
1606836212.6967,36
1606836212.6988,-4
1606836212.7007,-41
1606836212.7028,-63
1606836212.7047,-73
1606836212.7067,-83
1606836212.7087,-90
1606836212.7108,-80
1606836212.7127,-75
1606836212.7147,-75
1606836212.7154,-68
1606836212.7167,-66
1606836212.7187,-66
1606836212.7208,-56
1606836212.7230,-46
1606836212.7248,-41
1606836212.7267,-36
1606836212.7287,-34
1606836212.7308,-39
1606836212.7327,-39
1606836212.7347,-29
1606836212.7367,-24
1606836212.7387,-24
1606836212.7409,-29
1606836212.7427,-29
1606836212.7447,-22
1606836212.7453,-17
1606836212.7467,-17
1606836212.7487,-14
1606836212.7507,-9
1606836212.7527,-2
1606836212.7547,-4
1606836212.7567,-7
1606836212.7587,-2
1606836212.7608,2
1606836212.7627,-2
1606836212.7647,-2
1606836212.7667,-2
1606836212.7687,-2
1606836212.7708,-2
1606836212.7727,-2
1606836212.7747,-2
1606836212.7753,4
1606836212.7767,4
1606836212.7787,0
1606836212.7807,0
1606836212.7828,4
1606836212.7847,2
1606836212.7867,-2
1606836212.7887,0
1606836212.7907,2
1606836212.7927,4
1606836212.7947,14
1606836212.7967,31
1606836212.7987,39
1606836213.2028,31
1606836213.2037,24
1606836213.2062,19
1606836213.2078,9
1606836213.2098,2
1606836213.2118,0
1606836213.2138,9
1606836213.2158,41
1606836213.2178,114
1606836213.2198,254
1606836213.2220,408
1606836213.2238,511
1606836213.2258,635
1606836213.2278,936
1606836213.2298,1308
1606836213.2318,1205
1606836213.2324,410
1606836213.2338,-254
1606836213.2358,-254
1606836213.2378,-178
1606836213.2398,-281
1606836213.2418,-266
1606836213.2437,-207
1606836213.2458,-227
1606836213.2478,-220
1606836213.2497,-183
1606836213.2517,-173
1606836213.2537,-166
1606836213.2557,-146
1606836213.2577,-134
1606836213.2597,-127
1606836213.2618,-112
1606836213.2623,-97
1606836213.2637,-83
1606836213.2657,-68
1606836213.2677,-58
1606836213.2697,-39
1606836213.2717,-14
1606836213.2737,7
1606836213.2757,26
1606836213.2777,46
1606836213.2797,63
1606836213.2818,78
1606836213.2837,85
1606836213.2857,75
1606836213.2878,46
1606836213.2897,7
1606836213.2917,-34
1606836213.2923,-66
1606836213.2937,-80
1606836213.2957,-80
1606836213.2977,-80
1606836213.2997,-85
1606836213.3017,-80
1606836213.3037,-70
1606836213.3057,-68
1606836213.3077,-66
1606836213.3097,-58
1606836213.3117,-53
1606836213.3137,-51
1606836213.3157,-44
1606836213.3179,-39
1606836213.3198,-48
1606836213.3217,-51
1606836213.3223,-44
1606836213.3237,-41
1606836213.3257,-41
1606836213.3277,-34
1606836213.3297,-26
1606836213.3318,-24
1606836213.3337,-17
1606836213.3357,-12
1606836213.3378,-9
1606836213.7728,-7
1606836213.7737,-4
1606836213.7762,-2
1606836213.7789,0
1606836213.7809,-4
1606836213.7828,-9
1606836213.7849,-14
1606836213.7856,-14
1606836213.7868,-12
1606836213.7889,-12
1606836213.7908,-14
1606836213.7928,-14
1606836213.7947,-12
1606836213.7968,-12
1606836213.7987,-7
1606836213.8008,-7
1606836213.8027,-9
1606836213.8047,-4
1606836213.8067,2
1606836213.8088,2
1606836213.8108,0
1606836213.8128,2
1606836213.8147,4
1606836213.8154,0
1606836213.8167,-2
1606836213.8187,2
1606836213.8208,2
1606836213.8227,-4
1606836213.8247,-9
1606836213.8267,-7
1606836213.8287,4
1606836213.8307,22
1606836213.8327,31
1606836213.8347,34
1606836213.8368,26
1606836213.8387,24
1606836213.8407,17
1606836213.8427,7
1606836213.8447,0
1606836213.8455,4
1606836213.8468,26
1606836213.8488,85
1606836213.8507,198
1606836213.8527,357
1606836213.8547,503
1606836213.8567,623
1606836213.8587,833
1606836213.8608,1193
1606836213.8627,1371
1606836213.8647,865
1606836213.8667,29
1606836213.8688,-246
1606836213.8707,-156
1606836213.8727,-242
1606836213.8747,-308
1606836213.8753,-244
1606836213.8767,-229
1606836213.8787,-239
1606836213.8808,-207
1606836213.8827,-188
1606836213.8847,-178
1606836213.8867,-161
1606836213.8887,-144
1606836213.8908,-132
1606836213.8927,-119
1606836213.8947,-105
1606836213.8967,-97
1606836213.8987,-85
1606836213.9007,-68
1606836213.9027,-51
1606836213.9047,-36
1606836213.9053,-17
1606836213.9067,2
1606836214.3730,19
1606836214.3745,41
1606836214.3769,63
1606836214.3796,75
1606836214.3815,78
1606836214.3835,70
1606836214.3856,34
1606836214.3875,-14
1606836214.3895,-41
1606836214.3916,-56
1606836214.3936,-75
1606836214.3943,-83
1606836214.3956,-70
1606836214.3976,-63
1606836214.3995,-73
1606836214.4015,-73
1606836214.4035,-58
1606836214.4058,-51
1606836214.4076,-51
1606836214.4096,-46
1606836214.4115,-39
1606836214.4135,-36
1606836214.4155,-31
1606836214.4176,-29
1606836214.4195,-24
1606836214.4215,-22
1606836214.4235,-22
1606836214.4242,-22
1606836214.4256,-19
1606836214.4275,-9
1606836214.4295,-4
1606836214.4315,-9
1606836214.4335,-9
1606836214.4355,-9
1606836214.4375,-9
1606836214.4395,-2
1606836214.4415,4
1606836214.4435,4
1606836214.4455,0
1606836214.4475,2
1606836214.4495,0
1606836214.4515,-2
1606836214.4535,4
1606836214.4541,9
1606836214.4555,4
1606836214.4575,-2
1606836214.4595,0
1606836214.4615,-9
1606836214.4635,-12
1606836214.4655,-2
1606836214.4675,-4
1606836214.4695,-9
1606836214.4715,-7
1606836214.4735,-9
1606836214.4755,-7
1606836214.4775,-2
1606836214.4795,-2
1606836214.4814,-7
1606836214.4835,-2
1606836214.4841,0
1606836214.4855,2
1606836214.4875,2
1606836214.4895,0
1606836214.4915,-2
1606836214.4935,-2
1606836214.4955,-7
1606836214.4975,-7
1606836214.4994,-4
1606836214.5016,-2
1606836214.5035,-2
1606836214.5055,-2
1606836214.5076,-4
1606836214.5095,-4
1606836214.9128,-4
1606836214.9137,-4
1606836214.9162,2
1606836214.9189,14
1606836214.9208,24
1606836214.9228,29
1606836214.9248,31
1606836214.9268,24
1606836214.9287,14
1606836214.9309,7
1606836214.9327,2
1606836214.9347,-2
1606836214.9368,4
1606836214.9388,44
1606836214.9407,129
1606836214.9427,266
1606836214.9447,425
1606836214.9454,564
1606836214.9467,721
1606836214.9487,1014
1606836214.9507,1325
1606836214.9527,1122
1606836214.9547,330
1606836214.9567,-200
1606836214.9588,-173
1606836214.9608,-178
1606836214.9627,-281
1606836214.9647,-242
1606836214.9667,-198
1606836214.9687,-215
1606836214.9708,-200
1606836214.9727,-171
1606836214.9747,-163
1606836214.9753,-154
1606836214.9767,-134
1606836214.9787,-122
1606836214.9808,-110
1606836214.9827,-100
1606836214.9847,-97
1606836214.9867,-88
1606836214.9887,-78
1606836214.9907,-63
1606836214.9927,-44
1606836214.9947,-26
1606836214.9967,-14
1606836214.9987,7
1606836215.0010,36
1606836215.0027,56
1606836215.0047,70
1606836215.0053,88
1606836215.0067,78
1606836215.0087,41
1606836215.0108,9
1606836215.0127,-14
1606836215.0147,-46
1606836215.0168,-70
1606836215.0187,-80
1606836215.0208,-83
1606836215.0227,-85
1606836215.0247,-78
1606836215.0267,-68
1606836215.0287,-68
1606836215.0294,-68
1606836215.0308,-63
1606836215.0313,-53
1606836215.0327,-44
1606836215.0347,-44
1606836215.0367,-46
1606836215.0387,-39
1606836215.0407,-36
1606836215.0427,-39
1606836215.0447,-36
1606836215.0468,-34
1606836215.4528,-31
1606836215.4537,-24
1606836215.4562,-22
1606836215.4589,-26
1606836215.4609,-26
1606836215.4617,-19
1606836215.4628,-17
1606836215.4649,-14
1606836215.4668,-17
1606836215.4688,-26
1606836215.4710,-24
1606836215.4727,-19
1606836215.4748,-22
1606836215.4768,-24
1606836215.4787,-17
1606836215.4808,-17
1606836215.4828,-19
1606836215.4848,-17
1606836215.4867,-17
1606836215.4888,-24
1606836215.4907,-24
1606836215.4913,-19
1606836215.4927,-17
1606836215.4947,-17
1606836215.4969,-22
1606836215.4988,-24
1606836215.5008,-26
1606836215.5027,-22
1606836215.5047,-19
1606836215.5067,-24
1606836215.5087,-22
1606836215.5108,-19
1606836215.5127,-29
1606836215.5147,-36
1606836215.5167,-31
1606836215.5187,-31
1606836215.5207,-31
1606836215.5213,-14
1606836215.5227,4
1606836215.5247,9
1606836215.5267,9
1606836215.5287,4
1606836215.5308,-7
1606836215.5327,-12
1606836215.5347,-12
1606836215.5367,-14
1606836215.5387,-4
1606836215.5407,26
1606836215.5427,97
1606836215.5447,227
1606836215.5467,371
1606836215.5487,469
1606836215.5507,582
1606836215.5513,873
1606836215.5527,1276
1606836215.5547,1261
1606836215.5567,520
1606836215.5587,-193
1606836215.5607,-242
1606836215.5627,-151
1606836215.5647,-251
1606836215.5667,-254
1606836215.5687,-188
1606836215.5708,-193
1606836215.5727,-193
1606836215.5747,-163
1606836215.5767,-158
1606836215.5787,-151
1606836215.5807,-124
1606836215.5814,-110
1606836215.5827,-100
1606836215.5847,-88
1606836215.5867,-80
1606836216.0225,-66
1606836216.0235,-44
1606836216.0254,-26
1606836216.0272,-17
1606836216.0292,2
1606836216.0312,26
1606836216.0332,41
1606836216.0352,61
1606836216.0372,83
1606836216.0392,92
1606836216.0399,97
1606836216.0412,97
1606836216.0432,70
1606836216.0452,22
1606836216.0472,-26
1606836216.0492,-58
1606836216.0511,-78
1606836216.0531,-92
1606836216.0551,-97
1606836216.0571,-92
1606836216.0591,-90
1606836216.0612,-88
1606836216.0631,-80
1606836216.0652,-83
1606836216.0671,-85
1606836216.0691,-78
1606836216.0774,-70
1606836216.0791,-66
1606836216.0812,-61
1606836216.0831,-56
1606836216.0851,-56
1606836216.0871,-58
1606836216.0891,-48
1606836216.0911,-39
1606836216.0931,-39
1606836216.0951,-34
1606836216.0971,-29
1606836216.0991,-26
1606836216.1011,-24
1606836216.1031,-17
1606836216.1051,-12
1606836216.1057,-14
1606836216.1070,-14
1606836216.1091,-7
1606836216.1111,-4
1606836216.1131,-7
1606836216.1151,-7
1606836216.1171,-4
1606836216.1191,-9
1606836216.1211,-14
1606836216.1231,-14
1606836216.1251,-14
1606836216.1271,-19
1606836216.1292,-19
1606836216.1311,-14
1606836216.1330,-14
1606836216.1351,-19
1606836216.1357,-17
1606836216.1371,-17
1606836216.1391,-17
1606836216.1412,-12
1606836216.1431,2
1606836216.1451,14
1606836216.1471,19
1606836216.1491,17
1606836216.1511,4
1606836216.1530,-4
1606836216.1551,-7
1606836216.1571,-7
1606836216.1591,-9
1606836216.1611,2
1606836216.1631,46
1606836216.1651,132
1606836216.5627,276
1606836216.5637,432
1606836216.5661,552
1606836216.5688,689
1606836216.5708,985
1606836216.5727,1337
1606836216.5748,1220
1606836216.5767,415
1606836216.5787,-244
1606836216.5808,-242
1606836216.5827,-178
1606836216.5847,-293
1606836216.5867,-276
1606836216.5887,-207
1606836216.5908,-222
1606836216.5914,-215
1606836216.5927,-180
1606836216.5947,-178
1606836216.5967,-171
1606836216.5987,-144
1606836216.6007,-129
1606836216.6027,-119
1606836216.6047,-100
1606836216.6067,-88
1606836216.6087,-78
1606836216.6108,-61
1606836216.6128,-46
1606836216.6147,-36
1606836216.6167,-19
1606836216.6186,2
1606836216.6207,24
1606836216.6215,44
1606836216.6227,63
1606836216.6247,75
1606836216.6266,85
1606836216.6287,80
1606836216.6307,58
1606836216.6326,22
1606836216.6346,-17
1606836216.6366,-44
1606836216.6386,-61
1606836216.6407,-68
1606836216.6426,-75
1606836216.6446,-75
1606836216.6466,-68
1606836216.6486,-61
1606836216.6507,-58
1606836216.6513,-58
1606836216.6526,-53
1606836216.6546,-46
1606836216.6566,-46
1606836216.6587,-46
1606836216.6607,-39
1606836216.6626,-34
1606836216.6646,-34
1606836216.6666,-31
1606836216.6687,-24
1606836216.6707,-22
1606836216.6726,-24
1606836216.6746,-26
1606836216.6766,-22
1606836216.6786,-14
1606836216.6807,-12
1606836216.6813,-7
1606836216.6826,0
1606836216.6846,-2
1606836216.6866,-2
1606836216.6887,2
1606836216.6907,4
1606836216.6926,4
1606836216.6946,2
1606836216.6966,2
1606836216.6986,4
1606836217.1330,2
1606836217.1342,0
1606836217.1367,2
1606836217.1393,2
1606836217.1402,-7
1606836217.1423,-22
1606836217.1443,-22
1606836217.1463,-12
1606836217.1483,-12
1606836217.1507,-19
1606836217.1524,-26
1606836217.1543,-22
1606836217.1563,-17
1606836217.1583,-14
1606836217.1604,-12
1606836217.1623,-12
1606836217.1643,-17
1606836217.1663,-19
1606836217.1683,-19
1606836217.1704,-26
1606836217.1710,-26
1606836217.1722,-17
1606836217.1743,-4
1606836217.1762,12
1606836217.1782,22
1606836217.1803,17
1606836217.1823,12
1606836217.1842,7
1606836217.1862,0
1606836217.1882,-7
1606836217.1903,-4
1606836217.1922,14
1606836217.1943,51
1606836217.1962,132
1606836217.1982,276
1606836217.2003,440
