Time,ECG
1602947683.5828,133
1602947683.5835,884
1602947683.5859,2621
1602947683.5886,4234
1602947683.5906,5084
1602947683.5925,5859
1602947683.5946,6702
1602947683.5965,7290
1602947683.5985,7773
1602947683.6006,8293
1602947683.6028,8725
1602947683.6045,9070
1602947683.6065,9408
1602947683.6085,9711
1602947683.6105,9991
1602947683.6125,10253
1602947683.6145,10472
1602947683.6165,10659
1602947683.6186,10843
1602947683.6206,11021
1602947683.6225,11167
1602947683.6245,11293
1602947683.6265,11431
1602947683.6285,11555
1602947683.6306,11643
1602947683.6325,11725
1602947683.6346,11813
1602947683.6366,11890
1602947683.6385,11956
1602947683.6405,12002
1602947683.6425,12068
1602947683.6445,12284
1602947683.6465,12629
1602947683.6479,12639
1602947683.6495,12073
1602947683.6516,11691
1602947683.6536,12012
1602947683.6555,12311
1602947683.6575,12238
1602947683.6595,12235
1602947683.6616,12318
1602947683.6635,12274
1602947683.6655,12223
1602947683.6675,12243
1602947683.6696,12238
1602947683.6716,12189
1602947683.6735,12165
1602947683.6755,12148
1602947683.6775,12099
1602947683.6795,12051
1602947683.6822,12031
1602947683.6835,12012
1602947683.6856,11963
1602947683.6875,11917
1602947683.6895,11878
1602947683.6915,11815
1602947683.6935,11754
1602947683.6955,11720
1602947683.6975,11677
1602947683.6995,11621
1602947683.7016,11570
1602947683.7035,11509
1602947683.7055,11443
1602947683.7075,11378
1602947683.7095,11307
1602947683.7115,11227
1602947683.7135,11152
1602947683.7155,11079
1602947683.7175,10982
1602947683.7196,10868
1602947683.7216,10775
1602947683.7235,10703
1602947683.7255,10591
1602947684.1218,10455
1602947684.1226,10370
1602947684.1251,10307
1602947684.1277,10200
1602947684.1297,10088
1602947684.1317,10003
1602947684.1337,9935
1602947684.1357,9864
1602947684.1377,9779
1602947684.1397,9704
1602947684.1417,9634
1602947684.1437,9529
1602947684.1457,9435
1602947684.1477,9383
1602947684.1497,9298
1602947684.1518,9192
1602947684.1537,9121
1602947684.1557,9043
1602947684.1577,8941
1602947684.1596,8861
1602947684.1617,8783
1602947684.1637,8694
1602947684.1656,8616
1602947684.1677,8526
1602947684.1697,8426
1602947684.1716,8356
1602947684.1737,8290
1602947684.1757,8191
1602947684.1779,8091
1602947684.1797,8018
1602947684.1816,7931
1602947684.1836,7843
1602947684.1856,7785
1602947684.1876,7712
1602947684.1896,7608
1602947684.1917,7520
1602947684.1936,7438
1602947684.1956,7355
1602947684.1976,7277
1602947684.1996,7195
1602947684.2016,7127
1602947684.2036,7076
1602947684.2056,7008
1602947684.2076,6923
1602947684.2096,6840
1602947684.2117,6770
1602947684.2136,6697
1602947684.2156,6597
1602947684.2176,6493
1602947684.2196,6425
1602947684.2216,6369
1602947684.2236,6294
1602947684.2256,6213
1602947684.2276,6136
1602947684.2296,6072
1602947684.2316,6009
1602947684.2336,5922
1602947684.2356,5907
1602947684.2376,6102
1602947684.2397,6286
1602947684.2417,5936
1602947684.2436,5198
1602947684.2456,4996
1602947684.2476,5358
1602947684.2496,5453
1602947684.2516,5295
1602947684.2536,5288
1602947684.2556,5276
1602947684.2576,5154
1602947684.2596,5074
1602947684.2617,5045
1602947684.2636,4994
1602947684.2656,4933
1602947684.6919,4877
1602947684.6927,4817
1602947684.6952,4756
1602947684.6978,4702
1602947684.6998,4649
1602947684.7018,4596
1602947684.7041,4554
1602947684.7058,4508
1602947684.7078,4445
1602947684.7098,4396
1602947684.7118,4360
1602947684.7138,4314
1602947684.7158,4270
1602947684.7178,4234
1602947684.7198,4197
1602947684.7218,4144
1602947684.7238,4093
1602947684.7258,4054
1602947684.7278,4000
1602947684.7298,3935
1602947684.7317,3879
1602947684.7337,3828
1602947684.7357,3772
1602947684.7377,3714
1602947684.7397,3651
1602947684.7418,3568
1602947684.7437,3488
1602947684.7458,3427
1602947684.7478,3369
1602947684.7497,3308
1602947684.7517,3262
1602947684.7537,3221
1602947684.7557,3179
1602947684.7577,3143
1602947684.7598,3109
1602947684.7618,3070
1602947684.7637,3031
1602947684.7657,3009
1602947684.7679,2980
1602947684.7697,2936
1602947684.7717,2900
1602947684.7737,2876
1602947684.7757,2844
1602947684.7777,2805
1602947684.7797,2766
1602947684.7817,2732
1602947684.7838,2698
1602947684.7857,2659
1602947684.7877,2623
1602947684.7897,2589
1602947684.7918,2570
1602947684.7937,2545
1602947684.7957,2494
1602947684.7977,2463
1602947684.7997,2443
1602947684.8017,2404
1602947684.8037,2368
1602947684.8059,2353
1602947684.8078,2317
1602947684.8097,2264
1602947684.8117,2242
1602947684.8137,2242
1602947684.8157,2208
1602947684.8177,2164
1602947684.8198,2157
1602947684.8218,2137
1602947684.8237,2096
1602947684.8257,2091
1602947684.8277,2086
1602947684.8297,2045
1602947684.8318,2023
1602947684.8337,2011
1602947684.8358,1967
1602947685.2328,1916
1602947685.2335,1904
1602947685.2351,1897
1602947685.2371,1855
1602947685.2391,1817
1602947685.2410,1792
1602947685.2430,1768
1602947685.2450,1761
1602947685.2470,1751
1602947685.2490,1693
1602947685.2510,1668
1602947685.2530,1836
1602947685.2550,2108
1602947685.2570,2045
1602947685.2590,1455
1602947685.2610,1051
1602947685.2630,1338
1602947685.2650,1605
1602947685.2670,1506
1602947685.2691,1476
1602947685.2710,1537
1602947685.2730,1506
1602947685.2750,1481
1602947685.2770,1486
1602947685.2790,1455
1602947685.2810,1428
1602947685.2829,1418
1602947685.2850,1396
1602947685.2870,1384
1602947685.2890,1384
1602947685.2910,1367
1602947685.2930,1343
1602947685.2950,1340
1602947685.2970,1350
1602947685.2990,1340
1602947685.3013,1323
1602947685.3030,1311
1602947685.3050,1292
1602947685.3071,1292
1602947685.3089,1309
1602947685.3110,1304
1602947685.3130,1280
1602947685.3150,1280
1602947685.3170,1280
1602947685.3189,1251
1602947685.3210,1229
1602947685.3230,1224
1602947685.3249,1204
1602947685.3270,1168
1602947685.3290,1127
1602947685.3310,1090
1602947685.3330,1059
1602947685.3350,1025
1602947685.3370,995
1602947685.3389,974
1602947685.3410,947
1602947685.3430,920
1602947685.3450,908
1602947685.3470,910
1602947685.3490,906
1602947685.3510,893
1602947685.3530,889
1602947685.3550,893
1602947685.3570,889
1602947685.3590,874
1602947685.3610,869
1602947685.3630,869
1602947685.3650,852
1602947685.3669,840
1602947685.3690,842
1602947685.3710,830
1602947685.3730,818
1602947685.3750,828
1602947685.8025,825
1602947685.8033,804
1602947685.8058,791
1602947685.8084,784
1602947685.8104,772
1602947685.8123,753
1602947685.8144,733
1602947685.8163,726
1602947685.8184,721
1602947685.8204,706
1602947685.8223,694
1602947685.8243,692
1602947685.8263,685
1602947685.8285,680
1602947685.8303,682
1602947685.8323,675
1602947685.8343,660
1602947685.8363,646
1602947685.8383,631
1602947685.8404,641
1602947685.8423,680
1602947685.8444,704
1602947685.8463,680
1602947685.8483,646
1602947685.8503,631
1602947685.8524,621
1602947685.8543,609
1602947685.8563,602
1602947685.8583,595
1602947685.8604,583
1602947685.8623,575
1602947685.8643,573
1602947685.8663,570
1602947685.8683,570
1602947685.8704,568
1602947685.8723,556
1602947685.8743,553
1602947685.8763,668
1602947685.8783,925
1602947685.8804,1012
1602947685.8823,561
1602947685.8843,48
1602947685.8863,184
1602947685.8883,531
1602947685.8904,527
1602947685.8923,483
1602947685.8943,546
1602947685.8963,541
1602947685.8983,510
1602947685.9004,524
1602947685.9023,531
1602947685.9043,519
1602947685.9063,519
1602947685.9083,519
1602947685.9104,505
1602947685.9123,497
1602947685.9143,512
1602947685.9163,534
1602947685.9183,536
1602947685.9203,524
1602947685.9223,522
1602947685.9243,527
1602947685.9263,531
1602947685.9283,534
1602947685.9305,539
1602947685.9323,539
1602947685.9343,546
1602947685.9363,553
1602947685.9383,556
1602947685.9404,556
1602947685.9423,546
1602947685.9443,536
1602947685.9463,527
1602947686.3415,512
1602947686.3421,495
1602947686.3445,480
1602947686.3471,459
1602947686.3491,427
1602947686.3511,398
1602947686.3532,374
1602947686.3551,344
1602947686.3571,323
1602947686.3591,313
1602947686.3612,308
1602947686.3631,298
1602947686.3651,296
1602947686.3671,303
1602947686.3691,308
1602947686.3711,306
1602947686.3731,301
1602947686.3751,303
1602947686.3771,313
1602947686.3791,320
1602947686.3811,323
1602947686.3831,325
1602947686.3851,318
1602947686.3871,310
1602947686.3891,320
1602947686.3911,327
1602947686.3932,320
1602947686.3951,313
1602947686.3971,310
1602947686.3991,313
1602947686.4012,310
1602947686.4031,306
1602947686.4051,308
1602947686.4071,308
1602947686.4091,301
1602947686.4112,296
1602947686.4131,298
1602947686.4152,301
1602947686.4171,293
1602947686.4191,286
1602947686.4213,291
1602947686.4232,291
1602947686.4253,286
1602947686.4271,284
1602947686.4291,289
1602947686.4311,301
1602947686.4331,315
1602947686.4351,330
1602947686.4371,327
1602947686.4391,308
1602947686.4411,301
1602947686.4431,296
1602947686.4451,289
1602947686.4471,276
1602947686.4491,269
1602947686.4512,269
1602947686.4531,274
1602947686.4551,274
1602947686.4571,269
1602947686.4591,269
1602947686.4611,272
1602947686.4633,255
1602947686.4651,267
1602947686.4671,454
1602947686.4691,753
1602947686.4711,692
1602947686.4731,72
1602947686.4751,-323
1602947686.4771,2
1602947686.4791,296
1602947686.4811,230
1602947686.4831,233
1602947686.4851,306
1602947686.9419,276
1602947686.9427,252
1602947686.9451,276
1602947686.9477,281
1602947686.9498,269
1602947686.9517,264
1602947686.9537,269
1602947686.9558,274
1602947686.9577,274
1602947686.9597,264
1602947686.9617,267
1602947686.9637,286
1602947686.9657,293
1602947686.9678,289
1602947686.9697,296
1602947686.9718,306
1602947686.9737,310
1602947686.9757,320
1602947686.9777,332
1602947686.9797,340
1602947686.9819,337
1602947686.9837,347
1602947686.9857,352
1602947686.9876,342
1602947686.9897,340
1602947686.9917,340
1602947686.9937,325
1602947686.9958,306
1602947686.9977,281
1602947686.9997,252
1602947687.0017,218
1602947687.0037,191
1602947687.0057,172
1602947687.0077,153
1602947687.0097,138
1602947687.0118,133
1602947687.0137,131
1602947687.0157,131
1602947687.0178,131
1602947687.0197,126
1602947687.0217,133
1602947687.0237,150
1602947687.0257,157
1602947687.0277,160
1602947687.0297,162
1602947687.0317,167
1602947687.0337,167
1602947687.0357,170
1602947687.0377,172
1602947687.0397,177
1602947687.0417,187
1602947687.0437,187
1602947687.0457,177
1602947687.0477,177
1602947687.0497,182
1602947687.0517,182
1602947687.0537,174
1602947687.0557,170
1602947687.0577,167
1602947687.0597,162
1602947687.0617,167
1602947687.0637,174
1602947687.0657,170
1602947687.0678,162
1602947687.0697,162
1602947687.0717,160
1602947687.0737,153
1602947687.0757,157
1602947687.0777,187
1602947687.0797,211
1602947687.0817,204
1602947687.0838,189
1602947687.0858,189
1602947687.5121,187
1602947687.5129,165
1602947687.5153,143
1602947687.5180,143
1602947687.5200,150
1602947687.5220,153
1602947687.5239,153
1602947687.5259,155
1602947687.5280,157
1602947687.5299,150
1602947687.5319,126
1602947687.5339,153
1602947687.5359,347
1602947687.5379,648
1602947687.5399,602
1602947687.5419,-17
1602947687.5439,-434
1602947687.5459,-111
1602947687.5480,206
1602947687.5499,138
1602947687.5519,128
1602947687.5539,206
1602947687.5559,182
1602947687.5579,160
1602947687.5599,187
1602947687.5619,189
1602947687.5639,179
1602947687.5659,191
1602947687.5679,199
1602947687.5699,194
1602947687.5719,201
1602947687.5739,213
1602947687.5759,216
1602947687.5779,218
1602947687.5799,228
1602947687.5819,240
1602947687.5840,242
1602947687.5860,250
1602947687.5879,264
1602947687.5899,272
1602947687.5919,279
1602947687.5939,281
1602947687.5959,286
1602947687.5979,293
1602947687.5999,296
1602947687.6019,289
1602947687.6039,281
1602947687.6059,276
1602947687.6079,264
1602947687.6101,245
1602947687.6121,218
1602947687.6139,189
1602947687.6159,157
1602947687.6179,133
1602947687.6199,111
1602947687.6219,94
1602947687.6239,80
1602947687.6259,77
1602947687.6279,80
1602947687.6299,75
1602947687.6319,75
1602947687.6339,80
1602947687.6359,85
1602947687.6379,89
1602947687.6399,97
1602947687.6419,102
1602947687.6439,106
1602947687.6459,102
1602947687.6479,104
1602947687.6499,114
1602947687.6520,121
1602947687.6539,121
1602947687.6559,121
1602947688.0520,123
1602947688.0526,126
1602947688.0550,128
1602947688.0577,126
1602947688.0597,123
1602947688.0616,121
1602947688.0636,119
1602947688.0656,114
1602947688.0677,114
1602947688.0697,116
1602947688.0717,114
1602947688.0736,106
1602947688.0756,104
1602947688.0776,109
1602947688.0797,104
1602947688.0804,102
1602947688.0826,106
1602947688.0846,119
1602947688.0866,143
1602947688.0886,162
1602947688.0906,153
1602947688.0926,143
1602947688.0946,143
1602947688.0966,136
1602947688.0987,123
1602947688.1007,119
1602947688.1026,116
1602947688.1048,114
1602947688.1067,119
1602947688.1086,126
1602947688.1106,126
1602947688.1113,126
1602947688.1126,128
1602947688.1146,114
1602947688.1166,148
1602947688.1186,354
1602947688.1207,624
1602947688.1226,507
1602947688.1246,-97
1602947688.1267,-393
1602947688.1286,-43
1602947688.1306,191
1602947688.1326,106
1602947688.1346,116
1602947688.1366,182
1602947688.1386,157
1602947688.1406,143
1602947688.1413,172
1602947688.1426,170
1602947688.1446,157
1602947688.1466,165
1602947688.1486,172
1602947688.1506,174
1602947688.1526,177
1602947688.1546,182
1602947688.1566,189
1602947688.1586,196
1602947688.1606,204
1602947688.1626,211
1602947688.1646,216
1602947688.1666,218
1602947688.1686,223
1602947688.1707,235
1602947688.1713,250
1602947688.1737,257
1602947688.1756,262
1602947688.1776,264
1602947688.1796,264
1602947688.1816,257
1602947688.1836,247
1602947688.1856,240
1602947688.1877,233
1602947688.1896,213
1602947688.5920,187
1602947688.5927,160
1602947688.5951,133
1602947688.5962,106
1602947688.5977,80
1602947688.5999,68
1602947688.6017,58
1602947688.6038,48
1602947688.6056,36
1602947688.6076,36
1602947688.6096,43
1602947688.6117,43
1602947688.6136,43
1602947688.6156,55
1602947688.6176,68
1602947688.6196,70
1602947688.6217,72
1602947688.6236,80
1602947688.6256,89
1602947688.6263,92
1602947688.6286,94
1602947688.6307,99
1602947688.6326,104
1602947688.6346,104
1602947688.6366,104
1602947688.6386,106
1602947688.6407,109
1602947688.6426,106
1602947688.6446,106
1602947688.6466,109
1602947688.6486,104
1602947688.6506,102
1602947688.6526,104
1602947688.6546,104
1602947688.6566,104
1602947688.6574,104
1602947688.6596,104
1602947688.6617,109
1602947688.6637,109
1602947688.6656,109
1602947688.6676,106
1602947688.6696,106
1602947688.6717,104
1602947688.6736,106
1602947688.6756,121
1602947688.6776,148
1602947688.6797,160
1602947688.6817,148
1602947688.6836,136
1602947688.6857,140
1602947688.6877,138
1602947688.6883,119
1602947688.6896,102
1602947688.6917,102
1602947688.6936,102
1602947688.6956,99
1602947688.6978,102
1602947688.6997,109
1602947688.7017,119
1602947688.7036,114
1602947688.7056,94
1602947688.7077,109
1602947688.7096,272
1602947688.7116,556
1602947688.7137,570
1602947688.7156,38
1602947688.7176,-393
1602947688.7184,-145
1602947688.7207,165
1602947688.7226,114
1602947688.7247,92
1602947688.7266,162
1602947688.7286,145
1602947689.1623,121
1602947689.1632,148
1602947689.1656,157
1602947689.1683,148
1602947689.1703,148
1602947689.1722,145
1602947689.1742,140
1602947689.1762,148
1602947689.1782,157
1602947689.1789,160
1602947689.1812,170
1602947689.1831,179
1602947689.1852,184
1602947689.1872,191
1602947689.1891,204
1602947689.1911,216
1602947689.1932,223
1602947689.1951,228
1602947689.1971,240
1602947689.1991,245
1602947689.2012,242
1602947689.2032,242
1602947689.2051,242
1602947689.2071,238
1602947689.2091,233
1602947689.2098,223
1602947689.2111,206
1602947689.2131,184
1602947689.2151,153
1602947689.2172,126
1602947689.2192,102
1602947689.2212,80
1602947689.2231,58
1602947689.2251,48
1602947689.2273,46
1602947689.2292,38
1602947689.2313,38
1602947689.2331,43
1602947689.2352,48
1602947689.2372,53
1602947689.2391,53
1602947689.2399,55
1602947689.2411,68
1602947689.2431,72
1602947689.2452,70
1602947689.2471,70
1602947689.2491,77
1602947689.2512,82
1602947689.2532,85
1602947689.2552,89
1602947689.2571,92
1602947689.2592,87
1602947689.2612,85
1602947689.2631,87
1602947689.2651,92
1602947689.2671,94
1602947689.2678,94
1602947689.2692,97
1602947689.2712,97
1602947689.2732,92
1602947689.2751,92
1602947689.2771,94
1602947689.2791,97
1602947689.2812,97
1602947689.2832,97
1602947689.2851,97
1602947689.2872,99
1602947689.2891,102
1602947689.2912,102
1602947689.2931,102
1602947689.2951,102
1602947689.2972,104
1602947689.2978,106
1602947689.7020,111
1602947689.7029,106
1602947689.7053,102
1602947689.7081,109
1602947689.7099,128
1602947689.7119,148
1602947689.7138,143
1602947689.7159,123
1602947689.7179,119
1602947689.7199,123
1602947689.7218,114
1602947689.7239,99
1602947689.7261,97
1602947689.7279,97
1602947689.7298,94
1602947689.7319,97
1602947689.7338,99
1602947689.7358,99
1602947689.7378,104
1602947689.7398,104
1602947689.7418,89
1602947689.7439,126
1602947689.7459,318
1602947689.7479,587
1602947689.7498,502
1602947689.7518,-77
1602947689.7539,-388
1602947689.7558,-63
1602947689.7578,170
1602947689.7598,89
1602947689.7618,99
1602947689.7638,160
1602947689.7659,136
1602947689.7678,121
1602947689.7698,145
1602947689.7718,145
1602947689.7738,138
1602947689.7758,143
1602947689.7778,145
1602947689.7798,148
1602947689.7818,153
1602947689.7838,160
1602947689.7859,170
1602947689.7879,174
1602947689.7898,177
1602947689.7919,177
1602947689.7939,184
1602947689.7959,196
1602947689.7978,199
1602947689.7998,206
1602947689.8018,223
1602947689.8039,230
1602947689.8058,230
1602947689.8078,238
1602947689.8098,247
1602947689.8118,250
1602947689.8139,242
1602947689.8158,235
1602947689.8178,223
1602947689.8199,206
1602947689.8218,189
1602947689.8238,160
1602947689.8258,123
1602947689.8280,97
1602947689.8299,77
1602947689.8318,60
1602947689.8338,43
1602947689.8358,36
1602947689.8378,36
1602947689.8398,36
1602947689.8419,34
1602947689.8438,38
1602947689.8458,46
1602947690.3019,51
1602947690.3027,51
1602947690.3052,51
1602947690.3079,46
1602947690.3098,41
1602947690.3118,48
1602947690.3139,55
1602947690.3158,58
1602947690.3179,70
1602947690.3198,80
1602947690.3218,77
1602947690.3238,75
1602947690.3258,80
1602947690.3278,85
1602947690.3298,85
1602947690.3318,77
1602947690.3339,80
1602947690.3358,87
1602947690.3378,87
1602947690.3398,77
1602947690.3417,82
1602947690.3437,87
1602947690.3457,77
1602947690.3477,80
1602947690.3497,89
1602947690.3517,92
1602947690.3537,87
1602947690.3557,82
1602947690.3577,87
1602947690.3597,89
1602947690.3617,75
1602947690.3637,70
1602947690.3657,77
1602947690.3678,80
1602947690.3698,82
1602947690.3717,82
1602947690.3737,82
1602947690.3757,82
1602947690.3777,85
1602947690.3797,85
1602947690.3817,85
1602947690.3839,94
1602947690.3858,114
1602947690.3877,136
1602947690.3897,131
1602947690.3917,114
1602947690.3937,111
1602947690.3958,114
1602947690.3978,106
1602947690.3997,97
1602947690.4018,87
1602947690.4037,87
1602947690.4057,92
1602947690.4077,94
1602947690.4097,94
1602947690.4117,94
1602947690.4137,97
1602947690.4157,87
1602947690.4178,65
1602947690.4197,133
1602947690.4217,410
1602947690.4237,668
1602947690.4258,386
1602947690.4278,-286
1602947690.4297,-417
1602947690.4318,4
1602947690.4337,143
1602947690.4358,46
1602947690.4377,102
1602947690.4397,145
1602947690.4417,104
1602947690.4437,106
1602947690.4457,131
1602947690.8716,119
1602947690.8725,111
1602947690.8750,121
1602947690.8776,123
1602947690.8795,123
1602947690.8815,131
1602947690.8836,140
1602947690.8855,145
1602947690.8875,138
1602947690.8895,136
1602947690.8916,153
1602947690.8935,165
1602947690.8955,170
1602947690.8975,182
1602947690.8995,191
1602947690.9015,201
1602947690.9035,218
1602947690.9055,230
1602947690.9075,240
1602947690.9097,240
1602947690.9115,240
1602947690.9135,238
1602947690.9155,228
1602947690.9175,208
1602947690.9195,184
1602947690.9215,160
1602947690.9235,131
1602947690.9255,102
1602947690.9275,75
1602947690.9295,53
1602947690.9315,36
1602947690.9335,29
1602947690.9355,21
1602947690.9374,21
1602947690.9395,26
1602947690.9415,26
1602947690.9435,26
1602947690.9455,31
1602947690.9475,36
1602947690.9495,38
1602947690.9515,41
1602947690.9535,48
1602947690.9555,55
1602947690.9575,65
1602947690.9595,70
1602947690.9615,72
1602947690.9634,77
1602947690.9655,82
1602947690.9675,85
1602947690.9695,87
1602947690.9715,89
1602947690.9735,87
1602947690.9755,87
1602947690.9775,87
1602947690.9795,89
1602947690.9816,89
1602947690.9835,80
1602947690.9855,80
1602947690.9875,80
1602947690.9895,80
1602947690.9915,82
1602947690.9935,85
1602947690.9955,82
1602947690.9975,82
1602947690.9995,85
1602947691.0015,85
1602947691.0035,85
1602947691.0055,85
1602947691.0075,87
1602947691.0095,87
1602947691.0116,92
1602947691.0135,87
1602947691.0155,85
1602947691.4121,89
1602947691.4127,92
1602947691.4151,94
1602947691.4178,97
1602947691.4197,92
1602947691.4217,82
1602947691.4237,82
1602947691.4257,89
1602947691.4277,94
1602947691.4297,104
1602947691.4317,116
1602947691.4337,116
1602947691.4357,102
1602947691.4377,94
1602947691.4397,89
1602947691.4417,80
1602947691.4437,63
1602947691.4457,51
1602947691.4477,51
1602947691.4497,53
1602947691.4517,53
1602947691.4537,55
1602947691.4557,58
1602947691.4577,58
1602947691.4597,51
1602947691.4617,38
1602947691.4637,111
1602947691.4657,361
1602947691.4678,595
1602947691.4697,332
1602947691.4717,-291
1602947691.4737,-400
1602947691.4757,-4
1602947691.4777,121
1602947691.4797,31
1602947691.4817,80
1602947691.4837,121
1602947691.4857,82
1602947691.4877,87
1602947691.4897,111
1602947691.4917,104
1602947691.4937,102
1602947691.4957,116
1602947691.4977,123
1602947691.4997,123
1602947691.5017,128
1602947691.5037,133
1602947691.5057,136
1602947691.5078,138
1602947691.5097,150
1602947691.5117,162
1602947691.5137,172
1602947691.5157,179
1602947691.5177,187
1602947691.5197,196
1602947691.5217,206
1602947691.5237,213
1602947691.5257,228
1602947691.5277,235
1602947691.5297,233
1602947691.5317,230
1602947691.5337,228
1602947691.5357,225
1602947691.5377,216
1602947691.5397,201
1602947691.5417,177
1602947691.5437,148
1602947691.5457,116
1602947691.5477,87
1602947691.5497,68
1602947691.5517,55
1602947691.5537,43
1602947691.5557,36
1602947692.0121,31
1602947692.0129,29
1602947692.0154,34
1602947692.0180,36
1602947692.0201,41
1602947692.0220,46
1602947692.0241,38
1602947692.0260,26
1602947692.0280,26
1602947692.0301,29
1602947692.0319,34
1602947692.0339,38
1602947692.0360,43
1602947692.0380,53
1602947692.0400,58
1602947692.0419,60
1602947692.0439,63
1602947692.0459,65
1602947692.0479,65
1602947692.0499,65
1602947692.0519,70
1602947692.0539,72
1602947692.0559,70
1602947692.0579,70
1602947692.0600,70
1602947692.0619,70
1602947692.0641,70
1602947692.0659,65
1602947692.0679,65
1602947692.0699,65
1602947692.0719,65
1602947692.0739,65
1602947692.0759,68
1602947692.0780,70
1602947692.0799,70
1602947692.0819,70
1602947692.0839,72
1602947692.0859,72
1602947692.0879,75
1602947692.0899,75
1602947692.0919,75
1602947692.0939,77
1602947692.0959,72
1602947692.0979,70
1602947692.0999,72
1602947692.1019,72
1602947692.1039,70
1602947692.1059,70
1602947692.1079,70
1602947692.1099,70
1602947692.1119,68
1602947692.1139,70
1602947692.1159,75
1602947692.1179,77
1602947692.1199,92
1602947692.1219,116
1602947692.1239,121
1602947692.1259,106
1602947692.1279,97
1602947692.1299,102
1602947692.1319,97
1602947692.1339,80
1602947692.1359,72
1602947692.1379,72
1602947692.1399,72
1602947692.1419,72
1602947692.1439,77
1602947692.1459,82
1602947692.1479,85
1602947692.1499,85
1602947692.1519,70
1602947692.1539,114
1602947692.1559,327
1602947692.5221,592
1602947692.5227,463
1602947692.5251,-133
1602947692.5277,-403
1602947692.5299,-58
1602947692.5317,145
1602947692.5339,51
1602947692.5358,63
1602947692.5377,114
1602947692.5397,82
1602947692.5417,77
1602947692.5437,94
1602947692.5457,85
1602947692.5477,82
1602947692.5498,99
1602947692.5517,102
1602947692.5537,102
1602947692.5557,114
1602947692.5577,123
1602947692.5597,123
1602947692.5617,131
1602947692.5637,145
1602947692.5657,153
1602947692.5677,160
1602947692.5697,170
1602947692.5717,184
1602947692.5737,194
1602947692.5757,201
1602947692.5777,208
1602947692.5797,213
1602947692.5817,221
1602947692.5837,228
1602947692.5857,228
1602947692.5877,225
1602947692.5897,223
1602947692.5917,216
1602947692.5937,204
1602947692.5957,184
1602947692.5977,157
1602947692.5997,126
1602947692.6017,99
1602947692.6037,77
1602947692.6057,60
1602947692.6077,46
1602947692.6097,36
1602947692.6117,34
1602947692.6137,36
1602947692.6157,34
1602947692.6177,34
1602947692.6197,41
1602947692.6217,46
1602947692.6237,51
1602947692.6257,53
1602947692.6277,55
1602947692.6297,58
1602947692.6318,63
1602947692.6338,68
1602947692.6357,72
1602947692.6377,72
1602947692.6398,70
1602947692.6417,75
1602947692.6437,80
1602947692.6457,75
1602947692.6477,75
1602947692.6497,77
1602947692.6517,75
1602947692.6537,68
1602947692.6557,65
1602947692.6577,70
1602947692.6597,70
1602947692.6617,65
1602947692.6637,60
1602947692.6657,60
1602947693.0916,60
1602947693.0924,55
1602947693.0949,58
1602947693.0975,55
1602947693.0995,53
1602947693.1015,46
1602947693.1036,38
1602947693.1054,43
1602947693.1075,51
1602947693.1095,46
1602947693.1115,46
1602947693.1134,53
1602947693.1155,58
1602947693.1174,58
1602947693.1194,60
1602947693.1215,60
1602947693.1234,58
1602947693.1254,63
1602947693.1274,68
1602947693.1294,70
1602947693.1314,68
1602947693.1334,65
1602947693.1354,70
1602947693.1374,75
1602947693.1394,72
1602947693.1415,72
1602947693.1434,75
1602947693.1454,77
1602947693.1474,77
1602947693.1494,87
1602947693.1514,114
1602947693.1534,128
1602947693.1554,119
1602947693.1576,106
1602947693.1595,109
1602947693.1614,106
1602947693.1634,94
1602947693.1654,85
1602947693.1674,85
1602947693.1694,82
1602947693.1714,80
1602947693.1734,85
1602947693.1754,89
1602947693.1774,94
1602947693.1794,97
1602947693.1815,80
1602947693.1834,97
1602947693.1854,262
1602947693.1874,546
1602947693.1894,566
1602947693.1914,41
1602947693.1934,-393
1602947693.1954,-157
1602947693.1974,140
1602947693.1994,89
1602947693.2014,65
1602947693.2034,133
1602947693.2054,116
1602947693.2074,89
1602947693.2094,111
1602947693.2114,116
1602947693.2134,109
1602947693.2154,121
1602947693.2174,123
1602947693.2194,121
1602947693.2214,131
1602947693.2234,145
1602947693.2254,148
1602947693.2274,148
1602947693.2294,155
1602947693.2314,167
1602947693.2334,174
1602947693.2354,182
1602947693.6921,191
1602947693.6930,201
1602947693.6954,211
1602947693.6981,218
1602947693.7001,225
1602947693.7021,228
1602947693.7042,228
1602947693.7060,225
1602947693.7081,228
1602947693.7101,223
1602947693.7120,216
1602947693.7142,204
1602947693.7161,184
1602947693.7180,157
1602947693.7201,123
1602947693.7220,92
1602947693.7240,72
1602947693.7260,55
1602947693.7280,34
1602947693.7301,24
1602947693.7320,21
1602947693.7340,19
1602947693.7360,17
1602947693.7380,19
1602947693.7401,21
1602947693.7420,24
1602947693.7440,31
1602947693.7460,36
1602947693.7480,43
1602947693.7501,48
1602947693.7520,46
1602947693.7540,48
1602947693.7560,58
1602947693.7580,55
1602947693.7601,51
1602947693.7620,58
1602947693.7640,65
1602947693.7660,65
1602947693.7680,65
1602947693.7701,65
1602947693.7720,65
1602947693.7740,65
1602947693.7760,63
1602947693.7780,60
1602947693.7801,58
1602947693.7820,55
1602947693.7840,55
1602947693.7860,55
1602947693.7880,55
1602947693.7901,58
1602947693.7920,55
1602947693.7939,51
1602947693.7960,48
1602947693.7980,51
1602947693.8001,53
1602947693.8020,58
1602947693.8040,58
1602947693.8060,58
1602947693.8080,63
1602947693.8101,68
1602947693.8120,70
1602947693.8140,72
1602947693.8162,70
1602947693.8181,63
1602947693.8200,68
1602947693.8220,75
1602947693.8240,75
1602947693.8260,80
1602947693.8280,85
1602947693.8300,80
1602947693.8320,80
1602947693.8340,89
1602947693.8360,94
1602947694.2325,92
1602947694.2331,82
1602947694.2349,80
1602947694.2369,80
1602947694.2389,80
1602947694.2410,80
1602947694.2429,92
1602947694.2449,111
1602947694.2469,126
1602947694.2488,126
1602947694.2508,116
1602947694.2529,99
1602947694.2549,89
1602947694.2569,85
1602947694.2589,80
1602947694.2609,72
1602947694.2628,68
1602947694.2649,72
1602947694.2669,75
1602947694.2689,72
1602947694.2710,77
1602947694.2784,85
1602947694.2798,75
1602947694.2818,87
1602947694.2839,269
1602947694.2858,583
1602947694.2879,583
1602947694.2898,2
1602947694.2918,-459
1602947694.2939,-194
1602947694.2959,133
1602947694.2979,77
1602947694.2999,55
1602947694.3018,133
1602947694.3039,116
1602947694.3059,92
1602947694.3079,121
1602947694.3098,128
1602947694.3118,116
1602947694.3138,123
1602947694.3160,131
1602947694.3179,131
1602947694.3198,136
1602947694.3219,138
1602947694.3238,136
1602947694.3258,140
1602947694.3279,150
1602947694.3299,160
1602947694.3318,172
1602947694.3339,182
1602947694.3359,184
1602947694.3380,191
1602947694.3400,199
1602947694.3419,211
1602947694.3438,221
1602947694.3458,225
1602947694.3478,230
1602947694.3498,233
1602947694.3518,233
1602947694.3538,230
1602947694.3558,225
1602947694.3578,216
1602947694.3598,196
1602947694.3619,167
1602947694.3638,133
1602947694.3658,104
1602947694.3678,80
1602947694.3699,51
1602947694.3706,26
1602947694.3729,17
1602947694.3749,14
1602947694.3770,14
1602947694.3789,12
1602947694.8018,4
1602947694.8027,7
1602947694.8051,19
1602947694.8077,26
1602947694.8097,26
1602947694.8116,26
1602947694.8136,34
1602947694.8156,41
1602947694.8177,36
1602947694.8197,31
1602947694.8204,38
1602947694.8226,48
1602947694.8246,46
1602947694.8266,46
1602947694.8286,53
1602947694.8306,58
1602947694.8326,58
1602947694.8346,60
1602947694.8368,60
1602947694.8387,60
1602947694.8407,60
1602947694.8427,60
1602947694.8446,63
1602947694.8466,63
1602947694.8487,60
1602947694.8507,55
1602947694.8515,53
1602947694.8536,60
1602947694.8556,63
1602947694.8576,60
1602947694.8596,63
1602947694.8616,58
1602947694.8637,58
1602947694.8657,65
1602947694.8677,70
1602947694.8696,70
1602947694.8716,65
1602947694.8736,58
1602947694.8756,60
1602947694.8776,65
1602947694.8796,68
1602947694.8816,70
1602947694.8823,70
1602947694.8846,70
1602947694.8867,68
1602947694.8886,72
1602947694.8906,75
1602947694.8926,77
1602947694.8947,77
1602947694.8966,77
1602947694.8986,77
1602947694.9006,75
1602947694.9026,77
1602947694.9046,89
1602947694.9066,114
1602947694.9086,126
1602947694.9106,116
1602947694.9126,102
1602947694.9133,97
1602947694.9156,94
1602947694.9176,82
1602947694.9196,75
1602947694.9217,70
1602947694.9236,70
1602947694.9256,75
1602947694.9276,77
1602947694.9296,80
1602947694.9316,82
1602947694.9337,77
1602947694.9358,70
1602947694.9376,155
1602947694.9397,415
1602947694.9416,624
1602947695.3717,308
1602947695.3728,-320
1602947695.3751,-388
1602947695.3778,21
1602947695.3799,136
1602947695.3818,46
1602947695.3839,99
1602947695.3858,133
1602947695.3878,97
1602947695.3898,99
1602947695.3917,109
1602947695.3937,99
1602947695.3957,104
1602947695.3977,111
1602947695.3985,109
1602947695.4007,114
1602947695.4027,119
1602947695.4047,119
1602947695.4067,123
1602947695.4087,133
1602947695.4107,138
1602947695.4127,140
1602947695.4147,148
1602947695.4167,160
1602947695.4187,170
1602947695.4207,179
1602947695.4227,189
1602947695.4247,199
1602947695.4267,208
1602947695.4287,208
1602947695.4294,208
1602947695.4317,213
1602947695.4337,213
1602947695.4357,204
1602947695.4377,194
1602947695.4397,182
1602947695.4417,157
1602947695.4437,126
1602947695.4457,99
1602947695.4477,75
1602947695.4497,51
1602947695.4517,29
1602947695.4537,14
1602947695.4557,9
1602947695.4577,4
1602947695.4597,2
1602947695.4604,4
1602947695.4619,4
1602947695.4637,7
1602947695.4657,9
1602947695.4677,17
1602947695.4697,24
1602947695.4717,29
1602947695.4737,31
1602947695.4757,38
1602947695.4777,43
1602947695.4797,48
1602947695.4817,53
1602947695.4837,58
1602947695.4857,60
1602947695.4877,60
1602947695.4897,65
1602947695.4904,68
1602947695.4927,65
1602947695.4947,63
1602947695.4967,63
1602947695.4987,65
1602947695.5007,63
1602947695.5027,63
1602947695.5047,65
1602947695.5067,65
1602947695.5087,63
1602947695.5107,60
1602947695.8818,63
1602947695.8824,68
1602947695.8848,68
1602947695.8875,68
1602947695.8882,68
1602947695.8905,70
1602947695.8924,70
1602947695.8944,68
1602947695.8964,68
1602947695.8985,72
1602947695.9004,68
1602947695.9024,55
1602947695.9044,58
1602947695.9064,65
1602947695.9084,65
1602947695.9104,65
1602947695.9124,68
1602947695.9144,70
1602947695.9164,70
1602947695.9184,72
1602947695.9191,75
1602947695.9214,70
1602947695.9234,63
1602947695.9254,58
1602947695.9274,68
1602947695.9296,85
1602947695.9314,102
1602947695.9334,114
1602947695.9354,106
1602947695.9374,89
1602947695.9394,89
1602947695.9414,92
1602947695.9434,82
1602947695.9454,70
1602947695.9474,68
1602947695.9495,68
1602947695.9502,70
1602947695.9514,75
1602947695.9534,80
1602947695.9554,77
1602947695.9574,65
1602947695.9594,60
1602947695.9614,155
1602947695.9634,422
1602947695.9654,609
1602947695.9674,269
1602947695.9695,-344
1602947695.9715,-378
1602947695.9734,19
1602947695.9754,114
1602947695.9774,41
1602947695.9794,102
1602947695.9815,126
1602947695.9834,89
1602947695.9855,99
1602947695.9875,119
1602947695.9894,111
1602947695.9914,111
1602947695.9934,119
1602947695.9954,121
1602947695.9974,123
1602947695.9994,131
1602947696.0015,136
1602947696.0034,143
1602947696.0054,145
1602947696.0074,148
1602947696.0094,155
1602947696.0114,165
1602947696.0134,172
1602947696.0154,179
1602947696.0174,187
1602947696.0194,196
1602947696.0215,204
1602947696.4520,208
1602947696.4525,218
1602947696.4550,221
1602947696.4578,218
1602947696.4596,204
1602947696.4616,189
1602947696.4636,184
1602947696.4656,172
1602947696.4676,145
1602947696.4697,119
1602947696.4716,89
1602947696.4736,58
1602947696.4756,38
1602947696.4776,17
1602947696.4796,-2
1602947696.4816,-14
1602947696.4836,-17
1602947696.4856,-14
1602947696.4876,-14
1602947696.4896,-12
1602947696.4915,-7
1602947696.4935,2
1602947696.4955,9
1602947696.4976,12
1602947696.4995,19
1602947696.5016,31
1602947696.5036,36
1602947696.5056,41
1602947696.5075,41
1602947696.5095,46
1602947696.5116,51
1602947696.5136,48
1602947696.5156,51
1602947696.5176,55
1602947696.5196,55
1602947696.5216,58
1602947696.5236,58
1602947696.5255,58
1602947696.5276,60
1602947696.5296,58
1602947696.5316,55
1602947696.5335,55
1602947696.5356,55
1602947696.5375,55
1602947696.5395,55
1602947696.5416,58
1602947696.5435,58
1602947696.5455,55
1602947696.5476,60
1602947696.5495,63
1602947696.5516,60
1602947696.5535,63
1602947696.5556,63
1602947696.5575,65
1602947696.5597,68
1602947696.5616,68
1602947696.5635,68
1602947696.5655,70
1602947696.5675,72
1602947696.5695,72
1602947696.5716,72
1602947696.5735,77
1602947696.5755,75
1602947696.5775,72
1602947696.5796,72
1602947696.5815,72
1602947696.5835,72
1602947696.5855,72
1602947696.5875,80
1602947696.5895,97
1602947696.5916,114
1602947696.5935,119
1602947696.5955,106
1602947697.0519,97
1602947697.0527,97
1602947697.0552,89
1602947697.0578,77
1602947697.0597,70
1602947697.0617,60
1602947697.0638,51
1602947697.0657,51
1602947697.0677,51
1602947697.0697,53
1602947697.0717,58
1602947697.0737,48
1602947697.0757,60
1602947697.0777,216
1602947697.0797,505
1602947697.0817,553
1602947697.0837,43
1602947697.0857,-454
1602947697.0877,-259
1602947697.0897,94
1602947697.0917,77
1602947697.0937,38
1602947697.0957,111
1602947697.0977,104
1602947697.0997,77
1602947697.1017,102
1602947697.1037,111
1602947697.1057,102
1602947697.1077,104
1602947697.1097,116
1602947697.1117,119
1602947697.1137,121
1602947697.1159,128
1602947697.1177,133
1602947697.1197,138
1602947697.1217,148
1602947697.1237,150
1602947697.1256,157
1602947697.1277,167
1602947697.1297,177
1602947697.1316,179
1602947697.1336,189
1602947697.1357,201
1602947697.1376,213
1602947697.1396,218
1602947697.1416,223
1602947697.1437,225
1602947697.1457,223
1602947697.1477,218
1602947697.1496,213
1602947697.1517,201
1602947697.1537,184
1602947697.1556,157
1602947697.1576,128
1602947697.1597,97
1602947697.1616,70
1602947697.1636,46
1602947697.1656,21
1602947697.1677,7
1602947697.1696,4
1602947697.1717,-2
1602947697.1736,-4
1602947697.1756,0
1602947697.1776,2
1602947697.1796,4
1602947697.1816,12
1602947697.1837,19
1602947697.1857,21
1602947697.1877,29
1602947697.1896,34
1602947697.1917,36
1602947697.1936,38
1602947697.1956,43
1602947697.5918,38
1602947697.5924,38
1602947697.5948,41
1602947697.5974,46
1602947697.5994,51
1602947697.6014,51
1602947697.6035,51
1602947697.6054,51
1602947697.6074,51
1602947697.6094,48
1602947697.6117,36
1602947697.6134,29
1602947697.6154,34
1602947697.6175,34
1602947697.6194,26
1602947697.6215,31
1602947697.6234,38
1602947697.6254,38
1602947697.6275,36
1602947697.6294,38
1602947697.6314,41
1602947697.6334,43
1602947697.6354,43
1602947697.6374,48
1602947697.6394,55
1602947697.6414,53
1602947697.6434,48
1602947697.6454,53
1602947697.6474,58
1602947697.6494,60
1602947697.6514,63
1602947697.6534,65
1602947697.6554,65
1602947697.6574,65
1602947697.6594,65
1602947697.6614,65
1602947697.6634,63
1602947697.6654,70
1602947697.6674,82
1602947697.6694,104
1602947697.6714,119
1602947697.6734,106
1602947697.6754,92
1602947697.6774,92
1602947697.6795,87
1602947697.6814,75
1602947697.6834,72
1602947697.6854,70
1602947697.6874,65
1602947697.6894,63
1602947697.6914,70
1602947697.6934,77
1602947697.6954,82
1602947697.6974,72
1602947697.6994,60
1602947697.7014,157
1602947697.7034,432
1602947697.7054,621
1602947697.7074,264
1602947697.7094,-366
1602947697.7114,-391
1602947697.7135,19
1602947697.7154,109
1602947697.7174,41
1602947697.7194,106
1602947697.7214,126
1602947697.7234,87
1602947697.7254,102
1602947697.7274,119
1602947697.7294,106
1602947697.7314,111
1602947697.7334,123
1602947697.7354,116
1602947698.1618,116
1602947698.1626,128
1602947698.1650,136
1602947698.1677,143
1602947698.1697,148
1602947698.1716,150
1602947698.1737,157
1602947698.1756,155
1602947698.1776,155
1602947698.1796,172
1602947698.1816,184
1602947698.1836,191
1602947698.1856,199
1602947698.1876,213
1602947698.1896,223
1602947698.1913,221
1602947698.1926,216
1602947698.1946,213
1602947698.1966,206
1602947698.1987,196
1602947698.2006,184
1602947698.2026,167
1602947698.2046,133
1602947698.2066,99
1602947698.2086,72
1602947698.2106,46
1602947698.2126,24
1602947698.2146,14
1602947698.2166,9
1602947698.2186,7
1602947698.2206,4
1602947698.2226,-2
1602947698.2246,2
1602947698.2266,9
1602947698.2286,9
1602947698.2306,7
1602947698.2326,4
1602947698.2346,12
1602947698.2366,19
1602947698.2387,24
1602947698.2406,31
1602947698.2426,36
1602947698.2446,41
1602947698.2466,43
1602947698.2486,43
1602947698.2506,46
1602947698.2526,48
1602947698.2546,51
1602947698.2566,53
1602947698.2586,53
1602947698.2606,53
1602947698.2626,51
1602947698.2646,51
1602947698.2666,53
1602947698.2686,48
1602947698.2706,43
1602947698.2726,46
1602947698.2746,46
1602947698.2766,46
1602947698.2786,43
1602947698.2806,43
1602947698.2826,43
1602947698.2846,43
1602947698.2866,46
1602947698.2886,48
1602947698.2906,51
1602947698.2926,53
1602947698.2946,55
1602947698.2966,53
1602947698.2986,48
1602947698.3006,51
1602947698.3026,55
1602947698.3046,55
1602947698.7017,55
1602947698.7025,55
1602947698.7050,53
1602947698.7077,63
1602947698.7096,80
1602947698.7116,99
1602947698.7136,106
1602947698.7156,94
1602947698.7176,77
1602947698.7196,70
1602947698.7215,68
1602947698.7235,55
1602947698.7255,46
1602947698.7275,48
1602947698.7295,48
1602947698.7315,48
1602947698.7335,51
1602947698.7357,53
1602947698.7375,55
1602947698.7396,46
1602947698.7415,53
1602947698.7435,204
1602947698.7455,505
1602947698.7475,587
1602947698.7495,72
1602947698.7515,-493
1602947698.7536,-323
1602947698.7555,77
1602947698.7575,75
1602947698.7596,21
1602947698.7615,99
1602947698.7635,99
1602947698.7655,70
1602947698.7676,99
1602947698.7695,114
1602947698.7715,99
1602947698.7735,102
1602947698.7755,109
1602947698.7775,109
1602947698.7795,116
1602947698.7815,128
1602947698.7835,128
1602947698.7855,133
1602947698.7875,145
1602947698.7895,150
1602947698.7915,153
1602947698.7935,165
1602947698.7955,174
1602947698.7975,184
1602947698.7995,196
1602947698.8015,208
1602947698.8035,208
1602947698.8055,211
1602947698.8075,221
1602947698.8095,228
1602947698.8115,225
1602947698.8135,221
1602947698.8155,216
1602947698.8176,206
1602947698.8196,182
1602947698.8215,150
1602947698.8235,121
1602947698.8255,92
1602947698.8275,63
1602947698.8295,41
1602947698.8315,26
1602947698.8335,12
1602947698.8355,2
1602947698.8377,0
1602947698.8396,2
1602947698.8415,7
1602947698.8435,9
1602947698.8455,9
1602947699.2713,12
1602947699.2721,19
1602947699.2735,26
1602947699.2755,31
1602947699.2775,34
1602947699.2795,29
1602947699.2814,26
1602947699.2834,31
1602947699.2854,36
1602947699.2874,34
1602947699.2894,34
1602947699.2914,41
1602947699.2934,46
1602947699.2954,43
1602947699.2974,41
1602947699.2994,48
1602947699.3014,51
1602947699.3034,46
1602947699.3054,41
1602947699.3074,41
1602947699.3094,41
1602947699.3114,41
1602947699.3134,41
1602947699.3154,38
1602947699.3174,41
1602947699.3194,46
1602947699.3214,46
1602947699.3234,48
1602947699.3254,48
1602947699.3274,51
1602947699.3294,48
1602947699.3314,51
1602947699.3334,55
1602947699.3354,55
1602947699.3374,55
1602947699.3394,55
1602947699.3415,58
1602947699.3434,60
1602947699.3454,58
1602947699.3474,55
1602947699.3494,58
1602947699.3514,63
1602947699.3534,82
1602947699.3554,106
1602947699.3574,104
1602947699.3594,80
1602947699.3616,75
1602947699.3635,82
1602947699.3654,75
1602947699.3674,58
1602947699.3694,48
1602947699.3715,46
1602947699.3734,46
1602947699.3754,48
1602947699.3774,53
1602947699.3794,63
1602947699.3815,65
1602947699.3834,53
1602947699.3854,60
1602947699.3874,194
1602947699.3894,473
1602947699.3915,578
1602947699.3934,116
1602947699.3954,-442
1602947699.3974,-325
1602947699.3994,63
1602947699.4014,89
1602947699.4034,34
1602947699.4054,102
1602947699.4074,109
1602947699.4094,75
1602947699.4115,94
1602947699.4134,104
1602947699.8120,97
1602947699.8128,104
1602947699.8153,114
1602947699.8179,111
1602947699.8199,111
1602947699.8219,119
1602947699.8239,121
1602947699.8259,116
1602947699.8278,119
1602947699.8299,126
1602947699.8318,131
1602947699.8338,136
1602947699.8358,148
1602947699.8378,162
1602947699.8399,174
1602947699.8418,182
1602947699.8438,194
1602947699.8458,206
1602947699.8478,216
1602947699.8499,218
1602947699.8518,216
1602947699.8538,213
1602947699.8558,206
1602947699.8578,196
1602947699.8601,182
1602947699.8619,155
1602947699.8638,121
1602947699.8658,94
1602947699.8678,68
1602947699.8698,46
1602947699.8718,26
1602947699.8738,14
1602947699.8758,9
1602947699.8778,9
1602947699.8799,4
1602947699.8818,2
1602947699.8838,4
1602947699.8858,2
1602947699.8878,2
1602947699.8898,9
1602947699.8918,12
1602947699.8938,12
1602947699.8958,14
1602947699.8978,24
1602947699.8999,31
1602947699.9018,31
1602947699.9038,34
1602947699.9058,43
1602947699.9078,48
1602947699.9099,46
1602947699.9118,48
1602947699.9138,46
1602947699.9158,46
1602947699.9178,43
1602947699.9199,41
1602947699.9218,41
1602947699.9238,43
1602947699.9258,43
1602947699.9278,38
1602947699.9298,38
1602947699.9318,41
1602947699.9338,38
1602947699.9358,36
1602947699.9378,41
1602947699.9399,43
1602947699.9418,41
1602947699.9438,41
1602947699.9458,43
1602947699.9478,48
1602947699.9498,48
1602947699.9519,46
1602947699.9538,53
1602947699.9558,53
1602947700.4119,48
1602947700.4128,51
1602947700.4147,53
1602947700.4165,51
1602947700.4185,41
1602947700.4204,36
1602947700.4224,38
1602947700.4244,46
1602947700.4264,53
1602947700.4284,70
1602947700.4304,89
1602947700.4324,89
1602947700.4343,72
1602947700.4364,70
1602947700.4383,77
1602947700.4404,68
1602947700.4423,55
1602947700.4443,51
1602947700.4463,53
1602947700.4484,53
1602947700.4503,53
1602947700.4523,60
1602947700.4544,65
1602947700.4564,63
1602947700.4583,53
1602947700.4604,85
1602947700.4623,269
1602947700.4643,544
1602947700.4663,500
1602947700.4683,-72
1602947700.4704,-471
1602947700.4723,-187
1602947700.4743,102
1602947700.4763,41
1602947700.4783,36
1602947700.4804,109
1602947700.4823,89
1602947700.4844,70
1602947700.4863,97
1602947700.4883,99
1602947700.4903,89
1602947700.4923,99
1602947700.4943,109
1602947700.4963,106
1602947700.4983,114
1602947700.5004,121
1602947700.5023,123
1602947700.5043,131
1602947700.5063,140
1602947700.5084,150
1602947700.5104,155
1602947700.5124,160
1602947700.5143,170
1602947700.5165,182
1602947700.5184,191
1602947700.5204,201
1602947700.5223,213
1602947700.5243,221
1602947700.5263,225
1602947700.5284,225
1602947700.5303,225
1602947700.5324,225
1602947700.5343,218
1602947700.5363,201
1602947700.5383,174
1602947700.5404,148
1602947700.5423,119
1602947700.5443,89
1602947700.5463,65
1602947700.5483,46
1602947700.5504,29
1602947700.5524,21
1602947700.5543,17
1602947700.9821,17
1602947700.9830,14
1602947700.9854,14
1602947700.9881,21
1602947700.9901,26
1602947700.9920,26
1602947700.9941,26
1602947700.9960,31
1602947700.9980,31
1602947701.0001,26
1602947701.0020,24
1602947701.0039,34
1602947701.0059,43
1602947701.0080,43
1602947701.0100,41
1602947701.0119,43
1602947701.0139,51
1602947701.0160,55
1602947701.0180,58
1602947701.0200,58
1602947701.0219,51
1602947701.0239,46
1602947701.0260,38
1602947701.0279,34
1602947701.0300,29
1602947701.0321,24
1602947701.0340,24
1602947701.0359,26
1602947701.0380,26
1602947701.0400,31
1602947701.0420,34
1602947701.0441,29
1602947701.0460,26
1602947701.0467,31
1602947701.0479,43
1602947701.0500,46
1602947701.0519,38
1602947701.0540,38
1602947701.0559,41
1602947701.0580,46
1602947701.0600,46
1602947701.0619,48
1602947701.0640,53
1602947701.0659,51
1602947701.0679,51
1602947701.0700,48
1602947701.0719,51
1602947701.0739,58
1602947701.0760,63
1602947701.0766,72
1602947701.0779,94
1602947701.0800,104
1602947701.0819,97
1602947701.0839,85
1602947701.0859,82
1602947701.0879,80
1602947701.0900,65
1602947701.0919,55
1602947701.0939,58
1602947701.0960,58
1602947701.0979,58
1602947701.1000,58
1602947701.1020,63
1602947701.1039,68
1602947701.1046,60
1602947701.1059,51
1602947701.1079,133
1602947701.1100,398
1602947701.1120,629
1602947701.1139,340
1602947701.1160,-313
1602947701.1180,-432
1602947701.1200,-24
1602947701.5516,114
1602947701.5524,29
1602947701.5548,80
1602947701.5575,119
1602947701.5581,82
1602947701.5605,94
1602947701.5624,119
1602947701.5644,102
1602947701.5664,102
1602947701.5686,114
1602947701.5704,104
1602947701.5724,92
1602947701.5744,104
1602947701.5764,116
1602947701.5784,116
1602947701.5804,116
1602947701.5824,121
1602947701.5844,128
1602947701.5864,136
1602947701.5884,145
1602947701.5890,157
1602947701.5904,167
1602947701.5924,172
1602947701.5944,187
1602947701.5963,208
1602947701.5984,221
1602947701.6004,216
1602947701.6024,211
1602947701.6044,213
1602947701.6064,213
1602947701.6084,199
1602947701.6104,182
1602947701.6124,160
1602947701.6144,131
1602947701.6164,104
1602947701.6184,75
1602947701.6191,48
1602947701.6205,29
1602947701.6223,14
1602947701.6244,7
1602947701.6264,-2
1602947701.6284,-4
1602947701.6304,-2
1602947701.6324,2
1602947701.6343,2
1602947701.6364,7
1602947701.6384,14
1602947701.6404,17
1602947701.6424,17
1602947701.6444,17
1602947701.6464,21
1602947701.6484,29
1602947701.6490,31
1602947701.6504,31
1602947701.6524,38
1602947701.6544,46
1602947701.6564,46
1602947701.6584,46
1602947701.6604,51
1602947701.6624,58
1602947701.6645,58
1602947701.6664,51
1602947701.6684,51
1602947701.6705,51
1602947701.6724,46
1602947701.6743,43
1602947701.6764,38
1602947701.6784,34
1602947701.6791,36
1602947701.6804,36
1602947701.6824,34
1602947701.6844,34
1602947701.6864,38
1602947702.0918,38
1602947702.0925,38
1602947702.0949,41
1602947702.0975,43
1602947702.0995,43
1602947702.1015,38
1602947702.1037,36
1602947702.1056,36
1602947702.1075,31
1602947702.1095,31
1602947702.1103,38
1602947702.1125,29
1602947702.1145,17
1602947702.1165,24
1602947702.1185,29
1602947702.1205,26
1602947702.1225,34
1602947702.1245,55
1602947702.1265,77
1602947702.1285,80
1602947702.1305,68
1602947702.1325,65
1602947702.1345,65
1602947702.1365,60
1602947702.1385,48
1602947702.1406,38
1602947702.1413,41
1602947702.1435,46
1602947702.1455,48
1602947702.1475,51
1602947702.1495,53
1602947702.1516,58
1602947702.1535,43
1602947702.1555,65
1602947702.1575,250
1602947702.1595,546
1602947702.1615,541
1602947702.1635,-36
1602947702.1658,-500
1602947702.1676,-225
1602947702.1695,114
1602947702.1702,53
1602947702.1715,24
1602947702.1735,102
1602947702.1755,94
1602947702.1775,68
1602947702.1795,92
1602947702.1815,94
1602947702.1835,87
1602947702.1855,99
1602947702.1875,106
1602947702.1895,106
1602947702.1915,111
1602947702.1935,114
1602947702.1955,119
1602947702.1975,126
1602947702.1995,136
1602947702.2002,143
1602947702.2015,148
1602947702.2035,157
1602947702.2055,167
1602947702.2075,174
1602947702.2095,184
1602947702.2115,199
1602947702.2135,211
1602947702.2155,218
1602947702.2175,218
1602947702.2195,223
1602947702.2215,225
1602947702.2235,218
1602947702.2256,208
1602947702.2275,196
1602947702.2295,177
1602947702.6314,145
1602947702.6321,109
1602947702.6346,77
1602947702.6372,53
1602947702.6391,31
1602947702.6412,14
1602947702.6431,7
1602947702.6452,4
1602947702.6472,-4
1602947702.6491,-14
1602947702.6511,-9
1602947702.6531,-2
1602947702.6551,-2
1602947702.6571,-2
1602947702.6578,2
1602947702.6591,9
1602947702.6613,12
1602947702.6632,12
1602947702.6653,21
1602947702.6672,31
1602947702.6691,34
1602947702.6711,36
1602947702.6731,41
1602947702.6751,43
1602947702.6771,46
1602947702.6791,48
1602947702.6811,53
1602947702.6831,51
1602947702.6851,48
1602947702.6871,43
1602947702.6891,41
1602947702.6911,41
1602947702.6931,34
1602947702.6951,31
1602947702.6971,34
1602947702.6991,31
1602947702.7011,31
1602947702.7031,34
1602947702.7051,38
1602947702.7071,38
1602947702.7091,34
1602947702.7111,34
1602947702.7131,38
1602947702.7151,41
1602947702.7171,41
1602947702.7191,41
1602947702.7211,43
1602947702.7231,46
1602947702.7251,46
1602947702.7271,51
1602947702.7291,53
1602947702.7311,51
1602947702.7331,51
1602947702.7351,51
1602947702.7371,55
1602947702.7392,55
1602947702.7411,53
1602947702.7431,53
1602947702.7450,53
1602947702.7471,60
1602947702.7491,75
1602947702.7511,94
1602947702.7531,102
1602947702.7551,89
1602947702.7571,75
1602947702.7591,77
1602947702.7611,68
1602947702.7633,53
1602947702.7651,46
1602947702.7671,46
1602947702.7691,46
1602947702.7712,48
1602947702.7731,51
1602947703.1714,58
1602947703.1721,63
1602947703.1745,55
1602947703.1771,51
1602947703.1792,155
1602947703.1812,420
1602947703.1832,583
1602947703.1851,223
1602947703.1871,-376
1602947703.1892,-378
1602947703.1912,19
1602947703.1931,94
1602947703.1951,14
1602947703.1971,72
1602947703.1992,99
1602947703.2011,63
1602947703.2031,75
1602947703.2051,94
1602947703.2071,87
1602947703.2091,85
1602947703.2112,92
1602947703.2131,94
1602947703.2151,94
1602947703.2171,104
1602947703.2191,111
1602947703.2211,116
1602947703.2231,121
1602947703.2252,131
1602947703.2271,138
1602947703.2291,143
1602947703.2311,153
1602947703.2331,170
1602947703.2351,179
1602947703.2371,184
1602947703.2391,191
1602947703.2412,206
1602947703.2431,213
1602947703.2451,216
1602947703.2471,216
1602947703.2491,216
1602947703.2511,208
1602947703.2531,196
1602947703.2551,184
1602947703.2571,167
1602947703.2591,140
1602947703.2613,106
1602947703.2631,80
1602947703.2651,58
1602947703.2671,36
1602947703.2691,24
1602947703.2711,19
1602947703.2731,12
1602947703.2751,0
1602947703.2771,-2
1602947703.2791,7
1602947703.2811,12
1602947703.2831,14
1602947703.2851,17
1602947703.2871,17
1602947703.2891,14
1602947703.2911,17
1602947703.2931,21
1602947703.2951,31
1602947703.2971,34
1602947703.2991,36
1602947703.3011,43
1602947703.3031,48
1602947703.3051,48
1602947703.3072,43
1602947703.3092,43
1602947703.3112,43
1602947703.3131,41
1602947703.3151,38
1602947703.7716,41
1602947703.7725,43
1602947703.7749,38
1602947703.7775,24
1602947703.7796,19
1602947703.7815,26
1602947703.7836,29
1602947703.7855,24
1602947703.7875,21
1602947703.7895,24
1602947703.7915,26
1602947703.7935,29
1602947703.7955,29
1602947703.7975,29
1602947703.7996,29
1602947703.8015,31
1602947703.8035,36
1602947703.8055,41
1602947703.8075,41
1602947703.8095,38
1602947703.8115,41
1602947703.8135,46
1602947703.8155,46
1602947703.8177,48
1602947703.8195,51
1602947703.8215,51
1602947703.8235,53
1602947703.8255,55
1602947703.8275,55
1602947703.8295,55
1602947703.8315,55
1602947703.8334,55
1602947703.8354,60
1602947703.8374,77
1602947703.8395,99
1602947703.8415,104
1602947703.8434,94
1602947703.8454,87
1602947703.8475,87
1602947703.8495,80
1602947703.8515,68
1602947703.8535,63
1602947703.8555,60
1602947703.8574,58
1602947703.8594,60
1602947703.8614,60
1602947703.8634,63
1602947703.8654,72
1602947703.8675,68
1602947703.8694,63
1602947703.8714,162
1602947703.8734,425
1602947703.8754,590
1602947703.8774,233
1602947703.8795,-361
1602947703.8814,-361
1602947703.8834,36
1602947703.8855,106
1602947703.8874,19
1602947703.8894,80
1602947703.8914,109
1602947703.8934,72
1602947703.8954,80
1602947703.8974,102
1602947703.8995,99
1602947703.9015,99
1602947703.9035,99
1602947703.9054,102
1602947703.9074,111
1602947703.9095,119
1602947703.9114,119
1602947703.9134,123
1602947703.9154,138
1602947704.3466,143
1602947704.3476,140
1602947704.3499,148
1602947704.3524,157
1602947704.3544,170
1602947704.3564,179
1602947704.3584,191
1602947704.3605,199
1602947704.3624,196
1602947704.3644,191
1602947704.3664,201
1602947704.3685,208
1602947704.3704,206
1602947704.3724,201
1602947704.3743,189
1602947704.3764,174
1602947704.3784,160
1602947704.3804,138
1602947704.3823,106
1602947704.3843,72
1602947704.3863,48
1602947704.3883,31
1602947704.3904,17
1602947704.3923,7
1602947704.3943,7
1602947704.3963,9
1602947704.3983,9
1602947704.4003,14
1602947704.4023,17
1602947704.4043,17
1602947704.4063,26
1602947704.4083,31
1602947704.4104,29
1602947704.4123,31
1602947704.4143,31
1602947704.4163,36
1602947704.4183,43
1602947704.4204,41
1602947704.4223,36
1602947704.4243,43
1602947704.4263,46
1602947704.4283,43
1602947704.4304,46
1602947704.4323,48
1602947704.4343,38
1602947704.4363,34
1602947704.4383,46
1602947704.4404,48
1602947704.4423,43
1602947704.4443,46
1602947704.4463,46
1602947704.4483,38
1602947704.4505,41
1602947704.4524,46
1602947704.4543,43
1602947704.4563,43
1602947704.4583,51
1602947704.4604,55
1602947704.4624,53
1602947704.4643,55
1602947704.4663,60
1602947704.4683,55
1602947704.4704,53
1602947704.4723,55
1602947704.4743,65
1602947704.4763,68
1602947704.4783,60
1602947704.4804,55
1602947704.4823,55
1602947704.4843,60
1602947704.4863,65
1602947704.4883,65
1602947704.4904,65
1602947704.8818,65
1602947704.8825,65
1602947704.8849,60
1602947704.8875,65
1602947704.8896,80
1602947704.8915,94
1602947704.8936,106
1602947704.8955,109
1602947704.8976,99
1602947704.8995,85
1602947704.9015,75
1602947704.9035,72
1602947704.9055,70
1602947704.9075,55
1602947704.9095,51
1602947704.9115,60
1602947704.9135,65
1602947704.9155,63
1602947704.9175,65
1602947704.9195,70
1602947704.9215,60
1602947704.9235,70
1602947704.9255,240
1602947704.9275,558
1602947704.9295,614
1602947704.9315,53
1602947704.9335,-490
1602947704.9355,-284
1602947704.9375,92
1602947704.9395,70
1602947704.9417,34
1602947704.9436,114
1602947704.9455,104
1602947704.9475,75
1602947704.9495,99
1602947704.9515,109
1602947704.9535,94
1602947704.9555,89
1602947704.9575,97
1602947704.9595,102
1602947704.9615,106
1602947704.9635,111
1602947704.9655,119
1602947704.9675,126
1602947704.9695,131
1602947704.9715,133
1602947704.9735,148
1602947704.9755,157
1602947704.9775,160
1602947704.9795,167
1602947704.9815,179
1602947704.9835,194
1602947704.9855,201
1602947704.9875,208
1602947704.9895,216
1602947704.9915,216
1602947704.9935,216
1602947704.9955,216
1602947704.9975,208
1602947704.9997,194
1602947705.0015,172
1602947705.0035,145
1602947705.0055,121
1602947705.0075,92
1602947705.0095,58
1602947705.0115,31
1602947705.0135,17
1602947705.0155,7
1602947705.0175,-4
1602947705.0195,-7
1602947705.0215,0
1602947705.0235,-4
1602947705.0255,-12
1602947705.4517,-4
1602947705.4524,7
1602947705.4548,9
1602947705.4574,9
1602947705.4595,12
1602947705.4614,14
1602947705.4636,9
1602947705.4655,4
1602947705.4677,7
1602947705.4695,14
1602947705.4714,19
1602947705.4734,24
1602947705.4754,26
1602947705.4775,26
1602947705.4794,26
1602947705.4815,29
1602947705.4834,26
1602947705.4854,26
1602947705.4874,26
1602947705.4894,24
1602947705.4914,26
1602947705.4934,26
1602947705.4954,29
1602947705.4974,26
1602947705.4994,26
1602947705.5014,26
1602947705.5034,29
1602947705.5054,31
1602947705.5074,31
1602947705.5094,24
1602947705.5114,21
1602947705.5134,26
1602947705.5154,26
1602947705.5175,26
1602947705.5194,31
1602947705.5214,36
1602947705.5234,36
1602947705.5254,36
1602947705.5274,41
1602947705.5294,43
1602947705.5314,43
1602947705.5334,43
1602947705.5355,41
1602947705.5376,43
1602947705.5394,43
1602947705.5414,48
1602947705.5434,68
1602947705.5454,87
1602947705.5474,85
1602947705.5494,68
1602947705.5514,65
1602947705.5534,70
1602947705.5554,63
1602947705.5574,48
1602947705.5594,41
1602947705.5614,41
1602947705.5634,41
1602947705.5654,43
1602947705.5674,51
1602947705.5696,60
1602947705.5715,55
1602947705.5734,38
1602947705.5754,65
1602947705.5774,250
1602947705.5794,536
1602947705.5814,507
1602947705.5834,-72
1602947705.5854,-490
1602947705.5874,-196
1602947705.5894,116
1602947705.5914,51
1602947705.5934,34
1602947705.5954,106
1602947705.9917,85
1602947705.9924,65
1602947705.9949,94
1602947705.9975,97
1602947705.9995,85
1602947706.0015,94
1602947706.0037,99
1602947706.0055,87
1602947706.0075,77
1602947706.0095,89
1602947706.0115,102
1602947706.0135,102
1602947706.0155,106
1602947706.0174,116
1602947706.0195,126
1602947706.0214,133
1602947706.0234,143
1602947706.0254,155
1602947706.0274,165
1602947706.0294,174
1602947706.0314,184
1602947706.0335,189
1602947706.0355,187
1602947706.0374,184
1602947706.0395,184
1602947706.0414,184
1602947706.0435,177
1602947706.0455,165
1602947706.0475,150
1602947706.0495,123
1602947706.0514,94
1602947706.0535,65
1602947706.0555,38
1602947706.0575,21
1602947706.0595,7
1602947706.0614,-4
1602947706.0634,-12
1602947706.0656,-12
1602947706.0675,-9
1602947706.0695,-9
1602947706.0714,-7
1602947706.0735,-2
1602947706.0755,-2
1602947706.0774,2
1602947706.0794,7
1602947706.0815,9
1602947706.0835,12
1602947706.0855,14
1602947706.0874,19
1602947706.0894,24
1602947706.0914,26
1602947706.0935,29
1602947706.0954,34
1602947706.0975,34
1602947706.0995,34
1602947706.1015,36
1602947706.1035,41
1602947706.1055,38
1602947706.1075,34
1602947706.1094,34
1602947706.1114,36
1602947706.1135,36
1602947706.1154,36
1602947706.1175,38
1602947706.1195,38
1602947706.1215,38
1602947706.1235,38
1602947706.1254,38
1602947706.1275,43
1602947706.1295,43
1602947706.1315,41
1602947706.1335,38
1602947706.1355,46
1602947706.5618,46
1602947706.5625,46
1602947706.5649,48
1602947706.5677,48
1602947706.5697,43
1602947706.5715,36
1602947706.5737,38
1602947706.5755,46
1602947706.5775,41
1602947706.5795,38
1602947706.5815,41
1602947706.5835,43
1602947706.5855,43
1602947706.5875,53
1602947706.5896,70
1602947706.5917,85
1602947706.5936,77
1602947706.5955,63
1602947706.5976,65
1602947706.5995,70
1602947706.6015,60
1602947706.6035,46
1602947706.6055,41
1602947706.6075,43
1602947706.6095,46
1602947706.6115,48
1602947706.6135,53
1602947706.6155,58
1602947706.6175,55
1602947706.6195,41
1602947706.6215,82
1602947706.6235,286
1602947706.6255,551
1602947706.6275,434
1602947706.6295,-172
1602947706.6315,-476
1602947706.6335,-133
1602947706.6355,111
1602947706.6375,36
1602947706.6395,43
1602947706.6415,104
1602947706.6435,82
1602947706.6455,70
1602947706.6475,94
1602947706.6495,92
1602947706.6515,87
1602947706.6535,99
1602947706.6555,104
1602947706.6575,102
1602947706.6595,106
1602947706.6615,116
1602947706.6635,121
1602947706.6655,121
1602947706.6675,131
1602947706.6695,143
1602947706.6715,148
1602947706.6735,155
1602947706.6755,167
1602947706.6775,177
1602947706.6795,182
1602947706.6816,189
1602947706.6835,201
1602947706.6855,206
1602947706.6875,201
1602947706.6895,204
1602947706.6915,201
1602947706.6937,199
1602947706.6956,191
1602947706.6976,179
1602947706.6995,162
1602947706.7015,136
1602947706.7035,104
1602947706.7055,80
1602947707.1920,60
1602947707.1929,36
1602947707.1953,17
1602947707.1979,4
1602947707.1999,2
1602947707.2019,0
1602947707.2040,-12
1602947707.2059,-21
1602947707.2079,-19
1602947707.2100,-9
1602947707.2119,-9
1602947707.2138,-7
1602947707.2158,4
1602947707.2178,7
1602947707.2200,7
1602947707.2218,12
1602947707.2239,17
1602947707.2258,19
1602947707.2279,21
1602947707.2299,24
1602947707.2319,29
1602947707.2339,26
1602947707.2358,24
1602947707.2378,26
1602947707.2399,29
1602947707.2418,29
1602947707.2438,26
1602947707.2459,26
1602947707.2478,31
1602947707.2499,34
1602947707.2519,31
1602947707.2539,31
1602947707.2558,31
1602947707.2579,31
1602947707.2599,34
1602947707.2618,41
1602947707.2638,43
1602947707.2658,38
1602947707.2678,38
1602947707.2699,43
1602947707.2718,48
1602947707.2738,43
1602947707.2759,41
1602947707.2778,51
1602947707.2801,48
1602947707.2819,41
1602947707.2839,55
1602947707.2858,63
1602947707.2879,58
1602947707.2899,58
1602947707.2919,55
1602947707.2939,48
1602947707.2958,55
1602947707.2979,70
1602947707.2999,89
1602947707.3019,102
1602947707.3039,97
1602947707.3059,80
1602947707.3079,85
1602947707.3099,85
1602947707.3118,70
1602947707.3139,58
1602947707.3159,55
1602947707.3179,55
1602947707.3199,55
1602947707.3219,58
1602947707.3238,65
1602947707.3258,65
1602947707.3279,55
1602947707.3299,51
1602947707.3319,153
1602947707.3339,432
1602947707.3359,621
1602947707.7014,250
1602947707.7022,-388
1602947707.7046,-408
1602947707.7072,2
1602947707.7093,92
1602947707.7112,17
1602947707.7133,82
1602947707.7152,109
1602947707.7172,68
1602947707.7180,85
1602947707.7203,111
1602947707.7222,106
1602947707.7242,97
1602947707.7262,97
1602947707.7282,94
1602947707.7302,89
1602947707.7322,92
1602947707.7341,109
1602947707.7362,116
1602947707.7382,114
1602947707.7402,119
1602947707.7422,128
1602947707.7443,140
1602947707.7463,148
1602947707.7482,155
1602947707.7489,167
1602947707.7502,179
1602947707.7522,187
1602947707.7541,196
1602947707.7561,208
1602947707.7581,213
1602947707.7602,204
1602947707.7622,194
1602947707.7642,194
1602947707.7662,191
1602947707.7682,177
1602947707.7702,155
1602947707.7722,126
1602947707.7742,97
1602947707.7762,72
1602947707.7782,51
1602947707.7788,24
1602947707.7802,7
1602947707.7822,0
1602947707.7841,-4
1602947707.7863,-9
1602947707.7882,-17
1602947707.7902,-17
1602947707.7922,-7
1602947707.7942,0
1602947707.7962,-2
1602947707.7982,2
1602947707.8002,14
1602947707.8022,21
1602947707.8041,21
1602947707.8061,31
1602947707.8082,41
1602947707.8088,38
1602947707.8102,36
1602947707.8122,36
1602947707.8142,38
1602947707.8161,36
1602947707.8182,29
1602947707.8202,31
1602947707.8222,43
1602947707.8242,36
1602947707.8262,24
1602947707.8281,19
1602947707.8302,24
1602947707.8322,24
1602947707.8342,21
1602947707.8362,21
1602947707.8382,24
1602947708.2713,26
1602947708.2720,26
1602947708.2739,26
1602947708.2759,26
1602947708.2779,29
1602947708.2800,26
1602947708.2819,26
1602947708.2839,24
1602947708.2859,17
1602947708.2879,14
1602947708.2899,21
1602947708.2919,29
1602947708.2938,24
1602947708.2946,19
1602947708.2969,24
1602947708.2989,31
1602947708.3009,36
1602947708.3029,58
1602947708.3048,82
1602947708.3069,82
1602947708.3089,68
1602947708.3110,58
1602947708.3129,58
1602947708.3148,53
1602947708.3170,46
1602947708.3189,46
1602947708.3209,43
1602947708.3229,43
1602947708.3235,41
1602947708.3249,46
1602947708.3269,55
1602947708.3289,53
1602947708.3309,38
1602947708.3329,89
1602947708.3349,318
1602947708.3369,592
1602947708.3389,439
1602947708.3409,-213
1602947708.3429,-517
1602947708.3449,-138
1602947708.3469,116
1602947708.3489,31
1602947708.3509,43
1602947708.3529,109
1602947708.3536,80
1602947708.3549,72
1602947708.3569,99
1602947708.3589,92
1602947708.3610,82
1602947708.3629,94
1602947708.3649,104
1602947708.3670,104
1602947708.3690,109
1602947708.3709,116
1602947708.3729,121
1602947708.3749,123
1602947708.3768,128
1602947708.3789,138
1602947708.3810,145
1602947708.3829,145
1602947708.3836,153
1602947708.3849,170
1602947708.3869,174
1602947708.3888,179
1602947708.3909,194
1602947708.3929,206
1602947708.3948,206
1602947708.3970,204
1602947708.3988,201
1602947708.4009,194
1602947708.4029,187
1602947708.4049,179
1602947708.4068,160
1602947708.8118,128
1602947708.8125,97
1602947708.8142,72
1602947708.8165,53
1602947708.8185,34
1602947708.8206,14
1602947708.8225,2
1602947708.8245,2
1602947708.8265,2
1602947708.8285,-9
1602947708.8305,-21
1602947708.8325,-14
1602947708.8345,-2
1602947708.8365,-2
1602947708.8385,2
1602947708.8406,9
1602947708.8426,14
1602947708.8445,17
1602947708.8452,21
1602947708.8465,29
1602947708.8485,31
1602947708.8505,31
1602947708.8525,38
1602947708.8545,41
1602947708.8565,41
1602947708.8585,38
1602947708.8605,38
1602947708.8625,41
1602947708.8645,41
1602947708.8667,38
1602947708.8686,36
1602947708.8705,34
1602947708.8726,31
1602947708.8745,29
1602947708.8752,29
1602947708.8765,26
1602947708.8785,21
1602947708.8805,24
1602947708.8825,31
1602947708.8846,34
1602947708.8865,31
1602947708.8885,31
1602947708.8905,34
1602947708.8925,36
1602947708.8945,36
1602947708.8965,36
1602947708.8985,36
1602947708.9005,38
1602947708.9025,38
1602947708.9045,36
1602947708.9052,36
1602947708.9065,38
1602947708.9085,48
1602947708.9105,70
1602947708.9125,80
1602947708.9145,68
1602947708.9165,58
1602947708.9185,60
1602947708.9206,58
1602947708.9225,41
1602947708.9245,31
1602947708.9265,34
1602947708.9285,36
1602947708.9305,38
1602947708.9325,43
1602947708.9345,46
1602947708.9353,48
1602947708.9365,41
1602947708.9385,51
1602947708.9405,191
1602947708.9425,473
1602947708.9445,551
1602947708.9465,60
1602947709.3517,-466
1602947709.3524,-291
1602947709.3549,85
1602947709.3575,72
1602947709.3595,19
1602947709.3615,94
1602947709.3636,92
1602947709.3658,51
1602947709.3676,72
1602947709.3695,92
1602947709.3715,77
1602947709.3735,77
1602947709.3755,89
1602947709.3775,92
1602947709.3795,97
1602947709.3814,104
1602947709.3834,106
1602947709.3854,106
1602947709.3874,111
1602947709.3894,126
1602947709.3914,136
1602947709.3934,138
1602947709.3954,148
1602947709.3974,160
1602947709.3996,172
1602947709.4015,182
1602947709.4035,189
1602947709.4055,194
1602947709.4074,206
1602947709.4095,208
1602947709.4114,199
1602947709.4134,196
1602947709.4154,196
1602947709.4174,187
1602947709.4195,165
1602947709.4214,143
1602947709.4234,119
1602947709.4254,89
1602947709.4331,65
1602947709.4344,43
1602947709.4364,26
1602947709.4385,12
1602947709.4404,7
1602947709.4425,4
1602947709.4444,2
1602947709.4465,-2
1602947709.4485,0
1602947709.4505,7
1602947709.4525,9
1602947709.4544,9
1602947709.4565,17
1602947709.4584,26
1602947709.4605,29
1602947709.4624,31
1602947709.4644,36
1602947709.4664,46
1602947709.4684,46
1602947709.4705,41
1602947709.4726,43
1602947709.4745,43
1602947709.4764,43
1602947709.4784,46
1602947709.4805,43
1602947709.4824,46
1602947709.4844,46
1602947709.4865,46
1602947709.4884,43
1602947709.4905,43
1602947709.4924,46
1602947709.4944,48
1602947709.4964,41
1602947709.4984,38
1602947709.5004,36
1602947709.9219,36
1602947709.9228,31
1602947709.9253,31
1602947709.9279,26
1602947709.9299,17
1602947709.9318,17
1602947709.9340,24
1602947709.9358,26
1602947709.9378,26
1602947709.9398,26
1602947709.9418,21
1602947709.9438,21
1602947709.9458,21
1602947709.9478,26
1602947709.9498,38
1602947709.9518,58
1602947709.9538,75
1602947709.9558,77
1602947709.9578,65
1602947709.9599,58
1602947709.9618,60
1602947709.9638,53
1602947709.9658,43
1602947709.9678,38
1602947709.9699,38
1602947709.9718,38
1602947709.9739,43
1602947709.9758,46
1602947709.9778,43
1602947709.9798,46
1602947709.9818,38
1602947709.9838,55
1602947709.9858,218
1602947709.9878,497
1602947709.9898,512
1602947709.9918,-17
1602947709.9940,-468
1602947709.9959,-235
1602947709.9978,80
1602947709.9999,38
1602947710.0017,12
1602947710.0038,82
1602947710.0058,72
1602947710.0078,53
1602947710.0098,77
1602947710.0118,87
1602947710.0138,80
1602947710.0158,85
1602947710.0178,89
1602947710.0198,89
1602947710.0218,97
1602947710.0238,106
1602947710.0258,109
1602947710.0278,116
1602947710.0298,123
1602947710.0318,133
1602947710.0338,145
1602947710.0358,150
1602947710.0378,157
1602947710.0398,165
1602947710.0419,177
1602947710.0438,187
1602947710.0458,196
1602947710.0478,204
1602947710.0498,206
1602947710.0518,206
1602947710.0538,208
1602947710.0558,204
1602947710.0578,196
1602947710.0598,187
1602947710.0618,167
1602947710.0638,138
1602947710.0658,106
1602947710.5219,80
1602947710.5228,55
1602947710.5252,36
1602947710.5279,19
1602947710.5298,4
1602947710.5318,-9
1602947710.5339,-12
1602947710.5358,-4
1602947710.5378,-4
1602947710.5399,-7
1602947710.5418,-2
1602947710.5438,7
1602947710.5457,12
1602947710.5478,14
1602947710.5500,19
1602947710.5518,29
1602947710.5537,38
1602947710.5557,41
1602947710.5578,43
1602947710.5598,51
1602947710.5617,51
1602947710.5637,48
1602947710.5657,51
1602947710.5678,51
1602947710.5698,51
1602947710.5718,48
1602947710.5738,46
1602947710.5758,43
1602947710.5777,43
1602947710.5798,43
1602947710.5817,36
1602947710.5838,34
1602947710.5858,31
1602947710.5878,26
1602947710.5898,29
1602947710.5917,31
1602947710.5937,29
1602947710.5958,31
1602947710.5977,34
1602947710.5997,34
1602947710.6017,36
1602947710.6038,34
1602947710.6058,29
1602947710.6077,24
1602947710.6098,26
1602947710.6117,29
1602947710.6137,31
1602947710.6158,34
1602947710.6178,29
1602947710.6198,26
1602947710.6217,38
1602947710.6238,58
1602947710.6257,80
1602947710.6277,82
1602947710.6298,65
1602947710.6317,63
1602947710.6338,68
1602947710.6358,53
1602947710.6378,41
1602947710.6398,38
1602947710.6418,38
1602947710.6437,41
1602947710.6458,46
1602947710.6464,46
1602947710.6478,46
1602947710.6500,48
1602947710.6518,34
1602947710.6538,43
1602947710.6558,211
1602947710.6578,512
1602947710.6598,544
1602947710.6618,-9
1602947710.6638,-497
1602947711.0618,-255
1602947711.0625,94
1602947711.0648,51
1602947711.0675,19
1602947711.0696,99
1602947711.0715,89
1602947711.0722,65
1602947711.0736,92
1602947711.0755,99
1602947711.0775,82
1602947711.0796,80
1602947711.0815,87
1602947711.0835,87
1602947711.0856,94
1602947711.0875,104
1602947711.0895,106
1602947711.0915,116
1602947711.0935,126
1602947711.0955,123
1602947711.0975,131
1602947711.0995,145
1602947711.1015,157
1602947711.1022,157
1602947711.1035,157
1602947711.1055,174
1602947711.1075,191
1602947711.1095,194
1602947711.1115,194
1602947711.1135,196
1602947711.1155,201
1602947711.1175,201
1602947711.1195,199
1602947711.1215,187
1602947711.1235,162
1602947711.1255,133
1602947711.1275,106
1602947711.1295,75
1602947711.1315,48
1602947711.1322,29
1602947711.1335,17
1602947711.1355,4
1602947711.1375,0
1602947711.1395,0
1602947711.1417,-2
1602947711.1436,0
1602947711.1455,0
1602947711.1476,0
1602947711.1496,4
1602947711.1516,9
1602947711.1535,17
1602947711.1555,26
1602947711.1575,36
1602947711.1596,41
1602947711.1615,36
1602947711.1622,31
1602947711.1635,38
1602947711.1655,43
1602947711.1675,41
1602947711.1696,46
1602947711.1715,55
1602947711.1735,55
1602947711.1755,48
1602947711.1775,48
1602947711.1796,51
1602947711.1815,46
1602947711.1835,41
1602947711.1856,43
1602947711.1875,41
1602947711.1895,41
1602947711.1915,41
1602947711.1921,43
1602947711.1936,43
1602947711.1955,38
1602947711.6318,36
1602947711.6325,41
1602947711.6349,48
1602947711.6375,48
1602947711.6395,43
1602947711.6415,46
1602947711.6435,43
1602947711.6455,29
1602947711.6475,19
1602947711.6482,21
1602947711.6496,19
1602947711.6515,19
1602947711.6535,26
1602947711.6555,38
1602947711.6575,46
1602947711.6596,48
1602947711.6615,43
1602947711.6635,38
1602947711.6654,41
1602947711.6675,34
1602947711.6695,17
1602947711.6717,17
1602947711.6735,17
1602947711.6754,17
1602947711.6775,24
1602947711.6781,31
1602947711.6795,34
1602947711.6815,34
1602947711.6834,26
1602947711.6854,43
1602947711.6874,211
1602947711.6895,514
1602947711.6915,539
1602947711.6935,-26
1602947711.6954,-519
1602947711.6975,-267
1602947711.6996,89
1602947711.7015,43
1602947711.7035,12
1602947711.7055,92
1602947711.7074,85
1602947711.7081,60
1602947711.7095,82
1602947711.7114,85
1602947711.7135,77
1602947711.7155,85
1602947711.7175,87
1602947711.7195,89
1602947711.7215,102
1602947711.7235,104
1602947711.7255,102
1602947711.7275,109
1602947711.7295,123
1602947711.7315,131
1602947711.7334,136
1602947711.7355,143
1602947711.7375,150
1602947711.7381,165
1602947711.7395,179
1602947711.7414,189
1602947711.7435,199
1602947711.7455,211
1602947711.7475,216
1602947711.7495,216
1602947711.7515,216
1602947711.7535,211
1602947711.7555,201
1602947711.7575,189
1602947711.7596,172
1602947711.7615,143
1602947711.7635,111
1602947711.7655,85
1602947711.7677,55
1602947712.1716,34
1602947712.1723,19
1602947712.1747,7
1602947712.1773,2
1602947712.1793,2
1602947712.1814,0
1602947712.1834,0
1602947712.1855,0
1602947712.1873,-9
1602947712.1894,-14
1602947712.1913,-4
1602947712.1933,2
1602947712.1953,2
1602947712.1973,9
1602947712.1993,21
1602947712.2000,29
1602947712.2013,29
1602947712.2033,34
1602947712.2053,38
1602947712.2073,43
1602947712.2093,43
1602947712.2113,51
1602947712.2133,53
1602947712.2153,51
1602947712.2173,48
1602947712.2193,48
1602947712.2213,46
1602947712.2233,46
1602947712.2253,46
1602947712.2273,43
1602947712.2295,41
1602947712.2299,43
1602947712.2313,43
1602947712.2333,43
1602947712.2353,46
1602947712.2373,46
1602947712.2393,43
1602947712.2413,38
1602947712.2433,38
1602947712.2453,43
1602947712.2473,46
1602947712.2493,48
1602947712.2513,43
1602947712.2533,41
1602947712.2553,41
1602947712.2573,41
1602947712.2593,38
1602947712.2599,36
1602947712.2613,31
1602947712.2633,36
1602947712.2655,55
1602947712.2673,80
1602947712.2693,85
1602947712.2713,70
1602947712.2733,60
1602947712.2753,63
1602947712.2773,58
1602947712.2793,48
1602947712.2813,41
1602947712.2833,34
1602947712.2853,36
1602947712.2873,41
1602947712.2893,46
1602947712.2900,51
1602947712.2913,51
1602947712.2933,43
1602947712.2953,41
1602947712.2973,148
1602947712.2993,415
1602947712.3013,575
1602947712.3033,196
1602947712.3053,-398
1602947712.3073,-369
1602947712.7415,29
1602947712.7424,77
1602947712.7449,-9
1602947712.7475,58
1602947712.7481,85
1602947712.7496,41
1602947712.7515,46
1602947712.7536,70
1602947712.7555,68
1602947712.7575,65
1602947712.7595,72
1602947712.7614,75
1602947712.7635,80
1602947712.7654,89
1602947712.7674,94
1602947712.7695,97
1602947712.7714,106
1602947712.7734,114
1602947712.7754,121
1602947712.7774,133
1602947712.7781,143
1602947712.7795,155
1602947712.7814,165
1602947712.7834,172
1602947712.7854,179
1602947712.7874,189
1602947712.7894,196
1602947712.7914,199
1602947712.7936,196
1602947712.7955,194
1602947712.7974,187
1602947712.7995,179
1602947712.8015,167
1602947712.8034,143
1602947712.8054,114
1602947712.8074,82
1602947712.8080,60
1602947712.8094,41
1602947712.8114,24
1602947712.8134,12
1602947712.8154,4
1602947712.8174,0
1602947712.8195,4
1602947712.8214,9
1602947712.8234,12
1602947712.8254,14
1602947712.8274,19
1602947712.8295,24
1602947712.8314,21
1602947712.8334,26
1602947712.8355,36
1602947712.8375,43
1602947712.8381,46
1602947712.8395,46
1602947712.8414,51
1602947712.8434,60
1602947712.8454,60
1602947712.8474,58
1602947712.8496,60
1602947712.8514,60
1602947712.8534,53
1602947712.8554,51
1602947712.8574,51
1602947712.8595,51
1602947712.8614,48
1602947712.8635,38
1602947712.8654,31
1602947712.8674,36
1602947712.8680,38
1602947712.8695,34
1602947712.8714,34
1602947712.8734,36
1602947712.8754,36
1602947713.2816,36
1602947713.2822,41
1602947713.2845,43
1602947713.2872,43
1602947713.2892,41
1602947713.2912,38
1602947713.2921,31
1602947713.2942,19
1602947713.2962,21
1602947713.2982,26
1602947713.3002,29
1602947713.3022,24
1602947713.3042,26
1602947713.3062,34
1602947713.3083,29
1602947713.3102,24
1602947713.3122,29
1602947713.3142,41
1602947713.3161,60
1602947713.3182,75
1602947713.3203,72
1602947713.3209,60
1602947713.3222,53
1602947713.3242,58
1602947713.3262,55
1602947713.3282,41
1602947713.3302,34
1602947713.3321,36
1602947713.3342,38
1602947713.3362,41
1602947713.3382,38
1602947713.3402,43
1602947713.3423,48
1602947713.3442,41
1602947713.3462,53
1602947713.3482,201
1602947713.3502,480
1602947713.3509,541
1602947713.3521,51
1602947713.3542,-444
1602947713.3562,-255
1602947713.3582,94
1602947713.3603,70
1602947713.3622,24
1602947713.3642,94
1602947713.3662,89
1602947713.3682,58
1602947713.3702,85
1602947713.3722,97
1602947713.3742,87
1602947713.3762,94
1602947713.3782,99
1602947713.3802,94
1602947713.3808,97
1602947713.3822,104
1602947713.3842,114
1602947713.3862,121
1602947713.3884,128
1602947713.3903,128
1602947713.3922,131
1602947713.3942,138
1602947713.3962,145
1602947713.3982,155
1602947713.4002,167
1602947713.4022,174
1602947713.4042,184
1602947713.4062,194
1602947713.4081,204
1602947713.4102,208
1602947713.4109,204
1602947713.4121,196
1602947713.4142,191
1602947713.4162,184
1602947713.8820,167
1602947713.8829,140
1602947713.8852,111
1602947713.8880,77
1602947713.8900,43
1602947713.8920,21
1602947713.8941,12
1602947713.8960,0
1602947713.8980,-9
1602947713.8999,-17
1602947713.9019,-17
1602947713.9026,-14
1602947713.9039,-9
1602947713.9059,-4
1602947713.9079,4
1602947713.9099,7
1602947713.9119,4
1602947713.9139,12
1602947713.9159,24
1602947713.9179,26
1602947713.9199,29
1602947713.9218,31
1602947713.9239,36
1602947713.9258,46
1602947713.9279,43
1602947713.9299,38
1602947713.9318,41
1602947713.9325,38
1602947713.9338,38
1602947713.9358,43
1602947713.9378,41
1602947713.9399,38
1602947713.9419,41
1602947713.9439,41
1602947713.9458,41
1602947713.9480,38
1602947713.9499,41
1602947713.9518,41
1602947713.9539,36
1602947713.9559,36
1602947713.9578,38
1602947713.9599,34
1602947713.9618,24
1602947713.9624,24
1602947713.9638,29
1602947713.9659,26
1602947713.9678,24
1602947713.9699,26
1602947713.9718,31
1602947713.9738,34
1602947713.9759,34
1602947713.9779,26
1602947713.9799,19
1602947713.9818,24
1602947713.9838,31
1602947713.9858,29
1602947713.9879,26
1602947713.9899,26
1602947713.9918,26
1602947713.9925,41
1602947713.9938,72
1602947713.9958,87
1602947713.9978,70
1602947713.9998,53
1602947714.0019,60
1602947714.0038,68
1602947714.0058,48
1602947714.0078,31
1602947714.0099,34
1602947714.0118,38
1602947714.0138,41
1602947714.0158,43
1602947714.0178,48
1602947714.4514,55
1602947714.4524,41
1602947714.4547,21
1602947714.4574,102
1602947714.4595,386
1602947714.4613,643
1602947714.4634,361
1602947714.4654,-320
1602947714.4673,-478
1602947714.4693,-68
1602947714.4713,85
1602947714.4733,2
1602947714.4753,53
1602947714.4776,85
1602947714.4795,46
1602947714.4813,68
1602947714.4820,94
1602947714.4833,72
1602947714.4853,70
1602947714.4874,89
1602947714.4894,92
1602947714.4913,89
1602947714.4933,102
1602947714.4953,111
1602947714.4973,106
1602947714.4993,111
1602947714.5013,128
1602947714.5033,136
1602947714.5053,136
1602947714.5073,148
1602947714.5093,162
1602947714.5113,170
1602947714.5120,172
1602947714.5133,184
1602947714.5153,201
1602947714.5173,206
1602947714.5193,201
1602947714.5213,201
1602947714.5233,208
1602947714.5253,206
1602947714.5273,194
1602947714.5293,184
1602947714.5313,162
1602947714.5333,126
1602947714.5353,89
1602947714.5373,60
1602947714.5393,41
1602947714.5413,21
1602947714.5420,7
1602947714.5434,0
1602947714.5454,-7
1602947714.5474,-14
1602947714.5495,-12
1602947714.5514,-4
1602947714.5533,2
1602947714.5554,4
1602947714.5573,2
1602947714.5594,4
1602947714.5613,14
1602947714.5633,29
1602947714.5653,29
1602947714.5673,24
1602947714.5693,29
1602947714.5713,36
1602947714.5722,41
1602947714.5734,41
1602947714.5753,43
1602947714.5773,46
1602947714.5793,41
1602947714.5813,43
1602947714.5833,51
1602947714.5854,43
1602947714.5873,38
1602947714.9919,43
1602947714.9928,43
1602947714.9952,41
1602947714.9979,41
1602947714.9998,41
1602947715.0018,36
1602947715.0026,29
1602947715.0039,24
1602947715.0058,29
1602947715.0078,29
1602947715.0098,24
1602947715.0118,17
1602947715.0138,17
1602947715.0158,19
1602947715.0178,17
1602947715.0198,21
1602947715.0218,29
1602947715.0237,29
1602947715.0258,26
1602947715.0278,31
1602947715.0298,31
1602947715.0318,29
1602947715.0324,26
1602947715.0338,29
1602947715.0358,36
1602947715.0377,55
1602947715.0398,77
1602947715.0418,75
1602947715.0438,60
1602947715.0458,55
1602947715.0477,58
1602947715.0498,51
1602947715.0518,43
1602947715.0538,38
1602947715.0557,36
1602947715.0578,36
1602947715.0598,38
1602947715.0618,34
1602947715.0624,38
1602947715.0637,41
1602947715.0658,26
1602947715.0678,53
1602947715.0700,247
1602947715.0718,544
1602947715.0737,495
1602947715.0758,-116
1602947715.0777,-527
1602947715.0798,-204
1602947715.0817,111
1602947715.0838,38
1602947715.0858,26
1602947715.0878,104
1602947715.0898,82
1602947715.0905,55
1602947715.0927,85
1602947715.0948,87
1602947715.0968,70
1602947715.0988,80
1602947715.1008,94
1602947715.1028,94
1602947715.1048,97
1602947715.1068,102
1602947715.1088,109
1602947715.1108,116
1602947715.1128,121
1602947715.1148,128
1602947715.1168,138
1602947715.1188,145
1602947715.1208,153
1602947715.1215,162
1602947715.1228,177
1602947715.1247,184
1602947715.1268,191
1602947715.5621,196
1602947715.5633,204
1602947715.5657,208
1602947715.5683,206
1602947715.5703,204
1602947715.5723,199
1602947715.5744,182
1602947715.5764,155
1602947715.5784,121
1602947715.5790,94
1602947715.5803,70
1602947715.5823,38
1602947715.5843,17
1602947715.5863,9
1602947715.5883,0
1602947715.5903,-7
1602947715.5923,-9
1602947715.5943,-9
1602947715.5963,-9
1602947715.5983,-7
1602947715.6005,2
1602947715.6023,7
1602947715.6043,9
1602947715.6062,12
1602947715.6082,17
1602947715.6089,26
1602947715.6103,31
1602947715.6123,34
1602947715.6143,34
1602947715.6162,31
1602947715.6183,26
1602947715.6203,26
1602947715.6223,34
1602947715.6243,41
1602947715.6262,41
1602947715.6282,38
1602947715.6303,41
1602947715.6322,38
1602947715.6343,34
1602947715.6363,26
1602947715.6382,26
1602947715.6389,24
1602947715.6403,19
1602947715.6415,21
1602947715.6432,29
1602947715.6453,29
1602947715.6473,26
1602947715.6493,24
1602947715.6512,21
1602947715.6532,24
1602947715.6552,24
1602947715.6572,26
1602947715.6593,31
1602947715.6613,31
1602947715.6632,31
1602947715.6653,34
1602947715.6658,38
1602947715.6672,36
1602947715.6693,34
1602947715.6712,41
1602947715.6732,43
1602947715.6752,38
1602947715.6772,41
1602947715.6793,41
1602947715.6812,43
1602947715.6833,53
1602947715.6853,75
1602947715.6872,92
1602947715.6892,85
1602947715.6913,70
1602947715.6932,72
1602947715.6954,75
1602947715.6958,60
1602947716.1019,48
1602947716.1028,46
1602947716.1052,46
1602947716.1079,46
1602947716.1099,53
1602947716.1118,53
1602947716.1139,48
1602947716.1159,48
1602947716.1179,31
1602947716.1199,68
1602947716.1218,281
1602947716.1238,541
1602947716.1258,393
1602947716.1278,-221
1602947716.1299,-493
1602947716.1304,-128
1602947716.1318,104
1602947716.1338,19
1602947716.1359,41
1602947716.1378,104
1602947716.1397,72
1602947716.1418,58
1602947716.1438,80
1602947716.1457,75
1602947716.1478,70
1602947716.1498,82
1602947716.1518,87
1602947716.1537,87
1602947716.1557,94
1602947716.1578,99
1602947716.1598,106
1602947716.1603,111
1602947716.1618,116
1602947716.1638,126
1602947716.1658,138
1602947716.1677,145
1602947716.1698,150
1602947716.1718,160
1602947716.1738,172
1602947716.1757,179
1602947716.1778,184
1602947716.1798,187
1602947716.1818,191
1602947716.1838,196
1602947716.1858,199
1602947716.1877,196
1602947716.1897,189
1602947716.1903,174
1602947716.1917,153
1602947716.1939,131
1602947716.1958,106
1602947716.1977,82
1602947716.1998,55
1602947716.2018,36
1602947716.2037,21
1602947716.2058,12
1602947716.2078,7
1602947716.2098,4
1602947716.2118,4
1602947716.2138,7
1602947716.2157,7
1602947716.2178,7
1602947716.2199,14
1602947716.2204,19
1602947716.2218,21
1602947716.2237,26
1602947716.2258,34
1602947716.2277,36
1602947716.2298,38
1602947716.2317,43
1602947716.2338,41
1602947716.2359,36
1602947716.2378,41
1602947716.6415,48
1602947716.6424,46
1602947716.6448,43
1602947716.6466,38
1602947716.6472,36
1602947716.6485,29
1602947716.6505,14
1602947716.6525,12
1602947716.6544,17
1602947716.6564,17
1602947716.6584,14
1602947716.6605,17
1602947716.6624,21
1602947716.6644,21
1602947716.6664,19
1602947716.6684,14
1602947716.6705,14
1602947716.6724,19
1602947716.6744,21
1602947716.6764,24
1602947716.6770,26
1602947716.6784,21
1602947716.6804,24
1602947716.6824,29
1602947716.6843,34
1602947716.6863,31
1602947716.6884,34
1602947716.6906,38
1602947716.6924,38
1602947716.6943,34
1602947716.6963,31
1602947716.6984,38
1602947716.7004,43
1602947716.7024,51
1602947716.7044,72
1602947716.7063,92
1602947716.7069,85
1602947716.7084,65
1602947716.7104,68
1602947716.7124,72
1602947716.7144,58
1602947716.7164,46
1602947716.7183,43
1602947716.7204,51
1602947716.7224,48
1602947716.7243,46
1602947716.7263,51
1602947716.7284,58
1602947716.7304,53
1602947716.7324,41
1602947716.7344,102
1602947716.7364,327
1602947716.7369,566
1602947716.7384,378
1602947716.7404,-230
1602947716.7423,-454
1602947716.7444,-85
1602947716.7464,116
1602947716.7484,38
1602947716.7505,65
1602947716.7524,114
1602947716.7543,77
1602947716.7564,72
1602947716.7584,99
1602947716.7604,99
1602947716.7624,92
1602947716.7643,102
1602947716.7664,106
1602947716.7670,106
1602947716.7683,109
1602947716.7704,114
1602947716.7724,123
1602947716.7744,131
1602947717.2428,136
1602947717.2435,143
1602947717.2450,148
1602947717.2469,145
1602947717.2489,150
1602947717.2512,165
1602947717.2530,172
1602947717.2549,170
1602947717.2556,177
1602947717.2569,189
1602947717.2589,196
1602947717.2609,196
1602947717.2630,196
1602947717.2648,194
1602947717.2669,187
1602947717.2689,172
1602947717.2709,153
1602947717.2729,128
1602947717.2749,102
1602947717.2769,72
1602947717.2788,48
1602947717.2809,29
1602947717.2829,17
1602947717.2848,4
1602947717.2854,-2
1602947717.2869,-2
1602947717.2888,-2
1602947717.2909,-2
1602947717.2929,0
1602947717.2948,2
1602947717.2969,7
1602947717.2988,17
1602947717.3008,24
1602947717.3028,24
1602947717.3048,21
1602947717.3068,31
1602947717.3088,43
1602947717.3109,43
1602947717.3128,36
1602947717.3148,36
1602947717.3154,48
1602947717.3168,53
1602947717.3188,46
1602947717.3208,43
1602947717.3229,41
1602947717.3248,38
1602947717.3268,34
1602947717.3288,29
1602947717.3308,31
1602947717.3328,34
1602947717.3349,34
1602947717.3368,29
1602947717.3388,26
1602947717.3408,29
1602947717.3428,26
1602947717.3448,24
1602947717.3456,29
1602947717.3469,31
1602947717.3488,29
1602947717.3508,34
1602947717.3528,34
1602947717.3548,36
1602947717.3568,38
1602947717.3588,38
1602947717.3608,38
1602947717.3628,36
1602947717.3648,43
1602947717.3669,53
1602947717.3688,48
1602947717.3708,38
1602947717.3729,46
1602947717.3748,55
1602947717.3754,68
1602947717.8119,80
1602947717.8128,75
1602947717.8152,65
1602947717.8179,68
1602947717.8198,70
1602947717.8218,55
1602947717.8239,36
1602947717.8259,31
1602947717.8278,24
1602947717.8299,17
1602947717.8318,26
1602947717.8338,34
1602947717.8359,26
1602947717.8378,24
1602947717.8398,21
1602947717.8404,68
1602947717.8418,298
1602947717.8438,585
1602947717.8458,422
1602947717.8478,-245
1602947717.8498,-534
1602947717.8518,-145
1602947717.8538,97
1602947717.8558,12
1602947717.8578,36
1602947717.8599,104
1602947717.8618,72
1602947717.8638,63
1602947717.8658,94
1602947717.8678,92
1602947717.8698,82
1602947717.8704,92
1602947717.8718,99
1602947717.8738,102
1602947717.8760,106
1602947717.8779,111
1602947717.8798,111
1602947717.8818,119
1602947717.8838,128
1602947717.8859,138
1602947717.8878,150
1602947717.8898,160
1602947717.8918,162
1602947717.8938,165
1602947717.8958,174
1602947717.8978,184
1602947717.8998,191
1602947717.9004,199
1602947717.9018,208
1602947717.9038,216
1602947717.9058,218
1602947717.9078,211
1602947717.9098,199
1602947717.9117,187
1602947717.9138,162
1602947717.9158,131
1602947717.9178,104
1602947717.9199,80
1602947717.9218,51
1602947717.9238,29
1602947717.9258,19
1602947717.9278,14
1602947717.9298,0
1602947717.9304,-9
1602947717.9318,-4
1602947717.9338,-2
1602947717.9358,-4
1602947717.9378,-7
1602947717.9398,-4
1602947717.9418,4
1602947717.9438,9
1602947717.9458,12
1602947717.9478,19
1602947718.3517,26
1602947718.3524,29
1602947718.3547,26
1602947718.3558,31
1602947718.3575,41
1602947718.3595,41
1602947718.3614,41
1602947718.3635,41
1602947718.3654,38
1602947718.3674,34
1602947718.3694,29
1602947718.3714,29
1602947718.3737,26
1602947718.3755,19
1602947718.3774,17
1602947718.3795,14
1602947718.3814,14
1602947718.3834,19
1602947718.3855,19
1602947718.3860,17
1602947718.3874,19
1602947718.3894,21
1602947718.3915,21
1602947718.3935,24
1602947718.3954,26
1602947718.3974,29
1602947718.3996,29
1602947718.4014,31
1602947718.4034,34
1602947718.4054,34
1602947718.4074,34
1602947718.4095,34
1602947718.4114,41
1602947718.4134,58
1602947718.4154,80
1602947718.4160,75
1602947718.4175,58
1602947718.4194,53
1602947718.4214,60
1602947718.4234,51
1602947718.4253,38
1602947718.4274,38
1602947718.4295,41
1602947718.4314,38
1602947718.4334,38
1602947718.4354,48
1602947718.4374,55
1602947718.4395,51
1602947718.4414,34
1602947718.4434,75
1602947718.4440,296
1602947718.4454,580
1602947718.4474,456
1602947718.4494,-184
1602947718.4514,-517
1602947718.4534,-150
1602947718.4554,116
1602947718.4574,24
1602947718.4595,31
1602947718.4614,104
1602947718.4634,68
1602947718.4654,53
1602947718.4674,92
1602947718.4696,94
1602947718.4714,77
1602947718.4733,85
1602947718.4740,92
1602947718.4753,89
1602947718.4774,92
1602947718.4795,99
1602947718.4814,104
1602947718.4834,111
1602947718.4854,119
1602947718.9218,126
1602947718.9227,136
1602947718.9251,143
1602947718.9278,150
1602947718.9298,162
1602947718.9318,170
1602947718.9339,174
1602947718.9358,179
1602947718.9365,187
1602947718.9378,191
1602947718.9398,194
1602947718.9417,191
1602947718.9437,189
1602947718.9458,182
1602947718.9477,172
1602947718.9498,153
1602947718.9518,128
1602947718.9537,99
1602947718.9557,68
1602947718.9577,41
1602947718.9598,24
1602947718.9617,9
1602947718.9637,2
1602947718.9657,0
1602947718.9663,-4
1602947718.9677,-12
1602947718.9698,-12
1602947718.9717,2
1602947718.9737,9
1602947718.9757,7
1602947718.9777,12
1602947718.9798,19
1602947718.9817,26
1602947718.9837,29
1602947718.9857,31
1602947718.9877,34
1602947718.9897,34
1602947718.9917,36
1602947718.9937,41
1602947718.9957,46
1602947718.9963,48
1602947718.9979,51
1602947718.9997,51
1602947719.0017,51
1602947719.0037,48
1602947719.0057,46
1602947719.0077,48
1602947719.0098,46
1602947719.0117,43
1602947719.0137,43
1602947719.0157,38
1602947719.0177,31
1602947719.0197,31
1602947719.0217,29
1602947719.0237,21
1602947719.0257,24
1602947719.0263,26
1602947719.0277,21
1602947719.0298,24
1602947719.0317,29
1602947719.0337,29
1602947719.0357,26
1602947719.0377,31
1602947719.0397,31
1602947719.0417,29
1602947719.0437,29
1602947719.0457,43
1602947719.0477,70
1602947719.0497,87
1602947719.0517,80
1602947719.0537,65
1602947719.0557,65
1602947719.0563,63
1602947719.4620,48
1602947719.4629,41
1602947719.4653,41
1602947719.4679,38
1602947719.4700,41
1602947719.4720,43
1602947719.4740,46
1602947719.4761,46
1602947719.4780,36
1602947719.4800,24
1602947719.4819,80
1602947719.4840,303
1602947719.4859,556
1602947719.4865,381
1602947719.4879,-242
1602947719.4899,-483
1602947719.4910,-104
1602947719.4928,104
1602947719.4950,14
1602947719.4971,41
1602947719.4990,99
1602947719.5009,70
1602947719.5028,65
1602947719.5048,87
1602947719.5068,85
1602947719.5088,82
1602947719.5108,92
1602947719.5128,97
1602947719.5134,97
1602947719.5148,99
1602947719.5169,102
1602947719.5189,106
1602947719.5209,119
1602947719.5229,128
1602947719.5248,131
1602947719.5269,138
1602947719.5289,148
1602947719.5309,160
1602947719.5328,170
1602947719.5349,179
1602947719.5369,187
1602947719.5388,191
1602947719.5409,194
1602947719.5428,196
1602947719.5435,199
1602947719.5448,201
1602947719.5469,196
1602947719.5489,184
1602947719.5509,170
1602947719.5528,145
1602947719.5548,119
1602947719.5568,92
1602947719.5589,63
1602947719.5609,38
1602947719.5628,21
1602947719.5648,9
1602947719.5669,4
1602947719.5689,-2
1602947719.5709,-4
1602947719.5729,-2
1602947719.5734,0
1602947719.5748,4
1602947719.5768,7
1602947719.5789,9
1602947719.5808,17
1602947719.5828,21
1602947719.5849,21
1602947719.5869,31
1602947719.5888,41
1602947719.5909,46
1602947719.5932,43
1602947719.5949,43
1602947719.5968,46
1602947720.0319,51
1602947720.0327,53
1602947720.0334,51
1602947720.0353,48
1602947720.0374,41
1602947720.0395,29
1602947720.0414,26
1602947720.0434,31
1602947720.0454,24
1602947720.0474,19
1602947720.0495,21
1602947720.0513,26
1602947720.0533,26
1602947720.0553,24
1602947720.0573,29
1602947720.0594,31
1602947720.0613,26
1602947720.0633,26
1602947720.0639,29
1602947720.0653,29
1602947720.0673,26
1602947720.0694,24
1602947720.0713,24
1602947720.0733,26
1602947720.0753,26
1602947720.0773,24
1602947720.0794,26
1602947720.0813,34
1602947720.0833,41
1602947720.0853,60
1602947720.0873,80
1602947720.0894,70
1602947720.0913,55
1602947720.0933,55
1602947720.0939,51
1602947720.0953,31
1602947720.0973,19
1602947720.0994,24
1602947720.1013,26
1602947720.1033,21
1602947720.1053,21
1602947720.1072,29
1602947720.1093,36
1602947720.1112,36
1602947720.1133,21
1602947720.1153,63
1602947720.1173,272
1602947720.1194,536
1602947720.1215,415
1602947720.1233,-189
1602947720.1239,-488
1602947720.1253,-140
1602947720.1272,99
1602947720.1293,21
1602947720.1313,36
1602947720.1333,102
1602947720.1353,72
1602947720.1373,60
1602947720.1393,85
1602947720.1413,85
1602947720.1433,80
1602947720.1453,92
1602947720.1473,99
1602947720.1493,94
1602947720.1513,102
1602947720.1533,111
1602947720.1538,114
1602947720.1553,114
1602947720.1573,128
1602947720.1594,140
1602947720.1613,143
1602947720.1633,150
1602947720.1653,157
1602947720.6318,162
1602947720.6326,172
1602947720.6350,182
1602947720.6368,194
1602947720.6387,211
1602947720.6407,211
1602947720.6413,194
1602947720.6426,184
1602947720.6446,187
1602947720.6467,179
1602947720.6487,170
1602947720.6506,153
1602947720.6527,121
1602947720.6546,87
1602947720.6566,68
1602947720.6586,46
1602947720.6607,21
1602947720.6626,7
1602947720.6646,0
1602947720.6666,-2
1602947720.6686,-7
1602947720.6706,-9
1602947720.6712,-4
1602947720.6726,0
1602947720.6746,4
1602947720.6766,9
1602947720.6788,12
1602947720.6806,14
1602947720.6825,12
1602947720.6846,12
1602947720.6866,17
1602947720.6886,14
1602947720.6905,19
1602947720.6926,24
1602947720.6946,29
1602947720.6966,36
1602947720.6986,36
1602947720.7006,34
1602947720.7012,34
1602947720.7027,36
1602947720.7046,41
1602947720.7066,36
1602947720.7085,29
1602947720.7106,26
1602947720.7126,24
1602947720.7145,24
1602947720.7166,26
1602947720.7186,29
1602947720.7206,31
1602947720.7225,29
1602947720.7246,26
1602947720.7265,29
1602947720.7286,34
1602947720.7306,36
1602947720.7311,36
1602947720.7325,36
1602947720.7346,34
1602947720.7366,36
1602947720.7386,38
1602947720.7405,36
1602947720.7426,29
1602947720.7446,24
1602947720.7466,19
1602947720.7486,17
1602947720.7506,24
1602947720.7526,34
1602947720.7546,51
1602947720.7566,70
1602947720.7586,68
1602947720.7606,51
1602947720.7611,48
1602947720.7626,51
1602947720.7646,41
1602947721.1717,31
1602947721.1725,34
1602947721.1742,29
1602947721.1760,26
1602947721.1783,31
1602947721.1800,36
1602947721.1820,41
1602947721.1840,43
1602947721.1860,24
1602947721.1880,58
1602947721.1899,274
1602947721.1920,568
1602947721.1926,466
1602947721.1940,-174
1602947721.1961,-553
1602947721.1980,-213
1602947721.1999,80
1602947721.2019,9
1602947721.2039,14
1602947721.2059,87
1602947721.2080,46
1602947721.2100,24
1602947721.2120,65
1602947721.2140,63
1602947721.2160,51
1602947721.2180,63
1602947721.2200,70
1602947721.2220,72
1602947721.2225,77
1602947721.2240,80
1602947721.2260,85
1602947721.2280,97
1602947721.2301,102
1602947721.2320,106
1602947721.2340,121
1602947721.2360,131
1602947721.2380,133
1602947721.2399,143
1602947721.2419,155
1602947721.2440,165
1602947721.2459,177
1602947721.2480,187
1602947721.2499,191
1602947721.2520,194
1602947721.2526,191
1602947721.2539,187
1602947721.2559,184
1602947721.2580,182
1602947721.2600,162
1602947721.2619,126
1602947721.2640,87
1602947721.2659,58
1602947721.2680,34
1602947721.2700,17
1602947721.2720,2
1602947721.2741,-9
1602947721.2760,-17
1602947721.2779,-24
1602947721.2800,-19
1602947721.2819,-7
1602947721.2825,-2
1602947721.2840,-4
1602947721.2860,-2
1602947721.2879,4
1602947721.2899,4
1602947721.2919,7
1602947721.2939,17
1602947721.2959,24
1602947721.2979,26
1602947721.3000,34
1602947721.3020,41
1602947721.3040,43
1602947721.3059,46
1602947721.7413,46
1602947721.7421,46
1602947721.7445,51
1602947721.7472,60
1602947721.7492,58
1602947721.7512,51
1602947721.7532,51
1602947721.7552,46
1602947721.7572,31
1602947721.7592,29
1602947721.7612,36
1602947721.7632,38
1602947721.7652,24
1602947721.7672,14
1602947721.7692,19
1602947721.7711,21
1602947721.7731,21
1602947721.7738,21
1602947721.7752,26
1602947721.7772,26
1602947721.7792,24
1602947721.7812,26
1602947721.7831,36
1602947721.7852,38
1602947721.7871,34
1602947721.7891,31
1602947721.7911,29
1602947721.7931,21
1602947721.7951,17
1602947721.7971,31
1602947721.7991,53
1602947721.8012,70
1602947721.8031,70
1602947721.8039,60
1602947721.8052,55
1602947721.8071,58
1602947721.8091,46
1602947721.8111,34
1602947721.8131,29
1602947721.8151,26
1602947721.8171,29
1602947721.8191,34
1602947721.8211,43
1602947721.8231,41
1602947721.8251,36
1602947721.8271,24
1602947721.8291,36
1602947721.8311,191
1602947721.8331,490
1602947721.8337,556
1602947721.8351,29
1602947721.8371,-512
1602947721.8391,-313
1602947721.8411,75
1602947721.8432,53
1602947721.8451,4
1602947721.8471,89
1602947721.8491,87
1602947721.8511,51
1602947721.8531,77
1602947721.8551,92
1602947721.8571,77
1602947721.8591,82
1602947721.8611,94
1602947721.8631,94
1602947721.8637,94
1602947721.8651,99
1602947721.8671,102
1602947721.8691,111
1602947721.8711,119
1602947721.8731,123
1602947721.8751,131
1602947721.8771,138
1602947722.2817,153
1602947722.2825,160
1602947722.2840,165
1602947722.2859,177
1602947722.2879,184
1602947722.2886,187
1602947722.2899,189
1602947722.2919,194
1602947722.2939,191
1602947722.2959,179
1602947722.2979,170
1602947722.3001,165
1602947722.3019,145
1602947722.3039,114
1602947722.3059,89
1602947722.3080,68
1602947722.3100,41
1602947722.3105,17
1602947722.3119,0
1602947722.3125,-9
1602947722.3139,-17
1602947722.3159,-19
1602947722.3179,-19
1602947722.3199,-17
1602947722.3219,-7
1602947722.3239,-4
1602947722.3259,-2
1602947722.3279,4
1602947722.3299,9
1602947722.3320,14
1602947722.3338,17
1602947722.3359,21
1602947722.3378,29
1602947722.3399,31
1602947722.3418,34
1602947722.3425,38
1602947722.3438,38
1602947722.3458,38
1602947722.3478,43
1602947722.3499,51
1602947722.3518,51
1602947722.3539,43
1602947722.3559,41
1602947722.3579,41
1602947722.3599,36
1602947722.3618,36
1602947722.3639,41
1602947722.3659,43
1602947722.3679,36
1602947722.3699,34
1602947722.3719,38
1602947722.3725,36
1602947722.3739,34
1602947722.3759,38
1602947722.3779,38
1602947722.3799,38
1602947722.3818,38
1602947722.3839,36
1602947722.3859,34
1602947722.3878,31
1602947722.3899,31
1602947722.3918,31
1602947722.3940,29
1602947722.3959,31
1602947722.3979,31
1602947722.3999,29
1602947722.4018,29
1602947722.4025,29
1602947722.4038,29
1602947722.4060,26
1602947722.4080,24
1602947722.4099,24
1602947722.4119,34
1602947722.8517,55
1602947722.8524,75
1602947722.8540,63
1602947722.8560,48
1602947722.8581,51
1602947722.8601,51
1602947722.8621,31
1602947722.8641,12
1602947722.8661,12
1602947722.8667,19
1602947722.8682,19
1602947722.8700,19
1602947722.8720,24
1602947722.8740,31
1602947722.8760,31
1602947722.8780,21
1602947722.8800,65
1602947722.8820,264
1602947722.8840,527
1602947722.8861,444
1602947722.8880,-143
1602947722.8900,-490
1602947722.8920,-170
1602947722.8940,97
1602947722.8960,26
1602947722.8966,24
1602947722.8980,87
1602947722.9000,63
1602947722.9020,46
1602947722.9040,72
1602947722.9060,75
1602947722.9080,70
1602947722.9100,80
1602947722.9120,85
1602947722.9140,87
1602947722.9160,94
1602947722.9180,99
1602947722.9200,104
1602947722.9220,106
1602947722.9240,116
1602947722.9261,126
1602947722.9266,131
1602947722.9279,138
1602947722.9300,150
1602947722.9320,160
1602947722.9339,167
1602947722.9360,177
1602947722.9380,189
1602947722.9399,194
1602947722.9420,201
1602947722.9440,204
1602947722.9459,204
1602947722.9479,201
1602947722.9499,194
1602947722.9520,184
1602947722.9539,167
1602947722.9560,140
1602947722.9566,109
1602947722.9580,77
1602947722.9600,48
1602947722.9620,31
1602947722.9640,17
1602947722.9659,2
1602947722.9680,-2
1602947722.9700,-7
1602947722.9719,-14
1602947722.9739,-17
1602947722.9760,-7
1602947722.9780,2
1602947722.9799,4
1602947722.9819,9
1602947722.9840,14
1602947722.9859,14
1602947723.3916,21
1602947723.3923,29
1602947723.3946,29
1602947723.3974,29
1602947723.3995,29
1602947723.4014,31
1602947723.4029,38
1602947723.4044,31
1602947723.4064,26
1602947723.4084,34
1602947723.4104,31
1602947723.4124,24
1602947723.4143,29
1602947723.4149,36
1602947723.4164,31
1602947723.4184,26
1602947723.4203,34
1602947723.4223,34
1602947723.4245,29
1602947723.4264,21
1602947723.4283,19
1602947723.4303,19
1602947723.4323,17
1602947723.4343,17
1602947723.4363,21
1602947723.4383,24
1602947723.4403,26
1602947723.4423,26
1602947723.4443,21
1602947723.4449,19
1602947723.4463,26
1602947723.4483,31
1602947723.4503,31
1602947723.4523,31
1602947723.4543,29
1602947723.4563,29
1602947723.4583,38
1602947723.4604,43
1602947723.4623,34
1602947723.4643,29
1602947723.4663,34
1602947723.4683,36
1602947723.4703,36
1602947723.4723,41
1602947723.4743,51
1602947723.4749,65
1602947723.4763,82
1602947723.4783,85
1602947723.4803,70
1602947723.4823,60
1602947723.4843,63
1602947723.4863,53
1602947723.4883,36
1602947723.4903,31
1602947723.4923,36
1602947723.4943,36
1602947723.4963,36
1602947723.4983,36
1602947723.5003,34
1602947723.5023,34
1602947723.5043,29
1602947723.5049,38
1602947723.5063,191
1602947723.5083,502
1602947723.5103,592
1602947723.5123,72
1602947723.5143,-500
1602947723.5163,-332
1602947723.5183,65
1602947723.5204,55
1602947723.5224,2
1602947723.5243,89
1602947723.5263,92
1602947723.9917,53
1602947723.9925,75
1602947723.9949,85
1602947723.9961,77
1602947723.9975,82
1602947723.9997,80
1602947724.0016,75
1602947724.0036,85
1602947724.0056,94
1602947724.0076,92
1602947724.0097,94
1602947724.0116,109
1602947724.0136,116
1602947724.0156,116
1602947724.0176,126
1602947724.0195,136
1602947724.0215,145
1602947724.0235,157
1602947724.0255,170
1602947724.0261,182
1602947724.0275,189
1602947724.0295,194
1602947724.0315,201
1602947724.0336,211
1602947724.0355,213
1602947724.0375,201
1602947724.0396,184
1602947724.0415,162
1602947724.0435,140
1602947724.0455,119
1602947724.0475,87
1602947724.0494,63
1602947724.0515,43
1602947724.0535,17
1602947724.0555,2
1602947724.0561,-2
1602947724.0575,-7
1602947724.0595,-4
1602947724.0615,-4
1602947724.0635,-7
1602947724.0655,-9
1602947724.0675,-7
1602947724.0695,2
1602947724.0715,7
1602947724.0735,4
1602947724.0756,0
1602947724.0774,2
1602947724.0797,14
1602947724.0815,24
1602947724.0836,24
1602947724.0854,19
1602947724.0861,19
1602947724.0875,24
1602947724.0895,26
1602947724.0915,26
1602947724.0935,24
1602947724.0954,24
1602947724.0974,26
1602947724.0995,26
1602947724.1015,26
1602947724.1035,26
1602947724.1055,26
1602947724.1075,24
1602947724.1095,21
1602947724.1115,19
1602947724.1134,24
1602947724.1155,31
1602947724.1161,29
1602947724.1175,26
1602947724.1194,29
1602947724.1215,31
1602947724.1235,34
1602947724.1255,34
1602947724.5314,34
1602947724.5322,34
1602947724.5346,31
1602947724.5372,31
1602947724.5393,36
1602947724.5413,41
1602947724.5433,46
1602947724.5440,46
1602947724.5452,46
1602947724.5472,38
1602947724.5492,21
1602947724.5512,24
1602947724.5532,41
1602947724.5552,55
1602947724.5572,70
1602947724.5593,77
1602947724.5611,70
1602947724.5631,60
1602947724.5652,60
1602947724.5672,60
1602947724.5691,53
1602947724.5712,43
1602947724.5732,36
1602947724.5738,41
1602947724.5752,46
1602947724.5774,43
1602947724.5793,48
1602947724.5811,60
1602947724.5831,51
1602947724.5851,46
1602947724.5871,165
1602947724.5892,451
1602947724.5912,609
1602947724.5931,191
1602947724.5951,-444
1602947724.5972,-405
1602947724.5992,31
1602947724.6011,92
1602947724.6031,2
1602947724.6115,80
1602947724.6131,111
1602947724.6152,60
1602947724.6172,63
1602947724.6192,82
1602947724.6211,75
1602947724.6231,82
1602947724.6252,92
1602947724.6271,89
1602947724.6292,89
1602947724.6312,102
1602947724.6331,106
1602947724.6352,109
1602947724.6372,116
1602947724.6393,126
1602947724.6397,133
1602947724.6411,138
1602947724.6431,143
1602947724.6451,153
1602947724.6472,170
1602947724.6491,179
1602947724.6512,191
1602947724.6532,199
1602947724.6552,204
1602947724.6572,211
1602947724.6592,206
1602947724.6611,196
1602947724.6632,194
1602947724.6652,184
1602947724.6672,162
1602947724.6693,143
1602947724.6697,121
1602947724.6712,89
1602947724.6731,55
1602947725.1018,36
1602947725.1026,17
1602947725.1050,0
1602947725.1080,-9
1602947725.1098,-14
1602947725.1116,-14
1602947725.1137,-21
1602947725.1157,-31
1602947725.1177,-21
1602947725.1196,-12
1602947725.1216,-14
1602947725.1236,-12
1602947725.1257,-4
1602947725.1263,2
1602947725.1276,7
1602947725.1296,12
1602947725.1316,17
1602947725.1336,19
1602947725.1356,19
1602947725.1376,19
1602947725.1397,21
1602947725.1416,24
1602947725.1436,21
1602947725.1456,19
1602947725.1476,21
1602947725.1497,19
1602947725.1516,14
1602947725.1536,12
1602947725.1556,19
1602947725.1562,21
1602947725.1576,17
1602947725.1596,14
1602947725.1616,19
1602947725.1636,21
1602947725.1656,21
1602947725.1676,21
1602947725.1695,14
1602947725.1715,14
1602947725.1736,17
1602947725.1756,19
1602947725.1776,19
1602947725.1796,21
1602947725.1816,21
1602947725.1836,21
1602947725.1856,29
1602947725.1862,31
1602947725.1876,26
1602947725.1896,31
1602947725.1916,36
1602947725.1936,34
1602947725.1955,34
1602947725.1976,38
1602947725.1996,36
1602947725.2015,34
1602947725.2037,36
1602947725.2057,41
1602947725.2076,58
1602947725.2096,82
1602947725.2116,82
1602947725.2136,65
1602947725.2155,63
1602947725.2162,65
1602947725.2176,51
1602947725.2197,43
1602947725.2216,43
1602947725.2236,41
1602947725.2256,36
1602947725.2276,38
1602947725.2296,48
1602947725.2316,55
1602947725.2336,53
1602947725.2356,43
1602947725.2376,68
1602947725.6713,233
1602947725.6721,512
1602947725.6746,529
1602947725.6772,-12
1602947725.6792,-495
1602947725.6812,-259
1602947725.6833,94
1602947725.6852,55
1602947725.6872,12
1602947725.6893,80
1602947725.6912,75
1602947725.6932,51
1602947725.6952,70
1602947725.6972,75
1602947725.6993,65
1602947725.7011,70
1602947725.7032,80
1602947725.7038,82
1602947725.7051,85
1602947725.7072,92
1602947725.7092,94
1602947725.7111,104
1602947725.7131,111
1602947725.7151,119
1602947725.7173,123
1602947725.7192,128
1602947725.7211,140
1602947725.7232,150
1602947725.7251,157
1602947725.7271,162
1602947725.7292,174
1602947725.7312,184
1602947725.7333,187
1602947725.7338,189
1602947725.7351,191
1602947725.7371,189
1602947725.7391,184
1602947725.7411,177
1602947725.7431,157
1602947725.7451,133
1602947725.7471,104
1602947725.7491,77
1602947725.7511,51
1602947725.7531,29
1602947725.7551,9
1602947725.7571,-2
1602947725.7592,-14
1602947725.7611,-21
1602947725.7631,-19
1602947725.7637,-14
1602947725.7651,-9
1602947725.7672,-7
1602947725.7692,0
1602947725.7711,2
1602947725.7731,4
1602947725.7751,9
1602947725.7771,9
1602947725.7792,12
1602947725.7811,17
1602947725.7831,17
1602947725.7851,19
1602947725.7871,24
1602947725.7891,24
1602947725.7911,24
1602947725.7931,26
1602947725.7937,31
1602947725.7951,29
1602947725.7971,26
1602947725.7992,29
1602947725.8011,31
1602947725.8031,31
1602947725.8051,26
1602947725.8071,24
1602947726.2117,29
1602947726.2125,31
1602947726.2150,29
1602947726.2176,34
1602947726.2196,34
1602947726.2215,29
1602947726.2236,26
1602947726.2242,29
1602947726.2256,29
1602947726.2276,21
1602947726.2298,17
1602947726.2316,21
1602947726.2336,26
1602947726.2356,24
1602947726.2376,24
1602947726.2396,34
1602947726.2415,36
1602947726.2435,29
1602947726.2455,31
1602947726.2475,36
1602947726.2495,36
1602947726.2515,31
1602947726.2535,34
1602947726.2541,36
1602947726.2555,36
1602947726.2575,34
1602947726.2596,43
1602947726.2615,55
1602947726.2635,70
1602947726.2655,80
1602947726.2675,77
1602947726.2695,68
1602947726.2715,68
1602947726.2735,68
1602947726.2755,55
1602947726.2775,46
1602947726.2795,46
1602947726.2815,41
1602947726.2835,36
1602947726.2841,46
1602947726.2855,51
1602947726.2875,51
1602947726.2895,53
1602947726.2915,43
1602947726.2935,82
1602947726.2955,293
1602947726.2975,561
1602947726.2995,442
1602947726.3015,-167
1602947726.3035,-480
1602947726.3055,-138
1602947726.3075,109
1602947726.3096,31
1602947726.3115,43
1602947726.3135,111
1602947726.3141,82
1602947726.3155,68
1602947726.3175,94
1602947726.3195,97
1602947726.3215,89
1602947726.3235,92
1602947726.3257,94
1602947726.3275,104
1602947726.3295,114
1602947726.3315,114
1602947726.3335,114
1602947726.3355,123
1602947726.3375,128
1602947726.3395,131
1602947726.3415,138
1602947726.3435,143
1602947726.3441,150
1602947726.3455,160
1602947726.7517,174
1602947726.7525,184
1602947726.7549,194
1602947726.7575,201
1602947726.7596,201
1602947726.7615,204
1602947726.7636,196
1602947726.7655,177
1602947726.7676,170
1602947726.7695,172
1602947726.7715,153
1602947726.7735,119
1602947726.7741,92
1602947726.7755,65
1602947726.7775,31
1602947726.7795,9
1602947726.7815,0
1602947726.7835,-14
1602947726.7855,-21
1602947726.7875,-19
1602947726.7894,-17
1602947726.7915,-17
1602947726.7935,-17
1602947726.7955,-9
1602947726.7975,4
1602947726.7996,2
1602947726.8015,-2
1602947726.8035,4
1602947726.8041,12
1602947726.8055,9
1602947726.8075,9
1602947726.8095,17
1602947726.8115,24
1602947726.8134,29
1602947726.8155,24
1602947726.8175,24
1602947726.8195,36
1602947726.8214,41
1602947726.8235,31
1602947726.8256,29
1602947726.8275,31
1602947726.8295,31
1602947726.8314,31
1602947726.8335,31
1602947726.8340,34
1602947726.8355,34
1602947726.8374,36
1602947726.8395,41
1602947726.8415,43
1602947726.8435,38
1602947726.8455,36
1602947726.8475,41
1602947726.8495,41
1602947726.8515,38
1602947726.8535,43
1602947726.8555,51
1602947726.8575,48
1602947726.8596,48
1602947726.8615,48
1602947726.8634,48
1602947726.8640,48
1602947726.8655,48
1602947726.8675,48
1602947726.8695,46
1602947726.8715,48
1602947726.8735,48
1602947726.8755,46
1602947726.8775,53
1602947726.8795,68
1602947726.8814,87
1602947726.8835,102
1602947726.8855,97
1602947726.8875,80
1602947727.3515,75
1602947727.3523,77
1602947727.3547,70
1602947727.3574,46
1602947727.3595,29
1602947727.3614,36
1602947727.3635,41
1602947727.3655,36
1602947727.3674,38
1602947727.3694,43
1602947727.3714,34
1602947727.3733,24
1602947727.3754,121
1602947727.3774,408
1602947727.3795,631
1602947727.3813,296
1602947727.3819,-386
1602947727.3836,-478
1602947727.3854,-41
1602947727.3874,89
1602947727.3893,0
1602947727.3913,63
1602947727.3933,106
1602947727.3953,63
1602947727.3973,72
1602947727.3994,102
1602947727.4013,94
1602947727.4033,87
1602947727.4053,97
1602947727.4073,102
1602947727.4094,94
1602947727.4113,102
1602947727.4119,116
1602947727.4133,121
1602947727.4153,119
1602947727.4173,128
1602947727.4193,145
1602947727.4213,155
1602947727.4233,155
1602947727.4253,162
1602947727.4273,170
1602947727.4293,177
1602947727.4313,191
1602947727.4334,208
1602947727.4353,216
1602947727.4373,211
1602947727.4393,208
1602947727.4413,211
1602947727.4419,208
1602947727.4433,206
1602947727.4453,191
1602947727.4473,165
1602947727.4493,131
1602947727.4513,99
1602947727.4533,75
1602947727.4553,51
1602947727.4573,24
1602947727.4593,7
1602947727.4613,0
1602947727.4633,-4
1602947727.4653,-9
1602947727.4673,-7
1602947727.4693,-2
1602947727.4713,0
1602947727.4719,0
1602947727.4733,7
1602947727.4753,17
1602947727.4773,17
1602947727.4795,19
1602947727.4813,26
1602947727.4834,29
1602947727.4853,21
1602947727.4873,21
1602947727.9217,26
1602947727.9224,26
1602947727.9248,24
1602947727.9276,26
1602947727.9296,29
1602947727.9315,26
1602947727.9321,29
1602947727.9336,34
1602947727.9355,29
1602947727.9375,12
1602947727.9395,7
1602947727.9414,7
1602947727.9435,7
1602947727.9455,12
1602947727.9475,12
1602947727.9494,14
1602947727.9515,14
1602947727.9535,14
1602947727.9555,19
1602947727.9575,19
1602947727.9595,21
1602947727.9614,26
1602947727.9620,31
1602947727.9635,36
1602947727.9655,31
1602947727.9675,29
1602947727.9694,31
1602947727.9714,36
1602947727.9734,38
1602947727.9754,34
1602947727.9774,38
1602947727.9795,55
1602947727.9814,77
1602947727.9835,94
1602947727.9854,87
1602947727.9875,70
1602947727.9895,70
1602947727.9914,70
1602947727.9921,58
1602947727.9934,48
1602947727.9954,43
1602947727.9974,43
1602947727.9994,43
1602947728.0014,46
1602947728.0034,48
1602947728.0054,53
1602947728.0076,48
1602947728.0095,41
1602947728.0114,123
1602947728.0134,378
1602947728.0154,597
1602947728.0174,315
1602947728.0194,-337
1602947728.0214,-468
1602947728.0220,-41
1602947728.0234,116
1602947728.0254,14
1602947728.0274,65
1602947728.0295,119
1602947728.0314,80
1602947728.0335,77
1602947728.0354,102
1602947728.0374,97
1602947728.0394,89
1602947728.0414,94
1602947728.0434,97
1602947728.0454,102
1602947728.0474,109
1602947728.0494,111
1602947728.0514,114
1602947728.0521,119
1602947728.0534,128
1602947728.0554,136
1602947728.4617,145
1602947728.4625,148
1602947728.4649,150
1602947728.4676,160
1602947728.4697,177
1602947728.4716,187
1602947728.4736,194
1602947728.4755,201
1602947728.4775,204
1602947728.4796,199
1602947728.4815,187
1602947728.4821,177
1602947728.4835,174
1602947728.4855,167
1602947728.4875,143
1602947728.4897,116
1602947728.4915,89
1602947728.4935,65
1602947728.4955,43
1602947728.4975,21
1602947728.4995,7
1602947728.5015,0
1602947728.5035,-7
1602947728.5055,-7
1602947728.5077,-7
1602947728.5095,-7
1602947728.5101,-4
1602947728.5115,0
1602947728.5135,9
1602947728.5155,14
1602947728.5175,17
1602947728.5195,24
1602947728.5215,31
1602947728.5234,36
1602947728.5255,36
1602947728.5275,36
1602947728.5295,38
1602947728.5315,41
1602947728.5335,41
1602947728.5355,41
1602947728.5375,38
1602947728.5395,36
1602947728.5401,31
1602947728.5415,31
1602947728.5435,34
1602947728.5455,34
1602947728.5475,31
1602947728.5495,31
1602947728.5515,26
1602947728.5535,24
1602947728.5555,29
1602947728.5576,34
1602947728.5595,31
1602947728.5615,29
1602947728.5635,31
1602947728.5655,34
1602947728.5675,29
1602947728.5695,24
1602947728.5701,29
1602947728.5715,34
1602947728.5735,36
1602947728.5755,31
1602947728.5775,34
1602947728.5795,36
1602947728.5815,38
1602947728.5835,38
1602947728.5848,38
1602947728.5865,60
1602947728.5885,85
1602947728.5905,80
1602947728.5925,65
1602947728.5945,65
1602947728.5965,68
1602947729.0317,58
1602947729.0325,46
1602947729.0351,43
1602947729.0376,38
1602947729.0395,38
1602947729.0415,46
1602947729.0436,43
1602947729.0456,41
1602947729.0476,36
1602947729.0495,26
1602947729.0515,53
1602947729.0535,225
1602947729.0555,505
1602947729.0575,500
1602947729.0596,-60
1602947729.0601,-505
1602947729.0615,-238
1602947729.0635,89
1602947729.0655,43
1602947729.0675,21
1602947729.0695,97
1602947729.0715,87
1602947729.0735,63
1602947729.0754,85
1602947729.0774,85
1602947729.0795,75
1602947729.0815,85
1602947729.0835,89
1602947729.0854,89
1602947729.0874,99
1602947729.0895,104
1602947729.0900,104
1602947729.0915,109
1602947729.0935,119
1602947729.0955,126
1602947729.0974,131
1602947729.0995,143
1602947729.1015,155
1602947729.1034,160
1602947729.1055,167
1602947729.1075,182
1602947729.1095,191
1602947729.1115,199
1602947729.1134,204
1602947729.1155,204
1602947729.1175,204
1602947729.1195,199
1602947729.1201,191
1602947729.1215,179
1602947729.1234,160
1602947729.1255,128
1602947729.1275,102
1602947729.1295,80
1602947729.1316,51
1602947729.1335,29
1602947729.1355,14
1602947729.1375,2
1602947729.1395,-4
1602947729.1414,-9
1602947729.1435,-9
1602947729.1455,-7
1602947729.1475,-4
1602947729.1495,0
1602947729.1500,7
1602947729.1515,17
1602947729.1535,17
1602947729.1555,14
1602947729.1575,21
1602947729.1595,31
1602947729.1614,31
1602947729.1634,34
1602947729.1655,38
1602947729.1674,41
1602947729.6018,43
1602947729.6026,43
1602947729.6051,46
1602947729.6061,48
1602947729.6077,43
1602947729.6097,41
1602947729.6116,43
1602947729.6137,43
1602947729.6156,31
1602947729.6176,19
1602947729.6196,21
1602947729.6216,19
1602947729.6237,12
1602947729.6256,14
1602947729.6276,17
1602947729.6296,14
1602947729.6316,7
1602947729.6335,9
1602947729.6356,19
1602947729.6362,19
1602947729.6376,17
1602947729.6396,19
1602947729.6416,21
1602947729.6435,21
1602947729.6456,19
1602947729.6476,17
1602947729.6496,24
1602947729.6516,36
1602947729.6536,51
1602947729.6555,72
1602947729.6576,77
1602947729.6597,63
1602947729.6616,53
1602947729.6636,55
1602947729.6656,53
1602947729.6662,36
1602947729.6675,29
1602947729.6696,29
1602947729.6716,31
1602947729.6735,36
1602947729.6756,38
1602947729.6776,38
1602947729.6796,31
1602947729.6816,21
1602947729.6836,26
1602947729.6855,133
1602947729.6876,405
1602947729.6896,558
1602947729.6915,155
1602947729.6935,-432
1602947729.6956,-376
1602947729.6962,19
1602947729.6976,68
1602947729.6996,0
1602947729.7015,68
1602947729.7036,85
1602947729.7056,51
1602947729.7076,68
1602947729.7096,85
1602947729.7116,70
1602947729.7136,75
1602947729.7156,89
1602947729.7176,92
1602947729.7195,89
1602947729.7216,94
1602947729.7236,102
1602947729.7256,104
1602947729.7261,114
1602947729.7276,126
1602947729.7296,133
1602947729.7316,140
1602947729.7336,145
1602947729.7356,155
1602947730.1413,170
1602947730.1421,177
1602947730.1444,182
1602947730.1461,187
1602947730.1482,196
1602947730.1501,206
1602947730.1521,204
1602947730.1541,196
1602947730.1561,187
1602947730.1583,167
1602947730.1588,138
1602947730.1601,119
1602947730.1621,102
1602947730.1641,70
1602947730.1661,43
1602947730.1681,29
1602947730.1701,9
1602947730.1721,-4
1602947730.1741,-9
1602947730.1761,-19
1602947730.1781,-26
1602947730.1801,-21
1602947730.1821,-12
1602947730.1841,-4
1602947730.1861,2
1602947730.1881,7
1602947730.1887,12
1602947730.1901,12
1602947730.1920,14
1602947730.1941,21
1602947730.1960,29
1602947730.1980,34
1602947730.2000,38
1602947730.2020,41
1602947730.2041,36
1602947730.2060,29
1602947730.2080,31
1602947730.2101,31
1602947730.2120,24
1602947730.2141,21
1602947730.2161,26
1602947730.2181,26
1602947730.2186,21
1602947730.2201,21
1602947730.2221,21
1602947730.2241,19
1602947730.2261,24
1602947730.2280,29
1602947730.2302,29
1602947730.2321,26
1602947730.2341,26
1602947730.2360,29
1602947730.2381,29
1602947730.2401,24
1602947730.2421,24
1602947730.2440,24
1602947730.2461,19
1602947730.2481,24
1602947730.2487,29
1602947730.2501,21
1602947730.2522,19
1602947730.2541,38
1602947730.2560,65
1602947730.2581,70
1602947730.2601,53
1602947730.2620,48
1602947730.2640,46
1602947730.2660,38
1602947730.2681,31
1602947730.2701,29
1602947730.2720,21
1602947730.2740,12
1602947730.2761,14
1602947730.7413,26
1602947730.7421,34
1602947730.7445,31
1602947730.7471,17
1602947730.7492,63
1602947730.7512,306
1602947730.7532,597
1602947730.7552,432
1602947730.7572,-250
1602947730.7592,-563
1602947730.7612,-179
1602947730.7632,72
1602947730.7651,-4
1602947730.7671,21
1602947730.7678,82
1602947730.7692,41
1602947730.7711,41
1602947730.7731,80
1602947730.7751,70
1602947730.7771,60
1602947730.7792,80
1602947730.7811,82
1602947730.7831,75
1602947730.7851,89
1602947730.7871,102
1602947730.7892,102
1602947730.7911,97
1602947730.7931,99
1602947730.7951,114
1602947730.7971,121
1602947730.7976,126
1602947730.7991,138
1602947730.8011,150
1602947730.8031,157
1602947730.8051,170
1602947730.8071,187
1602947730.8091,196
1602947730.8110,201
1602947730.8132,199
1602947730.8151,201
1602947730.8171,199
1602947730.8192,184
1602947730.8210,170
1602947730.8231,155
1602947730.8251,131
1602947730.8270,92
1602947730.8276,60
1602947730.8291,41
