,hr,rr,ecg,gsr,temperature
1602947683.5828,73.0,817.0,133.0,434.11541919468937,36.75
1602947683.5835,73.0,817.0,884.0,434.10131873724214,36.75
1602947683.5859,73.0,817.0,2621.0,434.08774363215883,36.75
1602947683.5886,73.0,817.0,4234.0,434.0746938794394,36.75
1602947683.5906,73.0,817.0,5084.0,434.0621694790839,36.75
1602947683.5925,73.0,817.0,5859.0,434.0501704310923,36.75
1602947683.5946,73.0,817.0,6702.0,434.0386967354646,36.75
1602947683.5965,73.0,817.0,7290.0,434.0277483922008,36.75
1602947683.5985,73.0,817.0,7773.0,434.0173254013009,36.75
1602947683.6006,73.0,817.0,8293.0,434.0074277627649,36.75
1602947683.6028,73.0,817.0,8725.0,433.99805547659287,36.75
1602947683.6045,73.0,817.0,9070.0,433.9892085427847,36.75
1602947683.6065,73.0,817.0,9408.0,433.9808869613404,36.75
1602947683.6085,73.0,817.0,9711.0,433.97309073226006,36.75
1602947683.6105,73.0,817.0,9991.0,433.9658198555436,36.75
1602947683.6125,73.0,817.0,10253.0,433.95907433119106,36.75
1602947683.6145,73.0,817.0,10472.0,433.9528541592024,36.75
1602947683.6165,73.0,817.0,10659.0,433.9471593395777,36.75
1602947683.6186,73.0,817.0,10843.0,433.94198987231687,36.75
1602947683.6206,73.0,817.0,11021.0,433.9373457574199,36.75
1602947683.6225,73.0,817.0,11167.0,433.93322699488687,36.75
1602947683.6245,73.0,817.0,11293.0,433.9296335847178,36.75
1602947683.6265,73.0,817.0,11431.0,433.92656552691255,36.75
1602947683.6285,73.0,817.0,11555.0,433.9240228214713,36.75
1602947683.6306,73.0,817.0,11643.0,433.9220054683939,36.75
1602947683.6325,73.0,817.0,11725.0,433.9205134676804,36.75
1602947683.6346,73.0,817.0,11813.0,433.9195468193308,36.75
1602947683.6366,73.0,817.0,11890.0,433.9191055233451,36.75
1602947683.6385,73.0,817.0,11956.0,433.9191895797233,36.75
1602947683.6405,73.0,817.0,12002.0,433.91979898846546,36.75
1602947683.6425,73.0,817.0,12068.0,433.9209337495715,36.75
1602947683.6445,73.0,817.0,12284.0,433.9225938630414,36.75
1602947683.6465,73.0,817.0,12629.0,433.9247793288753,36.75
1602947683.6479,73.0,817.0,12639.0,433.92749014707306,36.75
1602947683.6495,73.0,817.0,12073.0,433.9307263176347,36.75
1602947683.6516,73.0,817.0,11691.0,433.9344878405603,36.75
1602947683.6536,73.0,817.0,12012.0,433.9387747158497,36.75
1602947683.6555,73.0,817.0,12311.0,433.94358694350313,36.75
1602947683.6575,73.0,817.0,12238.0,433.94892452352036,36.75
1602947683.6595,73.0,817.0,12235.0,433.95478745590157,36.75
1602947683.6616,73.0,817.0,12318.0,433.9611757406467,36.75
1602947683.6635,73.0,817.0,12274.0,433.9680893777557,36.75
1602947683.6655,73.0,817.0,12223.0,433.97552836722855,36.75
1602947683.6675,73.0,817.0,12243.0,433.9834927090654,36.75
1602947683.6696,73.0,817.0,12238.0,433.9919824032661,36.75
1602947683.6716,73.0,817.0,12189.0,434.0009974498307,36.75
1602947683.6735,73.0,817.0,12165.0,434.0105378487592,36.75
1602947683.6755,73.0,817.0,12148.0,434.0206036000517,36.75
1602947683.6775,73.0,817.0,12099.0,434.031194703708,36.75
1602947683.6795,73.0,817.0,12051.0,434.04231115972823,36.75
1602947683.6822,73.0,817.0,12031.0,434.05395296805017,36.75
1602947683.6835,73.0,817.0,12012.0,434.0691845882996,36.75
1602947683.6856,73.0,817.0,11963.0,434.08504248476885,36.75
1602947683.6875,73.0,817.0,11917.0,434.10149752833144,36.75
1602947683.6895,73.0,817.0,11878.0,434.1185205898609,36.75
1602947683.6915,73.0,817.0,11815.0,434.1360825402307,36.75
1602947683.6935,73.0,817.0,11754.0,434.1541542503143,36.75
1602947683.6955,73.0,817.0,11720.0,434.17270659098523,36.75
1602947683.6975,73.0,817.0,11677.0,434.19171043311707,36.75
1602947683.6995,73.0,817.0,11621.0,434.21113664758315,36.75
1602947683.7016,73.0,817.0,11570.0,434.2309561052571,36.75
1602947683.7035,73.0,817.0,11509.0,434.2511396770123,36.75
1602947683.7055,73.0,817.0,11443.0,434.27165823372235,36.75
1602947683.7075,73.0,817.0,11378.0,434.2924826462607,36.75
1602947683.7095,73.0,817.0,11307.0,434.31358378550084,36.75
1602947683.7115,73.0,817.0,11227.0,434.33493252231625,36.75
1602947683.7135,73.0,817.0,11152.0,434.35649972758046,36.75
1602947683.7155,73.0,817.0,11079.0,434.3782562721669,36.75
1602947683.7175,73.0,817.0,10982.0,434.4001730269492,36.75
1602947683.7196,73.0,817.0,10868.0,434.42222086280077,36.75
1602947683.7216,73.0,817.0,10775.0,434.44437065059503,36.75
1602947683.7235,73.0,817.0,10703.0,434.4665932612056,36.75
1602947683.7255,73.0,817.0,10591.0,434.48885956550595,36.75
1602947684.1218,73.0,817.0,10455.0,434.5111404343695,36.75
1602947684.1226,73.0,817.0,10370.0,434.53340673866984,36.75
1602947684.1251,73.0,817.0,10307.0,434.5556293492804,36.75
1602947684.1277,73.0,817.0,10200.0,434.57777913707474,36.75
1602947684.1297,73.0,817.0,10088.0,434.5998269729263,36.75
1602947684.1317,73.0,817.0,10003.0,434.6217437277085,36.75
1602947684.1337,73.0,817.0,9935.0,434.643500272295,36.75
1602947684.1357,73.0,817.0,9864.0,434.6650674775592,36.75
1602947684.1377,73.0,817.0,9779.0,434.6864162143746,36.75
1602947684.1397,73.0,817.0,9704.0,434.7075173536148,36.75
1602947684.1417,73.0,817.0,9634.0,434.7283417661531,36.75
1602947684.1437,73.0,817.0,9529.0,434.74886032286315,36.75
1602947684.1457,73.0,817.0,9435.0,434.7690438946184,36.75
1602947684.1477,73.0,817.0,9383.0,434.7888633522923,36.75
1602947684.1497,73.0,817.0,9298.0,434.80828956675845,36.75
1602947684.1518,73.0,817.0,9192.0,434.8272934088902,36.75
1602947684.1537,73.0,817.0,9121.0,434.8458457495612,36.75
1602947684.1557,73.0,817.0,9043.0,434.86391745964477,36.75
1602947684.1577,73.0,817.0,8941.0,434.8814794100146,36.75
1602947684.1596,73.0,817.0,8861.0,434.898502471544,36.75
1602947684.1617,73.0,817.0,8783.0,434.91495751510666,36.75
1602947684.1637,73.0,817.0,8694.0,434.9308154115759,36.75
1602947684.1656,73.0,817.0,8616.0,434.9460470318253,36.75
1602947684.1677,73.0,817.0,8526.0,434.97475378599586,36.75
1602947684.1697,73.0,817.0,8426.0,435.0013341139316,36.75
1602947684.1716,73.0,817.0,8356.0,435.02578801563243,36.75
1602947684.1737,73.0,817.0,8290.0,435.04811549109843,36.75
1602947684.1757,73.0,817.0,8191.0,435.06831654032953,36.75
1602947684.1779,73.0,817.0,8091.0,435.08639116332586,36.75
1602947684.1797,73.0,817.0,8018.0,435.1023393600872,36.75
1602947684.1816,73.0,817.0,7931.0,435.1161611306138,36.75
1602947684.1836,73.0,817.0,7843.0,435.1278564749055,36.75
1602947684.1856,73.0,817.0,7785.0,435.13742539296237,36.75
1602947684.1876,73.0,817.0,7712.0,435.1448678847844,36.75
1602947684.1896,73.0,817.0,7608.0,435.1501839503715,36.75
1602947684.1917,73.0,817.0,7520.0,435.1533735897238,36.75
1602947684.1936,73.0,817.0,7438.0,435.15443680284125,36.75
1602947684.1956,73.0,817.0,7355.0,435.1533735897238,36.75
1602947684.1976,73.0,817.0,7277.0,435.1501839503715,36.75
1602947684.1996,73.0,817.0,7195.0,435.1448678847844,36.75
1602947684.2016,73.0,817.0,7127.0,435.13742539296237,36.75
1602947684.2036,73.0,817.0,7076.0,435.1278564749055,36.75
1602947684.2056,73.0,817.0,7008.0,435.1161611306138,36.75
1602947684.2076,73.0,817.0,6923.0,435.1023393600872,36.75
1602947684.2096,73.0,817.0,6840.0,435.08639116332586,36.75
1602947684.2117,73.0,817.0,6770.0,435.06831654032953,36.75
1602947684.2136,73.0,817.0,6697.0,435.04811549109843,36.75
1602947684.2156,73.0,817.0,6597.0,435.02578801563243,36.75
1602947684.2176,73.0,817.0,6493.0,435.0013341139316,36.75
1602947684.2196,73.0,817.0,6425.0,434.97475378599586,36.75
1602947684.2216,73.0,817.0,6369.0,434.9460470318253,36.75
1602947684.2236,73.0,817.0,6294.0,434.9308154115759,36.75
1602947684.2256,73.0,817.0,6213.0,434.91495751510666,36.75
1602947684.2276,73.0,817.0,6136.0,434.898502471544,36.75
1602947684.2296,73.0,817.0,6072.0,434.8814794100146,36.75
1602947684.2316,73.0,817.0,6009.0,434.86391745964477,36.75
1602947684.2336,73.0,817.0,5922.0,434.8458457495612,36.75
1602947684.2356,73.0,817.0,5907.0,434.8272934088902,36.75
1602947684.2376,73.0,817.0,6102.0,434.80828956675845,36.75
1602947684.2397,73.0,817.0,6286.0,434.7888633522923,36.75
1602947684.2417,73.0,817.0,5936.0,434.7690438946184,36.75
1602947684.2436,73.0,817.0,5198.0,434.74886032286315,36.75
1602947684.2456,73.0,817.0,4996.0,434.7283417661531,36.75
1602947684.2476,73.0,817.0,5358.0,434.7075173536148,36.75
1602947684.2496,73.0,817.0,5453.0,434.6864162143746,36.75
1602947684.2516,73.0,817.0,5295.0,434.6650674775592,36.75
1602947684.2536,73.0,817.0,5288.0,434.643500272295,36.75
1602947684.2556,73.0,817.0,5276.0,434.6217437277085,36.75
1602947684.2576,73.0,817.0,5154.0,434.5998269729263,36.75
1602947684.2596,73.0,817.0,5074.0,434.57777913707474,36.75
1602947684.2617,73.0,817.0,5045.0,434.5556293492804,36.75
1602947684.2636,73.0,817.0,4994.0,434.53340673866984,36.75
1602947684.2656,73.0,817.0,4933.0,434.5111404343695,36.75
1602947684.6919,73.0,808.0,4877.0,434.48885956550595,36.81
1602947684.6927,73.0,808.0,4817.0,434.4665932612056,36.81
1602947684.6952,73.0,808.0,4756.0,434.44437065059503,36.81
1602947684.6978,73.0,808.0,4702.0,434.42222086280077,36.81
1602947684.6998,73.0,808.0,4649.0,434.4001730269492,36.81
1602947684.7018,73.0,808.0,4596.0,434.3782562721669,36.81
1602947684.7041,73.0,808.0,4554.0,434.35649972758046,36.81
1602947684.7058,73.0,808.0,4508.0,434.33493252231625,36.81
1602947684.7078,73.0,808.0,4445.0,434.31358378550084,36.81
1602947684.7098,73.0,808.0,4396.0,434.2924826462607,36.81
1602947684.7118,73.0,808.0,4360.0,434.27165823372235,36.81
1602947684.7138,73.0,808.0,4314.0,434.2511396770123,36.81
1602947684.7158,73.0,808.0,4270.0,434.2309561052571,36.81
1602947684.7178,73.0,808.0,4234.0,434.21113664758315,36.81
1602947684.7198,73.0,808.0,4197.0,434.19171043311707,36.81
1602947684.7218,73.0,808.0,4144.0,434.17270659098523,36.81
1602947684.7238,73.0,808.0,4093.0,434.1541542503143,36.81
1602947684.7258,73.0,808.0,4054.0,434.1360825402307,36.81
1602947684.7278,73.0,808.0,4000.0,434.1185205898609,36.81
1602947684.7298,73.0,808.0,3935.0,434.10149752833144,36.81
1602947684.7317,73.0,808.0,3879.0,434.08504248476885,36.81
1602947684.7337,73.0,808.0,3828.0,434.0691845882996,36.81
1602947684.7357,73.0,808.0,3772.0,434.05395296805017,36.81
1602947684.7377,73.0,808.0,3714.0,434.0393767531471,36.81
1602947684.7397,73.0,808.0,3651.0,434.025485072717,36.81
1602947684.7418,73.0,808.0,3568.0,434.0123070558862,36.81
1602947684.7437,73.0,808.0,3488.0,433.99987183178126,36.81
1602947684.7458,73.0,808.0,3427.0,433.98820852952866,36.81
1602947684.7478,73.0,808.0,3369.0,433.97734627825497,36.81
1602947684.7497,73.0,808.0,3308.0,433.96731420708676,36.81
1602947684.7517,73.0,808.0,3262.0,433.9581414451504,36.81
1602947684.7537,73.0,808.0,3221.0,433.9498571215724,36.81
1602947684.7557,73.0,808.0,3179.0,433.9424903654793,36.81
1602947684.7577,73.0,808.0,3143.0,433.9360703059976,36.81
1602947684.7598,73.0,808.0,3109.0,433.9306260722538,36.81
1602947684.7618,73.0,808.0,3070.0,433.9261867933745,36.81
1602947684.7637,73.0,808.0,3031.0,433.9227815984861,36.81
1602947684.7657,73.0,808.0,3009.0,433.9204396167151,36.81
1602947684.7679,73.0,808.0,2980.0,433.91918997718807,36.81
1602947684.7697,73.0,808.0,2936.0,433.91906180903135,36.81
1602947684.7717,73.0,808.0,2900.0,433.92008424137174,36.81
1602947684.7737,73.0,808.0,2876.0,433.9222864033355,36.81
1602947684.7757,73.0,808.0,2844.0,433.92569742404925,36.81
1602947684.7777,73.0,808.0,2805.0,433.9303464326394,36.81
1602947684.7797,73.0,808.0,2766.0,433.9362625582325,36.81
1602947684.7817,73.0,808.0,2732.0,433.94347492995513,36.81
1602947684.7838,73.0,808.0,2698.0,433.95201267693375,36.81
1602947684.7857,73.0,808.0,2659.0,433.9619049282947,36.81
1602947684.7877,73.0,808.0,2623.0,433.9731808131648,36.81
1602947684.7897,73.0,808.0,2589.0,433.98586946067036,36.81
1602947684.7918,73.0,808.0,2570.0,433.99999999993787,36.81
1602947684.7937,73.0,808.0,2545.0,433.99999999993787,36.81
1602947684.7957,73.0,808.0,2494.0,433.99999999993787,36.81
1602947684.7977,73.0,808.0,2463.0,433.99999999993787,36.81
1602947684.7997,73.0,808.0,2443.0,433.99999999993787,36.81
1602947684.8017,73.0,808.0,2404.0,433.99999999993787,36.81
1602947684.8037,73.0,808.0,2368.0,433.99999999993787,36.81
1602947684.8059,73.0,808.0,2353.0,433.99999999993787,36.81
1602947684.8078,73.0,808.0,2317.0,433.99999999993787,36.81
1602947684.8097,73.0,808.0,2264.0,433.99999999993787,36.81
1602947684.8117,73.0,808.0,2242.0,433.99999999993787,36.81
1602947684.8137,73.0,808.0,2242.0,433.99999999993787,36.81
1602947684.8157,73.0,808.0,2208.0,433.99999999993787,36.81
1602947684.8177,73.0,808.0,2164.0,433.99999999993787,36.81
1602947684.8198,73.0,808.0,2157.0,433.99999999993787,36.81
1602947684.8218,73.0,808.0,2137.0,433.99999999993787,36.81
1602947684.8237,73.0,808.0,2096.0,433.99999999993787,36.81
1602947684.8257,73.0,808.0,2091.0,433.99999999993787,36.81
1602947684.8277,73.0,808.0,2086.0,433.99999999993787,36.81
1602947684.8297,73.0,808.0,2045.0,433.99999999993787,36.81
1602947684.8318,73.0,808.0,2023.0,433.99999999993787,36.81
1602947684.8337,73.0,808.0,2011.0,433.99999999993787,36.81
1602947684.8358,73.0,808.0,1967.0,433.99999999993787,36.81
1602947685.2328,73.0,803.0,1916.0,433.99999999993787,36.81
1602947685.2335,73.0,803.0,1904.0,433.99999999993787,36.81
1602947685.2351,73.0,803.0,1897.0,433.99999999993787,36.81
1602947685.2371,73.0,803.0,1855.0,433.99999999993787,36.81
1602947685.2391,73.0,803.0,1817.0,433.99999999993787,36.81
1602947685.241,73.0,803.0,1792.0,433.99999999993787,36.81
1602947685.243,73.0,803.0,1768.0,433.99999999993787,36.81
1602947685.245,73.0,803.0,1761.0,433.99999999993787,36.81
1602947685.247,73.0,803.0,1751.0,433.99999999993787,36.81
1602947685.249,73.0,803.0,1693.0,433.99999999993787,36.81
1602947685.251,73.0,803.0,1668.0,433.99999999993787,36.81
1602947685.253,73.0,803.0,1836.0,433.99999999993787,36.81
1602947685.255,73.0,803.0,2108.0,433.99999999993787,36.81
1602947685.257,73.0,803.0,2045.0,433.99999999993787,36.81
1602947685.259,73.0,803.0,1455.0,433.99999999993787,36.81
1602947685.261,73.0,803.0,1051.0,433.99999999993787,36.81
1602947685.263,73.0,803.0,1338.0,433.99999999993787,36.81
1602947685.265,73.0,803.0,1605.0,433.99999999993787,36.81
1602947685.267,73.0,803.0,1506.0,433.99999999993787,36.81
1602947685.2691,73.0,803.0,1476.0,433.99999999993787,36.81
1602947685.271,73.0,803.0,1537.0,433.99999999993787,36.81
1602947685.273,73.0,803.0,1506.0,433.99999999993787,36.81
1602947685.275,73.0,803.0,1481.0,433.99999999993787,36.81
1602947685.277,73.0,803.0,1486.0,433.99999999993787,36.81
1602947685.279,73.0,803.0,1455.0,433.99999999993787,36.81
1602947685.281,73.0,803.0,1428.0,433.99999999993787,36.81
1602947685.2829,73.0,803.0,1418.0,433.99999999993787,36.81
1602947685.285,73.0,803.0,1396.0,433.99999999993787,36.81
1602947685.287,73.0,803.0,1384.0,433.99999999993787,36.81
1602947685.289,73.0,803.0,1384.0,433.99999999993787,36.81
1602947685.291,73.0,803.0,1367.0,433.99999999993787,36.81
1602947685.293,73.0,803.0,1343.0,433.99999999993787,36.81
1602947685.295,73.0,803.0,1340.0,433.99999999993787,36.81
1602947685.297,73.0,803.0,1350.0,433.99999999993787,36.81
1602947685.299,73.0,803.0,1340.0,433.99999999993787,36.81
1602947685.3013,73.0,803.0,1323.0,433.99999999993787,36.81
1602947685.303,73.0,803.0,1311.0,433.99999999993787,36.81
1602947685.305,73.0,803.0,1292.0,433.99999999993787,36.81
1602947685.3071,73.0,803.0,1292.0,433.99999999993787,36.81
1602947685.3089,73.0,803.0,1309.0,433.99999999993787,36.81
1602947685.311,73.0,803.0,1304.0,433.99999999993787,36.81
1602947685.313,73.0,803.0,1280.0,433.99999999993787,36.81
1602947685.315,73.0,803.0,1280.0,433.99999999993787,36.81
1602947685.317,73.0,803.0,1280.0,433.99999999993787,36.81
1602947685.3189,73.0,803.0,1251.0,433.99999999993787,36.81
1602947685.321,73.0,803.0,1229.0,433.99999999993787,36.81
1602947685.323,73.0,803.0,1224.0,433.99999999993787,36.81
1602947685.3249,73.0,803.0,1204.0,433.99999999993787,36.81
1602947685.327,73.0,803.0,1168.0,433.99999999993787,36.81
1602947685.329,73.0,803.0,1127.0,433.99999999993787,36.81
1602947685.331,73.0,803.0,1090.0,433.99999999993787,36.81
1602947685.333,73.0,803.0,1059.0,433.99999999993787,36.81
1602947685.335,73.0,803.0,1025.0,433.99999999993787,36.81
1602947685.337,73.0,803.0,995.0,433.99999999993787,36.81
1602947685.3389,73.0,803.0,974.0,433.99999999993787,36.81
1602947685.341,73.0,803.0,947.0,433.99999999993787,36.81
1602947685.343,73.0,803.0,920.0,433.99999999993787,36.81
1602947685.345,73.0,803.0,908.0,433.99999999993787,36.81
1602947685.347,73.0,803.0,910.0,433.99999999993787,36.81
1602947685.349,73.0,803.0,906.0,433.99999999993787,36.81
1602947685.351,73.0,803.0,893.0,433.99999999993787,36.81
1602947685.353,73.0,803.0,889.0,433.99999999993787,36.81
1602947685.355,73.0,803.0,893.0,433.99999999993787,36.81
1602947685.357,73.0,803.0,889.0,433.99999999993787,36.81
1602947685.359,73.0,803.0,874.0,433.99999999993787,36.81
1602947685.361,73.0,803.0,869.0,433.99999999993787,36.81
1602947685.363,73.0,803.0,869.0,433.99999999993787,36.81
1602947685.365,73.0,803.0,852.0,433.99999999993787,36.81
1602947685.3669,73.0,803.0,840.0,433.99999999993787,36.81
1602947685.369,73.0,803.0,842.0,433.99999999993787,36.81
1602947685.371,73.0,803.0,830.0,433.99999999993787,36.81
1602947685.373,73.0,803.0,818.0,433.99999999993787,36.81
1602947685.375,73.0,803.0,828.0,433.99999999993787,36.81
1602947685.8025,73.0,803.0,825.0,433.99999999993787,36.81
1602947685.8033,73.0,803.0,804.0,433.99999999993787,36.81
1602947685.8058,73.0,803.0,791.0,433.99999999993787,36.81
1602947685.8084,73.0,803.0,784.0,433.99999999993787,36.81
1602947685.8104,73.0,803.0,772.0,433.99999999993787,36.81
1602947685.8123,73.0,803.0,753.0,433.99999999993787,36.81
1602947685.8144,73.0,803.0,733.0,433.99999999993787,36.81
1602947685.8163,73.0,803.0,726.0,433.99999999993787,36.81
1602947685.8184,73.0,803.0,721.0,433.99999999993787,36.81
1602947685.8204,73.0,803.0,706.0,433.99999999993787,36.81
1602947685.8223,73.0,803.0,694.0,433.99999999993787,36.81
1602947685.8243,73.0,803.0,692.0,433.99999999993787,36.81
1602947685.8263,73.0,803.0,685.0,433.99999999993787,36.81
1602947685.8285,73.0,803.0,680.0,433.99999999993787,36.81
1602947685.8303,73.0,803.0,682.0,433.99999999993787,36.81
1602947685.8323,73.0,803.0,675.0,433.99999999993787,36.81
1602947685.8343,73.0,803.0,660.0,433.99999999993787,36.81
1602947685.8363,73.0,803.0,646.0,433.99999999993787,36.81
1602947685.8383,73.0,803.0,631.0,433.99999999993787,36.81
1602947685.8404,73.0,803.0,641.0,433.99999999993787,36.81
1602947685.8423,73.0,803.0,680.0,433.99999999993787,36.81
1602947685.8444,73.0,803.0,704.0,433.99999999993787,36.81
1602947685.8463,73.0,803.0,680.0,433.99999999993787,36.81
1602947685.8483,73.0,803.0,646.0,433.98586946067036,36.81
1602947685.8503,73.0,803.0,631.0,433.9731808131648,36.81
1602947685.8524,73.0,803.0,621.0,433.9619049282947,36.81
1602947685.8543,73.0,803.0,609.0,433.95201267693375,36.81
1602947685.8563,73.0,803.0,602.0,433.94347492995513,36.81
1602947685.8583,73.0,803.0,595.0,433.9362625582325,36.81
1602947685.8604,73.0,803.0,583.0,433.9303464326394,36.81
1602947685.8623,73.0,803.0,575.0,433.92569742404925,36.81
1602947685.8643,73.0,803.0,573.0,433.9222864033355,36.81
1602947685.8663,73.0,803.0,570.0,433.92008424137174,36.81
1602947685.8683,73.0,803.0,570.0,433.91906180903135,36.81
1602947685.8704,73.0,803.0,568.0,433.91918997718807,36.81
1602947685.8723,73.0,803.0,556.0,433.9204396167151,36.81
1602947685.8743,73.0,803.0,553.0,433.9227815984861,36.81
1602947685.8763,73.0,803.0,668.0,433.9261867933745,36.81
1602947685.8783,73.0,803.0,925.0,433.9306260722538,36.81
1602947685.8804,73.0,803.0,1012.0,433.9360703059976,36.81
1602947685.8823,73.0,803.0,561.0,433.9424903654793,36.81
1602947685.8843,73.0,803.0,48.0,433.9498571215724,36.81
1602947685.8863,73.0,803.0,184.0,433.9581414451504,36.81
1602947685.8883,73.0,803.0,531.0,433.96731420708676,36.81
1602947685.8904,73.0,803.0,527.0,433.97734627825497,36.81
1602947685.8923,73.0,803.0,483.0,433.98820852952866,36.81
1602947685.8943,73.0,803.0,546.0,433.99987183178126,36.81
1602947685.8963,73.0,803.0,541.0,434.0123070558862,36.81
1602947685.8983,73.0,803.0,510.0,434.025485072717,36.81
1602947685.9004,73.0,803.0,524.0,434.0393767531471,36.81
1602947685.9023,73.0,803.0,531.0,434.05395296805017,36.81
1602947685.9043,73.0,803.0,519.0,434.0691845882996,36.81
1602947685.9063,73.0,803.0,519.0,434.08504248476885,36.81
1602947685.9083,73.0,803.0,519.0,434.10149752833144,36.81
1602947685.9104,73.0,803.0,505.0,434.1185205898609,36.81
1602947685.9123,73.0,803.0,497.0,434.1360825402307,36.81
1602947685.9143,73.0,803.0,512.0,434.1541542503143,36.81
1602947685.9163,73.0,803.0,534.0,434.17270659098523,36.81
1602947685.9183,73.0,803.0,536.0,434.19171043311707,36.81
1602947685.9203,73.0,803.0,524.0,434.21113664758315,36.81
1602947685.9223,73.0,803.0,522.0,434.2309561052571,36.81
1602947685.9243,73.0,803.0,527.0,434.2511396770123,36.81
1602947685.9263,73.0,803.0,531.0,434.27165823372235,36.81
1602947685.9283,73.0,803.0,534.0,434.2924826462607,36.81
1602947685.9305,73.0,803.0,539.0,434.31358378550084,36.81
1602947685.9323,73.0,803.0,539.0,434.33493252231625,36.81
1602947685.9343,73.0,803.0,546.0,434.35649972758046,36.81
1602947685.9363,73.0,803.0,553.0,434.3782562721669,36.81
1602947685.9383,73.0,803.0,556.0,434.4001730269492,36.81
1602947685.9404,73.0,803.0,556.0,434.42222086280077,36.81
1602947685.9423,73.0,803.0,546.0,434.44437065059503,36.81
1602947685.9443,73.0,803.0,536.0,434.4665932612056,36.81
1602947685.9463,73.0,803.0,527.0,434.48885956550595,36.81
1602947686.3415,74.0,785.0,512.0,434.5111404343695,36.81
1602947686.3421,74.0,785.0,495.0,434.53340673866984,36.81
1602947686.3445,74.0,785.0,480.0,434.5556293492804,36.81
1602947686.3471,74.0,785.0,459.0,434.57777913707474,36.81
1602947686.3491,74.0,785.0,427.0,434.5998269729263,36.81
1602947686.3511,74.0,785.0,398.0,434.6217437277085,36.81
1602947686.3532,74.0,785.0,374.0,434.643500272295,36.81
1602947686.3551,74.0,785.0,344.0,434.6650674775592,36.81
1602947686.3571,74.0,785.0,323.0,434.6864162143746,36.81
1602947686.3591,74.0,785.0,313.0,434.7075173536148,36.81
1602947686.3612,74.0,785.0,308.0,434.7283417661531,36.81
1602947686.3631,74.0,785.0,298.0,434.74886032286315,36.81
1602947686.3651,74.0,785.0,296.0,434.7690438946184,36.81
1602947686.3671,74.0,785.0,303.0,434.7888633522923,36.81
1602947686.3691,74.0,785.0,308.0,434.80828956675845,36.81
1602947686.3711,74.0,785.0,306.0,434.8272934088902,36.81
1602947686.3731,74.0,785.0,301.0,434.8458457495612,36.81
1602947686.3751,74.0,785.0,303.0,434.86391745964477,36.81
1602947686.3771,74.0,785.0,313.0,434.8814794100146,36.81
1602947686.3791,74.0,785.0,320.0,434.898502471544,36.81
1602947686.3811,74.0,785.0,323.0,434.91495751510666,36.81
1602947686.3831,74.0,785.0,325.0,434.9308154115759,36.81
1602947686.3851,74.0,785.0,318.0,434.9460470318253,36.81
1602947686.3871,74.0,785.0,310.0,434.96062324672835,36.81
1602947686.3891,74.0,785.0,320.0,434.9745149271585,36.81
1602947686.3911,74.0,785.0,327.0,434.9876929439893,36.81
1602947686.3932,74.0,785.0,320.0,435.00012816809425,36.81
1602947686.3951,74.0,785.0,313.0,435.01179147034685,36.81
1602947686.3971,74.0,785.0,310.0,435.0226537216205,36.81
1602947686.3991,74.0,785.0,313.0,435.03268579278875,36.81
1602947686.4012,74.0,785.0,310.0,435.04185855472514,36.81
1602947686.4031,74.0,785.0,306.0,435.0501428783031,36.81
1602947686.4051,74.0,785.0,308.0,435.05750963439624,36.81
1602947686.4071,74.0,785.0,308.0,435.0639296938779,36.81
1602947686.4091,74.0,785.0,301.0,435.06937392762165,36.81
1602947686.4112,74.0,785.0,296.0,435.07381320650103,36.81
1602947686.4131,74.0,785.0,298.0,435.0772184013894,36.81
1602947686.4152,74.0,785.0,301.0,435.0795603831604,36.81
1602947686.4171,74.0,785.0,293.0,435.0808100226875,36.81
1602947686.4191,74.0,785.0,286.0,435.0809381908441,36.81
1602947686.4213,74.0,785.0,291.0,435.0799157585038,36.81
1602947686.4232,74.0,785.0,291.0,435.07771359654004,36.81
1602947686.4253,74.0,785.0,286.0,435.0743025758263,36.81
1602947686.4271,74.0,785.0,284.0,435.0696535672361,36.81
1602947686.4291,74.0,785.0,289.0,435.06373744164296,36.81
1602947686.4311,74.0,785.0,301.0,435.0565250699204,36.81
1602947686.4331,74.0,785.0,315.0,435.0479873229418,36.81
1602947686.4351,74.0,785.0,330.0,435.03809507158076,36.81
1602947686.4371,74.0,785.0,327.0,435.0268191867107,36.81
1602947686.4391,74.0,785.0,308.0,435.01413053920515,36.81
1602947686.4411,74.0,785.0,301.0,434.99999999993764,36.81
1602947686.4431,74.0,785.0,296.0,434.99999999993764,36.81
1602947686.4451,74.0,785.0,289.0,434.99999999993764,36.81
1602947686.4471,74.0,785.0,276.0,434.99999999993764,36.81
1602947686.4491,74.0,785.0,269.0,434.99999999993764,36.81
1602947686.4512,74.0,785.0,269.0,434.99999999993764,36.81
1602947686.4531,74.0,785.0,274.0,434.99999999993764,36.81
1602947686.4551,74.0,785.0,274.0,434.99999999993764,36.81
1602947686.4571,74.0,785.0,269.0,434.99999999993764,36.81
1602947686.4591,74.0,785.0,269.0,434.99999999993764,36.81
1602947686.4611,74.0,785.0,272.0,434.99999999993764,36.81
1602947686.4633,74.0,785.0,255.0,434.99999999993764,36.81
1602947686.4651,74.0,785.0,267.0,434.99999999993764,36.81
1602947686.4671,74.0,785.0,454.0,434.99999999993764,36.81
1602947686.4691,74.0,785.0,753.0,434.99999999993764,36.81
1602947686.4711,74.0,785.0,692.0,434.99999999993764,36.81
1602947686.4731,74.0,785.0,72.0,434.99999999993764,36.81
1602947686.4751,74.0,785.0,-323.0,434.99999999993764,36.81
1602947686.4771,74.0,785.0,2.0,434.99999999993764,36.81
1602947686.4791,74.0,785.0,296.0,434.99999999993764,36.81
1602947686.4811,74.0,785.0,230.0,434.99999999993764,36.81
1602947686.4831,74.0,785.0,233.0,434.99999999993764,36.81
1602947686.4851,74.0,785.0,306.0,434.99999999993764,36.81
1602947686.9419,74.0,785.0,276.0,434.99999999993764,36.81
1602947686.9427,74.0,785.0,252.0,434.99999999993764,36.81
1602947686.9451,74.0,785.0,276.0,434.99999999993764,36.81
1602947686.9477,74.0,785.0,281.0,434.99999999993764,36.81
1602947686.9498,74.0,785.0,269.0,434.99999999993764,36.81
1602947686.9517,74.0,785.0,264.0,434.99999999993764,36.81
1602947686.9537,74.0,785.0,269.0,434.99999999993764,36.81
1602947686.9558,74.0,785.0,274.0,434.99999999993764,36.81
1602947686.9577,74.0,785.0,274.0,434.99999999993764,36.81
1602947686.9597,74.0,785.0,264.0,434.99999999993764,36.81
1602947686.9617,74.0,785.0,267.0,434.99999999993764,36.81
1602947686.9637,74.0,785.0,286.0,434.99999999993764,36.81
1602947686.9657,74.0,785.0,293.0,434.99999999993764,36.81
1602947686.9678,74.0,785.0,289.0,434.99999999993764,36.81
1602947686.9697,74.0,785.0,296.0,434.99999999993764,36.81
1602947686.9718,74.0,785.0,306.0,434.99999999993764,36.81
1602947686.9737,74.0,785.0,310.0,434.99999999993764,36.81
1602947686.9757,74.0,785.0,320.0,434.99999999993764,36.81
1602947686.9777,74.0,785.0,332.0,434.99999999993764,36.81
1602947686.9797,74.0,785.0,340.0,434.99999999993764,36.81
1602947686.9819,74.0,785.0,337.0,434.99999999993764,36.81
1602947686.9837,74.0,785.0,347.0,434.99999999993764,36.81
1602947686.9857,74.0,785.0,352.0,434.99999999993764,36.81
1602947686.9876,74.0,785.0,342.0,435.01413053920515,36.81
1602947686.9897,74.0,785.0,340.0,435.0268191867107,36.81
1602947686.9917,74.0,785.0,340.0,435.03809507158076,36.81
1602947686.9937,74.0,785.0,325.0,435.0479873229418,36.81
1602947686.9958,74.0,785.0,306.0,435.0565250699204,36.81
1602947686.9977,74.0,785.0,281.0,435.06373744164296,36.81
1602947686.9997,74.0,785.0,252.0,435.0696535672361,36.81
1602947687.0017,74.0,785.0,218.0,435.0743025758263,36.81
1602947687.0037,74.0,785.0,191.0,435.07771359654004,36.81
1602947687.0057,74.0,785.0,172.0,435.0799157585038,36.81
1602947687.0077,74.0,785.0,153.0,435.0809381908441,36.81
1602947687.0097,74.0,785.0,138.0,435.0808100226875,36.81
1602947687.0118,74.0,785.0,133.0,435.0795603831604,36.81
1602947687.0137,74.0,785.0,131.0,435.0772184013894,36.81
1602947687.0157,74.0,785.0,131.0,435.07381320650103,36.81
1602947687.0178,74.0,785.0,131.0,435.06937392762165,36.81
1602947687.0197,74.0,785.0,126.0,435.0639296938779,36.81
1602947687.0217,74.0,785.0,133.0,435.05750963439624,36.81
1602947687.0237,74.0,785.0,150.0,435.0501428783031,36.81
1602947687.0257,74.0,785.0,157.0,435.04185855472514,36.81
1602947687.0277,74.0,785.0,160.0,435.03268579278875,36.81
1602947687.0297,74.0,785.0,162.0,435.0226537216205,36.81
1602947687.0317,74.0,785.0,167.0,435.01179147034685,36.81
1602947687.0337,74.0,785.0,167.0,435.00012816809425,36.81
1602947687.0357,74.0,785.0,170.0,434.9876929439893,36.81
1602947687.0377,74.0,785.0,172.0,434.9745149271585,36.81
1602947687.0397,74.0,785.0,177.0,434.96062324672835,36.81
1602947687.0417,74.0,785.0,187.0,434.9460470318253,36.81
1602947687.0437,74.0,785.0,187.0,434.9308154115759,36.81
1602947687.0457,74.0,785.0,177.0,434.91495751510666,36.81
1602947687.0477,74.0,785.0,177.0,434.898502471544,36.81
1602947687.0497,74.0,785.0,182.0,434.8814794100146,36.81
1602947687.0517,74.0,785.0,182.0,434.86391745964477,36.81
1602947687.0537,74.0,785.0,174.0,434.8458457495612,36.81
1602947687.0557,74.0,785.0,170.0,434.8272934088902,36.81
1602947687.0577,74.0,785.0,167.0,434.80828956675845,36.81
1602947687.0597,74.0,785.0,162.0,434.7888633522923,36.81
1602947687.0617,74.0,785.0,167.0,434.7690438946184,36.81
1602947687.0637,74.0,785.0,174.0,434.74886032286315,36.81
1602947687.0657,74.0,785.0,170.0,434.7283417661531,36.81
1602947687.0678,74.0,785.0,162.0,434.7075173536148,36.81
1602947687.0697,74.0,785.0,162.0,434.6864162143746,36.81
1602947687.0717,74.0,785.0,160.0,434.6650674775592,36.81
1602947687.0737,74.0,785.0,153.0,434.643500272295,36.81
1602947687.0757,74.0,785.0,157.0,434.6217437277085,36.81
1602947687.0777,74.0,785.0,187.0,434.5998269729263,36.81
1602947687.0797,74.0,785.0,211.0,434.57777913707474,36.81
1602947687.0817,74.0,785.0,204.0,434.5556293492804,36.81
1602947687.0838,74.0,785.0,189.0,434.53340673866984,36.81
1602947687.0858,74.0,785.0,189.0,434.5111404343695,36.81
1602947687.5121,74.0,782.0,187.0,434.48885956550595,36.81
1602947687.5129,74.0,782.0,165.0,434.4665932612056,36.81
1602947687.5153,74.0,782.0,143.0,434.44437065059503,36.81
1602947687.518,74.0,782.0,143.0,434.42222086280077,36.81
1602947687.52,74.0,782.0,150.0,434.4001730269492,36.81
1602947687.522,74.0,782.0,153.0,434.3782562721669,36.81
1602947687.5239,74.0,782.0,153.0,434.35649972758046,36.81
1602947687.5259,74.0,782.0,155.0,434.33493252231625,36.81
1602947687.528,74.0,782.0,157.0,434.31358378550084,36.81
1602947687.5299,74.0,782.0,150.0,434.2924826462607,36.81
1602947687.5319,74.0,782.0,126.0,434.27165823372235,36.81
1602947687.5339,74.0,782.0,153.0,434.2511396770123,36.81
1602947687.5359,74.0,782.0,347.0,434.2309561052571,36.81
1602947687.5379,74.0,782.0,648.0,434.21113664758315,36.81
1602947687.5399,74.0,782.0,602.0,434.19171043311707,36.81
1602947687.5419,74.0,782.0,-17.0,434.17270659098523,36.81
1602947687.5439,74.0,782.0,-434.0,434.1541542503143,36.81
1602947687.5459,74.0,782.0,-111.0,434.1360825402307,36.81
1602947687.548,74.0,782.0,206.0,434.1185205898609,36.81
1602947687.5499,74.0,782.0,138.0,434.10149752833144,36.81
1602947687.5519,74.0,782.0,128.0,434.08504248476885,36.81
1602947687.5539,74.0,782.0,206.0,434.0691845882996,36.81
1602947687.5559,74.0,782.0,182.0,434.05395296805017,36.81
1602947687.5579,74.0,782.0,160.0,434.0393767531471,36.81
1602947687.5599,74.0,782.0,187.0,434.025485072717,36.81
1602947687.5619,74.0,782.0,189.0,434.0123070558862,36.81
1602947687.5639,74.0,782.0,179.0,433.99987183178126,36.81
1602947687.5659,74.0,782.0,191.0,433.98820852952866,36.81
1602947687.5679,74.0,782.0,199.0,433.97734627825497,36.81
1602947687.5699,74.0,782.0,194.0,433.96731420708676,36.81
1602947687.5719,74.0,782.0,201.0,433.9581414451504,36.81
1602947687.5739,74.0,782.0,213.0,433.9498571215724,36.81
1602947687.5759,74.0,782.0,216.0,433.9424903654793,36.81
1602947687.5779,74.0,782.0,218.0,433.9360703059976,36.81
1602947687.5799,74.0,782.0,228.0,433.9306260722538,36.81
1602947687.5819,74.0,782.0,240.0,433.9261867933745,36.81
1602947687.584,74.0,782.0,242.0,433.9227815984861,36.81
1602947687.586,74.0,782.0,250.0,433.9204396167151,36.81
1602947687.5879,74.0,782.0,264.0,433.91918997718807,36.81
1602947687.5899,74.0,782.0,272.0,433.91906180903135,36.81
1602947687.5919,74.0,782.0,279.0,433.92008424137174,36.81
1602947687.5939,74.0,782.0,281.0,433.9222864033355,36.81
1602947687.5959,74.0,782.0,286.0,433.92569742404925,36.81
1602947687.5979,74.0,782.0,293.0,433.9303464326394,36.81
1602947687.5999,74.0,782.0,296.0,433.9362625582325,36.81
1602947687.6019,74.0,782.0,289.0,433.94347492995513,36.81
1602947687.6039,74.0,782.0,281.0,433.95201267693375,36.81
1602947687.6059,74.0,782.0,276.0,433.9619049282947,36.81
1602947687.6079,74.0,782.0,264.0,433.9731808131648,36.81
1602947687.6101,74.0,782.0,245.0,433.98586946067036,36.81
1602947687.6121,74.0,782.0,218.0,433.99999999993787,36.81
1602947687.6139,74.0,782.0,189.0,433.99999999993787,36.81
1602947687.6159,74.0,782.0,157.0,433.99999999993787,36.81
1602947687.6179,74.0,782.0,133.0,433.99999999993787,36.81
1602947687.6199,74.0,782.0,111.0,433.99999999993787,36.81
1602947687.6219,74.0,782.0,94.0,433.99999999993787,36.81
1602947687.6239,74.0,782.0,80.0,433.99999999993787,36.81
1602947687.6259,74.0,782.0,77.0,433.99999999993787,36.81
1602947687.6279,74.0,782.0,80.0,433.99999999993787,36.81
1602947687.6299,74.0,782.0,75.0,433.99999999993787,36.81
1602947687.6319,74.0,782.0,75.0,433.99999999993787,36.81
1602947687.6339,74.0,782.0,80.0,433.99999999993787,36.81
1602947687.6359,74.0,782.0,85.0,433.99999999993787,36.81
1602947687.6379,74.0,782.0,89.0,433.99999999993787,36.81
1602947687.6399,74.0,782.0,97.0,433.99999999993787,36.81
1602947687.6419,74.0,782.0,102.0,433.99999999993787,36.81
1602947687.6439,74.0,782.0,106.0,433.99999999993787,36.81
1602947687.6459,74.0,782.0,102.0,433.99999999993787,36.81
1602947687.6479,74.0,782.0,104.0,433.99999999993787,36.81
1602947687.6499,74.0,782.0,114.0,433.99999999993787,36.81
1602947687.652,74.0,782.0,121.0,433.99999999993787,36.81
1602947687.6539,74.0,782.0,121.0,433.99999999993787,36.81
1602947687.6559,74.0,782.0,121.0,433.99999999993787,36.81
1602947688.052,74.0,782.0,123.0,433.99999999993787,36.81
1602947688.0526,74.0,782.0,126.0,433.99999999993787,36.81
1602947688.055,74.0,782.0,128.0,433.99999999993787,36.81
1602947688.0577,74.0,782.0,126.0,433.99999999993787,36.81
1602947688.0597,74.0,782.0,123.0,433.99999999993787,36.81
1602947688.0616,74.0,782.0,121.0,433.99999999993787,36.81
1602947688.0636,74.0,782.0,119.0,433.99999999993787,36.81
1602947688.0656,74.0,782.0,114.0,433.99999999993787,36.81
1602947688.0677,74.0,782.0,114.0,433.99999999993787,36.81
1602947688.0697,74.0,782.0,116.0,433.99999999993787,36.81
1602947688.0717,74.0,782.0,114.0,433.99999999993787,36.81
1602947688.0736,74.0,782.0,106.0,433.99999999993787,36.81
1602947688.0756,74.0,782.0,104.0,433.99999999993787,36.81
1602947688.0776,74.0,782.0,109.0,433.99999999993787,36.81
1602947688.0797,74.0,782.0,104.0,433.99999999993787,36.81
1602947688.0804,74.0,782.0,102.0,433.99999999993787,36.81
1602947688.0826,74.0,782.0,106.0,433.99999999993787,36.81
1602947688.0846,74.0,782.0,119.0,433.99999999993787,36.81
1602947688.0866,74.0,782.0,143.0,433.99999999993787,36.81
1602947688.0886,74.0,782.0,162.0,433.99999999993787,36.81
1602947688.0906,74.0,782.0,153.0,433.99999999993787,36.81
1602947688.0926,74.0,782.0,143.0,433.99999999993787,36.81
1602947688.0946,74.0,782.0,143.0,433.99999999993787,36.81
1602947688.0966,74.0,782.0,136.0,433.99999999993787,36.81
1602947688.0987,74.0,782.0,123.0,433.99999999993787,36.81
1602947688.1007,74.0,782.0,119.0,433.99999999993787,36.81
1602947688.1026,74.0,782.0,116.0,433.99999999993787,36.81
1602947688.1048,74.0,782.0,114.0,433.99999999993787,36.81
1602947688.1067,74.0,782.0,119.0,433.99999999993787,36.81
1602947688.1086,74.0,782.0,126.0,433.99999999993787,36.81
1602947688.1106,74.0,782.0,126.0,433.99999999993787,36.81
1602947688.1113,74.0,782.0,126.0,433.99999999993787,36.81
1602947688.1126,74.0,782.0,128.0,433.99999999993787,36.81
1602947688.1146,74.0,782.0,114.0,433.99999999993787,36.81
1602947688.1166,74.0,782.0,148.0,433.99999999993787,36.81
1602947688.1186,74.0,782.0,354.0,433.99999999993787,36.81
1602947688.1207,74.0,782.0,624.0,433.99999999993787,36.81
1602947688.1226,74.0,782.0,507.0,433.99999999993787,36.81
1602947688.1246,74.0,782.0,-97.0,433.99999999993787,36.81
1602947688.1267,74.0,782.0,-393.0,433.99999999993787,36.81
1602947688.1286,74.0,782.0,-43.0,433.99999999993787,36.81
1602947688.1306,74.0,782.0,191.0,433.99999999993787,36.81
1602947688.1326,74.0,782.0,106.0,433.99999999993787,36.81
1602947688.1346,74.0,782.0,116.0,433.99999999993787,36.81
1602947688.1366,74.0,782.0,182.0,433.99999999993787,36.81
1602947688.1386,74.0,782.0,157.0,433.99999999993787,36.81
1602947688.1406,74.0,782.0,143.0,433.99999999993787,36.81
1602947688.1413,74.0,782.0,172.0,433.99999999993787,36.81
1602947688.1426,74.0,782.0,170.0,433.99999999993787,36.81
1602947688.1446,74.0,782.0,157.0,433.99999999993787,36.81
1602947688.1466,74.0,782.0,165.0,433.99999999993787,36.81
1602947688.1486,74.0,782.0,172.0,433.99999999993787,36.81
1602947688.1506,74.0,782.0,174.0,433.99999999993787,36.81
1602947688.1526,74.0,782.0,177.0,433.99999999993787,36.81
1602947688.1546,74.0,782.0,182.0,433.99999999993787,36.81
1602947688.1566,74.0,782.0,189.0,433.99999999993787,36.81
1602947688.1586,74.0,782.0,196.0,433.99999999993787,36.81
1602947688.1606,74.0,782.0,204.0,433.99999999993787,36.81
1602947688.1626,74.0,782.0,211.0,433.99999999993787,36.81
1602947688.1646,74.0,782.0,216.0,433.99999999993787,36.81
1602947688.1666,74.0,782.0,218.0,433.99999999993787,36.81
1602947688.1686,74.0,782.0,223.0,433.99999999993787,36.81
1602947688.1707,74.0,782.0,235.0,433.99999999993787,36.81
1602947688.1713,74.0,782.0,250.0,433.99999999993787,36.81
1602947688.1737,74.0,782.0,257.0,433.99999999993787,36.81
1602947688.1756,74.0,782.0,262.0,433.99999999993787,36.81
1602947688.1776,74.0,782.0,264.0,433.99999999993787,36.81
1602947688.1796,74.0,782.0,264.0,433.99999999993787,36.81
1602947688.1816,74.0,782.0,257.0,433.99999999993787,36.81
1602947688.1836,74.0,782.0,247.0,433.99999999993787,36.81
1602947688.1856,74.0,782.0,240.0,433.99999999993787,36.81
1602947688.1877,74.0,782.0,233.0,433.99999999993787,36.81
1602947688.1896,74.0,782.0,213.0,433.99999999993787,36.81
1602947688.592,75.0,781.0,187.0,433.99999999993787,36.81
1602947688.5927,75.0,781.0,160.0,433.99999999993787,36.81
1602947688.5951,75.0,781.0,133.0,433.99999999993787,36.81
1602947688.5962,75.0,781.0,106.0,433.99999999993787,36.81
1602947688.5977,75.0,781.0,80.0,433.99999999993787,36.81
1602947688.5999,75.0,781.0,68.0,433.99999999993787,36.81
1602947688.6017,75.0,781.0,58.0,433.99999999993787,36.81
1602947688.6038,75.0,781.0,48.0,433.99999999993787,36.81
1602947688.6056,75.0,781.0,36.0,433.99999999993787,36.81
1602947688.6076,75.0,781.0,36.0,433.99999999993787,36.81
1602947688.6096,75.0,781.0,43.0,433.99999999993787,36.81
1602947688.6117,75.0,781.0,43.0,433.99999999993787,36.81
1602947688.6136,75.0,781.0,43.0,433.99999999993787,36.81
1602947688.6156,75.0,781.0,55.0,433.99999999993787,36.81
1602947688.6176,75.0,781.0,68.0,433.99999999993787,36.81
1602947688.6196,75.0,781.0,70.0,433.99999999993787,36.81
1602947688.6217,75.0,781.0,72.0,433.99999999993787,36.81
1602947688.6236,75.0,781.0,80.0,433.99999999993787,36.81
1602947688.6256,75.0,781.0,89.0,433.99999999993787,36.81
1602947688.6263,75.0,781.0,92.0,433.99999999993787,36.81
1602947688.6286,75.0,781.0,94.0,433.99999999993787,36.81
1602947688.6307,75.0,781.0,99.0,433.99999999993787,36.81
1602947688.6326,75.0,781.0,104.0,433.99999999993787,36.81
1602947688.6346,75.0,781.0,104.0,434.0282610784729,36.81
1602947688.6366,75.0,781.0,104.0,434.0536383734839,36.81
1602947688.6386,75.0,781.0,106.0,434.076190143224,36.81
1602947688.6407,75.0,781.0,109.0,434.0959746459461,36.81
1602947688.6426,75.0,781.0,106.0,434.11305013990324,36.81
1602947688.6446,75.0,781.0,106.0,434.1274748833485,36.81
1602947688.6466,75.0,781.0,109.0,434.1393071345348,36.81
1602947688.6486,75.0,781.0,104.0,434.1486051517151,36.81
1602947688.6506,75.0,781.0,102.0,434.15542719314254,36.81
1602947688.6526,75.0,781.0,104.0,434.15983151707013,36.81
1602947688.6546,75.0,781.0,104.0,434.1618763817508,36.81
1602947688.6566,75.0,781.0,104.0,434.1616200454375,36.81
1602947688.6574,75.0,781.0,104.0,434.1591207663834,36.81
1602947688.6596,75.0,781.0,104.0,434.1544368028414,36.81
1602947688.6617,75.0,781.0,109.0,434.14762641306453,36.81
1602947688.6637,75.0,781.0,109.0,434.1387478553059,36.81
1602947688.6656,75.0,781.0,109.0,434.1278593878183,36.81
1602947688.6676,75.0,781.0,106.0,434.11501926885495,36.81
1602947688.6696,75.0,781.0,106.0,434.1002857566688,36.81
1602947688.6717,75.0,781.0,104.0,434.08371710951286,36.81
1602947688.6736,75.0,781.0,106.0,434.0653715856401,36.81
1602947688.6756,75.0,781.0,121.0,434.04530744330356,36.81
1602947688.6776,75.0,781.0,148.0,434.02358294075617,36.81
1602947688.6797,75.0,781.0,160.0,434.0002563362511,36.81
1602947688.6817,75.0,781.0,148.0,433.9753858880412,36.81
1602947688.6836,75.0,781.0,136.0,433.9490298543796,36.81
1602947688.6857,75.0,781.0,140.0,433.9212464935193,36.81
1602947688.6877,75.0,781.0,138.0,433.89209406371316,36.81
1602947688.6883,75.0,781.0,119.0,433.8616308232144,36.81
1602947688.6896,75.0,781.0,102.0,433.8299150302758,36.81
1602947688.6917,75.0,781.0,102.0,433.7970049431506,36.81
1602947688.6936,75.0,781.0,102.0,433.7629588200917,36.81
1602947688.6956,75.0,781.0,99.0,433.7278349193521,36.81
1602947688.6978,75.0,781.0,102.0,433.69169149918486,36.81
1602947688.6997,75.0,781.0,109.0,433.65458681784304,36.81
1602947688.7017,75.0,781.0,119.0,433.6165791335795,36.81
1602947688.7036,75.0,781.0,114.0,433.5777267046472,36.81
1602947688.7056,75.0,781.0,94.0,433.53808778929937,36.81
1602947688.7077,75.0,781.0,109.0,433.4977206457889,36.81
1602947688.7096,75.0,781.0,272.0,433.4566835323689,36.81
1602947688.7116,75.0,781.0,556.0,433.41503470729214,36.81
1602947688.7137,75.0,781.0,570.0,433.37283242881193,36.81
1602947688.7156,75.0,781.0,38.0,433.330134955181,36.81
1602947688.7176,75.0,781.0,-393.0,433.2870005446526,36.81
1602947688.7184,75.0,781.0,-145.0,433.2434874554796,36.81
1602947688.7207,75.0,781.0,165.0,433.19965394591503,36.81
1602947688.7226,75.0,781.0,114.0,433.15555827421196,36.81
1602947688.7247,75.0,781.0,92.0,433.1112586986234,36.81
1602947688.7266,75.0,781.0,162.0,433.06681347740226,36.81
1602947688.7286,75.0,781.0,145.0,433.0222808688016,36.81
1602947689.1623,75.0,781.0,121.0,432.9777191310744,36.75
1602947689.1632,75.0,781.0,148.0,432.93318652247376,36.75
1602947689.1656,75.0,781.0,157.0,432.8887413012526,36.75
1602947689.1683,75.0,781.0,148.0,432.84444172566396,36.75
1602947689.1703,75.0,781.0,148.0,432.8003460539609,36.75
1602947689.1722,75.0,781.0,145.0,432.75651254439634,36.75
1602947689.1742,75.0,781.0,140.0,432.7129994552234,36.75
1602947689.1762,75.0,781.0,148.0,432.669865044695,36.75
1602947689.1782,75.0,781.0,157.0,432.62716757106415,36.75
1602947689.1789,75.0,781.0,160.0,432.58496529258383,36.75
1602947689.1812,75.0,781.0,170.0,432.54331646750717,36.75
1602947689.1831,75.0,781.0,179.0,432.5022793540871,36.75
1602947689.1852,75.0,781.0,184.0,432.4619122105766,36.75
1602947689.1872,75.0,781.0,191.0,432.42227329522876,36.75
1602947689.1891,75.0,781.0,204.0,432.3834208662966,36.75
1602947689.1911,75.0,781.0,216.0,432.3454131820329,36.75
1602947689.1932,75.0,781.0,223.0,432.3083085006911,36.75
1602947689.1951,75.0,781.0,228.0,432.27216508052385,36.75
1602947689.1971,75.0,781.0,240.0,432.2370411797843,36.75
1602947689.1991,75.0,781.0,245.0,432.20299505672534,36.75
1602947689.2012,75.0,781.0,242.0,432.17008496960017,36.75
1602947689.2032,75.0,781.0,242.0,432.13836917666157,36.75
1602947689.2051,75.0,781.0,242.0,432.1079059361628,36.75
1602947689.2071,75.0,781.0,238.0,432.0928840456242,36.75
1602947689.2091,75.0,781.0,233.0,432.07778933226945,36.75
1602947689.2098,75.0,781.0,223.0,432.0627091834778,36.75
1602947689.2111,75.0,781.0,206.0,432.047730986629,36.75
1602947689.2131,75.0,781.0,184.0,432.03294212910254,36.75
1602947689.2151,75.0,781.0,153.0,432.0184299982778,36.75
1602947689.2172,75.0,781.0,126.0,432.00428198153435,36.75
1602947689.2192,75.0,781.0,102.0,431.99058546625173,36.75
1602947689.2212,75.0,781.0,80.0,431.97742783980954,36.75
1602947689.2231,75.0,781.0,58.0,431.96489648958715,36.75
1602947689.2251,75.0,781.0,48.0,431.95307880296406,36.75
1602947689.2273,75.0,781.0,46.0,431.94206216732,36.75
1602947689.2292,75.0,781.0,38.0,431.9319339700342,36.75
1602947689.2313,75.0,781.0,38.0,431.9227815984863,36.75
1602947689.2331,75.0,781.0,43.0,431.91469244005594,36.75
1602947689.2352,75.0,781.0,48.0,431.90775388212245,36.75
1602947689.2372,75.0,781.0,53.0,431.90205331206545,36.75
1602947689.2391,75.0,781.0,53.0,431.89767811726443,36.75
1602947689.2399,75.0,781.0,55.0,431.8947156850989,36.75
1602947689.2411,75.0,781.0,68.0,431.89325340294835,36.75
1602947689.2431,75.0,781.0,72.0,431.8933786581924,36.75
1602947689.2452,75.0,781.0,70.0,431.89517883821037,36.75
1602947689.2471,75.0,781.0,70.0,431.89874133038194,36.75
1602947689.2491,75.0,781.0,77.0,431.90415352208646,36.75
1602947689.2512,75.0,781.0,82.0,431.91150280070366,36.75
1602947689.2532,75.0,781.0,85.0,431.9208765536129,36.75
1602947689.2552,75.0,781.0,89.0,431.93236216819383,36.75
1602947689.2571,75.0,781.0,92.0,431.9460470318258,36.75
1602947689.2592,75.0,781.0,87.0,431.9308154115765,36.75
1602947689.2612,75.0,781.0,85.0,431.9149575151071,36.75
1602947689.2631,75.0,781.0,87.0,431.89850247154453,36.75
1602947689.2651,75.0,781.0,92.0,431.88147941001506,36.75
1602947689.2671,75.0,781.0,94.0,431.8639174596453,36.75
1602947689.2678,75.0,781.0,94.0,431.84584574956165,36.75
1602947689.2692,75.0,781.0,97.0,431.82729340889074,36.75
1602947689.2712,75.0,781.0,97.0,431.8082895667589,36.75
1602947689.2732,75.0,781.0,92.0,431.7888633522928,36.75
1602947689.2751,75.0,781.0,92.0,431.76904389461896,36.75
1602947689.2771,75.0,781.0,94.0,431.74886032286366,36.75
1602947689.2791,75.0,781.0,97.0,431.72834176615373,36.75
1602947689.2812,75.0,781.0,97.0,431.7075173536154,36.75
1602947689.2832,75.0,781.0,97.0,431.68641621437524,36.75
1602947689.2851,75.0,781.0,97.0,431.66506747755983,36.75
1602947689.2872,75.0,781.0,99.0,431.64350027229557,36.75
1602947689.2891,75.0,781.0,102.0,431.6217437277091,36.75
1602947689.2912,75.0,781.0,102.0,431.59982697292685,36.75
1602947689.2931,75.0,781.0,102.0,431.5777791370753,36.75
1602947689.2951,75.0,781.0,102.0,431.555629349281,36.75
1602947689.2972,75.0,781.0,104.0,431.5334067386704,36.75
1602947689.2978,75.0,781.0,106.0,431.5111404343701,36.75
1602947689.702,75.0,748.0,111.0,431.48885956550646,36.81
1602947689.7029,75.0,748.0,106.0,431.4665932612061,36.81
1602947689.7053,75.0,748.0,102.0,431.4443706505956,36.81
1602947689.7081,75.0,748.0,109.0,431.42222086280134,36.81
1602947689.7099,75.0,748.0,128.0,431.40017302694974,36.81
1602947689.7119,75.0,748.0,148.0,431.37825627216745,36.81
1602947689.7138,75.0,748.0,143.0,431.3564997275809,36.81
1602947689.7159,75.0,748.0,123.0,431.3349325223167,36.81
1602947689.7179,75.0,748.0,119.0,431.3135837855013,36.81
1602947689.7199,75.0,748.0,123.0,431.29248264626113,36.81
1602947689.7218,75.0,748.0,114.0,431.2716582337228,36.81
1602947689.7239,75.0,748.0,99.0,431.25113967701276,36.81
1602947689.7261,75.0,748.0,97.0,431.2309561052576,36.81
1602947689.7279,75.0,748.0,97.0,431.2111366475836,36.81
1602947689.7298,75.0,748.0,94.0,431.1917104331175,36.81
1602947689.7319,75.0,748.0,97.0,431.1727065909857,36.81
1602947689.7338,75.0,748.0,99.0,431.1541542503148,36.81
1602947689.7358,75.0,748.0,99.0,431.13608254023114,36.81
1602947689.7378,75.0,748.0,104.0,431.11852058986136,36.81
1602947689.7398,75.0,748.0,104.0,431.1014975283319,36.81
1602947689.7418,75.0,748.0,89.0,431.0850424847693,36.81
1602947689.7439,75.0,748.0,126.0,431.06918458830006,36.81
1602947689.7459,75.0,748.0,318.0,431.0539529680506,36.81
1602947689.7479,75.0,748.0,587.0,431.03937675314756,36.81
1602947689.7498,75.0,748.0,502.0,431.02548507271746,36.81
1602947689.7518,75.0,748.0,-77.0,431.01230705588665,36.81
1602947689.7539,75.0,748.0,-388.0,430.9998718317817,36.81
1602947689.7558,75.0,748.0,-63.0,430.9882085295291,36.81
1602947689.7578,75.0,748.0,170.0,430.9773462782554,36.81
1602947689.7598,75.0,748.0,89.0,430.9673142070872,36.81
1602947689.7618,75.0,748.0,99.0,430.95814144515083,36.81
1602947689.7638,75.0,748.0,160.0,430.94985712157273,36.81
1602947689.7659,75.0,748.0,136.0,430.9424903654797,36.81
1602947689.7678,75.0,748.0,121.0,430.93607030599804,36.81
1602947689.7698,75.0,748.0,145.0,430.93062607225426,36.81
1602947689.7718,75.0,748.0,145.0,430.92618679337494,36.81
1602947689.7738,75.0,748.0,138.0,430.92278159848655,36.81
1602947689.7758,75.0,748.0,143.0,430.92043961671556,36.81
1602947689.7778,75.0,748.0,145.0,430.9191899771884,36.81
1602947689.7798,75.0,748.0,148.0,430.9190618090318,36.81
1602947689.7818,75.0,748.0,153.0,430.9200842413722,36.81
1602947689.7838,75.0,748.0,160.0,430.92228640333593,36.81
1602947689.7859,75.0,748.0,170.0,430.9256974240496,36.81
1602947689.7879,75.0,748.0,174.0,430.93034643263985,36.81
1602947689.7898,75.0,748.0,177.0,430.93626255823295,36.81
1602947689.7919,75.0,748.0,177.0,430.9434749299556,36.81
1602947689.7939,75.0,748.0,184.0,430.9520126769341,36.81
1602947689.7959,75.0,748.0,196.0,430.96190492829516,36.81
1602947689.7978,75.0,748.0,199.0,430.97318081316524,36.81
1602947689.7998,75.0,748.0,206.0,430.9858694606708,36.81
1602947689.8018,75.0,748.0,223.0,430.9999999999383,36.81
1602947689.8039,75.0,748.0,230.0,430.9999999999383,36.81
1602947689.8058,75.0,748.0,230.0,430.9999999999383,36.81
1602947689.8078,75.0,748.0,238.0,430.9999999999383,36.81
1602947689.8098,75.0,748.0,247.0,430.9999999999383,36.81
1602947689.8118,75.0,748.0,250.0,430.9999999999383,36.81
1602947689.8139,75.0,748.0,242.0,430.9999999999383,36.81
1602947689.8158,75.0,748.0,235.0,430.9999999999383,36.81
1602947689.8178,75.0,748.0,223.0,430.9999999999383,36.81
1602947689.8199,75.0,748.0,206.0,430.9999999999383,36.81
1602947689.8218,75.0,748.0,189.0,430.9999999999383,36.81
1602947689.8238,75.0,748.0,160.0,430.9999999999383,36.81
1602947689.8258,75.0,748.0,123.0,430.9999999999383,36.81
1602947689.828,75.0,748.0,97.0,430.9999999999383,36.81
1602947689.8299,75.0,748.0,77.0,430.9999999999383,36.81
1602947689.8318,75.0,748.0,60.0,430.9999999999383,36.81
1602947689.8338,75.0,748.0,43.0,430.9999999999383,36.81
1602947689.8358,75.0,748.0,36.0,430.9999999999383,36.81
1602947689.8378,75.0,748.0,36.0,430.9999999999383,36.81
1602947689.8398,75.0,748.0,36.0,430.9999999999383,36.81
1602947689.8419,75.0,748.0,34.0,430.9999999999383,36.81
1602947689.8438,75.0,748.0,38.0,430.9999999999383,36.81
1602947689.8458,75.0,748.0,46.0,430.9999999999383,36.81
1602947690.3019,76.0,755.0,51.0,430.9999999999383,36.81
1602947690.3027,76.0,755.0,51.0,430.9999999999383,36.81
1602947690.3052,76.0,755.0,51.0,430.9999999999383,36.81
1602947690.3079,76.0,755.0,46.0,430.9999999999383,36.81
1602947690.3098,76.0,755.0,41.0,430.9999999999383,36.81
1602947690.3118,76.0,755.0,48.0,430.9999999999383,36.81
1602947690.3139,76.0,755.0,55.0,430.9999999999383,36.81
1602947690.3158,76.0,755.0,58.0,430.9999999999383,36.81
1602947690.3179,76.0,755.0,70.0,430.9999999999383,36.81
1602947690.3198,76.0,755.0,80.0,430.9999999999383,36.81
1602947690.3218,76.0,755.0,77.0,430.9999999999383,36.81
1602947690.3238,76.0,755.0,75.0,430.9999999999383,36.81
1602947690.3258,76.0,755.0,80.0,430.9999999999383,36.81
1602947690.3278,76.0,755.0,85.0,430.9999999999383,36.81
1602947690.3298,76.0,755.0,85.0,430.9999999999383,36.81
1602947690.3318,76.0,755.0,77.0,430.9999999999383,36.81
1602947690.3339,76.0,755.0,80.0,430.9999999999383,36.81
1602947690.3358,76.0,755.0,87.0,430.9999999999383,36.81
1602947690.3378,76.0,755.0,87.0,430.9999999999383,36.81
1602947690.3398,76.0,755.0,77.0,430.9999999999383,36.81
1602947690.3417,76.0,755.0,82.0,430.9999999999383,36.81
1602947690.3437,76.0,755.0,87.0,430.9999999999383,36.81
1602947690.3457,76.0,755.0,77.0,430.9999999999383,36.81
1602947690.3477,76.0,755.0,80.0,431.02826107847335,36.81
1602947690.3497,76.0,755.0,89.0,431.0536383734844,36.81
1602947690.3517,76.0,755.0,92.0,431.07619014322444,36.81
1602947690.3537,76.0,755.0,87.0,431.09597464594657,36.81
1602947690.3557,76.0,755.0,82.0,431.1130501399037,36.81
1602947690.3577,76.0,755.0,87.0,431.12747488334895,36.81
1602947690.3597,76.0,755.0,89.0,431.13930713453516,36.81
1602947690.3617,76.0,755.0,75.0,431.14860515171557,36.81
1602947690.3637,76.0,755.0,70.0,431.155427193143,36.81
1602947690.3657,76.0,755.0,77.0,431.1598315170706,36.81
1602947690.3678,76.0,755.0,80.0,431.16187638175114,36.81
1602947690.3698,76.0,755.0,82.0,431.1616200454379,36.81
1602947690.3717,76.0,755.0,82.0,431.15912076638386,36.81
1602947690.3737,76.0,755.0,82.0,431.1544368028419,36.81
1602947690.3757,76.0,755.0,82.0,431.147626413065,36.81
1602947690.3777,76.0,755.0,85.0,431.13874785530635,36.81
1602947690.3797,76.0,755.0,85.0,431.1278593878188,36.81
1602947690.3817,76.0,755.0,85.0,431.1150192688554,36.81
1602947690.3839,76.0,755.0,94.0,431.1002857566693,36.81
1602947690.3858,76.0,755.0,114.0,431.0837171095133,36.81
1602947690.3877,76.0,755.0,136.0,431.06537158564055,36.81
1602947690.3897,76.0,755.0,131.0,431.0453074433039,36.81
1602947690.3917,76.0,755.0,114.0,431.0235829407566,36.81
1602947690.3937,76.0,755.0,111.0,431.00025633625154,36.81
1602947690.3958,76.0,755.0,114.0,430.97538588804167,36.81
1602947690.3978,76.0,755.0,106.0,430.94902985438006,36.81
1602947690.3997,76.0,755.0,97.0,430.9212464935196,36.81
1602947690.4018,76.0,755.0,87.0,430.8920940637136,36.81
1602947690.4037,76.0,755.0,87.0,430.86163082321474,36.81
1602947690.4057,76.0,755.0,92.0,430.82991503027625,36.81
1602947690.4077,76.0,755.0,94.0,430.7970049431511,36.81
1602947690.4097,76.0,755.0,94.0,430.76295882009214,36.81
1602947690.4117,76.0,755.0,94.0,430.7278349193526,36.81
1602947690.4137,76.0,755.0,97.0,430.6916914991853,36.81
1602947690.4157,76.0,755.0,87.0,430.6545868178434,36.81
1602947690.4178,76.0,755.0,65.0,430.6165791335798,36.81
1602947690.4197,76.0,755.0,133.0,430.57772670464766,36.81
1602947690.4217,76.0,755.0,410.0,430.5380877892998,36.81
1602947690.4237,76.0,755.0,668.0,430.49772064578934,36.81
1602947690.4258,76.0,755.0,386.0,430.45668353236925,36.81
1602947690.4278,76.0,755.0,-286.0,430.4150347072926,36.81
1602947690.4297,76.0,755.0,-417.0,430.3728324288124,36.81
1602947690.4318,76.0,755.0,4.0,430.33013495518156,36.81
1602947690.4337,76.0,755.0,143.0,430.28700054465315,36.81
1602947690.4358,76.0,755.0,46.0,430.2434874554802,36.81
1602947690.4377,76.0,755.0,102.0,430.1996539459156,36.81
1602947690.4397,76.0,755.0,145.0,430.1555582742125,36.81
1602947690.4417,76.0,755.0,104.0,430.11125869862394,36.81
1602947690.4437,76.0,755.0,106.0,430.0668134774028,36.81
1602947690.4457,76.0,755.0,131.0,430.0222808688021,36.81
1602947690.8716,76.0,755.0,119.0,429.9777191310749,36.81
1602947690.8725,76.0,755.0,111.0,429.9331865224742,36.81
1602947690.875,76.0,755.0,121.0,429.88874130125305,36.81
1602947690.8776,76.0,755.0,123.0,429.8444417256644,36.81
1602947690.8795,76.0,755.0,123.0,429.80034605396133,36.81
1602947690.8815,76.0,755.0,131.0,429.7565125443968,36.81
1602947690.8836,76.0,755.0,140.0,429.71299945522384,36.81
1602947690.8855,76.0,755.0,145.0,429.6698650446954,36.81
1602947690.8875,76.0,755.0,138.0,429.62716757106455,36.81
1602947690.8895,76.0,755.0,136.0,429.5849652925843,36.81
1602947690.8916,76.0,755.0,153.0,429.54331646750757,36.81
1602947690.8935,76.0,755.0,165.0,429.50227935408753,36.81
1602947690.8955,76.0,755.0,170.0,429.46191221057705,36.81
1602947690.8975,76.0,755.0,182.0,429.4222732952292,36.81
1602947690.8995,76.0,755.0,191.0,429.383420866297,36.81
1602947690.9015,76.0,755.0,201.0,429.34541318203344,36.81
1602947690.9035,76.0,755.0,218.0,429.3083085006915,36.81
1602947690.9055,76.0,755.0,230.0,429.27216508052425,36.81
1602947690.9075,76.0,755.0,240.0,429.2370411797847,36.81
1602947690.9097,76.0,755.0,240.0,429.2029950567258,36.81
1602947690.9115,76.0,755.0,240.0,429.17008496960057,36.81
1602947690.9135,76.0,755.0,238.0,429.1383691766621,36.81
1602947690.9155,76.0,755.0,228.0,429.10790593616326,36.81
1602947690.9175,76.0,755.0,208.0,429.0787535063572,36.81
1602947690.9195,76.0,755.0,184.0,429.0509701454968,36.81
1602947690.9215,76.0,755.0,160.0,429.0246141118352,36.81
1602947690.9235,76.0,755.0,131.0,428.99974366362534,36.81
1602947690.9255,76.0,755.0,102.0,428.97641705912025,36.81
1602947690.9275,76.0,755.0,75.0,428.9546925565729,36.81
1602947690.9295,76.0,755.0,53.0,428.93462841423633,36.81
1602947690.9315,76.0,755.0,36.0,428.91628289036356,36.81
1602947690.9335,76.0,755.0,29.0,428.8997142432076,36.81
1602947690.9355,76.0,755.0,21.0,428.8849807310214,36.81
1602947690.9374,76.0,755.0,21.0,428.8721406120581,36.81
1602947690.9395,76.0,755.0,26.0,428.8612521445705,36.81
1602947690.9415,76.0,755.0,26.0,428.8523735868119,36.81
1602947690.9435,76.0,755.0,26.0,428.845563197035,36.81
1602947690.9455,76.0,755.0,31.0,428.84087923349307,36.81
1602947690.9475,76.0,755.0,36.0,428.83837995443895,36.81
1602947690.9495,76.0,755.0,38.0,428.8381236181257,36.81
1602947690.9515,76.0,755.0,41.0,428.84016848280635,36.81
1602947690.9535,76.0,755.0,48.0,428.8445728067339,36.81
1602947690.9555,76.0,755.0,55.0,428.8513948481613,36.81
1602947690.9575,76.0,755.0,65.0,428.86069286534166,36.81
1602947690.9595,76.0,755.0,70.0,428.872525116528,36.81
1602947690.9615,76.0,755.0,72.0,428.8869498599732,36.81
1602947690.9634,76.0,755.0,77.0,428.90402535393036,36.81
1602947690.9655,76.0,755.0,82.0,428.92380985665244,36.81
1602947690.9675,76.0,755.0,85.0,428.94636162639256,36.81
1602947690.9695,76.0,755.0,87.0,428.9717389214036,36.81
1602947690.9715,76.0,755.0,89.0,428.9999999999386,36.81
1602947690.9735,76.0,755.0,87.0,428.9999999999386,36.81
1602947690.9755,76.0,755.0,87.0,428.9999999999386,36.81
1602947690.9775,76.0,755.0,87.0,428.9999999999386,36.81
1602947690.9795,76.0,755.0,89.0,428.9999999999386,36.81
1602947690.9816,76.0,755.0,89.0,428.9999999999386,36.81
1602947690.9835,76.0,755.0,80.0,428.9999999999386,36.81
1602947690.9855,76.0,755.0,80.0,428.9999999999386,36.81
1602947690.9875,76.0,755.0,80.0,428.9999999999386,36.81
1602947690.9895,76.0,755.0,80.0,428.9999999999386,36.81
1602947690.9915,76.0,755.0,82.0,428.9999999999386,36.81
1602947690.9935,76.0,755.0,85.0,428.9999999999386,36.81
1602947690.9955,76.0,755.0,82.0,428.9999999999386,36.81
1602947690.9975,76.0,755.0,82.0,428.9999999999386,36.81
1602947690.9995,76.0,755.0,85.0,428.9999999999386,36.81
1602947691.0015,76.0,755.0,85.0,428.9999999999386,36.81
1602947691.0035,76.0,755.0,85.0,428.9999999999386,36.81
1602947691.0055,76.0,755.0,85.0,428.9999999999386,36.81
1602947691.0075,76.0,755.0,87.0,428.9999999999386,36.81
1602947691.0095,76.0,755.0,87.0,428.9999999999386,36.81
1602947691.0116,76.0,755.0,92.0,428.9999999999386,36.81
1602947691.0135,76.0,755.0,87.0,428.9999999999386,36.81
1602947691.0155,76.0,755.0,85.0,428.9999999999386,36.81
1602947691.4121,76.0,789.0,89.0,428.9999999999386,36.81
1602947691.4127,76.0,789.0,92.0,428.9999999999386,36.81
1602947691.4151,76.0,789.0,94.0,428.9999999999386,36.81
1602947691.4178,76.0,789.0,97.0,428.9999999999386,36.81
1602947691.4197,76.0,789.0,92.0,428.9999999999386,36.81
1602947691.4217,76.0,789.0,82.0,428.9999999999386,36.81
1602947691.4237,76.0,789.0,82.0,428.9999999999386,36.81
1602947691.4257,76.0,789.0,89.0,428.9999999999386,36.81
1602947691.4277,76.0,789.0,94.0,428.9999999999386,36.81
1602947691.4297,76.0,789.0,104.0,428.9999999999386,36.81
1602947691.4317,76.0,789.0,116.0,428.9999999999386,36.81
1602947691.4337,76.0,789.0,116.0,428.9999999999386,36.81
1602947691.4357,76.0,789.0,102.0,428.9999999999386,36.81
1602947691.4377,76.0,789.0,94.0,428.9999999999386,36.81
1602947691.4397,76.0,789.0,89.0,428.9999999999386,36.81
1602947691.4417,76.0,789.0,80.0,428.9999999999386,36.81
1602947691.4437,76.0,789.0,63.0,428.9999999999386,36.81
1602947691.4457,76.0,789.0,51.0,428.9999999999386,36.81
1602947691.4477,76.0,789.0,51.0,428.9999999999386,36.81
1602947691.4497,76.0,789.0,53.0,428.9999999999386,36.81
1602947691.4517,76.0,789.0,53.0,428.9999999999386,36.81
1602947691.4537,76.0,789.0,55.0,428.9999999999386,36.81
1602947691.4557,76.0,789.0,58.0,428.9999999999386,36.81
1602947691.4577,76.0,789.0,58.0,428.9999999999386,36.81
1602947691.4597,76.0,789.0,51.0,428.9999999999386,36.81
1602947691.4617,76.0,789.0,38.0,428.9999999999386,36.81
1602947691.4637,76.0,789.0,111.0,428.9999999999386,36.81
1602947691.4657,76.0,789.0,361.0,428.9999999999386,36.81
1602947691.4678,76.0,789.0,595.0,428.9999999999386,36.81
1602947691.4697,76.0,789.0,332.0,428.9999999999386,36.81
1602947691.4717,76.0,789.0,-291.0,428.9999999999386,36.81
1602947691.4737,76.0,789.0,-400.0,428.9999999999386,36.81
1602947691.4757,76.0,789.0,-4.0,428.9999999999386,36.81
1602947691.4777,76.0,789.0,121.0,428.9999999999386,36.81
1602947691.4797,76.0,789.0,31.0,428.9999999999386,36.81
1602947691.4817,76.0,789.0,80.0,428.9999999999386,36.81
1602947691.4837,76.0,789.0,121.0,428.9999999999386,36.81
1602947691.4857,76.0,789.0,82.0,428.9999999999386,36.81
1602947691.4877,76.0,789.0,87.0,428.9999999999386,36.81
1602947691.4897,76.0,789.0,111.0,428.9999999999386,36.81
1602947691.4917,76.0,789.0,104.0,428.9999999999386,36.81
1602947691.4937,76.0,789.0,102.0,428.9999999999386,36.81
1602947691.4957,76.0,789.0,116.0,428.9999999999386,36.81
1602947691.4977,76.0,789.0,123.0,428.9999999999386,36.81
1602947691.4997,76.0,789.0,123.0,428.9999999999386,36.81
1602947691.5017,76.0,789.0,128.0,428.9999999999386,36.81
1602947691.5037,76.0,789.0,133.0,428.9999999999386,36.81
1602947691.5057,76.0,789.0,136.0,428.9999999999386,36.81
1602947691.5078,76.0,789.0,138.0,428.9999999999386,36.81
1602947691.5097,76.0,789.0,150.0,428.9999999999386,36.81
1602947691.5117,76.0,789.0,162.0,428.9999999999386,36.81
1602947691.5137,76.0,789.0,172.0,428.9999999999386,36.81
1602947691.5157,76.0,789.0,179.0,428.9999999999386,36.81
1602947691.5177,76.0,789.0,187.0,428.9999999999386,36.81
1602947691.5197,76.0,789.0,196.0,428.9999999999386,36.81
1602947691.5217,76.0,789.0,206.0,428.9999999999386,36.81
1602947691.5237,76.0,789.0,213.0,428.9999999999386,36.81
1602947691.5257,76.0,789.0,228.0,428.9999999999386,36.81
1602947691.5277,76.0,789.0,235.0,428.9999999999386,36.81
1602947691.5297,76.0,789.0,233.0,428.9999999999386,36.81
1602947691.5317,76.0,789.0,230.0,428.9999999999386,36.81
1602947691.5337,76.0,789.0,228.0,428.9999999999386,36.81
1602947691.5357,76.0,789.0,225.0,428.9999999999386,36.81
1602947691.5377,76.0,789.0,216.0,428.9999999999386,36.81
1602947691.5397,76.0,789.0,201.0,428.9999999999386,36.81
1602947691.5417,76.0,789.0,177.0,428.9999999999386,36.81
1602947691.5437,76.0,789.0,148.0,428.9999999999386,36.81
1602947691.5457,76.0,789.0,116.0,428.9999999999386,36.81
1602947691.5477,76.0,789.0,87.0,428.9999999999386,36.81
1602947691.5497,76.0,789.0,68.0,428.9999999999386,36.81
1602947691.5517,76.0,789.0,55.0,428.9999999999386,36.81
1602947691.5537,76.0,789.0,43.0,428.9999999999386,36.81
1602947691.5557,76.0,789.0,36.0,428.9999999999386,36.81
1602947692.0121,76.0,789.0,31.0,428.9999999999386,36.81
1602947692.0129,76.0,789.0,29.0,428.9999999999386,36.81
1602947692.0154,76.0,789.0,34.0,428.9999999999386,36.81
1602947692.018,76.0,789.0,36.0,428.9999999999386,36.81
1602947692.0201,76.0,789.0,41.0,428.9999999999386,36.81
1602947692.022,76.0,789.0,46.0,428.9999999999386,36.81
1602947692.0241,76.0,789.0,38.0,428.9999999999386,36.81
1602947692.026,76.0,789.0,26.0,428.9999999999386,36.81
1602947692.028,76.0,789.0,26.0,428.9999999999386,36.81
1602947692.0301,76.0,789.0,29.0,428.9999999999386,36.81
1602947692.0319,76.0,789.0,34.0,428.9999999999386,36.81
1602947692.0339,76.0,789.0,38.0,428.9999999999386,36.81
1602947692.036,76.0,789.0,43.0,428.9999999999386,36.81
1602947692.038,76.0,789.0,53.0,428.9999999999386,36.81
1602947692.04,76.0,789.0,58.0,428.9999999999386,36.81
1602947692.0419,76.0,789.0,60.0,428.9999999999386,36.81
1602947692.0439,76.0,789.0,63.0,428.9999999999386,36.81
1602947692.0459,76.0,789.0,65.0,428.9999999999386,36.81
1602947692.0479,76.0,789.0,65.0,428.9999999999386,36.81
1602947692.0499,76.0,789.0,65.0,428.9999999999386,36.81
1602947692.0519,76.0,789.0,70.0,428.9999999999386,36.81
1602947692.0539,76.0,789.0,72.0,428.9999999999386,36.81
1602947692.0559,76.0,789.0,70.0,428.9999999999386,36.81
1602947692.0579,76.0,789.0,70.0,429.0141305392061,36.81
1602947692.06,76.0,789.0,70.0,429.0268191867117,36.81
1602947692.0619,76.0,789.0,70.0,429.0380950715817,36.81
1602947692.0641,76.0,789.0,70.0,429.0479873229428,36.81
1602947692.0659,76.0,789.0,65.0,429.05652506992135,36.81
1602947692.0679,76.0,789.0,65.0,429.063737441644,36.81
1602947692.0699,76.0,789.0,65.0,429.0696535672371,36.81
1602947692.0719,76.0,789.0,65.0,429.0743025758273,36.81
1602947692.0739,76.0,789.0,65.0,429.077713596541,36.81
1602947692.0759,76.0,789.0,68.0,429.07991575850474,36.81
1602947692.078,76.0,789.0,70.0,429.0809381908451,36.81
1602947692.0799,76.0,789.0,70.0,429.08081002268847,36.81
1602947692.0819,76.0,789.0,70.0,429.0795603831614,36.81
1602947692.0839,76.0,789.0,72.0,429.0772184013904,36.81
1602947692.0859,76.0,789.0,72.0,429.073813206502,36.81
1602947692.0879,76.0,789.0,75.0,429.0693739276226,36.81
1602947692.0899,76.0,789.0,75.0,429.0639296938789,36.81
1602947692.0919,76.0,789.0,75.0,429.0575096343972,36.81
1602947692.0939,76.0,789.0,77.0,429.0501428783041,36.81
1602947692.0959,76.0,789.0,72.0,429.0418585547261,36.81
1602947692.0979,76.0,789.0,70.0,429.0326857927897,36.81
1602947692.0999,76.0,789.0,72.0,429.02265372162145,36.81
1602947692.1019,76.0,789.0,72.0,429.01179147034776,36.81
1602947692.1039,76.0,789.0,70.0,429.0001281680952,36.81
1602947692.1059,76.0,789.0,70.0,428.9876929439903,36.81
1602947692.1079,76.0,789.0,70.0,428.9745149271595,36.81
1602947692.1099,76.0,789.0,70.0,428.9606232467293,36.81
1602947692.1119,76.0,789.0,68.0,428.94604703182625,36.81
1602947692.1139,76.0,789.0,70.0,428.9308154115769,36.81
1602947692.1159,76.0,789.0,75.0,428.91495751510763,36.81
1602947692.1179,76.0,789.0,77.0,428.898502471545,36.81
1602947692.1199,76.0,789.0,92.0,428.8814794100155,36.81
1602947692.1219,76.0,789.0,116.0,428.86391745964573,36.81
1602947692.1239,76.0,789.0,121.0,428.8458457495621,36.81
1602947692.1259,76.0,789.0,106.0,428.82729340889114,36.81
1602947692.1279,76.0,789.0,97.0,428.80828956675936,36.81
1602947692.1299,76.0,789.0,102.0,428.7888633522933,36.81
1602947692.1319,76.0,789.0,97.0,428.76904389461936,36.81
1602947692.1339,76.0,789.0,80.0,428.7488603228641,36.81
1602947692.1359,76.0,789.0,72.0,428.7283417661541,36.81
1602947692.1379,76.0,789.0,72.0,428.70751735361574,36.81
1602947692.1399,76.0,789.0,72.0,428.6864162143756,36.81
1602947692.1419,76.0,789.0,72.0,428.66506747756017,36.81
1602947692.1439,76.0,789.0,77.0,428.64350027229597,36.81
1602947692.1459,76.0,789.0,82.0,428.62174372770943,36.81
1602947692.1479,76.0,789.0,85.0,428.59982697292713,36.81
1602947692.1499,76.0,789.0,85.0,428.5777791370756,36.81
1602947692.1519,76.0,789.0,70.0,428.5556293492813,36.81
1602947692.1539,76.0,789.0,114.0,428.5334067386707,36.81
1602947692.1559,76.0,789.0,327.0,428.51114043437036,36.81
1602947692.5221,77.0,833.0,592.0,428.48885956550686,36.81
1602947692.5227,77.0,833.0,463.0,428.4665932612065,36.81
1602947692.5251,77.0,833.0,-133.0,428.44437065059594,36.81
1602947692.5277,77.0,833.0,-403.0,428.4222208628016,36.81
1602947692.5299,77.0,833.0,-58.0,428.4001730269501,36.81
1602947692.5317,77.0,833.0,145.0,428.37825627216785,36.81
1602947692.5339,77.0,833.0,51.0,428.35649972758137,36.81
1602947692.5358,77.0,833.0,63.0,428.3349325223171,36.81
1602947692.5377,77.0,833.0,114.0,428.3135837855017,36.81
1602947692.5397,77.0,833.0,82.0,428.2924826462616,36.81
1602947692.5417,77.0,833.0,77.0,428.27165823372326,36.81
1602947692.5437,77.0,833.0,94.0,428.2511396770132,36.81
1602947692.5457,77.0,833.0,85.0,428.230956105258,36.81
1602947692.5477,77.0,833.0,82.0,428.21113664758406,36.81
1602947692.5498,77.0,833.0,99.0,428.191710433118,36.81
1602947692.5517,77.0,833.0,102.0,428.1727065909862,36.81
1602947692.5537,77.0,833.0,102.0,428.15415425031523,36.81
1602947692.5557,77.0,833.0,114.0,428.1360825402316,36.81
1602947692.5577,77.0,833.0,123.0,428.1185205898618,36.81
1602947692.5597,77.0,833.0,123.0,428.10149752833235,36.81
1602947692.5617,77.0,833.0,131.0,428.08504248476976,36.81
1602947692.5637,77.0,833.0,145.0,428.0691845883005,36.81
1602947692.5657,77.0,833.0,153.0,428.0539529680511,36.81
1602947692.5677,77.0,833.0,160.0,428.02524621388056,36.81
1602947692.5697,77.0,833.0,170.0,427.99866588594483,36.81
1602947692.5717,77.0,833.0,184.0,427.974211984244,36.81
1602947692.5737,77.0,833.0,194.0,427.951884508778,36.81
1602947692.5757,77.0,833.0,201.0,427.9316834595469,36.81
1602947692.5777,77.0,833.0,208.0,427.91360883655057,36.81
1602947692.5797,77.0,833.0,213.0,427.8976606397892,36.81
1602947692.5817,77.0,833.0,221.0,427.8838388692626,36.81
1602947692.5837,77.0,833.0,228.0,427.8721435249709,36.81
1602947692.5857,77.0,833.0,228.0,427.86257460691405,36.81
1602947692.5877,77.0,833.0,225.0,427.85513211509203,36.81
1602947692.5897,77.0,833.0,223.0,427.8498160495049,36.81
1602947692.5917,77.0,833.0,216.0,427.8466264101526,36.81
1602947692.5937,77.0,833.0,204.0,427.84556319703523,36.81
1602947692.5957,77.0,833.0,184.0,427.8466264101526,36.81
1602947692.5977,77.0,833.0,157.0,427.8498160495049,36.81
1602947692.5997,77.0,833.0,126.0,427.85513211509203,36.81
1602947692.6017,77.0,833.0,99.0,427.86257460691405,36.81
1602947692.6037,77.0,833.0,77.0,427.8721435249709,36.81
1602947692.6057,77.0,833.0,60.0,427.8838388692626,36.81
1602947692.6077,77.0,833.0,46.0,427.8976606397892,36.81
1602947692.6097,77.0,833.0,36.0,427.91360883655057,36.81
1602947692.6117,77.0,833.0,34.0,427.9316834595469,36.81
1602947692.6137,77.0,833.0,36.0,427.951884508778,36.81
1602947692.6157,77.0,833.0,34.0,427.974211984244,36.81
1602947692.6177,77.0,833.0,34.0,427.99866588594483,36.81
1602947692.6197,77.0,833.0,41.0,428.02524621388056,36.81
1602947692.6217,77.0,833.0,46.0,428.0539529680511,36.81
1602947692.6237,77.0,833.0,51.0,428.0691845883005,36.81
1602947692.6257,77.0,833.0,53.0,428.08504248476976,36.81
1602947692.6277,77.0,833.0,55.0,428.10149752833235,36.81
1602947692.6297,77.0,833.0,58.0,428.1185205898618,36.81
1602947692.6318,77.0,833.0,63.0,428.1360825402316,36.81
1602947692.6338,77.0,833.0,68.0,428.15415425031523,36.81
1602947692.6357,77.0,833.0,72.0,428.1727065909862,36.81
1602947692.6377,77.0,833.0,72.0,428.191710433118,36.81
1602947692.6398,77.0,833.0,70.0,428.21113664758406,36.81
1602947692.6417,77.0,833.0,75.0,428.230956105258,36.81
1602947692.6437,77.0,833.0,80.0,428.2511396770132,36.81
1602947692.6457,77.0,833.0,75.0,428.27165823372326,36.81
1602947692.6477,77.0,833.0,75.0,428.2924826462616,36.81
1602947692.6497,77.0,833.0,77.0,428.3135837855017,36.81
1602947692.6517,77.0,833.0,75.0,428.3349325223171,36.81
1602947692.6537,77.0,833.0,68.0,428.35649972758137,36.81
1602947692.6557,77.0,833.0,65.0,428.37825627216785,36.81
1602947692.6577,77.0,833.0,70.0,428.4001730269501,36.81
1602947692.6597,77.0,833.0,70.0,428.4222208628016,36.81
1602947692.6617,77.0,833.0,65.0,428.44437065059594,36.81
1602947692.6637,77.0,833.0,60.0,428.4665932612065,36.81
1602947692.6657,77.0,833.0,60.0,428.48885956550686,36.81
1602947693.0916,77.0,833.0,60.0,428.51114043437036,36.81
1602947693.0924,77.0,833.0,55.0,428.5334067386707,36.81
1602947693.0949,77.0,833.0,58.0,428.5556293492813,36.81
1602947693.0975,77.0,833.0,55.0,428.5777791370756,36.81
1602947693.0995,77.0,833.0,53.0,428.59982697292713,36.81
1602947693.1015,77.0,833.0,46.0,428.62174372770943,36.81
1602947693.1036,77.0,833.0,38.0,428.64350027229597,36.81
1602947693.1054,77.0,833.0,43.0,428.66506747756017,36.81
1602947693.1075,77.0,833.0,51.0,428.6864162143756,36.81
1602947693.1095,77.0,833.0,46.0,428.70751735361574,36.81
1602947693.1115,77.0,833.0,46.0,428.7283417661541,36.81
1602947693.1134,77.0,833.0,53.0,428.7488603228641,36.81
1602947693.1155,77.0,833.0,58.0,428.76904389461936,36.81
1602947693.1174,77.0,833.0,58.0,428.7888633522933,36.81
1602947693.1194,77.0,833.0,60.0,428.80828956675936,36.81
1602947693.1215,77.0,833.0,60.0,428.82729340889114,36.81
1602947693.1234,77.0,833.0,58.0,428.8458457495621,36.81
1602947693.1254,77.0,833.0,63.0,428.86391745964573,36.81
1602947693.1274,77.0,833.0,68.0,428.8814794100155,36.81
1602947693.1294,77.0,833.0,70.0,428.898502471545,36.81
1602947693.1314,77.0,833.0,68.0,428.91495751510763,36.81
1602947693.1334,77.0,833.0,65.0,428.9308154115769,36.81
1602947693.1354,77.0,833.0,70.0,428.94604703182625,36.81
1602947693.1374,77.0,833.0,75.0,428.9606232467293,36.81
1602947693.1394,77.0,833.0,72.0,428.9745149271595,36.81
1602947693.1415,77.0,833.0,72.0,428.9876929439903,36.81
1602947693.1434,77.0,833.0,75.0,429.0001281680952,36.81
1602947693.1454,77.0,833.0,77.0,429.01179147034776,36.81
1602947693.1474,77.0,833.0,77.0,429.02265372162145,36.81
1602947693.1494,77.0,833.0,87.0,429.0326857927897,36.81
1602947693.1514,77.0,833.0,114.0,429.0418585547261,36.81
1602947693.1534,77.0,833.0,128.0,429.0501428783041,36.81
1602947693.1554,77.0,833.0,119.0,429.0575096343972,36.81
1602947693.1576,77.0,833.0,106.0,429.0639296938789,36.81
1602947693.1595,77.0,833.0,109.0,429.0693739276226,36.81
1602947693.1614,77.0,833.0,106.0,429.073813206502,36.81
1602947693.1634,77.0,833.0,94.0,429.0772184013904,36.81
1602947693.1654,77.0,833.0,85.0,429.0795603831614,36.81
1602947693.1674,77.0,833.0,85.0,429.08081002268847,36.81
1602947693.1694,77.0,833.0,82.0,429.0809381908451,36.81
1602947693.1714,77.0,833.0,80.0,429.07991575850474,36.81
1602947693.1734,77.0,833.0,85.0,429.077713596541,36.81
1602947693.1754,77.0,833.0,89.0,429.0743025758273,36.81
1602947693.1774,77.0,833.0,94.0,429.0696535672371,36.81
1602947693.1794,77.0,833.0,97.0,429.063737441644,36.81
1602947693.1815,77.0,833.0,80.0,429.05652506992135,36.81
1602947693.1834,77.0,833.0,97.0,429.0479873229428,36.81
1602947693.1854,77.0,833.0,262.0,429.0380950715817,36.81
1602947693.1874,77.0,833.0,546.0,429.0268191867117,36.81
1602947693.1894,77.0,833.0,566.0,429.0141305392061,36.81
1602947693.1914,77.0,833.0,41.0,428.9999999999386,36.81
1602947693.1934,77.0,833.0,-393.0,428.9999999999386,36.81
1602947693.1954,77.0,833.0,-157.0,428.9999999999386,36.81
1602947693.1974,77.0,833.0,140.0,428.9999999999386,36.81
1602947693.1994,77.0,833.0,89.0,428.9999999999386,36.81
1602947693.2014,77.0,833.0,65.0,428.9999999999386,36.81
1602947693.2034,77.0,833.0,133.0,428.9999999999386,36.81
1602947693.2054,77.0,833.0,116.0,428.9999999999386,36.81
1602947693.2074,77.0,833.0,89.0,428.9999999999386,36.81
1602947693.2094,77.0,833.0,111.0,428.9999999999386,36.81
1602947693.2114,77.0,833.0,116.0,428.9999999999386,36.81
1602947693.2134,77.0,833.0,109.0,428.9999999999386,36.81
1602947693.2154,77.0,833.0,121.0,428.9999999999386,36.81
1602947693.2174,77.0,833.0,123.0,428.9999999999386,36.81
1602947693.2194,77.0,833.0,121.0,428.9999999999386,36.81
1602947693.2214,77.0,833.0,131.0,428.9999999999386,36.81
1602947693.2234,77.0,833.0,145.0,428.9999999999386,36.81
1602947693.2254,77.0,833.0,148.0,428.9999999999386,36.81
1602947693.2274,77.0,833.0,148.0,428.9999999999386,36.81
1602947693.2294,77.0,833.0,155.0,428.9999999999386,36.81
1602947693.2314,77.0,833.0,167.0,428.9999999999386,36.81
1602947693.2334,77.0,833.0,174.0,428.9999999999386,36.81
1602947693.2354,77.0,833.0,182.0,428.9999999999386,36.81
1602947693.6921,76.0,872.0,191.0,428.9999999999386,36.81
1602947693.693,76.0,872.0,201.0,428.9999999999386,36.81
1602947693.6954,76.0,872.0,211.0,428.9999999999386,36.81
1602947693.6981,76.0,872.0,218.0,428.9999999999386,36.81
1602947693.7001,76.0,872.0,225.0,428.9999999999386,36.81
1602947693.7021,76.0,872.0,228.0,428.9999999999386,36.81
1602947693.7042,76.0,872.0,228.0,428.9999999999386,36.81
1602947693.706,76.0,872.0,225.0,428.9999999999386,36.81
1602947693.7081,76.0,872.0,228.0,428.9999999999386,36.81
1602947693.7101,76.0,872.0,223.0,428.9999999999386,36.81
1602947693.712,76.0,872.0,216.0,428.9999999999386,36.81
1602947693.7142,76.0,872.0,204.0,428.9999999999386,36.81
1602947693.7161,76.0,872.0,184.0,428.9999999999386,36.81
1602947693.718,76.0,872.0,157.0,428.9999999999386,36.81
1602947693.7201,76.0,872.0,123.0,428.9999999999386,36.81
1602947693.722,76.0,872.0,92.0,428.9999999999386,36.81
1602947693.724,76.0,872.0,72.0,428.9999999999386,36.81
1602947693.726,76.0,872.0,55.0,428.9999999999386,36.81
1602947693.728,76.0,872.0,34.0,428.9999999999386,36.81
1602947693.7301,76.0,872.0,24.0,428.9999999999386,36.81
1602947693.732,76.0,872.0,21.0,428.9999999999386,36.81
1602947693.734,76.0,872.0,19.0,428.9999999999386,36.81
1602947693.736,76.0,872.0,17.0,428.9999999999386,36.81
1602947693.738,76.0,872.0,19.0,429.0141305392061,36.81
1602947693.7401,76.0,872.0,21.0,429.0268191867117,36.81
1602947693.742,76.0,872.0,24.0,429.0380950715817,36.81
1602947693.744,76.0,872.0,31.0,429.0479873229428,36.81
1602947693.746,76.0,872.0,36.0,429.05652506992135,36.81
1602947693.748,76.0,872.0,43.0,429.063737441644,36.81
1602947693.7501,76.0,872.0,48.0,429.0696535672371,36.81
1602947693.752,76.0,872.0,46.0,429.0743025758273,36.81
1602947693.754,76.0,872.0,48.0,429.077713596541,36.81
1602947693.756,76.0,872.0,58.0,429.07991575850474,36.81
1602947693.758,76.0,872.0,55.0,429.0809381908451,36.81
1602947693.7601,76.0,872.0,51.0,429.08081002268847,36.81
1602947693.762,76.0,872.0,58.0,429.0795603831614,36.81
1602947693.764,76.0,872.0,65.0,429.0772184013904,36.81
1602947693.766,76.0,872.0,65.0,429.073813206502,36.81
1602947693.768,76.0,872.0,65.0,429.0693739276226,36.81
1602947693.7701,76.0,872.0,65.0,429.0639296938789,36.81
1602947693.772,76.0,872.0,65.0,429.0575096343972,36.81
1602947693.774,76.0,872.0,65.0,429.0501428783041,36.81
1602947693.776,76.0,872.0,63.0,429.0418585547261,36.81
1602947693.778,76.0,872.0,60.0,429.0326857927897,36.81
1602947693.7801,76.0,872.0,58.0,429.02265372162145,36.81
1602947693.782,76.0,872.0,55.0,429.01179147034776,36.81
1602947693.784,76.0,872.0,55.0,429.0001281680952,36.81
1602947693.786,76.0,872.0,55.0,428.9876929439903,36.81
1602947693.788,76.0,872.0,55.0,428.9745149271595,36.81
1602947693.7901,76.0,872.0,58.0,428.9606232467293,36.81
1602947693.792,76.0,872.0,55.0,428.94604703182625,36.81
1602947693.7939,76.0,872.0,51.0,428.9308154115769,36.81
1602947693.796,76.0,872.0,48.0,428.91495751510763,36.81
1602947693.798,76.0,872.0,51.0,428.898502471545,36.81
1602947693.8001,76.0,872.0,53.0,428.8814794100155,36.81
1602947693.802,76.0,872.0,58.0,428.86391745964573,36.81
1602947693.804,76.0,872.0,58.0,428.8458457495621,36.81
1602947693.806,76.0,872.0,58.0,428.82729340889114,36.81
1602947693.808,76.0,872.0,63.0,428.80828956675936,36.81
1602947693.8101,76.0,872.0,68.0,428.7888633522933,36.81
1602947693.812,76.0,872.0,70.0,428.76904389461936,36.81
1602947693.814,76.0,872.0,72.0,428.7488603228641,36.81
1602947693.8162,76.0,872.0,70.0,428.7283417661541,36.81
1602947693.8181,76.0,872.0,63.0,428.70751735361574,36.81
1602947693.82,76.0,872.0,68.0,428.6864162143756,36.81
1602947693.822,76.0,872.0,75.0,428.66506747756017,36.81
1602947693.824,76.0,872.0,75.0,428.64350027229597,36.81
1602947693.826,76.0,872.0,80.0,428.62174372770943,36.81
1602947693.828,76.0,872.0,85.0,428.59982697292713,36.81
1602947693.83,76.0,872.0,80.0,428.5777791370756,36.81
1602947693.832,76.0,872.0,80.0,428.5556293492813,36.81
1602947693.834,76.0,872.0,89.0,428.5334067386707,36.81
1602947693.836,76.0,872.0,94.0,428.51114043437036,36.81
1602947694.2325,76.0,931.0,92.0,428.48885956550686,36.81
1602947694.2331,76.0,931.0,82.0,428.4665932612065,36.81
1602947694.2349,76.0,931.0,80.0,428.44437065059594,36.81
1602947694.2369,76.0,931.0,80.0,428.4222208628016,36.81
1602947694.2389,76.0,931.0,80.0,428.4001730269501,36.81
1602947694.241,76.0,931.0,80.0,428.37825627216785,36.81
1602947694.2429,76.0,931.0,92.0,428.35649972758137,36.81
1602947694.2449,76.0,931.0,111.0,428.3349325223171,36.81
1602947694.2469,76.0,931.0,126.0,428.3135837855017,36.81
1602947694.2488,76.0,931.0,126.0,428.2924826462616,36.81
1602947694.2508,76.0,931.0,116.0,428.27165823372326,36.81
1602947694.2529,76.0,931.0,99.0,428.2511396770132,36.81
1602947694.2549,76.0,931.0,89.0,428.230956105258,36.81
1602947694.2569,76.0,931.0,85.0,428.21113664758406,36.81
1602947694.2589,76.0,931.0,80.0,428.191710433118,36.81
1602947694.2609,76.0,931.0,72.0,428.1727065909862,36.81
1602947694.2628,76.0,931.0,68.0,428.15415425031523,36.81
1602947694.2649,76.0,931.0,72.0,428.1360825402316,36.81
1602947694.2669,76.0,931.0,75.0,428.1185205898618,36.81
1602947694.2689,76.0,931.0,72.0,428.10149752833235,36.81
1602947694.271,76.0,931.0,77.0,428.08504248476976,36.81
1602947694.2784,76.0,931.0,85.0,428.0691845883005,36.81
1602947694.2798,76.0,931.0,75.0,428.0539529680511,36.81
1602947694.2818,76.0,931.0,87.0,428.0393767531481,36.81
1602947694.2839,76.0,931.0,269.0,428.02548507271786,36.81
1602947694.2858,76.0,931.0,583.0,428.01230705588705,36.81
1602947694.2879,76.0,931.0,583.0,427.9998718317821,36.81
1602947694.2898,76.0,931.0,2.0,427.9882085295296,36.81
1602947694.2918,76.0,931.0,-459.0,427.97734627825594,36.81
1602947694.2939,76.0,931.0,-194.0,427.9673142070876,36.81
1602947694.2959,76.0,931.0,133.0,427.9581414451512,36.81
1602947694.2979,76.0,931.0,77.0,427.94985712157325,36.81
1602947694.2999,76.0,931.0,55.0,427.9424903654802,36.81
1602947694.3018,76.0,931.0,133.0,427.9360703059985,36.81
1602947694.3039,76.0,931.0,116.0,427.93062607225477,36.81
1602947694.3059,76.0,931.0,92.0,427.9261867933754,36.81
1602947694.3079,76.0,931.0,121.0,427.922781598487,36.81
1602947694.3098,76.0,931.0,128.0,427.920439616716,36.81
1602947694.3118,76.0,931.0,116.0,427.9191899771889,36.81
1602947694.3138,76.0,931.0,123.0,427.9190618090323,36.81
1602947694.316,76.0,931.0,131.0,427.92008424137265,36.81
1602947694.3179,76.0,931.0,131.0,427.9222864033364,36.81
1602947694.3198,76.0,931.0,136.0,427.9256974240501,36.81
1602947694.3219,76.0,931.0,138.0,427.9303464326403,36.81
1602947694.3238,76.0,931.0,136.0,427.93626255823347,36.81
1602947694.3258,76.0,931.0,140.0,427.94347492995604,36.81
1602947694.3279,76.0,931.0,150.0,427.9520126769346,36.81
1602947694.3299,76.0,931.0,160.0,427.96190492829567,36.81
1602947694.3318,76.0,931.0,172.0,427.9731808131657,36.81
1602947694.3339,76.0,931.0,182.0,427.98586946067127,36.81
1602947694.3359,76.0,931.0,184.0,427.9999999999388,36.81
1602947694.338,76.0,931.0,191.0,427.9999999999388,36.81
1602947694.34,76.0,931.0,199.0,427.9999999999388,36.81
1602947694.3419,76.0,931.0,211.0,427.9999999999388,36.81
1602947694.3438,76.0,931.0,221.0,427.9999999999388,36.81
1602947694.3458,76.0,931.0,225.0,427.9999999999388,36.81
1602947694.3478,76.0,931.0,230.0,427.9999999999388,36.81
1602947694.3498,76.0,931.0,233.0,427.9999999999388,36.81
1602947694.3518,76.0,931.0,233.0,427.9999999999388,36.81
1602947694.3538,76.0,931.0,230.0,427.9999999999388,36.81
1602947694.3558,76.0,931.0,225.0,427.9999999999388,36.81
1602947694.3578,76.0,931.0,216.0,427.9999999999388,36.81
1602947694.3598,76.0,931.0,196.0,427.9999999999388,36.81
1602947694.3619,76.0,931.0,167.0,427.9999999999388,36.81
1602947694.3638,76.0,931.0,133.0,427.9999999999388,36.81
1602947694.3658,76.0,931.0,104.0,427.9999999999388,36.81
1602947694.3678,76.0,931.0,80.0,427.9999999999388,36.81
1602947694.3699,76.0,931.0,51.0,427.9999999999388,36.81
1602947694.3706,76.0,931.0,26.0,427.9999999999388,36.81
1602947694.3729,76.0,931.0,17.0,427.9999999999388,36.81
1602947694.3749,76.0,931.0,14.0,427.9999999999388,36.81
1602947694.377,76.0,931.0,14.0,427.9999999999388,36.81
1602947694.3789,76.0,931.0,12.0,427.9999999999388,36.81
1602947694.8018,76.0,931.0,4.0,427.9999999999388,36.81
1602947694.8027,76.0,931.0,7.0,427.9999999999388,36.81
1602947694.8051,76.0,931.0,19.0,427.9999999999388,36.81
1602947694.8077,76.0,931.0,26.0,427.9999999999388,36.81
1602947694.8097,76.0,931.0,26.0,427.9999999999388,36.81
1602947694.8116,76.0,931.0,26.0,427.9999999999388,36.81
1602947694.8136,76.0,931.0,34.0,427.9999999999388,36.81
1602947694.8156,76.0,931.0,41.0,427.9999999999388,36.81
1602947694.8177,76.0,931.0,36.0,427.9999999999388,36.81
1602947694.8197,76.0,931.0,31.0,427.9999999999388,36.81
1602947694.8204,76.0,931.0,38.0,427.9999999999388,36.81
1602947694.8226,76.0,931.0,48.0,427.9999999999388,36.81
1602947694.8246,76.0,931.0,46.0,427.9999999999388,36.81
1602947694.8266,76.0,931.0,46.0,427.9999999999388,36.81
1602947694.8286,76.0,931.0,53.0,427.9999999999388,36.81
1602947694.8306,76.0,931.0,58.0,427.9999999999388,36.81
1602947694.8326,76.0,931.0,58.0,427.9999999999388,36.81
1602947694.8346,76.0,931.0,60.0,427.9999999999388,36.81
1602947694.8368,76.0,931.0,60.0,427.9999999999388,36.81
1602947694.8387,76.0,931.0,60.0,427.9999999999388,36.81
1602947694.8407,76.0,931.0,60.0,427.9999999999388,36.81
1602947694.8427,76.0,931.0,60.0,427.9999999999388,36.81
1602947694.8446,76.0,931.0,63.0,427.9999999999388,36.81
1602947694.8466,76.0,931.0,63.0,427.9999999999388,36.81
1602947694.8487,76.0,931.0,60.0,427.9999999999388,36.81
1602947694.8507,76.0,931.0,55.0,427.9999999999388,36.81
1602947694.8515,76.0,931.0,53.0,427.9999999999388,36.81
1602947694.8536,76.0,931.0,60.0,427.9999999999388,36.81
1602947694.8556,76.0,931.0,63.0,427.9999999999388,36.81
1602947694.8576,76.0,931.0,60.0,427.9999999999388,36.81
1602947694.8596,76.0,931.0,63.0,427.9999999999388,36.81
1602947694.8616,76.0,931.0,58.0,427.9999999999388,36.81
1602947694.8637,76.0,931.0,58.0,427.9999999999388,36.81
1602947694.8657,76.0,931.0,65.0,427.9999999999388,36.81
1602947694.8677,76.0,931.0,70.0,427.9999999999388,36.81
1602947694.8696,76.0,931.0,70.0,427.9999999999388,36.81
1602947694.8716,76.0,931.0,65.0,427.9999999999388,36.81
1602947694.8736,76.0,931.0,58.0,427.9999999999388,36.81
1602947694.8756,76.0,931.0,60.0,427.9999999999388,36.81
1602947694.8776,76.0,931.0,65.0,427.9999999999388,36.81
1602947694.8796,76.0,931.0,68.0,427.9999999999388,36.81
1602947694.8816,76.0,931.0,70.0,427.9999999999388,36.81
1602947694.8823,76.0,931.0,70.0,427.9999999999388,36.81
1602947694.8846,76.0,931.0,70.0,427.9999999999388,36.81
1602947694.8867,76.0,931.0,68.0,427.9999999999388,36.81
1602947694.8886,76.0,931.0,72.0,427.9999999999388,36.81
1602947694.8906,76.0,931.0,75.0,427.9999999999388,36.81
1602947694.8926,76.0,931.0,77.0,427.9999999999388,36.81
1602947694.8947,76.0,931.0,77.0,427.9999999999388,36.81
1602947694.8966,76.0,931.0,77.0,427.9999999999388,36.81
1602947694.8986,76.0,931.0,77.0,427.9999999999388,36.81
1602947694.9006,76.0,931.0,75.0,427.9999999999388,36.81
1602947694.9026,76.0,931.0,77.0,427.9999999999388,36.81
1602947694.9046,76.0,931.0,89.0,427.9999999999388,36.81
1602947694.9066,76.0,931.0,114.0,427.9999999999388,36.81
1602947694.9086,76.0,931.0,126.0,427.9999999999388,36.81
1602947694.9106,76.0,931.0,116.0,427.9999999999388,36.81
1602947694.9126,76.0,931.0,102.0,427.9999999999388,36.81
1602947694.9133,76.0,931.0,97.0,427.9999999999388,36.81
1602947694.9156,76.0,931.0,94.0,427.9999999999388,36.81
1602947694.9176,76.0,931.0,82.0,427.9999999999388,36.81
1602947694.9196,76.0,931.0,75.0,427.9999999999388,36.81
1602947694.9217,76.0,931.0,70.0,427.9999999999388,36.81
1602947694.9236,76.0,931.0,70.0,427.9999999999388,36.81
1602947694.9256,76.0,931.0,75.0,427.9999999999388,36.81
1602947694.9276,76.0,931.0,77.0,427.9999999999388,36.81
1602947694.9296,76.0,931.0,80.0,427.9999999999388,36.81
1602947694.9316,76.0,931.0,82.0,427.9999999999388,36.81
1602947694.9337,76.0,931.0,77.0,427.9999999999388,36.81
1602947694.9358,76.0,931.0,70.0,427.9999999999388,36.81
1602947694.9376,76.0,931.0,155.0,427.9999999999388,36.81
1602947694.9397,76.0,931.0,415.0,427.9999999999388,36.81
1602947694.9416,76.0,931.0,624.0,427.9999999999388,36.81
1602947695.3717,75.0,955.0,308.0,427.9999999999388,36.81
1602947695.3728,75.0,955.0,-320.0,427.9999999999388,36.81
1602947695.3751,75.0,955.0,-388.0,427.9999999999388,36.81
1602947695.3778,75.0,955.0,21.0,427.9999999999388,36.81
1602947695.3799,75.0,955.0,136.0,427.9999999999388,36.81
1602947695.3818,75.0,955.0,46.0,427.9999999999388,36.81
1602947695.3839,75.0,955.0,99.0,427.9999999999388,36.81
1602947695.3858,75.0,955.0,133.0,427.9999999999388,36.81
1602947695.3878,75.0,955.0,97.0,427.9999999999388,36.81
1602947695.3898,75.0,955.0,99.0,427.9999999999388,36.81
1602947695.3917,75.0,955.0,109.0,427.9999999999388,36.81
1602947695.3937,75.0,955.0,99.0,427.9999999999388,36.81
1602947695.3957,75.0,955.0,104.0,427.9999999999388,36.81
1602947695.3977,75.0,955.0,111.0,427.9999999999388,36.81
1602947695.3985,75.0,955.0,109.0,427.9999999999388,36.81
1602947695.4007,75.0,955.0,114.0,427.9999999999388,36.81
1602947695.4027,75.0,955.0,119.0,427.9999999999388,36.81
1602947695.4047,75.0,955.0,119.0,427.9999999999388,36.81
1602947695.4067,75.0,955.0,123.0,427.9999999999388,36.81
1602947695.4087,75.0,955.0,133.0,427.9999999999388,36.81
1602947695.4107,75.0,955.0,138.0,427.9999999999388,36.81
1602947695.4127,75.0,955.0,140.0,427.9999999999388,36.81
1602947695.4147,75.0,955.0,148.0,427.9999999999388,36.81
1602947695.4167,75.0,955.0,160.0,427.9999999999388,36.81
1602947695.4187,75.0,955.0,170.0,427.9999999999388,36.81
1602947695.4207,75.0,955.0,179.0,427.9999999999388,36.81
1602947695.4227,75.0,955.0,189.0,427.9999999999388,36.81
1602947695.4247,75.0,955.0,199.0,427.9999999999388,36.81
1602947695.4267,75.0,955.0,208.0,427.9999999999388,36.81
1602947695.4287,75.0,955.0,208.0,427.9999999999388,36.81
1602947695.4294,75.0,955.0,208.0,427.9999999999388,36.81
1602947695.4317,75.0,955.0,213.0,427.9999999999388,36.81
1602947695.4337,75.0,955.0,213.0,427.9999999999388,36.81
1602947695.4357,75.0,955.0,204.0,427.9999999999388,36.81
1602947695.4377,75.0,955.0,194.0,427.9999999999388,36.81
1602947695.4397,75.0,955.0,182.0,427.9999999999388,36.81
1602947695.4417,75.0,955.0,157.0,427.9999999999388,36.81
1602947695.4437,75.0,955.0,126.0,427.9999999999388,36.81
1602947695.4457,75.0,955.0,99.0,427.9999999999388,36.81
1602947695.4477,75.0,955.0,75.0,427.9999999999388,36.81
1602947695.4497,75.0,955.0,51.0,427.9999999999388,36.81
1602947695.4517,75.0,955.0,29.0,427.9999999999388,36.81
1602947695.4537,75.0,955.0,14.0,427.9999999999388,36.81
1602947695.4557,75.0,955.0,9.0,427.9999999999388,36.81
1602947695.4577,75.0,955.0,4.0,427.9999999999388,36.81
1602947695.4597,75.0,955.0,2.0,427.9999999999388,36.81
1602947695.4604,75.0,955.0,4.0,427.9999999999388,36.81
1602947695.4619,75.0,955.0,4.0,427.9999999999388,36.81
1602947695.4637,75.0,955.0,7.0,427.9999999999388,36.81
1602947695.4657,75.0,955.0,9.0,427.9999999999388,36.81
1602947695.4677,75.0,955.0,17.0,427.9999999999388,36.81
1602947695.4697,75.0,955.0,24.0,427.9999999999388,36.81
1602947695.4717,75.0,955.0,29.0,427.9999999999388,36.81
1602947695.4737,75.0,955.0,31.0,427.9999999999388,36.81
1602947695.4757,75.0,955.0,38.0,427.9999999999388,36.81
1602947695.4777,75.0,955.0,43.0,427.9999999999388,36.81
1602947695.4797,75.0,955.0,48.0,427.9999999999388,36.81
1602947695.4817,75.0,955.0,53.0,427.9999999999388,36.81
1602947695.4837,75.0,955.0,58.0,427.9999999999388,36.81
1602947695.4857,75.0,955.0,60.0,427.9999999999388,36.81
1602947695.4877,75.0,955.0,60.0,427.9999999999388,36.81
1602947695.4897,75.0,955.0,65.0,427.9999999999388,36.81
1602947695.4904,75.0,955.0,68.0,427.9999999999388,36.81
1602947695.4927,75.0,955.0,65.0,427.9999999999388,36.81
1602947695.4947,75.0,955.0,63.0,427.9999999999388,36.81
1602947695.4967,75.0,955.0,63.0,427.9999999999388,36.81
1602947695.4987,75.0,955.0,65.0,427.9999999999388,36.81
1602947695.5007,75.0,955.0,63.0,427.9999999999388,36.81
1602947695.5027,75.0,955.0,63.0,427.9999999999388,36.81
1602947695.5047,75.0,955.0,65.0,427.9999999999388,36.81
1602947695.5067,75.0,955.0,65.0,427.9999999999388,36.81
1602947695.5087,75.0,955.0,63.0,427.9999999999388,36.81
1602947695.5107,75.0,955.0,60.0,427.9999999999388,36.81
1602947695.8818,75.0,955.0,63.0,427.9999999999388,36.81
1602947695.8824,75.0,955.0,68.0,427.9999999999388,36.81
1602947695.8848,75.0,955.0,68.0,427.9999999999388,36.81
1602947695.8875,75.0,955.0,68.0,427.9999999999388,36.81
1602947695.8882,75.0,955.0,68.0,427.9999999999388,36.81
1602947695.8905,75.0,955.0,70.0,427.9999999999388,36.81
1602947695.8924,75.0,955.0,70.0,427.9999999999388,36.81
1602947695.8944,75.0,955.0,68.0,427.9999999999388,36.81
1602947695.8964,75.0,955.0,68.0,427.9999999999388,36.81
1602947695.8985,75.0,955.0,72.0,427.9999999999388,36.81
1602947695.9004,75.0,955.0,68.0,427.9999999999388,36.81
1602947695.9024,75.0,955.0,55.0,427.9999999999388,36.81
1602947695.9044,75.0,955.0,58.0,427.9999999999388,36.81
1602947695.9064,75.0,955.0,65.0,427.9999999999388,36.81
1602947695.9084,75.0,955.0,65.0,427.9999999999388,36.81
1602947695.9104,75.0,955.0,65.0,427.9999999999388,36.81
1602947695.9124,75.0,955.0,68.0,427.9999999999388,36.81
1602947695.9144,75.0,955.0,70.0,427.9999999999388,36.81
1602947695.9164,75.0,955.0,70.0,427.9999999999388,36.81
1602947695.9184,75.0,955.0,72.0,427.9999999999388,36.81
1602947695.9191,75.0,955.0,75.0,427.9999999999388,36.81
1602947695.9214,75.0,955.0,70.0,427.9999999999388,36.81
1602947695.9234,75.0,955.0,63.0,427.9999999999388,36.81
1602947695.9254,75.0,955.0,58.0,427.9999999999388,36.81
1602947695.9274,75.0,955.0,68.0,427.9999999999388,36.81
1602947695.9296,75.0,955.0,85.0,427.9999999999388,36.81
1602947695.9314,75.0,955.0,102.0,427.9999999999388,36.81
1602947695.9334,75.0,955.0,114.0,427.9999999999388,36.81
1602947695.9354,75.0,955.0,106.0,427.9999999999388,36.81
1602947695.9374,75.0,955.0,89.0,427.9999999999388,36.81
1602947695.9394,75.0,955.0,89.0,427.9999999999388,36.81
1602947695.9414,75.0,955.0,92.0,427.9999999999388,36.81
1602947695.9434,75.0,955.0,82.0,427.9999999999388,36.81
1602947695.9454,75.0,955.0,70.0,427.9999999999388,36.81
1602947695.9474,75.0,955.0,68.0,427.9999999999388,36.81
1602947695.9495,75.0,955.0,68.0,427.9999999999388,36.81
1602947695.9502,75.0,955.0,70.0,427.9999999999388,36.81
1602947695.9514,75.0,955.0,75.0,427.9999999999388,36.81
1602947695.9534,75.0,955.0,80.0,427.9999999999388,36.81
1602947695.9554,75.0,955.0,77.0,427.9999999999388,36.81
1602947695.9574,75.0,955.0,65.0,427.9999999999388,36.81
1602947695.9594,75.0,955.0,60.0,427.9999999999388,36.81
1602947695.9614,75.0,955.0,155.0,427.9999999999388,36.81
1602947695.9634,75.0,955.0,422.0,427.9999999999388,36.81
1602947695.9654,75.0,955.0,609.0,427.9999999999388,36.81
1602947695.9674,75.0,955.0,269.0,427.9999999999388,36.81
1602947695.9695,75.0,955.0,-344.0,427.9999999999388,36.81
1602947695.9715,75.0,955.0,-378.0,427.9999999999388,36.81
1602947695.9734,75.0,955.0,19.0,427.9999999999388,36.81
1602947695.9754,75.0,955.0,114.0,427.9999999999388,36.81
1602947695.9774,75.0,955.0,41.0,427.9999999999388,36.81
1602947695.9794,75.0,955.0,102.0,427.9999999999388,36.81
1602947695.9815,75.0,955.0,126.0,427.9999999999388,36.81
1602947695.9834,75.0,955.0,89.0,427.9999999999388,36.81
1602947695.9855,75.0,955.0,99.0,427.9999999999388,36.81
1602947695.9875,75.0,955.0,119.0,427.9999999999388,36.81
1602947695.9894,75.0,955.0,111.0,427.9999999999388,36.81
1602947695.9914,75.0,955.0,111.0,427.9999999999388,36.81
1602947695.9934,75.0,955.0,119.0,427.9999999999388,36.81
1602947695.9954,75.0,955.0,121.0,427.9999999999388,36.81
1602947695.9974,75.0,955.0,123.0,427.9999999999388,36.81
1602947695.9994,75.0,955.0,131.0,427.9999999999388,36.81
1602947696.0015,75.0,955.0,136.0,427.9999999999388,36.81
1602947696.0034,75.0,955.0,143.0,427.9999999999388,36.81
1602947696.0054,75.0,955.0,145.0,427.9999999999388,36.81
1602947696.0074,75.0,955.0,148.0,427.9999999999388,36.81
1602947696.0094,75.0,955.0,155.0,427.9999999999388,36.81
1602947696.0114,75.0,955.0,165.0,427.9999999999388,36.81
1602947696.0134,75.0,955.0,172.0,427.9999999999388,36.81
1602947696.0154,75.0,955.0,179.0,427.9999999999388,36.81
1602947696.0174,75.0,955.0,187.0,427.9999999999388,36.81
1602947696.0194,75.0,955.0,196.0,427.9999999999388,36.81
1602947696.0215,75.0,955.0,204.0,427.9999999999388,36.81
1602947696.452,74.0,968.0,208.0,427.9999999999388,36.81
1602947696.4525,74.0,968.0,218.0,427.9999999999388,36.81
1602947696.455,74.0,968.0,221.0,427.9999999999388,36.81
1602947696.4578,74.0,968.0,218.0,427.9999999999388,36.81
1602947696.4596,74.0,968.0,204.0,427.9999999999388,36.81
1602947696.4616,74.0,968.0,189.0,427.9999999999388,36.81
1602947696.4636,74.0,968.0,184.0,427.9999999999388,36.81
1602947696.4656,74.0,968.0,172.0,427.9999999999388,36.81
1602947696.4676,74.0,968.0,145.0,427.9999999999388,36.81
1602947696.4697,74.0,968.0,119.0,427.9999999999388,36.81
1602947696.4716,74.0,968.0,89.0,427.9999999999388,36.81
1602947696.4736,74.0,968.0,58.0,427.9999999999388,36.81
1602947696.4756,74.0,968.0,38.0,427.9999999999388,36.81
1602947696.4776,74.0,968.0,17.0,427.9999999999388,36.81
1602947696.4796,74.0,968.0,-2.0,427.9999999999388,36.81
1602947696.4816,74.0,968.0,-14.0,427.9999999999388,36.81
1602947696.4836,74.0,968.0,-17.0,427.9999999999388,36.81
1602947696.4856,74.0,968.0,-14.0,427.9999999999388,36.81
1602947696.4876,74.0,968.0,-14.0,427.9999999999388,36.81
1602947696.4896,74.0,968.0,-12.0,427.9999999999388,36.81
1602947696.4915,74.0,968.0,-7.0,427.9999999999388,36.81
1602947696.4935,74.0,968.0,2.0,427.9999999999388,36.81
1602947696.4955,74.0,968.0,9.0,427.9999999999388,36.81
1602947696.4976,74.0,968.0,12.0,427.9999999999388,36.81
1602947696.4995,74.0,968.0,19.0,427.9999999999388,36.81
1602947696.5016,74.0,968.0,31.0,427.9999999999388,36.81
1602947696.5036,74.0,968.0,36.0,427.9999999999388,36.81
1602947696.5056,74.0,968.0,41.0,427.9999999999388,36.81
1602947696.5075,74.0,968.0,41.0,427.9999999999388,36.81
1602947696.5095,74.0,968.0,46.0,427.9999999999388,36.81
1602947696.5116,74.0,968.0,51.0,427.9999999999388,36.81
1602947696.5136,74.0,968.0,48.0,427.9999999999388,36.81
1602947696.5156,74.0,968.0,51.0,427.9999999999388,36.81
1602947696.5176,74.0,968.0,55.0,427.9999999999388,36.81
1602947696.5196,74.0,968.0,55.0,427.9999999999388,36.81
1602947696.5216,74.0,968.0,58.0,427.9999999999388,36.81
1602947696.5236,74.0,968.0,58.0,427.9999999999388,36.81
1602947696.5255,74.0,968.0,58.0,427.9999999999388,36.81
1602947696.5276,74.0,968.0,60.0,427.9999999999388,36.81
1602947696.5296,74.0,968.0,58.0,427.9999999999388,36.81
1602947696.5316,74.0,968.0,55.0,427.9999999999388,36.81
1602947696.5335,74.0,968.0,55.0,427.9999999999388,36.81
1602947696.5356,74.0,968.0,55.0,427.9999999999388,36.81
1602947696.5375,74.0,968.0,55.0,427.9999999999388,36.81
1602947696.5395,74.0,968.0,55.0,427.9999999999388,36.81
1602947696.5416,74.0,968.0,58.0,427.9999999999388,36.81
1602947696.5435,74.0,968.0,58.0,427.9999999999388,36.81
1602947696.5455,74.0,968.0,55.0,427.9999999999388,36.81
1602947696.5476,74.0,968.0,60.0,427.9999999999388,36.81
1602947696.5495,74.0,968.0,63.0,427.9999999999388,36.81
1602947696.5516,74.0,968.0,60.0,427.9999999999388,36.81
1602947696.5535,74.0,968.0,63.0,427.9999999999388,36.81
1602947696.5556,74.0,968.0,63.0,427.9999999999388,36.81
1602947696.5575,74.0,968.0,65.0,427.9999999999388,36.81
1602947696.5597,74.0,968.0,68.0,427.9999999999388,36.81
1602947696.5616,74.0,968.0,68.0,427.9999999999388,36.81
1602947696.5635,74.0,968.0,68.0,427.9999999999388,36.81
1602947696.5655,74.0,968.0,70.0,427.9999999999388,36.81
1602947696.5675,74.0,968.0,72.0,427.9999999999388,36.81
1602947696.5695,74.0,968.0,72.0,427.9999999999388,36.81
1602947696.5716,74.0,968.0,72.0,427.9999999999388,36.81
1602947696.5735,74.0,968.0,77.0,427.9999999999388,36.81
1602947696.5755,74.0,968.0,75.0,427.9999999999388,36.81
1602947696.5775,74.0,968.0,72.0,427.9999999999388,36.81
1602947696.5796,74.0,968.0,72.0,427.9999999999388,36.81
1602947696.5815,74.0,968.0,72.0,427.9999999999388,36.81
1602947696.5835,74.0,968.0,72.0,427.9999999999388,36.81
1602947696.5855,74.0,968.0,72.0,427.9999999999388,36.81
1602947696.5875,74.0,968.0,80.0,427.9999999999388,36.81
1602947696.5895,74.0,968.0,97.0,427.9999999999388,36.81
1602947696.5916,74.0,968.0,114.0,427.9999999999388,36.81
1602947696.5935,74.0,968.0,119.0,427.9999999999388,36.81
1602947696.5955,74.0,968.0,106.0,427.9999999999388,36.81
1602947697.0519,74.0,968.0,97.0,427.9999999999388,36.81
1602947697.0527,74.0,968.0,97.0,427.9999999999388,36.81
1602947697.0552,74.0,968.0,89.0,427.9999999999388,36.81
1602947697.0578,74.0,968.0,77.0,427.9999999999388,36.81
1602947697.0597,74.0,968.0,70.0,427.9999999999388,36.81
1602947697.0617,74.0,968.0,60.0,427.9999999999388,36.81
1602947697.0638,74.0,968.0,51.0,427.9999999999388,36.81
1602947697.0657,74.0,968.0,51.0,427.9999999999388,36.81
1602947697.0677,74.0,968.0,51.0,427.9999999999388,36.81
1602947697.0697,74.0,968.0,53.0,427.9999999999388,36.81
1602947697.0717,74.0,968.0,58.0,427.9999999999388,36.81
1602947697.0737,74.0,968.0,48.0,427.9999999999388,36.81
1602947697.0757,74.0,968.0,60.0,427.9999999999388,36.81
1602947697.0777,74.0,968.0,216.0,427.9999999999388,36.81
1602947697.0797,74.0,968.0,505.0,427.9999999999388,36.81
1602947697.0817,74.0,968.0,553.0,427.9999999999388,36.81
1602947697.0837,74.0,968.0,43.0,427.9999999999388,36.81
1602947697.0857,74.0,968.0,-454.0,427.9999999999388,36.81
1602947697.0877,74.0,968.0,-259.0,427.9999999999388,36.81
1602947697.0897,74.0,968.0,94.0,427.9999999999388,36.81
1602947697.0917,74.0,968.0,77.0,427.9999999999388,36.81
1602947697.0937,74.0,968.0,38.0,427.9999999999388,36.81
1602947697.0957,74.0,968.0,111.0,427.9999999999388,36.81
1602947697.0977,74.0,968.0,104.0,428.0141305392063,36.81
1602947697.0997,74.0,968.0,77.0,428.0268191867118,36.81
1602947697.1017,74.0,968.0,102.0,428.03809507158184,36.81
1602947697.1037,74.0,968.0,111.0,428.0479873229429,36.81
1602947697.1057,74.0,968.0,102.0,428.05652506992146,36.81
1602947697.1077,74.0,968.0,104.0,428.0637374416441,36.81
1602947697.1097,74.0,968.0,116.0,428.06965356723725,36.81
1602947697.1117,74.0,968.0,119.0,428.0743025758274,36.81
1602947697.1137,74.0,968.0,121.0,428.0777135965411,36.81
1602947697.1159,74.0,968.0,128.0,428.0799157585049,36.81
1602947697.1177,74.0,968.0,133.0,428.08093819084525,36.81
1602947697.1197,74.0,968.0,138.0,428.0808100226886,36.81
1602947697.1217,74.0,968.0,148.0,428.07956038316155,36.81
1602947697.1237,74.0,968.0,150.0,428.07721840139055,36.81
1602947697.1256,74.0,968.0,157.0,428.0738132065021,36.81
1602947697.1277,74.0,968.0,167.0,428.0693739276228,36.81
1602947697.1297,74.0,968.0,177.0,428.063929693879,36.81
1602947697.1316,74.0,968.0,179.0,428.0575096343973,36.81
1602947697.1336,74.0,968.0,189.0,428.05014287830426,36.81
1602947697.1357,74.0,968.0,201.0,428.0418585547263,36.81
1602947697.1376,74.0,968.0,213.0,428.0326857927899,36.81
1602947697.1396,74.0,968.0,218.0,428.0226537216216,36.81
1602947697.1416,74.0,968.0,223.0,428.01179147034793,36.81
1602947697.1437,74.0,968.0,225.0,428.0001281680954,36.81
1602947697.1457,74.0,968.0,223.0,427.98769294399045,36.81
1602947697.1477,74.0,968.0,218.0,427.97451492715965,36.81
1602947697.1496,74.0,968.0,213.0,427.9606232467295,36.81
1602947697.1517,74.0,968.0,201.0,427.9460470318264,36.81
1602947697.1537,74.0,968.0,184.0,427.930815411577,36.81
1602947697.1556,74.0,968.0,157.0,427.91495751510774,36.81
1602947697.1576,74.0,968.0,128.0,427.89850247154516,36.81
1602947697.1597,74.0,968.0,97.0,427.8814794100157,36.81
1602947697.1616,74.0,968.0,70.0,427.8639174596459,36.81
1602947697.1636,74.0,968.0,46.0,427.8458457495623,36.81
1602947697.1656,74.0,968.0,21.0,427.8272934088913,36.81
1602947697.1677,74.0,968.0,7.0,427.8082895667595,36.81
1602947697.1696,74.0,968.0,4.0,427.7888633522934,36.81
1602947697.1717,74.0,968.0,-2.0,427.7690438946195,36.81
1602947697.1736,74.0,968.0,-4.0,427.74886032286423,36.81
1602947697.1756,74.0,968.0,0.0,427.7283417661542,36.81
1602947697.1776,74.0,968.0,2.0,427.70751735361586,36.81
1602947697.1796,74.0,968.0,4.0,427.6864162143757,36.81
1602947697.1816,74.0,968.0,12.0,427.6650674775602,36.81
1602947697.1837,74.0,968.0,19.0,427.643500272296,36.81
1602947697.1857,74.0,968.0,21.0,427.62174372770954,36.81
1602947697.1877,74.0,968.0,29.0,427.59982697292725,36.81
1602947697.1896,74.0,968.0,34.0,427.5777791370757,36.81
1602947697.1917,74.0,968.0,36.0,427.55562934928145,36.81
1602947697.1936,74.0,968.0,38.0,427.53340673867086,36.81
1602947697.1956,74.0,968.0,43.0,427.51114043437053,36.81
1602947697.5918,73.0,941.0,38.0,427.48885956550697,36.75
1602947697.5924,73.0,941.0,38.0,427.46659326120664,36.75
1602947697.5948,73.0,941.0,41.0,427.44437065059606,36.75
1602947697.5974,73.0,941.0,46.0,427.42222086280174,36.75
1602947697.5994,73.0,941.0,51.0,427.4001730269502,36.75
1602947697.6014,73.0,941.0,51.0,427.3782562721679,36.75
1602947697.6035,73.0,941.0,51.0,427.3564997275815,36.75
1602947697.6054,73.0,941.0,51.0,427.3349325223173,36.75
1602947697.6074,73.0,941.0,51.0,427.31358378550186,36.75
1602947697.6094,73.0,941.0,48.0,427.2924826462617,36.75
1602947697.6117,73.0,941.0,36.0,427.2716582337234,36.75
1602947697.6134,73.0,941.0,29.0,427.2511396770133,36.75
1602947697.6154,73.0,941.0,34.0,427.23095610525814,36.75
1602947697.6175,73.0,941.0,34.0,427.2111366475843,36.75
1602947697.6194,73.0,941.0,26.0,427.1917104331181,36.75
1602947697.6215,73.0,941.0,31.0,427.17270659098637,36.75
1602947697.6234,73.0,941.0,38.0,427.15415425031534,36.75
1602947697.6254,73.0,941.0,38.0,427.1360825402318,36.75
1602947697.6275,73.0,941.0,36.0,427.11852058986193,36.75
1602947697.6294,73.0,941.0,38.0,427.1014975283326,36.75
1602947697.6314,73.0,941.0,41.0,427.08504248477,36.75
1602947697.6334,73.0,941.0,43.0,427.06918458830074,36.75
1602947697.6354,73.0,941.0,43.0,427.0539529680513,36.75
1602947697.6374,73.0,941.0,48.0,427.02524621388073,36.75
1602947697.6394,73.0,941.0,55.0,426.99866588594506,36.75
1602947697.6414,73.0,941.0,53.0,426.97421198424416,36.75
1602947697.6434,73.0,941.0,48.0,426.95188450877816,36.75
1602947697.6454,73.0,941.0,53.0,426.93168345954706,36.75
1602947697.6474,73.0,941.0,58.0,426.91360883655074,36.75
1602947697.6494,73.0,941.0,60.0,426.8976606397893,36.75
1602947697.6514,73.0,941.0,63.0,426.8838388692628,36.75
1602947697.6534,73.0,941.0,65.0,426.87214352497114,36.75
1602947697.6554,73.0,941.0,65.0,426.8625746069143,36.75
1602947697.6574,73.0,941.0,65.0,426.8551321150922,36.75
1602947697.6594,73.0,941.0,65.0,426.84981604950514,36.75
1602947697.6614,73.0,941.0,65.0,426.84662641015285,36.75
1602947697.6634,73.0,941.0,63.0,426.84556319703535,36.75
1602947697.6654,73.0,941.0,70.0,426.84662641015285,36.75
1602947697.6674,73.0,941.0,82.0,426.84981604950514,36.75
1602947697.6694,73.0,941.0,104.0,426.8551321150922,36.75
1602947697.6714,73.0,941.0,119.0,426.8625746069143,36.75
1602947697.6734,73.0,941.0,106.0,426.87214352497114,36.75
1602947697.6754,73.0,941.0,92.0,426.8838388692628,36.75
1602947697.6774,73.0,941.0,92.0,426.8976606397893,36.75
1602947697.6795,73.0,941.0,87.0,426.91360883655074,36.75
1602947697.6814,73.0,941.0,75.0,426.93168345954706,36.75
1602947697.6834,73.0,941.0,72.0,426.95188450877816,36.75
1602947697.6854,73.0,941.0,70.0,426.97421198424416,36.75
1602947697.6874,73.0,941.0,65.0,426.99866588594506,36.75
1602947697.6894,73.0,941.0,63.0,427.02524621388073,36.75
1602947697.6914,73.0,941.0,70.0,427.0539529680513,36.75
1602947697.6934,73.0,941.0,77.0,427.06918458830074,36.75
1602947697.6954,73.0,941.0,82.0,427.08504248477,36.75
1602947697.6974,73.0,941.0,72.0,427.1014975283326,36.75
1602947697.6994,73.0,941.0,60.0,427.11852058986193,36.75
1602947697.7014,73.0,941.0,157.0,427.1360825402318,36.75
1602947697.7034,73.0,941.0,432.0,427.15415425031534,36.75
1602947697.7054,73.0,941.0,621.0,427.17270659098637,36.75
1602947697.7074,73.0,941.0,264.0,427.1917104331181,36.75
1602947697.7094,73.0,941.0,-366.0,427.2111366475843,36.75
1602947697.7114,73.0,941.0,-391.0,427.23095610525814,36.75
1602947697.7135,73.0,941.0,19.0,427.2511396770133,36.75
1602947697.7154,73.0,941.0,109.0,427.2716582337234,36.75
1602947697.7174,73.0,941.0,41.0,427.2924826462617,36.75
1602947697.7194,73.0,941.0,106.0,427.31358378550186,36.75
1602947697.7214,73.0,941.0,126.0,427.3349325223173,36.75
1602947697.7234,73.0,941.0,87.0,427.3564997275815,36.75
1602947697.7254,73.0,941.0,102.0,427.3782562721679,36.75
1602947697.7274,73.0,941.0,119.0,427.4001730269502,36.75
1602947697.7294,73.0,941.0,106.0,427.42222086280174,36.75
1602947697.7314,73.0,941.0,111.0,427.44437065059606,36.75
1602947697.7334,73.0,941.0,123.0,427.46659326120664,36.75
1602947697.7354,73.0,941.0,116.0,427.48885956550697,36.75
1602947698.1618,73.0,941.0,116.0,427.51114043437053,36.81
1602947698.1626,73.0,941.0,128.0,427.53340673867086,36.81
1602947698.165,73.0,941.0,136.0,427.55562934928145,36.81
1602947698.1677,73.0,941.0,143.0,427.5777791370757,36.81
1602947698.1697,73.0,941.0,148.0,427.59982697292725,36.81
1602947698.1716,73.0,941.0,150.0,427.62174372770954,36.81
1602947698.1737,73.0,941.0,157.0,427.643500272296,36.81
1602947698.1756,73.0,941.0,155.0,427.6650674775602,36.81
1602947698.1776,73.0,941.0,155.0,427.6864162143757,36.81
1602947698.1796,73.0,941.0,172.0,427.70751735361586,36.81
1602947698.1816,73.0,941.0,184.0,427.7283417661542,36.81
1602947698.1836,73.0,941.0,191.0,427.74886032286423,36.81
1602947698.1856,73.0,941.0,199.0,427.7690438946195,36.81
1602947698.1876,73.0,941.0,213.0,427.7888633522934,36.81
1602947698.1896,73.0,941.0,223.0,427.8082895667595,36.81
1602947698.1913,73.0,941.0,221.0,427.8272934088913,36.81
1602947698.1926,73.0,941.0,216.0,427.8458457495623,36.81
1602947698.1946,73.0,941.0,213.0,427.8639174596459,36.81
1602947698.1966,73.0,941.0,206.0,427.8814794100157,36.81
1602947698.1987,73.0,941.0,196.0,427.89850247154516,36.81
1602947698.2006,73.0,941.0,184.0,427.91495751510774,36.81
1602947698.2026,73.0,941.0,167.0,427.930815411577,36.81
1602947698.2046,73.0,941.0,133.0,427.9460470318264,36.81
1602947698.2066,73.0,941.0,99.0,427.9606232467295,36.81
1602947698.2086,73.0,941.0,72.0,427.97451492715965,36.81
1602947698.2106,73.0,941.0,46.0,427.98769294399045,36.81
1602947698.2126,73.0,941.0,24.0,428.0001281680954,36.81
1602947698.2146,73.0,941.0,14.0,428.01179147034793,36.81
1602947698.2166,73.0,941.0,9.0,428.0226537216216,36.81
1602947698.2186,73.0,941.0,7.0,428.0326857927899,36.81
1602947698.2206,73.0,941.0,4.0,428.0418585547263,36.81
1602947698.2226,73.0,941.0,-2.0,428.05014287830426,36.81
1602947698.2246,73.0,941.0,2.0,428.0575096343973,36.81
1602947698.2266,73.0,941.0,9.0,428.063929693879,36.81
1602947698.2286,73.0,941.0,9.0,428.0693739276228,36.81
1602947698.2306,73.0,941.0,7.0,428.0738132065021,36.81
1602947698.2326,73.0,941.0,4.0,428.07721840139055,36.81
1602947698.2346,73.0,941.0,12.0,428.07956038316155,36.81
1602947698.2366,73.0,941.0,19.0,428.0808100226886,36.81
1602947698.2387,73.0,941.0,24.0,428.08093819084525,36.81
1602947698.2406,73.0,941.0,31.0,428.0799157585049,36.81
1602947698.2426,73.0,941.0,36.0,428.0777135965411,36.81
1602947698.2446,73.0,941.0,41.0,428.0743025758274,36.81
1602947698.2466,73.0,941.0,43.0,428.06965356723725,36.81
1602947698.2486,73.0,941.0,43.0,428.0637374416441,36.81
1602947698.2506,73.0,941.0,46.0,428.05652506992146,36.81
1602947698.2526,73.0,941.0,48.0,428.0479873229429,36.81
1602947698.2546,73.0,941.0,51.0,428.03809507158184,36.81
1602947698.2566,73.0,941.0,53.0,428.0268191867118,36.81
1602947698.2586,73.0,941.0,53.0,428.0141305392063,36.81
1602947698.2606,73.0,941.0,53.0,427.9999999999388,36.81
1602947698.2626,73.0,941.0,51.0,427.9999999999388,36.81
1602947698.2646,73.0,941.0,51.0,427.9999999999388,36.81
1602947698.2666,73.0,941.0,53.0,427.9999999999388,36.81
1602947698.2686,73.0,941.0,48.0,427.9999999999388,36.81
1602947698.2706,73.0,941.0,43.0,427.9999999999388,36.81
1602947698.2726,73.0,941.0,46.0,427.9999999999388,36.81
1602947698.2746,73.0,941.0,46.0,427.9999999999388,36.81
1602947698.2766,73.0,941.0,46.0,427.9999999999388,36.81
1602947698.2786,73.0,941.0,43.0,427.9999999999388,36.81
1602947698.2806,73.0,941.0,43.0,427.9999999999388,36.81
1602947698.2826,73.0,941.0,43.0,427.9999999999388,36.81
1602947698.2846,73.0,941.0,43.0,427.9999999999388,36.81
1602947698.2866,73.0,941.0,46.0,427.9999999999388,36.81
1602947698.2886,73.0,941.0,48.0,427.9999999999388,36.81
1602947698.2906,73.0,941.0,51.0,427.9999999999388,36.81
1602947698.2926,73.0,941.0,53.0,427.9999999999388,36.81
1602947698.2946,73.0,941.0,55.0,427.9999999999388,36.81
1602947698.2966,73.0,941.0,53.0,427.9999999999388,36.81
1602947698.2986,73.0,941.0,48.0,427.9999999999388,36.81
1602947698.3006,73.0,941.0,51.0,427.9999999999388,36.81
1602947698.3026,73.0,941.0,55.0,427.9999999999388,36.81
1602947698.3046,73.0,941.0,55.0,427.9999999999388,36.81
1602947698.7017,72.0,929.0,55.0,427.9999999999388,36.81
1602947698.7025,72.0,929.0,55.0,427.9999999999388,36.81
1602947698.705,72.0,929.0,53.0,427.9999999999388,36.81
1602947698.7077,72.0,929.0,63.0,427.9999999999388,36.81
1602947698.7096,72.0,929.0,80.0,427.9999999999388,36.81
1602947698.7116,72.0,929.0,99.0,427.9999999999388,36.81
1602947698.7136,72.0,929.0,106.0,427.9999999999388,36.81
1602947698.7156,72.0,929.0,94.0,427.9999999999388,36.81
1602947698.7176,72.0,929.0,77.0,427.9999999999388,36.81
1602947698.7196,72.0,929.0,70.0,427.9999999999388,36.81
1602947698.7215,72.0,929.0,68.0,427.9999999999388,36.81
1602947698.7235,72.0,929.0,55.0,427.9999999999388,36.81
1602947698.7255,72.0,929.0,46.0,427.9999999999388,36.81
1602947698.7275,72.0,929.0,48.0,427.9999999999388,36.81
1602947698.7295,72.0,929.0,48.0,427.9999999999388,36.81
1602947698.7315,72.0,929.0,48.0,427.9999999999388,36.81
1602947698.7335,72.0,929.0,51.0,427.9999999999388,36.81
1602947698.7357,72.0,929.0,53.0,427.9999999999388,36.81
1602947698.7375,72.0,929.0,55.0,427.9999999999388,36.81
1602947698.7396,72.0,929.0,46.0,427.9999999999388,36.81
1602947698.7415,72.0,929.0,53.0,427.9999999999388,36.81
1602947698.7435,72.0,929.0,204.0,427.9999999999388,36.81
1602947698.7455,72.0,929.0,505.0,427.9999999999388,36.81
1602947698.7475,72.0,929.0,587.0,427.9999999999388,36.81
1602947698.7495,72.0,929.0,72.0,427.9999999999388,36.81
1602947698.7515,72.0,929.0,-493.0,427.9999999999388,36.81
1602947698.7536,72.0,929.0,-323.0,427.9999999999388,36.81
1602947698.7555,72.0,929.0,77.0,427.9999999999388,36.81
1602947698.7575,72.0,929.0,75.0,427.9999999999388,36.81
1602947698.7596,72.0,929.0,21.0,427.9999999999388,36.81
1602947698.7615,72.0,929.0,99.0,427.9999999999388,36.81
1602947698.7635,72.0,929.0,99.0,427.9999999999388,36.81
1602947698.7655,72.0,929.0,70.0,427.9999999999388,36.81
1602947698.7676,72.0,929.0,99.0,427.9999999999388,36.81
1602947698.7695,72.0,929.0,114.0,427.9999999999388,36.81
1602947698.7715,72.0,929.0,99.0,427.9999999999388,36.81
1602947698.7735,72.0,929.0,102.0,427.9999999999388,36.81
1602947698.7755,72.0,929.0,109.0,427.9999999999388,36.81
1602947698.7775,72.0,929.0,109.0,427.9999999999388,36.81
1602947698.7795,72.0,929.0,116.0,427.9999999999388,36.81
1602947698.7815,72.0,929.0,128.0,427.9999999999388,36.81
1602947698.7835,72.0,929.0,128.0,427.9999999999388,36.81
1602947698.7855,72.0,929.0,133.0,427.9999999999388,36.81
1602947698.7875,72.0,929.0,145.0,427.9999999999388,36.81
1602947698.7895,72.0,929.0,150.0,427.9999999999388,36.81
1602947698.7915,72.0,929.0,153.0,427.9999999999388,36.81
1602947698.7935,72.0,929.0,165.0,427.9999999999388,36.81
1602947698.7955,72.0,929.0,174.0,427.9999999999388,36.81
1602947698.7975,72.0,929.0,184.0,427.9999999999388,36.81
1602947698.7995,72.0,929.0,196.0,427.9999999999388,36.81
1602947698.8015,72.0,929.0,208.0,427.9999999999388,36.81
1602947698.8035,72.0,929.0,208.0,427.9999999999388,36.81
1602947698.8055,72.0,929.0,211.0,427.9999999999388,36.81
1602947698.8075,72.0,929.0,221.0,427.9999999999388,36.81
1602947698.8095,72.0,929.0,228.0,427.9999999999388,36.81
1602947698.8115,72.0,929.0,225.0,427.9999999999388,36.81
1602947698.8135,72.0,929.0,221.0,427.9999999999388,36.81
1602947698.8155,72.0,929.0,216.0,427.9999999999388,36.81
1602947698.8176,72.0,929.0,206.0,427.9999999999388,36.81
1602947698.8196,72.0,929.0,182.0,427.9999999999388,36.81
1602947698.8215,72.0,929.0,150.0,427.9999999999388,36.81
1602947698.8235,72.0,929.0,121.0,427.9999999999388,36.81
1602947698.8255,72.0,929.0,92.0,427.9999999999388,36.81
1602947698.8275,72.0,929.0,63.0,427.9999999999388,36.81
1602947698.8295,72.0,929.0,41.0,427.9999999999388,36.81
1602947698.8315,72.0,929.0,26.0,427.9999999999388,36.81
1602947698.8335,72.0,929.0,12.0,427.9999999999388,36.81
1602947698.8355,72.0,929.0,2.0,427.9999999999388,36.81
1602947698.8377,72.0,929.0,0.0,427.9999999999388,36.81
1602947698.8396,72.0,929.0,2.0,427.9999999999388,36.81
1602947698.8415,72.0,929.0,7.0,427.9999999999388,36.81
1602947698.8435,72.0,929.0,9.0,427.9999999999388,36.81
1602947698.8455,72.0,929.0,9.0,427.9999999999388,36.81
1602947699.2713,71.0,919.0,12.0,427.9999999999388,36.81
1602947699.2721,71.0,919.0,19.0,427.9999999999388,36.81
1602947699.2735,71.0,919.0,26.0,427.9999999999388,36.81
1602947699.2755,71.0,919.0,31.0,427.9999999999388,36.81
1602947699.2775,71.0,919.0,34.0,427.9999999999388,36.81
1602947699.2795,71.0,919.0,29.0,427.9999999999388,36.81
1602947699.2814,71.0,919.0,26.0,427.9999999999388,36.81
1602947699.2834,71.0,919.0,31.0,427.9999999999388,36.81
1602947699.2854,71.0,919.0,36.0,427.9999999999388,36.81
1602947699.2874,71.0,919.0,34.0,427.9999999999388,36.81
1602947699.2894,71.0,919.0,34.0,427.9999999999388,36.81
1602947699.2914,71.0,919.0,41.0,427.9999999999388,36.81
1602947699.2934,71.0,919.0,46.0,427.9999999999388,36.81
1602947699.2954,71.0,919.0,43.0,427.9999999999388,36.81
1602947699.2974,71.0,919.0,41.0,427.9999999999388,36.81
1602947699.2994,71.0,919.0,48.0,427.9999999999388,36.81
1602947699.3014,71.0,919.0,51.0,427.9999999999388,36.81
1602947699.3034,71.0,919.0,46.0,427.9999999999388,36.81
1602947699.3054,71.0,919.0,41.0,427.9999999999388,36.81
1602947699.3074,71.0,919.0,41.0,427.9999999999388,36.81
1602947699.3094,71.0,919.0,41.0,427.9999999999388,36.81
1602947699.3114,71.0,919.0,41.0,427.9999999999388,36.81
1602947699.3134,71.0,919.0,41.0,427.9999999999388,36.81
1602947699.3154,71.0,919.0,38.0,427.9999999999388,36.81
1602947699.3174,71.0,919.0,41.0,427.9999999999388,36.81
1602947699.3194,71.0,919.0,46.0,427.9999999999388,36.81
1602947699.3214,71.0,919.0,46.0,427.9999999999388,36.81
1602947699.3234,71.0,919.0,48.0,427.9999999999388,36.81
1602947699.3254,71.0,919.0,48.0,427.9999999999388,36.81
1602947699.3274,71.0,919.0,51.0,427.9999999999388,36.81
1602947699.3294,71.0,919.0,48.0,427.9999999999388,36.81
1602947699.3314,71.0,919.0,51.0,427.9999999999388,36.81
1602947699.3334,71.0,919.0,55.0,427.9999999999388,36.81
1602947699.3354,71.0,919.0,55.0,427.9999999999388,36.81
1602947699.3374,71.0,919.0,55.0,427.9999999999388,36.81
1602947699.3394,71.0,919.0,55.0,427.9999999999388,36.81
1602947699.3415,71.0,919.0,58.0,427.9999999999388,36.81
1602947699.3434,71.0,919.0,60.0,427.9999999999388,36.81
1602947699.3454,71.0,919.0,58.0,427.9999999999388,36.81
1602947699.3474,71.0,919.0,55.0,427.9999999999388,36.81
1602947699.3494,71.0,919.0,58.0,427.9999999999388,36.81
1602947699.3514,71.0,919.0,63.0,427.9999999999388,36.81
1602947699.3534,71.0,919.0,82.0,427.9999999999388,36.81
1602947699.3554,71.0,919.0,106.0,427.9999999999388,36.81
1602947699.3574,71.0,919.0,104.0,427.9999999999388,36.81
1602947699.3594,71.0,919.0,80.0,427.9999999999388,36.81
1602947699.3616,71.0,919.0,75.0,427.9999999999388,36.81
1602947699.3635,71.0,919.0,82.0,427.9999999999388,36.81
1602947699.3654,71.0,919.0,75.0,427.9999999999388,36.81
1602947699.3674,71.0,919.0,58.0,427.9999999999388,36.81
1602947699.3694,71.0,919.0,48.0,427.9999999999388,36.81
1602947699.3715,71.0,919.0,46.0,427.9999999999388,36.81
1602947699.3734,71.0,919.0,46.0,427.9999999999388,36.81
1602947699.3754,71.0,919.0,48.0,427.9999999999388,36.81
1602947699.3774,71.0,919.0,53.0,427.9999999999388,36.81
1602947699.3794,71.0,919.0,63.0,427.9999999999388,36.81
1602947699.3815,71.0,919.0,65.0,427.9999999999388,36.81
1602947699.3834,71.0,919.0,53.0,427.9999999999388,36.81
1602947699.3854,71.0,919.0,60.0,427.9999999999388,36.81
1602947699.3874,71.0,919.0,194.0,427.9999999999388,36.81
1602947699.3894,71.0,919.0,473.0,427.9999999999388,36.81
