Time,ECG
1607014741.4931,-2
1607014741.4959,370
1607014741.4986,1830
1607014741.5011,3885
1607014741.5033,5110
1607014741.5056,5757
1607014741.5077,6602
1607014741.5089,7309
1607014741.5109,7754
1607014741.5129,8226
1607014741.5149,8662
1607014741.5172,8979
1607014741.5205,9279
1607014741.5226,9568
1607014741.5247,9785
1607014741.5268,9982
1607014741.5283,10178
1607014741.5299,10345
1607014741.5319,10480
1607014741.5339,10606
1607014741.5359,10732
1607014741.5380,10836
1607014741.5399,10914
1607014741.5419,10991
1607014741.5439,11076
1607014741.5460,11146
1607014741.5478,11192
1607014741.5498,11226
1607014741.5519,11270
1607014741.5538,11308
1607014741.5558,11330
1607014741.5579,11352
1607014741.5598,11381
1607014741.5618,11393
1607014741.5639,11386
1607014741.5658,11391
1607014741.5678,11403
1607014741.5699,11398
1607014741.5719,11381
1607014741.5738,11369
1607014741.5758,11357
1607014741.5778,11340
1607014741.5798,11318
1607014741.5819,11308
1607014741.5838,11301
1607014741.5858,11267
1607014741.5879,11226
1607014741.5898,11202
1607014741.5919,11168
1607014741.5938,11110
1607014741.5961,11049
1607014741.5978,10996
1607014741.5998,10938
1607014741.6018,10887
1607014741.6038,10836
1607014741.6058,10793
1607014741.6079,10749
1607014741.6098,10684
1607014741.6118,10606
1607014741.6138,10635
1607014741.6158,10892
1607014741.6177,11194
1607014741.6198,11110
1607014741.6219,10451
1607014741.6237,9696
1607014741.6257,9594
1607014741.6278,9933
1607014741.6297,10015
1607014741.6317,9931
1607014741.6337,9928
1607014741.6357,9877
1607014741.6378,9783
1607014741.6398,9732
1607014742.0311,9674
1607014742.0320,9599
1607014742.0345,9531
1607014742.0371,9466
1607014742.0391,9398
1607014742.0411,9321
1607014742.0432,9246
1607014742.0451,9180
1607014742.0472,9108
1607014742.0492,9035
1607014742.0511,8989
1607014742.0532,8924
1607014742.0551,8819
1607014742.0572,8752
1607014742.0592,8708
1607014742.0611,8633
1607014742.0631,8558
1607014742.0651,8507
1607014742.0672,8454
1607014742.0691,8388
1607014742.0711,8328
1607014742.0731,8272
1607014742.0751,8217
1607014742.0771,8154
1607014742.0791,8093
1607014742.0810,8035
1607014742.0830,7962
1607014742.0850,7866
1607014742.0873,7764
1607014742.0891,7665
1607014742.0911,7556
1607014742.0931,7442
1607014742.0950,7340
1607014742.0971,7253
1607014742.0991,7166
1607014742.1011,7084
1607014742.1031,7018
1607014742.1052,6950
1607014742.1072,6863
1607014742.1091,6781
1607014742.1110,6728
1607014742.1130,6670
1607014742.1151,6604
1607014742.1171,6539
1607014742.1191,6476
1607014742.1211,6410
1607014742.1230,6348
1607014742.1250,6285
1607014742.1271,6222
1607014742.1290,6161
1607014742.1310,6093
1607014742.1330,6021
1607014742.1350,5958
1607014742.1371,5895
1607014742.1390,5829
1607014742.1410,5766
1607014742.1430,5704
1607014742.1450,5643
1607014742.1471,5585
1607014742.1490,5522
1607014742.1510,5464
1607014742.1530,5411
1607014742.1550,5348
1607014742.1571,5287
1607014742.1591,5234
1607014742.1610,5178
1607014742.1630,5120
1607014742.1650,5069
1607014742.1671,5016
1607014742.1690,4951
1607014742.1710,4890
1607014742.1731,4842
1607014742.1750,4793
1607014742.6014,4740
1607014742.6023,4687
1607014742.6048,4633
1607014742.6075,4587
1607014742.6094,4537
1607014742.6115,4483
1607014742.6138,4440
1607014742.6154,4399
1607014742.6174,4345
1607014742.6194,4278
1607014742.6215,4229
1607014742.6234,4193
1607014742.6254,4144
1607014742.6274,4089
1607014742.6295,4048
1607014742.6314,4006
1607014742.6334,3958
1607014742.6354,3917
1607014742.6375,3880
1607014742.6394,3854
1607014742.6414,3825
1607014742.6433,3776
1607014742.6453,3728
1607014742.6474,3692
1607014742.6493,3629
1607014742.6513,3556
1607014742.6533,3510
1607014742.6553,3479
1607014742.6573,3437
1607014742.6593,3399
1607014742.6613,3362
1607014742.6633,3307
1607014742.6653,3246
1607014742.6673,3285
1607014742.6693,3563
1607014742.6713,3905
1607014742.6733,3868
1607014742.6753,3251
1607014742.6773,2513
1607014742.6793,2416
1607014742.6813,2798
1607014742.6833,2912
1607014742.6853,2839
1607014742.6874,2873
1607014742.6894,2871
1607014742.6913,2806
1607014742.6933,2789
1607014742.6954,2776
1607014742.6973,2738
1607014742.6993,2706
1607014742.7013,2684
1607014742.7033,2653
1607014742.7053,2622
1607014742.7073,2600
1607014742.7093,2576
1607014742.7113,2546
1607014742.7133,2520
1607014742.7155,2498
1607014742.7174,2474
1607014742.7193,2452
1607014742.7213,2428
1607014742.7233,2406
1607014742.7253,2389
1607014742.7273,2375
1607014742.7293,2358
1607014742.7313,2348
1607014742.7333,2341
1607014742.7353,2326
1607014742.7373,2314
1607014742.7393,2307
1607014742.7413,2300
1607014742.7434,2287
1607014742.7453,2273
1607014743.1415,2249
1607014743.1424,2210
1607014743.1449,2157
1607014743.1475,2101
1607014743.1495,2048
1607014743.1515,1990
1607014743.1536,1934
1607014743.1555,1888
1607014743.1575,1856
1607014743.1594,1825
1607014743.1615,1786
1607014743.1635,1762
1607014743.1655,1750
1607014743.1675,1733
1607014743.1694,1716
1607014743.1714,1704
1607014743.1734,1689
1607014743.1754,1672
1607014743.1774,1656
1607014743.1794,1639
1607014743.1814,1624
1607014743.1834,1610
1607014743.1854,1585
1607014743.1874,1564
1607014743.1895,1547
1607014743.1914,1525
1607014743.1936,1505
1607014743.1954,1491
1607014743.1975,1472
1607014743.1994,1452
1607014743.2014,1435
1607014743.2035,1421
1607014743.2054,1406
1607014743.2074,1392
1607014743.2094,1377
1607014743.2116,1363
1607014743.2134,1350
1607014743.2154,1336
1607014743.2174,1324
1607014743.2195,1312
1607014743.2214,1300
1607014743.2235,1283
1607014743.2254,1268
1607014743.2274,1254
1607014743.2294,1242
1607014743.2314,1229
1607014743.2334,1220
1607014743.2354,1210
1607014743.2375,1193
1607014743.2394,1181
1607014743.2414,1171
1607014743.2434,1157
1607014743.2453,1142
1607014743.2474,1133
1607014743.2494,1123
1607014743.2513,1111
1607014743.2534,1101
1607014743.2554,1089
1607014743.2574,1079
1607014743.2594,1072
1607014743.2614,1065
1607014743.2634,1060
1607014743.2654,1067
1607014743.2674,1077
1607014743.2694,1062
1607014743.2715,1038
1607014743.2735,1028
1607014743.2755,999
1607014743.2774,958
1607014743.2795,944
1607014743.2815,939
1607014743.2835,927
1607014743.2854,920
1607014743.6812,915
1607014743.6821,903
1607014743.6846,876
1607014743.6873,903
1607014743.6892,1145
1607014743.6912,1527
1607014743.6933,1629
1607014743.6952,1150
1607014743.6972,397
1607014743.6992,169
1607014743.7012,535
1607014743.7031,752
1607014743.7052,716
1607014743.7074,760
1607014743.7092,803
1607014743.7112,762
1607014743.7131,752
1607014743.7151,772
1607014743.7173,762
1607014743.7191,752
1607014743.7211,757
1607014743.7231,755
1607014743.7251,745
1607014743.7271,738
1607014743.7291,740
1607014743.7311,738
1607014743.7331,736
1607014743.7351,733
1607014743.7371,731
1607014743.7391,728
1607014743.7411,731
1607014743.7431,731
1607014743.7451,736
1607014743.7471,738
1607014743.7491,745
1607014743.7511,752
1607014743.7531,760
1607014743.7551,767
1607014743.7571,777
1607014743.7591,789
1607014743.7611,801
1607014743.7632,808
1607014743.7651,813
1607014743.7671,808
1607014743.7691,791
1607014743.7711,760
1607014743.7731,716
1607014743.7751,673
1607014743.7771,634
1607014743.7791,595
1607014743.7811,561
1607014743.7831,542
1607014743.7851,535
1607014743.7871,522
1607014743.7891,518
1607014743.7911,515
1607014743.7931,510
1607014743.7951,510
1607014743.7971,515
1607014743.7991,518
1607014743.8011,513
1607014743.8031,508
1607014743.8051,503
1607014743.8071,503
1607014743.8093,506
1607014743.8111,506
1607014743.8131,498
1607014743.8151,491
1607014743.8172,481
1607014743.8191,472
1607014743.8211,467
1607014743.8231,464
1607014743.8251,460
1607014744.2510,450
1607014744.2519,445
1607014744.2544,440
1607014744.2571,435
1607014744.2590,421
1607014744.2610,416
1607014744.2630,418
1607014744.2650,411
1607014744.2670,399
1607014744.2689,397
1607014744.2710,401
1607014744.2730,404
1607014744.2750,399
1607014744.2769,397
1607014744.2789,394
1607014744.2809,387
1607014744.2829,384
1607014744.2849,387
1607014744.2869,382
1607014744.2889,377
1607014744.2909,380
1607014744.2929,380
1607014744.2948,377
1607014744.2969,375
1607014744.2989,370
1607014744.3009,370
1607014744.3029,372
1607014744.3049,363
1607014744.3070,355
1607014744.3089,358
1607014744.3109,368
1607014744.3129,368
1607014744.3149,365
1607014744.3169,375
1607014744.3189,389
1607014744.3210,384
1607014744.3230,375
1607014744.3249,375
1607014744.3269,353
1607014744.3289,317
1607014744.3309,312
1607014744.3329,317
1607014744.3351,317
1607014744.3369,319
1607014744.3389,324
1607014744.3409,319
1607014744.3429,300
1607014744.3449,341
1607014744.3470,600
1607014744.3545,990
1607014744.3559,1099
1607014744.3580,629
1607014744.3599,-121
1607014744.3619,-363
1607014744.3639,-9
1607014744.3659,220
1607014744.3680,208
1607014744.3699,256
1607014744.3720,302
1607014744.3739,278
1607014744.3759,280
1607014744.3779,300
1607014744.3799,288
1607014744.3819,280
1607014744.3840,290
1607014744.3858,290
1607014744.3880,280
1607014744.3899,285
1607014744.3919,295
1607014744.3939,292
1607014744.3959,290
1607014744.3979,295
1607014744.3999,302
1607014744.8513,300
1607014744.8525,295
1607014744.8550,302
1607014744.8576,314
1607014744.8595,319
1607014744.8616,317
1607014744.8637,322
1607014744.8656,341
1607014744.8676,355
1607014744.8695,363
1607014744.8715,382
1607014744.8735,401
1607014744.8755,414
1607014744.8775,421
1607014744.8794,428
1607014744.8814,421
1607014744.8834,397
1607014744.8854,363
1607014744.8875,317
1607014744.8895,276
1607014744.8916,246
1607014744.8935,225
1607014744.8955,208
1607014744.8975,193
1607014744.8995,179
1607014744.9014,174
1607014744.9034,179
1607014744.9055,181
1607014744.9075,181
1607014744.9094,184
1607014744.9115,186
1607014744.9134,184
1607014744.9154,176
1607014744.9175,164
1607014744.9194,159
1607014744.9215,174
1607014744.9235,171
1607014744.9254,162
1607014744.9275,186
1607014744.9294,203
1607014744.9314,191
1607014744.9334,193
1607014744.9355,191
1607014744.9375,162
1607014744.9395,162
1607014744.9414,167
1607014744.9434,123
1607014744.9454,116
1607014744.9475,186
1607014744.9495,213
1607014744.9515,167
1607014744.9534,152
1607014744.9554,174
1607014744.9575,157
1607014744.9595,130
1607014744.9615,145
1607014744.9634,176
1607014744.9654,188
1607014744.9675,169
1607014744.9694,157
1607014744.9715,157
1607014744.9734,184
1607014744.9754,193
1607014744.9775,167
1607014744.9794,167
1607014744.9814,193
1607014744.9835,188
1607014744.9854,154
1607014744.9875,145
1607014744.9896,157
1607014744.9915,184
1607014744.9936,213
1607014744.9956,193
1607014745.3914,159
1607014745.3924,191
1607014745.3949,237
1607014745.3975,198
1607014745.3994,159
1607014745.4014,193
1607014745.4037,220
1607014745.4054,244
1607014745.4074,239
1607014745.4094,162
1607014745.4113,157
1607014745.4134,205
1607014745.4154,135
1607014745.4174,89
1607014745.4193,179
1607014745.4214,227
1607014745.4234,167
1607014745.4254,108
1607014745.4274,196
1607014745.4294,498
1607014745.4314,803
1607014745.4334,794
1607014745.4354,336
1607014745.4374,-278
1607014745.4394,-409
1607014745.4414,-106
1607014745.4433,79
1607014745.4454,94
1607014745.4474,79
1607014745.4494,99
1607014745.4514,152
1607014745.4534,162
1607014745.4554,176
1607014745.4574,191
1607014745.4593,154
1607014745.4615,176
1607014745.4633,213
1607014745.4654,191
1607014745.4674,203
1607014745.4693,271
1607014745.4713,273
1607014745.4733,203
1607014745.4754,196
1607014745.4773,273
1607014745.4794,297
1607014745.4815,276
1607014745.4833,278
1607014745.4854,297
1607014745.4874,309
1607014745.4896,292
1607014745.4914,297
1607014745.4933,309
1607014745.4954,322
1607014745.4973,348
1607014745.4994,414
1607014745.5014,479
1607014745.5033,452
1607014745.5054,421
1607014745.5074,479
1607014745.5094,501
1607014745.5114,452
1607014745.5133,404
1607014745.5154,392
1607014745.5174,377
1607014745.5194,346
1607014745.5213,317
1607014745.5234,244
1607014745.5254,266
1607014745.5274,394
1607014745.5294,343
1607014745.5314,239
1607014745.5334,302
1607014745.5354,363
1607014745.9611,307
1607014745.9620,225
1607014745.9645,273
1607014745.9672,343
1607014745.9691,271
1607014745.9710,242
1607014745.9731,305
1607014745.9752,300
1607014745.9770,246
1607014745.9790,205
1607014745.9810,215
1607014745.9830,251
1607014745.9850,249
1607014745.9871,210
1607014745.9891,188
1607014745.9910,205
1607014745.9930,222
1607014745.9937,220
1607014745.9961,208
1607014745.9980,186
1607014746.0000,184
1607014746.0020,184
1607014746.0040,171
1607014746.0060,181
1607014746.0081,181
1607014746.0100,169
1607014746.0120,162
1607014746.0142,145
1607014746.0161,133
1607014746.0180,138
1607014746.0200,121
1607014746.0220,99
1607014746.0240,89
1607014746.0247,72
1607014746.0271,55
1607014746.0290,38
1607014746.0310,21
1607014746.0330,12
1607014746.0350,7
1607014746.0370,2
1607014746.0390,12
1607014746.0410,26
1607014746.0430,16
1607014746.0450,-2
1607014746.0470,4
1607014746.0490,2
1607014746.0510,-24
1607014746.0531,-38
1607014746.0550,-41
1607014746.0557,-46
1607014746.0581,-43
1607014746.0601,-43
1607014746.0620,-50
1607014746.0640,-62
1607014746.0660,-41
1607014746.0680,138
1607014746.0700,479
1607014746.0721,682
1607014746.0740,418
1607014746.0760,-213
1607014746.0780,-583
1607014746.0800,-389
1607014746.0821,-138
1607014746.0841,-108
1607014746.0861,-77
1607014746.0867,-24
1607014746.0880,-33
1607014746.0900,-38
1607014746.0920,-14
1607014746.0940,-9
1607014746.0960,-12
1607014746.0980,-2
1607014746.1000,4
1607014746.5014,4
1607014746.5023,7
1607014746.5048,14
1607014746.5074,21
1607014746.5094,26
1607014746.5116,31
1607014746.5121,41
1607014746.5145,48
1607014746.5164,38
1607014746.5183,26
1607014746.5204,36
1607014746.5223,70
1607014746.5243,82
1607014746.5263,70
1607014746.5283,96
1607014746.5303,138
1607014746.5323,138
1607014746.5343,133
1607014746.5364,157
1607014746.5383,184
1607014746.5403,181
1607014746.5410,169
1607014746.5433,184
1607014746.5454,181
1607014746.5474,142
1607014746.5493,106
1607014746.5513,79
1607014746.5533,43
1607014746.5553,16
1607014746.5573,2
1607014746.5593,-9
1607014746.5613,-21
1607014746.5633,-26
1607014746.5653,-33
1607014746.5673,-65
1607014746.5693,-87
1607014746.5713,-26
1607014746.5720,58
1607014746.5743,41
1607014746.5764,-7
1607014746.5783,9
1607014746.5803,29
1607014746.5823,19
1607014746.5843,19
1607014746.5863,24
1607014746.5883,14
1607014746.5903,4
1607014746.5924,4
1607014746.5943,2
1607014746.5964,-9
1607014746.5983,-12
1607014746.6003,7
1607014746.6023,21
1607014746.6030,4
1607014746.6053,-21
1607014746.6074,-21
1607014746.6095,16
1607014746.6116,38
1607014746.6133,16
1607014746.6153,-2
1607014746.6174,-12
1607014746.6193,-4
1607014746.6213,38
1607014746.6234,53
1607014746.6253,12
1607014746.6273,-2
1607014746.6293,26
1607014746.6313,46
1607014746.6333,31
1607014746.6340,21
1607014746.6364,36
1607014746.6383,43
1607014746.6403,41
1607014747.0717,48
1607014747.0726,72
1607014747.0737,89
1607014747.0757,77
1607014747.0777,70
1607014747.0797,70
1607014747.0816,43
1607014747.0837,19
1607014747.0857,29
1607014747.0865,31
1607014747.0886,19
1607014747.0906,24
1607014747.0926,29
1607014747.0946,19
1607014747.0967,2
1607014747.0986,60
1607014747.1007,326
1607014747.1027,687
1607014747.1046,779
1607014747.1066,365
1607014747.1086,-317
1607014747.1106,-578
1607014747.1126,-271
1607014747.1146,-41
1607014747.1167,-67
1607014747.1173,-36
1607014747.1197,19
1607014747.1216,-14
1607014747.1236,-21
1607014747.1256,24
1607014747.1277,24
1607014747.1296,24
1607014747.1316,65
1607014747.1336,65
1607014747.1358,33
1607014747.1377,33
1607014747.1397,41
1607014747.1416,72
1607014747.1436,130
1607014747.1456,106
1607014747.1476,36
1607014747.1483,106
1607014747.1506,200
1607014747.1526,152
1607014747.1546,138
1607014747.1567,200
1607014747.1586,193
1607014747.1606,169
1607014747.1626,220
1607014747.1646,239
1607014747.1667,186
1607014747.1686,186
1607014747.1706,246
1607014747.1726,280
1607014747.1746,271
1607014747.1767,230
1607014747.1786,210
1607014747.1794,246
1607014747.1816,220
1607014747.1837,118
1607014747.1857,89
1607014747.1877,106
1607014747.1896,82
1607014747.1917,36
1607014747.1936,-21
1607014747.1956,-58
1607014747.1976,21
1607014747.1996,96
1607014747.2016,-21
1607014747.2037,-145
1607014747.2056,-65
1607014747.2076,58
1607014747.2084,21
1607014747.6115,-70
1607014747.6130,-29
1607014747.6145,9
1607014747.6163,-55
1607014747.6182,-43
1607014747.6202,41
1607014747.6222,26
1607014747.6242,-29
1607014747.6261,-24
1607014747.6281,29
1607014747.6301,87
1607014747.6322,41
1607014747.6342,-33
1607014747.6361,41
1607014747.6380,84
1607014747.6401,-31
1607014747.6423,-48
1607014747.6441,75
1607014747.6461,128
1607014747.6482,92
1607014747.6501,38
1607014747.6521,12
1607014747.6542,29
1607014747.6561,101
1607014747.6580,174
1607014747.6601,130
1607014747.6620,70
1607014747.6641,99
1607014747.6660,116
1607014747.6680,118
1607014747.6701,157
1607014747.6721,167
1607014747.6740,150
1607014747.6761,130
1607014747.6780,89
1607014747.6800,82
1607014747.6820,118
1607014747.6840,135
1607014747.6860,101
1607014747.6881,65
1607014747.6900,101
1607014747.6920,157
1607014747.6941,176
1607014747.6961,341
1607014747.6980,675
1607014747.7001,784
1607014747.7021,430
1607014747.7040,-87
1607014747.7060,-307
1607014747.7080,-193
1607014747.7100,-16
1607014747.7120,99
1607014747.7140,147
1607014747.7160,142
1607014747.7181,128
1607014747.7201,123
1607014747.7221,138
1607014747.7241,145
1607014747.7260,130
1607014747.7281,150
1607014747.7300,181
1607014747.7320,142
1607014747.7342,111
1607014747.7362,150
1607014747.7381,179
1607014747.7401,125
1607014747.7420,60
1607014747.7440,125
1607014747.7460,210
1607014747.7480,133
1607014747.7501,104
1607014747.7521,196
1607014747.7540,162
1607014748.2119,72
1607014748.2132,108
1607014748.2157,203
1607014748.2183,217
1607014748.2203,162
1607014748.2223,157
1607014748.2243,198
1607014748.2263,205
1607014748.2283,191
1607014748.2303,215
1607014748.2323,237
1607014748.2343,174
1607014748.2364,121
1607014748.2383,118
1607014748.2403,77
1607014748.2424,53
1607014748.2443,77
1607014748.2463,58
1607014748.2483,48
1607014748.2503,65
1607014748.2523,24
1607014748.2544,2
1607014748.2563,43
1607014748.2584,58
1607014748.2603,33
1607014748.2623,43
1607014748.2643,58
1607014748.2663,36
1607014748.2682,41
1607014748.2703,67
1607014748.2723,46
1607014748.2743,43
1607014748.2764,65
1607014748.2783,33
1607014748.2803,9
1607014748.2823,53
1607014748.2843,67
1607014748.2863,24
1607014748.2882,14
1607014748.2902,58
1607014748.2922,89
1607014748.2944,77
1607014748.2963,43
1607014748.2982,36
1607014748.3002,50
1607014748.3022,55
1607014748.3042,46
1607014748.3062,50
1607014748.3082,67
1607014748.3102,72
1607014748.3122,77
1607014748.3142,101
1607014748.3162,113
1607014748.3182,87
1607014748.3202,55
1607014748.3222,41
1607014748.3242,29
1607014748.3262,29
1607014748.3282,38
1607014748.3302,41
1607014748.3322,43
1607014748.3342,33
1607014748.3362,19
1607014748.3382,41
1607014748.3402,203
1607014748.3422,520
1607014748.3442,721
1607014748.3462,484
1607014748.3482,-128
1607014748.3502,-506
1607014748.3522,-309
1607014748.3542,-55
1607014748.3562,-48
1607014748.8414,-14
1607014748.8426,36
1607014748.8445,19
1607014748.8463,50
1607014748.8482,77
1607014748.8503,41
1607014748.8522,36
1607014748.8542,53
1607014748.8563,41
1607014748.8583,33
1607014748.8603,53
1607014748.8623,58
1607014748.8643,41
1607014748.8664,33
1607014748.8682,60
1607014748.8703,99
1607014748.8722,77
1607014748.8743,43
1607014748.8763,72
1607014748.8785,108
1607014748.8803,104
1607014748.8822,96
1607014748.8843,113
1607014748.8863,152
1607014748.8882,186
1607014748.8902,174
1607014748.8922,150
1607014748.8942,184
1607014748.8962,213
1607014748.8982,205
1607014748.9002,239
1607014748.9023,254
1607014748.9042,181
1607014748.9062,101
1607014748.9082,72
1607014748.9102,92
1607014748.9122,84
1607014748.9142,2
1607014748.9162,-36
1607014748.9182,14
1607014748.9202,33
1607014748.9223,0
1607014748.9242,2
1607014748.9263,33
1607014748.9282,41
1607014748.9302,50
1607014748.9322,24
1607014748.9341,7
1607014748.9362,67
1607014748.9382,67
1607014748.9402,-58
1607014748.9422,-53
1607014748.9442,123
1607014748.9462,118
1607014748.9482,-48
1607014748.9502,0
1607014748.9522,174
1607014748.9542,242
1607014748.9562,125
1607014748.9582,-82
1607014748.9602,-19
1607014748.9622,259
1607014748.9642,394
1607014748.9663,351
1607014748.9682,322
1607014748.9702,438
1607014748.9722,537
1607014748.9742,532
1607014748.9761,607
1607014748.9782,677
1607014748.9804,658
1607014748.9823,690
1607014748.9842,719
1607014749.3515,651
1607014749.3524,656
1607014749.3549,784
1607014749.3575,864
1607014749.3594,828
1607014749.3615,806
1607014749.3635,910
1607014749.3654,999
1607014749.3674,982
1607014749.3694,1024
1607014749.3714,1309
1607014749.3734,1629
1607014749.3754,1527
1607014749.3774,961
1607014749.3794,518
1607014749.3814,677
1607014749.3834,1026
1607014749.3854,1065
1607014749.3874,1021
1607014749.3894,1118
1607014749.3914,1198
1607014749.3934,1169
1607014749.3954,1145
1607014749.3974,1171
1607014749.3996,1174
1607014749.4015,1145
1607014749.4035,1142
1607014749.4055,1157
1607014749.4075,1099
1607014749.4095,1016
1607014749.4116,1004
1607014749.4135,987
1607014749.4154,929
1607014749.4175,895
1607014749.4194,852
1607014749.4214,774
1607014749.4234,719
1607014749.4254,644
1607014749.4274,491
1607014749.4294,314
1607014749.4314,128
1607014749.4334,-108
1607014749.4354,-346
1607014749.4374,-532
1607014749.4394,-702
1607014749.4414,-878
1607014749.4434,-1019
1607014749.4454,-1133
1607014749.4476,-1266
1607014749.4494,-1426
1607014749.4514,-1566
1607014749.4534,-1653
1607014749.4554,-1718
1607014749.4574,-1779
1607014749.4594,-1818
1607014749.4614,-1825
1607014749.4634,-1823
1607014749.4654,-1815
1607014749.4674,-1786
1607014749.4694,-1743
1607014749.4715,-1709
1607014749.4734,-1672
1607014749.4754,-1624
1607014749.4774,-1580
1607014749.4794,-1549
1607014749.4814,-1520
1607014749.4834,-1491
1607014749.4854,-1455
1607014749.4874,-1416
1607014749.4894,-1382
1607014749.4914,-1350
1607014749.4934,-1319
1607014749.4954,-1295
1607014749.8609,-1278
1607014749.8618,-1242
1607014749.8643,-1217
1607014749.8669,-1251
1607014749.8688,-1244
1607014749.8708,-1128
1607014749.8731,-1062
1607014749.8748,-1074
1607014749.8769,-1058
1607014749.8788,-1036
1607014749.8808,-1024
1607014749.8828,-978
1607014749.8849,-961
1607014749.8869,-1007
1607014749.8888,-968
1607014749.8908,-832
1607014749.8928,-769
1607014749.8948,-782
1607014749.8969,-774
1607014749.8989,-748
1607014749.9008,-721
1607014749.9028,-726
1607014749.9048,-750
1607014749.9068,-699
1607014749.9088,-627
1607014749.9108,-660
1607014749.9130,-685
1607014749.9148,-607
1607014749.9168,-561
1607014749.9189,-583
1607014749.9208,-612
1607014749.9228,-571
1607014749.9248,-326
1607014749.9268,60
1607014749.9288,278
1607014749.9310,14
1607014749.9328,-680
1607014749.9348,-1096
1607014749.9369,-806
1607014749.9388,-452
1607014749.9408,-476
1607014749.9428,-506
1607014749.9448,-394
1607014749.9468,-368
1607014749.9489,-404
1607014749.9509,-360
1607014749.9528,-307
1607014749.9548,-317
1607014749.9569,-326
1607014749.9588,-317
1607014749.9608,-314
1607014749.9628,-312
1607014749.9648,-292
1607014749.9668,-234
1607014749.9688,-220
1607014749.9709,-263
1607014749.9728,-237
1607014749.9748,-181
1607014749.9768,-198
1607014749.9788,-210
1607014749.9808,-179
1607014749.9828,-157
1607014749.9848,-152
1607014749.9868,-133
1607014749.9888,-99
1607014749.9908,-77
1607014749.9928,-70
1607014749.9948,-55
1607014749.9968,-33
1607014749.9988,-12
1607014750.0008,2
1607014750.0028,-2
1607014750.0048,-24
1607014750.4310,-53
1607014750.4319,-87
1607014750.4344,-121
1607014750.4370,-152
1607014750.4393,-191
1607014750.4410,-210
1607014750.4430,-210
1607014750.4450,-220
1607014750.4470,-198
1607014750.4489,-167
1607014750.4509,-188
1607014750.4529,-191
1607014750.4549,-169
1607014750.4570,-184
1607014750.4589,-179
1607014750.4609,-157
1607014750.4629,-174
1607014750.4649,-176
1607014750.4669,-138
1607014750.4689,-128
1607014750.4709,-135
1607014750.4730,-118
1607014750.4749,-128
1607014750.4769,-157
1607014750.4789,-145
1607014750.4809,-118
1607014750.4829,-106
1607014750.4849,-99
1607014750.4869,-113
1607014750.4889,-123
1607014750.4909,-113
1607014750.4929,-125
1607014750.4949,-130
1607014750.4969,-101
1607014750.4989,-101
1607014750.5009,-123
1607014750.5029,-125
1607014750.5049,-101
1607014750.5069,-67
1607014750.5089,-75
1607014750.5109,-96
1607014750.5129,-79
1607014750.5149,-65
1607014750.5169,-62
1607014750.5190,-53
1607014750.5209,-41
1607014750.5230,-19
1607014750.5249,-2
1607014750.5269,-33
1607014750.5289,-77
1607014750.5309,-70
1607014750.5329,-41
1607014750.5349,-53
1607014750.5369,-62
1607014750.5389,-55
1607014750.5410,-62
1607014750.5429,-50
1607014750.5449,-33
1607014750.5469,-19
1607014750.5489,179
1607014750.5509,568
1607014750.5529,740
1607014750.5549,377
1607014750.5569,-324
1607014750.5589,-663
1607014750.5609,-375
1607014750.5629,-87
1607014750.5649,-84
1607014750.5669,-70
1607014750.5689,-9
1607014750.5709,-12
1607014750.5729,-24
1607014750.5749,-4
1607014750.9714,2
1607014750.9724,-9
1607014750.9750,-9
1607014750.9775,12
1607014750.9795,24
1607014750.9815,-2
1607014750.9836,-16
1607014750.9855,21
1607014750.9874,48
1607014750.9894,26
1607014750.9914,26
1607014750.9934,43
1607014750.9954,46
1607014750.9973,53
1607014750.9993,67
1607014751.0013,75
1607014751.0033,84
1607014751.0053,99
1607014751.0073,113
1607014751.0093,125
1607014751.0113,142
1607014751.0133,162
1607014751.0153,174
1607014751.0173,186
1607014751.0194,198
1607014751.0213,193
1607014751.0234,169
1607014751.0254,145
1607014751.0274,130
1607014751.0294,94
1607014751.0314,48
1607014751.0334,21
1607014751.0353,12
1607014751.0377,2
1607014751.0394,-7
1607014751.0413,-7
1607014751.0434,-4
1607014751.0453,0
1607014751.0474,4
1607014751.0493,12
1607014751.0513,16
1607014751.0533,24
1607014751.0553,26
1607014751.0573,26
1607014751.0593,31
1607014751.0613,36
1607014751.0634,38
1607014751.0654,36
1607014751.0674,36
1607014751.0694,33
1607014751.0714,31
1607014751.0733,29
1607014751.0753,24
1607014751.0774,16
1607014751.0794,14
1607014751.0813,12
1607014751.0833,14
1607014751.0853,16
1607014751.0874,14
1607014751.0893,19
1607014751.0914,21
1607014751.0933,21
1607014751.0953,19
1607014751.0973,19
1607014751.0993,19
1607014751.1013,16
1607014751.1033,16
1607014751.1053,21
1607014751.1073,21
1607014751.1093,19
1607014751.1114,24
1607014751.1134,29
1607014751.1153,26
1607014751.5714,29
1607014751.5723,33
1607014751.5748,36
1607014751.5774,26
1607014751.5795,16
1607014751.5814,26
1607014751.5836,33
1607014751.5856,29
1607014751.5876,29
1607014751.5894,31
1607014751.5914,33
1607014751.5936,36
1607014751.5954,36
1607014751.5974,33
1607014751.5993,36
1607014751.6013,46
1607014751.6033,48
1607014751.6053,50
1607014751.6073,60
1607014751.6093,65
1607014751.6113,65
1607014751.6133,65
1607014751.6153,60
1607014751.6174,60
1607014751.6193,67
1607014751.6213,82
1607014751.6233,94
1607014751.6253,106
1607014751.6273,113
1607014751.6293,108
1607014751.6313,113
1607014751.6333,108
1607014751.6353,79
1607014751.6373,67
1607014751.6393,72
1607014751.6413,70
1607014751.6433,67
1607014751.6453,75
1607014751.6474,70
1607014751.6493,58
1607014751.6513,53
1607014751.6533,167
1607014751.6553,481
1607014751.6573,760
1607014751.6593,653
1607014751.6613,87
1607014751.6633,-460
1607014751.6653,-392
1607014751.6674,-36
1607014751.6693,26
1607014751.6713,-4
1607014751.6733,62
1607014751.6753,72
1607014751.6773,48
1607014751.6793,65
1607014751.6813,77
1607014751.6833,70
1607014751.6853,75
1607014751.6873,82
1607014751.6893,79
1607014751.6913,82
1607014751.6933,92
1607014751.6955,89
1607014751.6974,84
1607014751.6993,94
1607014751.7013,101
1607014751.7033,104
1607014751.7053,111
1607014751.7073,123
1607014751.7093,128
1607014751.7113,133
1607014751.7133,145
1607014751.7153,159
1607014752.1412,169
1607014752.1421,179
1607014752.1446,188
1607014752.1473,203
1607014752.1493,215
1607014752.1512,225
1607014752.1533,249
1607014752.1553,263
1607014752.1572,256
1607014752.1592,232
1607014752.1612,205
1607014752.1631,174
1607014752.1652,135
1607014752.1671,101
1607014752.1691,70
1607014752.1711,50
1607014752.1731,38
1607014752.1751,26
1607014752.1771,29
1607014752.1791,38
1607014752.1811,36
1607014752.1831,36
1607014752.1851,41
1607014752.1872,46
1607014752.1891,48
1607014752.1911,50
1607014752.1931,50
1607014752.1951,55
1607014752.1973,58
1607014752.1991,55
1607014752.2011,58
1607014752.2031,55
1607014752.2051,48
1607014752.2071,48
1607014752.2091,50
1607014752.2111,43
1607014752.2131,36
1607014752.2151,33
1607014752.2172,33
1607014752.2192,33
1607014752.2213,33
1607014752.2232,33
1607014752.2251,36
1607014752.2271,33
1607014752.2291,31
1607014752.2311,33
1607014752.2331,36
1607014752.2351,36
1607014752.2372,38
1607014752.2391,48
1607014752.2399,53
1607014752.2421,53
1607014752.2441,50
1607014752.2461,46
1607014752.2482,50
1607014752.2501,55
1607014752.2521,50
1607014752.2541,46
1607014752.2561,46
1607014752.2581,48
1607014752.2601,50
1607014752.2622,53
1607014752.2641,53
1607014752.2661,48
1607014752.2681,48
1607014752.2688,55
1607014752.2711,58
1607014752.2733,53
1607014752.2751,46
1607014752.2771,46
1607014752.2791,50
1607014752.2811,48
1607014752.2831,46
1607014752.6813,53
1607014752.6823,55
1607014752.6848,62
1607014752.6873,92
1607014752.6893,101
1607014752.6913,84
1607014752.6933,87
1607014752.6953,92
1607014752.6960,62
1607014752.6982,31
1607014752.7002,26
1607014752.7022,29
1607014752.7043,29
1607014752.7063,31
1607014752.7083,33
1607014752.7102,21
1607014752.7122,41
1607014752.7143,239
1607014752.7165,634
1607014752.7183,871
1607014752.7202,559
1607014752.7224,-200
1607014752.7242,-656
1607014752.7263,-382
1607014752.7270,-46
1607014752.7293,-50
1607014752.7313,-29
1607014752.7332,55
1607014752.7352,41
1607014752.7373,14
1607014752.7392,36
1607014752.7412,38
1607014752.7433,29
1607014752.7452,36
1607014752.7473,41
1607014752.7492,43
1607014752.7513,46
1607014752.7532,50
1607014752.7552,60
1607014752.7572,67
1607014752.7579,70
1607014752.7602,70
1607014752.7622,77
1607014752.7644,89
1607014752.7663,96
1607014752.7682,106
1607014752.7702,116
1607014752.7723,125
1607014752.7742,135
1607014752.7763,147
1607014752.7783,167
1607014752.7802,184
1607014752.7822,198
1607014752.7842,210
1607014752.7863,222
1607014752.7882,232
1607014752.7889,239
1607014752.7913,234
1607014752.7934,215
1607014752.7953,181
1607014752.7973,142
1607014752.7993,108
1607014752.8012,79
1607014752.8033,50
1607014752.8053,29
1607014752.8072,19
1607014752.8092,16
1607014752.8112,14
1607014752.8133,14
1607014752.8154,19
1607014752.8173,26
1607014752.8192,31
1607014752.8199,36
1607014753.2513,38
1607014753.2522,41
1607014753.2548,48
1607014753.2574,55
1607014753.2594,58
1607014753.2614,55
1607014753.2634,53
1607014753.2653,43
1607014753.2672,41
1607014753.2692,50
1607014753.2713,48
1607014753.2733,43
1607014753.2753,43
1607014753.2760,43
1607014753.2782,41
1607014753.2804,46
1607014753.2823,48
1607014753.2843,46
1607014753.2864,46
1607014753.2883,48
1607014753.2902,53
1607014753.2922,58
1607014753.2942,55
1607014753.2963,48
1607014753.2983,50
1607014753.3002,58
1607014753.3022,58
1607014753.3044,58
1607014753.3063,62
1607014753.3069,62
1607014753.3092,62
1607014753.3112,60
1607014753.3132,60
1607014753.3152,60
1607014753.3172,60
1607014753.3192,60
1607014753.3212,62
1607014753.3232,65
1607014753.3253,62
1607014753.3272,62
1607014753.3292,67
1607014753.3312,70
1607014753.3333,72
1607014753.3352,89
1607014753.3359,111
1607014753.3382,108
1607014753.3402,99
1607014753.3424,108
1607014753.3443,101
1607014753.3463,67
1607014753.3482,53
1607014753.3503,55
1607014753.3522,58
1607014753.3542,60
1607014753.3563,58
1607014753.3582,50
1607014753.3603,29
1607014753.3623,36
1607014753.3642,256
1607014753.3663,687
1607014753.3669,915
1607014753.3693,564
1607014753.3712,-213
1607014753.3733,-624
1607014753.3752,-305
1607014753.3772,7
1607014753.3792,-29
1607014753.3813,-7
1607014753.3832,75
1607014753.3852,48
1607014753.3873,38
1607014753.3892,70
1607014753.3913,70
1607014753.7907,60
1607014753.7916,72
1607014753.7933,79
1607014753.7957,77
1607014753.7976,79
1607014753.7996,82
1607014753.8016,84
1607014753.8037,89
1607014753.8056,87
1607014753.8076,84
1607014753.8096,94
1607014753.8116,104
1607014753.8136,108
1607014753.8156,116
1607014753.8177,128
1607014753.8196,138
1607014753.8216,145
1607014753.8237,159
1607014753.8244,179
1607014753.8266,196
1607014753.8286,210
1607014753.8306,227
1607014753.8326,239
1607014753.8346,244
1607014753.8366,246
1607014753.8388,239
1607014753.8407,215
1607014753.8426,179
1607014753.8446,135
1607014753.8466,99
1607014753.8486,70
1607014753.8506,46
1607014753.8527,29
1607014753.8546,21
1607014753.8566,19
1607014753.8586,16
1607014753.8606,16
1607014753.8626,24
1607014753.8646,33
1607014753.8667,36
1607014753.8686,41
1607014753.8706,46
1607014753.8726,50
1607014753.8746,50
1607014753.8767,53
1607014753.8786,62
1607014753.8806,65
1607014753.8826,62
1607014753.8846,62
1607014753.8867,62
1607014753.8887,62
1607014753.8906,58
1607014753.8926,55
1607014753.8946,53
1607014753.8966,53
1607014753.8986,53
1607014753.9006,53
1607014753.9026,55
1607014753.9046,58
1607014753.9066,50
1607014753.9086,50
1607014753.9106,58
1607014753.9126,58
1607014753.9146,53
1607014753.9166,55
1607014753.9187,55
1607014753.9206,58
1607014753.9227,60
1607014753.9246,62
1607014753.9267,62
1607014753.9286,62
1607014753.9306,62
1607014753.9326,60
1607014754.3609,50
1607014754.3617,53
1607014754.3642,65
1607014754.3671,53
1607014754.3689,31
1607014754.3709,16
1607014754.3729,16
1607014754.3748,62
1607014754.3771,92
1607014754.3788,46
1607014754.3808,26
1607014754.3828,48
1607014754.3849,38
1607014754.3869,24
1607014754.3888,21
1607014754.3908,31
1607014754.3928,48
1607014754.3948,46
1607014754.3968,29
1607014754.3988,41
1607014754.4008,53
1607014754.4028,46
1607014754.4048,70
1607014754.4069,99
1607014754.4088,75
1607014754.4107,60
1607014754.4127,75
1607014754.4147,58
1607014754.4168,26
1607014754.4187,16
1607014754.4208,16
1607014754.4227,29
1607014754.4248,31
1607014754.4268,7
1607014754.4287,9
1607014754.4307,82
1607014754.4327,295
1607014754.4347,648
1607014754.4368,794
1607014754.4388,394
1607014754.4407,-312
1607014754.4427,-595
1607014754.4447,-273
1607014754.4468,24
1607014754.4487,19
1607014754.4507,-48
1607014754.4527,-58
1607014754.4547,4
1607014754.4567,72
1607014754.4588,43
1607014754.4609,24
1607014754.4627,7
1607014754.4647,-72
1607014754.4668,-7
1607014754.4689,147
1607014754.4708,84
1607014754.4727,-16
1607014754.4747,24
1607014754.4768,21
1607014754.4788,16
1607014754.4808,60
1607014754.4827,36
1607014754.4847,21
1607014754.4868,92
1607014754.4888,111
1607014754.4907,77
1607014754.4927,84
1607014754.4947,101
1607014754.4968,111
1607014754.4987,142
1607014754.5007,142
1607014754.5027,140
1607014754.5047,171
1607014754.9609,176
1607014754.9620,196
1607014754.9645,271
1607014754.9671,259
1607014754.9691,159
1607014754.9711,152
1607014754.9731,164
1607014754.9751,89
1607014754.9771,36
1607014754.9792,26
1607014754.9811,-12
1607014754.9831,-29
1607014754.9851,19
1607014754.9872,31
1607014754.9891,-9
1607014754.9911,0
1607014754.9931,62
1607014754.9953,75
1607014754.9972,41
1607014754.9993,41
1607014755.0013,67
1607014755.0032,58
1607014755.0052,33
1607014755.0071,60
1607014755.0092,106
1607014755.0111,101
1607014755.0130,67
1607014755.0151,65
1607014755.0171,72
1607014755.0191,60
1607014755.0211,43
1607014755.0230,48
1607014755.0253,65
1607014755.0271,58
1607014755.0290,62
1607014755.0310,79
1607014755.0330,62
1607014755.0350,53
1607014755.0370,75
1607014755.0390,77
1607014755.0410,60
1607014755.0430,50
1607014755.0450,62
1607014755.0471,82
1607014755.0491,72
1607014755.0510,43
1607014755.0531,41
1607014755.0551,72
1607014755.0570,94
1607014755.0590,70
1607014755.0610,41
1607014755.0630,48
1607014755.0650,67
1607014755.0670,82
1607014755.0690,84
1607014755.0710,67
1607014755.0730,55
1607014755.0750,62
1607014755.0770,67
1607014755.0790,60
1607014755.0810,58
1607014755.0830,67
1607014755.0850,65
1607014755.0870,58
1607014755.0890,55
1607014755.0910,55
1607014755.0930,48
1607014755.0950,50
1607014755.0970,62
1607014755.0990,65
1607014755.1010,53
1607014755.1030,53
1607014755.1051,70
1607014755.5613,84
1607014755.5624,106
1607014755.5649,111
1607014755.5676,101
1607014755.5695,101
1607014755.5715,94
1607014755.5736,70
1607014755.5755,60
1607014755.5775,65
1607014755.5795,79
1607014755.5818,92
1607014755.5836,75
1607014755.5855,41
1607014755.5875,36
1607014755.5895,162
1607014755.5915,493
1607014755.5935,832
1607014755.5955,765
1607014755.5975,154
1607014755.5995,-489
1607014755.6015,-484
1607014755.6035,-113
1607014755.6055,-21
1607014755.6075,-58
1607014755.6096,9
1607014755.6115,26
1607014755.6136,-4
1607014755.6155,14
1607014755.6175,31
1607014755.6194,16
1607014755.6214,16
1607014755.6235,29
1607014755.6254,26
1607014755.6274,26
1607014755.6294,29
1607014755.6314,29
1607014755.6334,29
1607014755.6355,38
1607014755.6374,43
1607014755.6394,46
1607014755.6414,48
1607014755.6434,55
1607014755.6454,62
1607014755.6475,70
1607014755.6494,79
1607014755.6514,96
1607014755.6534,111
1607014755.6554,123
1607014755.6574,135
1607014755.6594,150
1607014755.6615,159
1607014755.6635,174
1607014755.6654,191
1607014755.6675,205
1607014755.6694,208
1607014755.6714,193
1607014755.6734,171
1607014755.6754,140
1607014755.6774,96
1607014755.6794,53
1607014755.6815,24
1607014755.6836,0
1607014755.6855,-16
1607014755.6876,-19
1607014755.6894,-19
1607014755.6914,-21
1607014755.6934,-24
1607014755.6954,-19
1607014755.6975,-2
1607014755.6994,7
1607014755.7015,4
1607014755.7034,7
1607014755.7055,19
1607014756.0993,24
1607014756.1002,21
1607014756.1027,21
1607014756.1053,26
1607014756.1072,31
1607014756.1092,29
1607014756.1113,21
1607014756.1133,24
1607014756.1153,19
1607014756.1173,2
1607014756.1192,-4
1607014756.1212,2
1607014756.1233,4
1607014756.1252,-2
1607014756.1272,2
1607014756.1292,9
1607014756.1312,4
1607014756.1332,-7
1607014756.1352,-4
1607014756.1372,4
1607014756.1392,2
1607014756.1412,-2
1607014756.1432,0
1607014756.1452,7
1607014756.1472,14
1607014756.1492,16
1607014756.1512,14
1607014756.1532,16
1607014756.1552,21
1607014756.1572,21
1607014756.1592,24
1607014756.1612,31
1607014756.1632,29
1607014756.1652,29
1607014756.1672,38
1607014756.1692,46
1607014756.1712,55
1607014756.1733,65
1607014756.1752,58
1607014756.1773,60
1607014756.1793,70
1607014756.1811,46
1607014756.1832,16
1607014756.1852,14
1607014756.1872,21
1607014756.1892,29
1607014756.1913,31
1607014756.1933,31
1607014756.1952,14
1607014756.1972,-9
1607014756.1992,94
1607014756.2012,464
1607014756.2032,864
1607014756.2052,823
1607014756.2072,176
1607014756.2092,-520
1607014756.2112,-518
1607014756.2132,-121
1607014756.2152,-31
1607014756.2172,-62
1607014756.2193,24
1607014756.2212,48
1607014756.2232,12
1607014756.2252,29
1607014756.2272,48
1607014756.2292,41
1607014756.2312,48
1607014756.2332,53
1607014756.2352,50
1607014756.2372,50
1607014756.2392,55
1607014756.2412,55
1607014756.2433,62
1607014756.6113,70
1607014756.6122,75
1607014756.6141,77
1607014756.6160,87
1607014756.6180,96
1607014756.6199,104
1607014756.6220,99
1607014756.6240,101
1607014756.6259,118
1607014756.6279,133
1607014756.6299,138
1607014756.6319,150
1607014756.6339,167
1607014756.6359,181
1607014756.6379,193
1607014756.6398,208
1607014756.6419,210
1607014756.6441,203
1607014756.6459,188
1607014756.6479,157
1607014756.6498,118
1607014756.6518,82
1607014756.6538,53
1607014756.6558,26
1607014756.6579,12
1607014756.6598,4
1607014756.6619,2
1607014756.6638,2
1607014756.6658,4
1607014756.6678,2
1607014756.6698,7
1607014756.6719,16
1607014756.6739,21
1607014756.6759,24
1607014756.6780,29
1607014756.6798,36
1607014756.6818,38
1607014756.6838,38
1607014756.6858,43
1607014756.6878,50
1607014756.6899,48
1607014756.6919,43
1607014756.6938,43
1607014756.6958,43
1607014756.6978,36
1607014756.6998,33
1607014756.7018,36
1607014756.7039,36
1607014756.7058,31
1607014756.7078,38
1607014756.7098,43
1607014756.7118,43
1607014756.7138,43
1607014756.7158,43
1607014756.7178,46
1607014756.7199,53
1607014756.7218,58
1607014756.7239,53
1607014756.7259,50
1607014756.7278,53
1607014756.7298,53
1607014756.7318,55
1607014756.7338,60
1607014756.7358,62
1607014756.7378,60
1607014756.7398,62
1607014756.7418,70
1607014756.7438,67
1607014756.7460,72
1607014756.7479,77
1607014756.7499,77
1607014756.7518,75
1607014756.7538,75
1607014757.1512,82
1607014757.1522,89
1607014757.1547,99
1607014757.1573,123
1607014757.1593,133
1607014757.1613,118
1607014757.1634,118
1607014757.1655,111
1607014757.1673,77
1607014757.1692,58
1607014757.1712,65
1607014757.1732,62
1607014757.1753,60
1607014757.1772,70
1607014757.1793,72
1607014757.1813,60
1607014757.1832,62
1607014757.1852,205
1607014757.1872,554
1607014757.1892,837
1607014757.1912,656
1607014757.1933,-14
1607014757.1952,-547
1607014757.1973,-392
1607014757.1992,-36
1607014757.2012,9
1607014757.2032,9
1607014757.2052,84
1607014757.2073,82
1607014757.2092,60
1607014757.2112,84
1607014757.2132,94
1607014757.2152,87
1607014757.2172,96
1607014757.2192,99
1607014757.2212,92
1607014757.2232,92
1607014757.2252,92
1607014757.2272,94
1607014757.2293,101
1607014757.2312,108
1607014757.2332,108
1607014757.2352,111
1607014757.2373,121
1607014757.2392,128
1607014757.2412,135
1607014757.2434,145
1607014757.2453,152
1607014757.2472,162
1607014757.2492,181
1607014757.2512,193
1607014757.2532,203
1607014757.2552,217
1607014757.2573,230
1607014757.2592,242
1607014757.2613,261
1607014757.2632,271
1607014757.2654,266
1607014757.2673,251
1607014757.2692,225
1607014757.2712,191
1607014757.2732,154
1607014757.2752,121
1607014757.2772,92
1607014757.2792,77
1607014757.2812,67
1607014757.2833,58
1607014757.2853,53
1607014757.2873,55
1607014757.2892,60
1607014757.2912,62
1607014757.2932,67
1607014757.2952,75
1607014757.7213,79
1607014757.7223,84
1607014757.7247,92
1607014757.7274,96
1607014757.7293,89
1607014757.7313,82
1607014757.7335,84
1607014757.7354,87
1607014757.7373,84
1607014757.7393,82
1607014757.7413,82
1607014757.7433,77
1607014757.7453,72
1607014757.7473,72
1607014757.7492,77
1607014757.7512,77
1607014757.7532,75
1607014757.7552,75
1607014757.7573,79
1607014757.7592,84
1607014757.7612,84
1607014757.7632,82
1607014757.7652,82
1607014757.7672,77
1607014757.7694,79
1607014757.7713,84
1607014757.7733,89
1607014757.7752,94
1607014757.7772,94
1607014757.7792,84
1607014757.7813,82
1607014757.7832,87
1607014757.7852,89
1607014757.7873,92
1607014757.7892,96
1607014757.7912,92
1607014757.7932,84
1607014757.7952,89
1607014757.7973,96
1607014757.7993,94
1607014757.8012,89
1607014757.8032,92
1607014757.8053,96
1607014757.8073,94
1607014757.8092,94
1607014757.8112,96
1607014757.8132,101
1607014757.8152,116
1607014757.8173,138
1607014757.8192,140
1607014757.8212,135
1607014757.8232,140
1607014757.8253,123
1607014757.8272,92
1607014757.8293,82
1607014757.8313,87
1607014757.8332,87
1607014757.8352,99
1607014757.8373,113
1607014757.8392,96
1607014757.8412,55
1607014757.8432,125
1607014757.8452,440
1607014757.8473,828
1607014757.8492,876
1607014757.8512,351
1607014757.8532,-392
1607014757.8552,-568
1607014757.8572,-200
1607014757.8592,-24
1607014757.8612,-53
1607014757.8632,46
1607014757.8652,118
1607014758.3211,70
1607014758.3222,67
1607014758.3249,96
1607014758.3274,77
1607014758.3293,75
1607014758.3312,96
1607014758.3333,75
1607014758.3353,41
1607014758.3373,53
1607014758.3392,75
1607014758.3412,75
1607014758.3431,92
1607014758.3451,101
1607014758.3472,89
1607014758.3492,87
1607014758.3511,96
1607014758.3531,113
1607014758.3552,128
1607014758.3571,133
1607014758.3591,140
1607014758.3611,150
1607014758.3631,152
1607014758.3651,171
1607014758.3671,193
1607014758.3691,193
1607014758.3713,210
1607014758.3731,237
1607014758.3751,244
1607014758.3771,239
1607014758.3791,227
1607014758.3811,200
1607014758.3831,154
1607014758.3852,116
1607014758.3871,108
1607014758.3891,75
1607014758.3911,24
1607014758.3931,9
1607014758.3951,12
1607014758.3972,9
1607014758.3991,0
1607014758.4011,-4
1607014758.4031,7
1607014758.4051,29
1607014758.4071,38
1607014758.4091,26
1607014758.4111,16
1607014758.4131,24
1607014758.4152,33
1607014758.4172,29
1607014758.4191,31
1607014758.4211,41
1607014758.4231,33
1607014758.4251,29
1607014758.4273,53
1607014758.4292,62
1607014758.4311,46
1607014758.4331,36
1607014758.4351,46
1607014758.4372,48
1607014758.4391,41
1607014758.4411,33
1607014758.4431,38
1607014758.4451,46
1607014758.4472,46
1607014758.4491,41
1607014758.4511,43
1607014758.4531,46
1607014758.4551,46
1607014758.4572,48
1607014758.4592,53
1607014758.4611,53
1607014758.4632,48
1607014758.4651,50
1607014758.9817,55
1607014758.9834,55
1607014758.9859,60
1607014758.9884,62
1607014758.9904,65
1607014758.9924,67
1607014758.9945,67
1607014758.9965,67
1607014758.9984,72
1607014759.0004,82
1607014759.0024,92
1607014759.0044,101
1607014759.0063,104
1607014759.0085,101
1607014759.0105,104
1607014759.0124,89
1607014759.0144,58
1607014759.0164,50
1607014759.0183,60
1607014759.0202,60
1607014759.0223,60
1607014759.0243,65
1607014759.0263,67
1607014759.0270,55
1607014759.0283,58
1607014759.0303,225
1607014759.0323,605
1607014759.0344,876
1607014759.0363,644
1607014759.0383,-70
1607014759.0403,-583
1607014759.0425,-387
1607014759.0443,-38
1607014759.0463,-7
1607014759.0483,4
1607014759.0503,82
1607014759.0523,72
1607014759.0544,50
1607014759.0562,75
1607014759.0570,84
1607014759.0583,79
1607014759.0603,87
1607014759.0623,92
1607014759.0643,92
1607014759.0664,96
1607014759.0683,99
1607014759.0703,99
1607014759.0723,104
1607014759.0743,111
1607014759.0763,116
1607014759.0784,121
1607014759.0803,128
1607014759.0823,135
1607014759.0843,138
1607014759.0863,147
1607014759.0870,164
1607014759.0893,176
1607014759.0913,186
1607014759.0933,196
1607014759.0953,213
1607014759.0973,230
1607014759.0993,239
1607014759.1013,251
1607014759.1033,271
1607014759.1053,273
1607014759.1073,261
1607014759.1093,246
1607014759.1113,222
1607014759.1133,179
1607014759.1153,135
1607014759.1173,101
1607014759.1181,77
1607014759.1193,67
1607014759.4305,65
1607014759.4312,53
1607014759.4336,48
1607014759.4363,46
1607014759.4383,43
1607014759.4403,55
1607014759.4424,58
1607014759.4443,48
1607014759.4464,48
1607014759.4484,62
1607014759.4504,75
1607014759.4523,82
1607014759.4530,84
1607014759.4542,77
1607014759.4562,60
1607014759.4582,46
1607014759.4602,55
1607014759.4623,77
1607014759.4642,82
1607014759.4663,62
1607014759.4682,46
1607014759.4702,53
1607014759.4722,70
1607014759.4743,53
1607014759.4763,29
1607014759.4782,38
1607014759.4802,55
1607014759.4823,53
1607014759.4842,46
1607014759.4863,55
1607014759.4882,67
1607014759.4902,55
1607014759.4922,38
1607014759.4942,50
1607014759.4963,77
1607014759.4982,89
1607014759.5002,65
1607014759.5023,48
1607014759.5042,72
1607014759.5062,82
1607014759.5082,58
1607014759.5102,67
1607014759.5122,89
1607014759.5129,77
1607014759.5153,72
1607014759.5173,89
1607014759.5192,101
1607014759.5212,108
1607014759.5232,87
1607014759.5253,65
1607014759.5272,87
1607014759.5292,92
1607014759.5313,79
1607014759.5333,94
1607014759.5352,96
1607014759.5373,84
1607014759.5392,87
1607014759.5412,104
1607014759.5432,118
1607014759.5522,116
1607014759.5544,92
1607014759.5563,89
1607014759.5582,118
1607014759.5602,140
1607014759.5622,140
1607014759.5643,133
1607014759.5663,142
1607014759.5682,142
1607014759.5702,108
1607014759.5722,94
1607014759.5742,111
1607014759.5763,113
1607014759.5782,96
1607014759.9712,70
1607014759.9721,60
1607014759.9745,58
1607014759.9763,72
1607014759.9782,249
1607014759.9802,600
1607014759.9822,803
1607014759.9843,556
1607014759.9862,-65
1607014759.9882,-496
1607014759.9902,-312
1607014759.9922,-9
1607014759.9942,-4
1607014759.9962,-9
1607014759.9981,60
1607014760.0001,55
1607014760.0021,36
1607014760.0028,60
1607014760.0051,77
1607014760.0071,72
1607014760.0091,58
1607014760.0111,50
1607014760.0131,55
1607014760.0151,62
1607014760.0172,72
1607014760.0191,79
1607014760.0211,87
1607014760.0231,94
1607014760.0251,89
1607014760.0271,70
1607014760.0291,79
1607014760.0311,108
1607014760.0331,121
1607014760.0339,121
1607014760.0362,138
1607014760.0382,159
1607014760.0401,147
1607014760.0421,138
1607014760.0443,174
1607014760.0463,213
1607014760.0481,222
1607014760.0501,217
1607014760.0521,203
1607014760.0541,225
1607014760.0561,278
1607014760.0582,261
1607014760.0601,179
1607014760.0621,147
1607014760.0641,147
1607014760.0649,111
1607014760.0671,65
1607014760.0692,41
1607014760.0711,43
1607014760.0731,58
1607014760.0751,41
1607014760.0772,4
1607014760.0791,9
1607014760.0811,36
1607014760.0831,55
1607014760.0851,60
1607014760.0872,53
1607014760.0891,65
1607014760.0911,77
1607014760.0931,60
1607014760.0951,58
1607014760.0959,77
1607014760.0981,62
1607014760.1001,36
1607014760.1021,46
1607014760.1041,53
1607014760.1061,31
1607014760.1081,41
1607014760.1101,60
1607014760.5414,38
1607014760.5427,7
1607014760.5452,9
1607014760.5478,33
1607014760.5499,43
1607014760.5508,26
1607014760.5528,2
1607014760.5554,0
1607014760.5567,24
1607014760.5587,38
1607014760.5606,24
1607014760.5627,-4
1607014760.5647,-2
1607014760.5667,24
1607014760.5687,26
1607014760.5707,24
1607014760.5729,26
1607014760.5747,24
1607014760.5767,21
1607014760.5786,33
1607014760.5806,41
1607014760.5826,29
1607014760.5846,24
1607014760.5867,33
1607014760.5886,43
1607014760.5907,33
1607014760.5926,31
1607014760.5946,50
1607014760.5967,55
1607014760.5987,41
1607014760.6006,31
1607014760.6026,36
1607014760.6046,41
1607014760.6066,46
1607014760.6086,50
1607014760.6106,55
1607014760.6126,58
1607014760.6146,62
1607014760.6167,62
1607014760.6186,65
1607014760.6206,72
1607014760.6226,65
1607014760.6246,55
1607014760.6267,53
1607014760.6286,55
1607014760.6306,50
1607014760.6326,43
1607014760.6346,46
1607014760.6367,55
1607014760.6387,53
1607014760.6406,48
1607014760.6426,164
1607014760.6446,525
1607014760.6467,893
1607014760.6486,825
1607014760.6506,169
1607014760.6526,-539
1607014760.6546,-549
1607014760.6567,-145
1607014760.6586,-36
1607014760.6606,-62
1607014760.6626,21
1607014760.6646,46
1607014760.6666,14
1607014760.6686,33
1607014760.6706,48
1607014760.6726,36
1607014760.6749,36
1607014760.6770,41
1607014760.6787,43
1607014760.6807,50
1607014760.6827,58
1607014760.6846,60
1607014761.1112,58
1607014761.1120,60
1607014761.1136,65
1607014761.1156,67
1607014761.1176,72
1607014761.1196,87
1607014761.1216,99
1607014761.1236,99
1607014761.1256,99
1607014761.1276,118
1607014761.1295,133
1607014761.1315,142
1607014761.1335,157
1607014761.1356,179
1607014761.1376,196
1607014761.1396,210
1607014761.1415,222
1607014761.1435,230
1607014761.1455,232
1607014761.1476,217
1607014761.1496,186
1607014761.1516,150
1607014761.1536,108
1607014761.1556,70
1607014761.1575,41
1607014761.1595,24
1607014761.1616,12
1607014761.1636,7
1607014761.1656,7
1607014761.1676,4
1607014761.1695,4
1607014761.1715,9
1607014761.1736,16
1607014761.1756,24
1607014761.1775,26
1607014761.1795,29
1607014761.1815,36
1607014761.1835,41
1607014761.1855,43
1607014761.1876,48
1607014761.1895,53
1607014761.1915,55
1607014761.1935,53
1607014761.1955,46
1607014761.1975,46
1607014761.1997,48
1607014761.2016,43
1607014761.2035,38
1607014761.2055,43
1607014761.2076,46
1607014761.2097,41
1607014761.2115,36
1607014761.2135,36
1607014761.2155,33
1607014761.2175,31
1607014761.2195,31
1607014761.2215,36
1607014761.2236,41
1607014761.2255,38
1607014761.2275,36
1607014761.2295,38
1607014761.2316,41
1607014761.2336,38
1607014761.2355,38
1607014761.2375,43
1607014761.2395,43
1607014761.2415,43
1607014761.2435,46
1607014761.2456,50
1607014761.2476,48
1607014761.2496,46
1607014761.2515,50
1607014761.2536,53
1607014761.6812,50
1607014761.6820,50
1607014761.6832,53
1607014761.6851,53
1607014761.6872,46
1607014761.6891,41
1607014761.6912,43
1607014761.6932,46
1607014761.6951,41
1607014761.6971,29
1607014761.6991,31
1607014761.7011,41
1607014761.7031,43
1607014761.7051,50
1607014761.7071,72
1607014761.7091,77
1607014761.7111,70
1607014761.7131,72
1607014761.7151,62
1607014761.7170,36
1607014761.7190,31
1607014761.7210,33
1607014761.7231,36
1607014761.7252,41
1607014761.7271,43
1607014761.7290,38
1607014761.7310,14
1607014761.7330,36
1607014761.7350,283
1607014761.7371,709
1607014761.7391,888
1607014761.7411,474
1607014761.7431,-307
1607014761.7451,-627
1607014761.7470,-249
1607014761.7490,14
1607014761.7510,-46
1607014761.7530,-9
1607014761.7550,62
1607014761.7570,33
1607014761.7590,26
1607014761.7610,55
1607014761.7630,55
1607014761.7650,50
1607014761.7670,58
1607014761.7690,58
1607014761.7710,55
1607014761.7730,65
1607014761.7750,72
1607014761.7770,72
1607014761.7790,77
1607014761.7810,84
1607014761.7830,89
1607014761.7850,94
1607014761.7870,104
1607014761.7890,113
1607014761.7910,123
1607014761.7930,133
1607014761.7950,145
1607014761.7971,162
1607014761.7990,176
1607014761.8011,193
1607014761.8031,210
1607014761.8050,227
1607014761.8070,239
1607014761.8090,256
1607014761.8110,268
1607014761.8130,266
1607014761.8150,249
1607014761.8170,220
1607014761.8190,184
1607014761.8210,142
1607014761.8231,104
1607014762.2213,67
1607014762.2225,43
1607014762.2246,24
1607014762.2273,12
1607014762.2293,7
1607014762.2312,2
1607014762.2333,2
1607014762.2352,4
1607014762.2372,9
1607014762.2392,14
1607014762.2412,14
1607014762.2432,16
1607014762.2452,31
1607014762.2472,36
1607014762.2491,38
1607014762.2512,43
1607014762.2532,48
1607014762.2552,50
1607014762.2571,50
1607014762.2592,50
1607014762.2612,50
1607014762.2631,46
1607014762.2651,41
1607014762.2672,41
1607014762.2692,41
1607014762.2711,36
1607014762.2731,31
1607014762.2751,33
1607014762.2772,36
1607014762.2792,33
1607014762.2813,33
1607014762.2832,36
1607014762.2851,38
1607014762.2872,36
1607014762.2891,36
1607014762.2912,38
1607014762.2932,38
1607014762.2951,36
1607014762.2972,33
1607014762.2992,31
1607014762.3012,36
1607014762.3031,36
1607014762.3051,36
1607014762.3072,38
1607014762.3092,41
1607014762.3112,36
1607014762.3131,36
1607014762.3151,38
1607014762.3172,36
1607014762.3192,33
1607014762.3212,36
1607014762.3232,38
1607014762.3253,38
1607014762.3272,41
1607014762.3291,41
1607014762.3312,43
1607014762.3332,41
1607014762.3351,38
1607014762.3372,38
1607014762.3391,43
1607014762.3411,46
1607014762.3432,46
1607014762.3451,46
1607014762.3472,50
1607014762.3492,50
1607014762.3512,46
1607014762.3532,46
1607014762.3552,48
1607014762.3572,48
1607014762.3592,46
1607014762.3611,53
1607014762.3631,72
1607014762.3652,92
1607014762.7911,87
1607014762.7919,70
1607014762.7957,67
1607014762.7967,58
1607014762.7989,41
1607014762.8009,38
1607014762.8029,38
1607014762.8049,26
1607014762.8069,26
1607014762.8089,36
1607014762.8109,21
1607014762.8129,4
1607014762.8149,138
1607014762.8170,510
1607014762.8189,837
1607014762.8208,699
1607014762.8229,29
1607014762.8249,-585
1607014762.8269,-474
1607014762.8289,-75
1607014762.8309,-26
1607014762.8329,-58
1607014762.8348,26
1607014762.8368,33
1607014762.8388,4
1607014762.8409,33
1607014762.8428,43
1607014762.8448,24
1607014762.8469,31
1607014762.8489,46
1607014762.8510,46
1607014762.8529,43
1607014762.8549,46
1607014762.8570,46
1607014762.8589,43
1607014762.8608,55
1607014762.8629,65
1607014762.8649,67
1607014762.8669,70
1607014762.8689,82
1607014762.8708,94
1607014762.8728,101
1607014762.8749,106
1607014762.8769,121
1607014762.8789,142
1607014762.8809,159
1607014762.8828,179
1607014762.8848,203
1607014762.8869,220
1607014762.8889,227
1607014762.8909,239
1607014762.8928,246
1607014762.8949,244
1607014762.8969,227
1607014762.8988,188
1607014762.9009,145
1607014762.9029,104
1607014762.9049,62
1607014762.9069,24
1607014762.9089,-4
1607014762.9108,-16
1607014762.9129,-21
1607014762.9148,-29
1607014762.9169,-29
1607014762.9190,-24
1607014762.9209,-24
1607014762.9228,-24
1607014762.9249,-21
1607014762.9269,-12
1607014762.9288,-4
1607014762.9308,-2
1607014762.9328,2
1607014762.9348,9
1607014763.3309,12
1607014763.3318,12
1607014763.3329,16
1607014763.3349,14
1607014763.3368,4
1607014763.3388,7
1607014763.3408,7
1607014763.3429,0
1607014763.3450,-12
1607014763.3469,-19
1607014763.3488,-12
1607014763.3508,-2
1607014763.3529,-4
1607014763.3549,-9
1607014763.3568,-2
1607014763.3588,0
1607014763.3608,-7
1607014763.3630,-9
1607014763.3648,-7
1607014763.3668,-7
1607014763.3688,-4
1607014763.3708,-2
1607014763.3728,2
1607014763.3748,-4
1607014763.3768,-12
1607014763.3789,-7
1607014763.3808,-2
1607014763.3828,-7
1607014763.3848,-9
1607014763.3868,0
1607014763.3888,2
1607014763.3908,-2
1607014763.3928,-4
1607014763.3948,0
1607014763.3968,4
1607014763.3988,12
1607014763.4008,12
1607014763.4028,9
1607014763.4048,14
1607014763.4069,19
1607014763.4088,21
1607014763.4108,21
1607014763.4128,21
1607014763.4148,21
1607014763.4168,24
1607014763.4188,26
1607014763.4208,33
1607014763.4228,41
1607014763.4248,41
1607014763.4268,41
1607014763.4288,43
1607014763.4308,38
1607014763.4328,36
1607014763.4348,41
1607014763.4368,38
1607014763.4388,31
1607014763.4408,33
1607014763.4428,38
1607014763.4448,41
1607014763.4470,38
1607014763.4488,21
1607014763.4508,58
1607014763.4528,319
1607014763.4548,736
1607014763.4568,890
1607014763.4588,452
1607014763.4608,-329
1607014763.4629,-639
1607014763.4648,-278
1607014763.4669,-16
1607014763.4688,-53
1607014763.4708,-9
1607014763.4728,58
1607014763.9309,31
1607014763.9321,29
1607014763.9345,58
1607014763.9372,55
1607014763.9393,46
1607014763.9412,50
1607014763.9434,50
1607014763.9452,53
1607014763.9472,58
1607014763.9492,55
1607014763.9511,55
1607014763.9531,62
1607014763.9550,67
1607014763.9571,70
1607014763.9590,75
1607014763.9610,82
1607014763.9630,84
1607014763.9650,87
1607014763.9670,99
1607014763.9690,118
1607014763.9710,130
1607014763.9730,142
1607014763.9751,159
1607014763.9771,176
1607014763.9790,191
1607014763.9810,205
1607014763.9830,217
1607014763.9850,230
1607014763.9871,232
1607014763.9890,217
1607014763.9910,193
1607014763.9931,159
1607014763.9950,121
1607014763.9970,77
1607014763.9990,43
1607014764.0010,21
1607014764.0030,2
1607014764.0052,-7
1607014764.0071,-9
1607014764.0090,-12
1607014764.0110,-12
1607014764.0132,-9
1607014764.0151,-4
1607014764.0171,0
1607014764.0190,7
1607014764.0211,9
1607014764.0230,14
1607014764.0250,21
1607014764.0270,24
1607014764.0290,26
1607014764.0310,29
1607014764.0331,31
1607014764.0350,29
1607014764.0370,29
1607014764.0390,31
1607014764.0410,29
1607014764.0430,24
1607014764.0451,24
1607014764.0471,24
1607014764.0491,24
1607014764.0510,21
1607014764.0530,24
1607014764.0550,26
1607014764.0571,26
1607014764.0590,24
1607014764.0610,24
1607014764.0630,26
1607014764.0650,29
1607014764.0670,31
1607014764.0690,31
1607014764.0710,31
1607014764.0730,29
1607014764.0750,31
1607014764.4413,31
1607014764.4422,24
1607014764.4447,19
1607014764.4474,21
1607014764.4493,24
1607014764.4513,26
1607014764.4534,24
1607014764.4554,19
1607014764.4572,16
1607014764.4592,14
1607014764.4613,2
1607014764.4633,-4
1607014764.4653,0
1607014764.4673,4
1607014764.4692,4
1607014764.4715,14
1607014764.4733,16
1607014764.4752,7
1607014764.4772,12
1607014764.4792,24
1607014764.4812,12
1607014764.4832,0
1607014764.4852,12
1607014764.4873,24
1607014764.4893,21
1607014764.4912,16
1607014764.4932,21
1607014764.4952,26
1607014764.4973,26
1607014764.4992,29
1607014764.5012,29
1607014764.5032,29
1607014764.5052,31
1607014764.5072,31
1607014764.5092,29
1607014764.5112,31
1607014764.5132,36
1607014764.5152,43
1607014764.5172,46
1607014764.5192,48
1607014764.5212,62
1607014764.5232,87
1607014764.5252,79
1607014764.5272,77
1607014764.5293,89
1607014764.5312,65
1607014764.5332,33
1607014764.5352,33
1607014764.5372,41
1607014764.5392,38
1607014764.5412,43
1607014764.5432,46
1607014764.5452,33
1607014764.5473,26
1607014764.5493,159
1607014764.5512,503
1607014764.5532,796
1607014764.5552,658
1607014764.5573,19
1607014764.5592,-561
1607014764.5612,-443
1607014764.5632,-55
1607014764.5652,-14
1607014764.5673,-50
1607014764.5692,24
1607014764.5712,29
1607014764.5734,4
1607014764.5753,33
1607014764.5773,43
1607014764.5792,26
1607014764.5812,31
1607014764.5832,41
1607014764.5852,38
1607014765.0708,41
1607014765.0719,43
1607014765.0744,43
1607014765.0770,38
1607014765.0790,36
1607014765.0810,43
1607014765.0831,53
1607014765.0850,58
1607014765.0869,65
1607014765.0889,75
1607014765.0909,82
1607014765.0929,94
1607014765.0949,108
1607014765.0969,123
1607014765.0989,138
1607014765.1009,154
1607014765.1028,171
1607014765.1049,188
1607014765.1069,205
1607014765.1089,217
1607014765.1109,225
1607014765.1129,225
1607014765.1149,215
1607014765.1169,188
1607014765.1189,150
1607014765.1209,111
1607014765.1228,70
1607014765.1249,33
1607014765.1269,9
1607014765.1289,-2
1607014765.1309,-12
1607014765.1328,-14
1607014765.1349,-16
1607014765.1370,-14
1607014765.1389,-12
1607014765.1408,-4
1607014765.1429,-2
1607014765.1449,2
1607014765.1469,7
1607014765.1489,12
1607014765.1509,16
1607014765.1528,21
1607014765.1549,26
1607014765.1569,29
1607014765.1590,29
1607014765.1609,31
1607014765.1628,31
1607014765.1648,26
1607014765.1669,19
1607014765.1689,19
1607014765.1709,19
1607014765.1729,9
1607014765.1748,4
1607014765.1769,7
1607014765.1789,7
1607014765.1808,4
1607014765.1829,2
1607014765.1849,4
1607014765.1869,7
1607014765.1889,4
1607014765.1909,7
1607014765.1929,9
1607014765.1949,12
1607014765.1968,14
1607014765.1994,14
1607014765.2009,16
1607014765.2028,12
1607014765.2036,9
1607014765.2059,12
1607014765.2078,14
1607014765.2099,16
1607014765.2119,16
1607014765.2139,21
1607014765.6108,26
1607014765.6117,24
1607014765.6142,24
1607014765.6167,31
1607014765.6187,33
1607014765.6207,29
1607014765.6227,31
1607014765.6247,33
1607014765.6254,31
1607014765.6276,33
1607014765.6297,38
1607014765.6317,43
1607014765.6337,41
1607014765.6357,31
1607014765.6377,24
1607014765.6397,29
1607014765.6417,31
1607014765.6437,29
1607014765.6458,31
1607014765.6477,33
1607014765.6497,33
1607014765.6517,31
1607014765.6538,36
1607014765.6557,43
1607014765.6564,41
1607014765.6587,36
1607014765.6607,41
1607014765.6627,48
1607014765.6647,50
1607014765.6667,55
1607014765.6686,77
1607014765.6706,89
1607014765.6727,72
1607014765.6747,72
1607014765.6767,87
1607014765.6787,65
1607014765.6807,36
1607014765.6827,36
1607014765.6848,38
1607014765.6855,36
1607014765.6877,41
1607014765.6897,48
1607014765.6917,36
1607014765.6936,21
1607014765.6957,138
1607014765.6978,476
1607014765.6998,786
1607014765.7017,677
1607014765.7038,62
1607014765.7057,-544
1607014765.7077,-479
1607014765.7097,-84
1607014765.7116,-12
1607014765.7136,-48
1607014765.7156,31
1607014765.7164,43
1607014765.7186,7
1607014765.7207,29
1607014765.7227,48
1607014765.7247,29
1607014765.7267,24
1607014765.7287,33
1607014765.7307,36
1607014765.7327,38
1607014765.7347,41
1607014765.7367,41
1607014765.7386,48
1607014765.7407,55
1607014765.7426,58
1607014765.7447,62
1607014765.7467,70
1607014765.7474,72
1607014765.7497,75
1607014766.1512,84
1607014766.1522,96
1607014766.1546,111
1607014766.1573,128
1607014766.1593,142
1607014766.1612,157
1607014766.1634,167
1607014766.1653,181
1607014766.1673,200
1607014766.1693,215
1607014766.1711,213
1607014766.1732,205
1607014766.1739,193
1607014766.1762,171
1607014766.1782,133
1607014766.1801,89
1607014766.1822,53
1607014766.1841,19
1607014766.1862,-12
1607014766.1881,-31
1607014766.1901,-36
1607014766.1922,-38
1607014766.1942,-41
1607014766.1962,-38
1607014766.1982,-31
1607014766.2002,-29
1607014766.2022,-24
1607014766.2042,-16
1607014766.2049,-12
1607014766.2072,-7
1607014766.2092,-2
1607014766.2112,-2
1607014766.2132,-2
1607014766.2152,0
1607014766.2172,2
1607014766.2191,0
1607014766.2212,0
1607014766.2232,0
1607014766.2251,-4
1607014766.2272,-7
1607014766.2292,-4
1607014766.2312,-2
1607014766.2331,-9
1607014766.2352,-16
1607014766.2359,-16
1607014766.2381,-7
1607014766.2402,-4
1607014766.2422,-4
1607014766.2442,-2
1607014766.2462,-2
1607014766.2482,-4
1607014766.2504,-4
1607014766.2522,-7
1607014766.2542,-7
1607014766.2562,-2
1607014766.2582,0
1607014766.2602,-2
1607014766.2622,-2
1607014766.2642,0
1607014766.2662,2
1607014766.2669,4
1607014766.2692,4
1607014766.2712,9
1607014766.2732,12
1607014766.2751,9
1607014766.2772,12
1607014766.2792,16
1607014766.2811,12
1607014766.2832,12
1607014766.2852,16
1607014766.2872,19
1607014766.2892,21
1607014766.2912,19
1607014766.7212,16
1607014766.7220,19
1607014766.7236,21
1607014766.7262,24
1607014766.7281,29
1607014766.7301,31
1607014766.7321,26
1607014766.7341,19
1607014766.7361,14
1607014766.7380,16
1607014766.7401,21
1607014766.7421,21
1607014766.7440,31
1607014766.7461,48
1607014766.7480,62
1607014766.7500,60
1607014766.7520,55
1607014766.7540,65
1607014766.7547,55
1607014766.7570,26
1607014766.7590,16
1607014766.7610,24
1607014766.7630,19
1607014766.7650,16
1607014766.7671,26
1607014766.7690,29
1607014766.7710,19
1607014766.7730,60
1607014766.7750,300
1607014766.7772,665
1607014766.7791,798
1607014766.7810,406
1607014766.7830,-312
1607014766.7837,-622
1607014766.7860,-295
1607014766.7880,-38
1607014766.7900,-67
1607014766.7922,-24
1607014766.7940,46
1607014766.7961,16
1607014766.7980,14
1607014766.8000,43
1607014766.8020,16
1607014766.8040,-4
1607014766.8061,38
1607014766.8080,65
1607014766.8100,29
1607014766.8120,21
1607014766.8140,50
1607014766.8147,46
1607014766.8171,26
1607014766.8190,38
1607014766.8211,72
1607014766.8230,84
1607014766.8250,60
1607014766.8272,58
1607014766.8290,92
1607014766.8310,96
1607014766.8330,75
1607014766.8351,108
1607014766.8370,157
1607014766.8390,133
1607014766.8410,106
1607014766.8430,138
1607014766.8450,174
1607014766.8470,184
1607014766.8490,181
1607014766.8510,200
1607014766.8530,217
1607014766.8550,203
1607014766.8570,164
1607014766.8590,106
1607014766.8610,55
1607014767.2606,46
1607014767.2612,26
1607014767.2637,-7
1607014767.2664,-12
1607014767.2683,-24
1607014767.2703,-58
1607014767.2724,-67
1607014767.2745,-19
1607014767.2764,33
1607014767.2783,7
1607014767.2803,-26
1607014767.2823,-4
1607014767.2844,7
1607014767.2863,-4
1607014767.2883,-9
1607014767.2903,-9
1607014767.2923,-19
1607014767.2943,-24
1607014767.2964,24
1607014767.2983,75
1607014767.3003,31
1607014767.3023,-12
1607014767.3044,19
1607014767.3063,33
1607014767.3083,4
1607014767.3103,-2
1607014767.3123,12
1607014767.3143,9
1607014767.3163,-14
1607014767.3183,-31
1607014767.3203,-2
1607014767.3223,41
1607014767.3243,60
1607014767.3263,46
1607014767.3283,24
1607014767.3303,31
1607014767.3323,38
1607014767.3343,19
1607014767.3364,-12
1607014767.3382,-21
1607014767.3403,24
1607014767.3423,70
1607014767.3443,43
1607014767.3463,14
1607014767.3483,38
1607014767.3503,48
1607014767.3523,19
1607014767.3542,0
1607014767.3563,16
1607014767.3583,41
1607014767.3602,46
1607014767.3623,55
1607014767.3643,58
1607014767.3663,46
1607014767.3683,46
1607014767.3702,46
1607014767.3723,29
1607014767.3743,-2
1607014767.3765,19
1607014767.3783,55
1607014767.3803,43
1607014767.3823,60
1607014767.3843,79
1607014767.3863,50
1607014767.3883,48
1607014767.3903,60
1607014767.3923,46
1607014767.3943,26
1607014767.3963,29
1607014767.3983,53
1607014767.4003,33
1607014767.4023,7
1607014767.4043,72
1607014767.8013,123
1607014767.8022,79
1607014767.8047,55
1607014767.8073,77
1607014767.8093,94
1607014767.8112,106
1607014767.8133,104
1607014767.8153,72
1607014767.8174,29
1607014767.8192,2
1607014767.8213,31
1607014767.8232,75
1607014767.8253,65
1607014767.8272,38
1607014767.8292,19
1607014767.8312,24
1607014767.8332,106
1607014767.8352,336
1607014767.8372,644
1607014767.8392,721
1607014767.8412,341
1607014767.8432,-283
1607014767.8452,-525
1607014767.8472,-237
1607014767.8492,-16
1607014767.8512,-33
1607014767.8532,9
1607014767.8552,53
1607014767.8573,19
1607014767.8592,24
1607014767.8612,43
1607014767.8632,26
1607014767.8652,31
1607014767.8672,55
1607014767.8692,46
1607014767.8712,36
1607014767.8733,46
1607014767.8752,41
1607014767.8772,41
1607014767.8792,72
1607014767.8812,82
1607014767.8832,50
1607014767.8852,55
1607014767.8872,82
1607014767.8892,79
1607014767.8912,67
1607014767.8932,84
1607014767.8951,113
1607014767.8972,106
1607014767.8992,99
1607014767.9012,138
1607014767.9032,169
1607014767.9052,176
1607014767.9073,200
1607014767.9092,210
1607014767.9112,200
1607014767.9132,210
1607014767.9152,222
1607014767.9171,208
1607014767.9192,174
1607014767.9212,128
1607014767.9232,84
1607014767.9252,65
1607014767.9272,46
1607014767.9292,7
1607014767.9312,2
1607014767.9332,26
1607014767.9352,12
1607014767.9372,-12
1607014767.9392,0
1607014767.9412,4
1607014767.9432,-19
1607014767.9452,-16
1607014768.4013,36
1607014768.4022,58
1607014768.4047,4
1607014768.4074,-16
1607014768.4093,9
1607014768.4114,16
1607014768.4133,19
1607014768.4153,26
1607014768.4173,12
1607014768.4193,-12
1607014768.4213,-12
1607014768.4233,2
1607014768.4253,-4
1607014768.4273,0
1607014768.4295,21
1607014768.4314,26
1607014768.4333,4
1607014768.4352,-2
1607014768.4374,12
1607014768.4392,12
1607014768.4413,-4
1607014768.4432,-21
1607014768.4453,-24
1607014768.4473,19
1607014768.4493,50
1607014768.4513,14
1607014768.4533,-29
1607014768.4553,-16
1607014768.4573,31
1607014768.4592,48
1607014768.4612,19
1607014768.4632,-2
1607014768.4652,-2
1607014768.4672,12
1607014768.4692,12
1607014768.4712,-4
1607014768.4733,7
1607014768.4752,41
1607014768.4772,38
1607014768.4792,9
1607014768.4813,-9
1607014768.4832,7
1607014768.4852,55
1607014768.4872,50
1607014768.4892,7
1607014768.4912,9
1607014768.4933,21
1607014768.4953,21
1607014768.4973,36
1607014768.4993,36
1607014768.5013,24
1607014768.5033,29
1607014768.5053,21
1607014768.5074,31
1607014768.5092,50
1607014768.5112,24
1607014768.5132,4
1607014768.5152,36
1607014768.5172,55
1607014768.5192,46
1607014768.5212,38
1607014768.5232,29
1607014768.5251,21
1607014768.5260,29
1607014768.5272,48
1607014768.5294,89
1607014768.5313,106
1607014768.5332,77
1607014768.5352,67
1607014768.5372,60
1607014768.5392,41
1607014768.5412,36
1607014768.5432,33
1607014769.0013,29
1607014769.0025,19
1607014769.0048,-4
1607014769.0075,14
1607014769.0095,82
1607014769.0115,154
1607014769.0123,365
1607014769.0136,656
1607014769.0155,651
1607014769.0175,179
1607014769.0196,-387
1607014769.0216,-491
1607014769.0235,-215
1607014769.0256,-48
1607014769.0275,-46
1607014769.0295,-19
1607014769.0315,12
1607014769.0335,12
1607014769.0355,19
1607014769.0375,16
1607014769.0395,-7
1607014769.0414,0
1607014769.0422,38
1607014769.0434,41
1607014769.0454,36
1607014769.0475,50
1607014769.0494,43
1607014769.0514,36
1607014769.0534,38
1607014769.0554,38
1607014769.0575,43
1607014769.0595,38
1607014769.0614,16
1607014769.0634,41
1607014769.0654,99
1607014769.0675,101
1607014769.0694,84
1607014769.0715,94
1607014769.0722,99
1607014769.0736,116
1607014769.0754,145
1607014769.0775,145
1607014769.0794,145
1607014769.0816,159
1607014769.0835,152
1607014769.0855,154
1607014769.0875,208
1607014769.0894,225
1607014769.0914,150
1607014769.0934,99
1607014769.0954,89
1607014769.0974,55
1607014769.0994,26
1607014769.1014,16
1607014769.1021,-4
1607014769.1034,-24
1607014769.1054,-12
1607014769.1074,26
1607014769.1094,26
1607014769.1115,-9
1607014769.1134,-14
1607014769.1154,-7
1607014769.1175,-2
1607014769.1194,16
1607014769.1214,19
1607014769.1234,0
1607014769.1254,-24
1607014769.1274,-53
1607014769.1294,-12
1607014769.1314,62
1607014769.1321,41
1607014769.1334,-4
1607014769.1354,2
1607014769.5408,2
1607014769.5417,-16
1607014769.5442,-29
1607014769.5468,-50
1607014769.5488,-38
1607014769.5508,16
1607014769.5528,36
1607014769.5548,7
1607014769.5567,-4
1607014769.5587,-9
1607014769.5607,-14
1607014769.5614,-9
1607014769.5627,-16
1607014769.5647,-24
1607014769.5667,-7
1607014769.5687,12
1607014769.5706,-4
1607014769.5727,-29
1607014769.5747,-24
1607014769.5767,-4
1607014769.5786,2
1607014769.5808,-9
1607014769.5827,-12
1607014769.5847,7
1607014769.5867,19
1607014769.5887,0
1607014769.5907,-14
1607014769.5913,9
1607014769.5927,31
1607014769.5946,24
1607014769.5967,7
1607014769.5986,9
1607014769.6007,29
1607014769.6026,29
1607014769.6047,21
1607014769.6067,14
1607014769.6086,16
1607014769.6107,38
1607014769.6127,48
1607014769.6147,33
1607014769.6167,24
1607014769.6187,41
1607014769.6206,72
1607014769.6213,75
1607014769.6227,62
1607014769.6247,82
1607014769.6267,96
1607014769.6287,72
1607014769.6307,46
1607014769.6326,65
1607014769.6349,92
1607014769.6367,72
1607014769.6386,50
1607014769.6406,43
1607014769.6427,36
1607014769.6446,46
1607014769.6467,58
1607014769.6487,31
1607014769.6506,7
1607014769.6513,191
1607014769.6526,610
1607014769.6546,825
1607014769.6566,501
1607014769.6586,-150
1607014769.6607,-530
1607014769.6626,-348
1607014769.6646,-92
1607014769.6667,-70
1607014769.6687,-24
1607014769.6706,36
1607014769.6727,-19
1607014769.6746,-29
1607014769.6768,50
1607014770.1112,53
1607014770.1120,-12
1607014770.1144,-16
1607014770.1171,26
1607014770.1191,21
1607014770.1210,-24
1607014770.1231,-21
1607014770.1251,24
1607014770.1271,19
1607014770.1290,-7
1607014770.1310,-7
1607014770.1330,-19
1607014770.1350,-2
1607014770.1370,24
1607014770.1390,-4
1607014770.1397,4
1607014770.1410,79
1607014770.1430,84
1607014770.1450,50
1607014770.1470,72
1607014770.1490,94
1607014770.1510,106
1607014770.1530,154
1607014770.1550,176
1607014770.1570,162
1607014770.1590,174
1607014770.1610,191
1607014770.1630,167
1607014770.1650,138
1607014770.1670,125
1607014770.1690,96
1607014770.1696,53
1607014770.1710,16
1607014770.1730,-7
1607014770.1750,-19
1607014770.1770,-24
1607014770.1791,-21
1607014770.1810,-19
1607014770.1830,-24
1607014770.1850,-29
1607014770.1870,-19
1607014770.1890,-2
1607014770.1910,2
1607014770.1930,-16
1607014770.1950,-31
1607014770.1970,2
1607014770.1976,38
1607014770.1990,29
1607014770.2009,14
1607014770.2030,19
1607014770.2052,26
1607014770.2073,31
1607014770.2090,24
1607014770.2110,0
1607014770.2130,0
1607014770.2150,33
1607014770.2170,46
1607014770.2191,21
1607014770.2210,14
1607014770.2230,21
1607014770.2249,9
1607014770.2270,0
1607014770.2277,7
1607014770.2290,19
1607014770.2310,21
1607014770.2331,14
1607014770.2350,7
1607014770.2370,7
1607014770.2390,4
1607014770.2410,9
1607014770.2430,9
1607014770.2450,-4
1607014770.2470,-4
1607014770.6213,7
1607014770.6221,12
1607014770.6245,12
1607014770.6263,12
1607014770.6283,12
1607014770.6290,14
1607014770.6303,16
1607014770.6323,14
1607014770.6343,16
1607014770.6363,16
1607014770.6382,9
1607014770.6402,4
1607014770.6422,7
1607014770.6442,19
1607014770.6462,26
1607014770.6481,29
1607014770.6501,48
1607014770.6521,67
1607014770.6541,62
1607014770.6561,65
1607014770.6582,67
1607014770.6588,36
1607014770.6601,16
1607014770.6621,21
1607014770.6641,26
1607014770.6662,26
1607014770.6681,31
1607014770.6701,33
1607014770.6723,21
1607014770.6741,24
1607014770.6761,184
1607014770.6781,573
1607014770.6801,886
1607014770.6821,690
1607014770.6841,-38
1607014770.6861,-624
1607014770.6881,-474
1607014770.6888,-99
1607014770.6901,-53
1607014770.6921,-53
1607014770.6941,36
1607014770.6961,38
1607014770.6981,9
1607014770.7001,31
1607014770.7021,46
1607014770.7041,41
1607014770.7062,43
1607014770.7081,48
1607014770.7101,50
1607014770.7122,55
1607014770.7141,58
1607014770.7162,60
1607014770.7183,62
1607014770.7188,67
1607014770.7201,72
1607014770.7221,77
1607014770.7241,82
1607014770.7261,89
1607014770.7281,94
1607014770.7302,96
1607014770.7321,104
1607014770.7341,121
1607014770.7361,135
1607014770.7381,145
1607014770.7401,162
1607014770.7423,181
1607014770.7442,193
1607014770.7461,205
1607014770.7481,222
1607014770.7488,230
1607014770.7501,222
1607014770.7521,203
1607014770.7541,174
1607014771.1911,138
1607014771.1920,96
1607014771.1945,60
1607014771.1971,29
1607014771.1990,4
1607014771.2011,-16
1607014771.2034,-24
1607014771.2051,-24
1607014771.2070,-26
1607014771.2090,-26
1607014771.2097,-21
1607014771.2111,-16
1607014771.2131,-9
1607014771.2150,-4
1607014771.2170,2
1607014771.2190,4
1607014771.2210,2
1607014771.2230,4
1607014771.2250,12
1607014771.2270,16
1607014771.2290,16
1607014771.2310,14
1607014771.2330,14
1607014771.2350,16
1607014771.2370,14
1607014771.2390,9
1607014771.2396,9
1607014771.2410,9
1607014771.2430,7
1607014771.2450,4
1607014771.2470,7
1607014771.2490,9
1607014771.2510,7
1607014771.2531,4
1607014771.2550,4
1607014771.2570,7
1607014771.2590,7
1607014771.2610,4
1607014771.2630,2
1607014771.2650,-2
1607014771.2670,-2
1607014771.2690,-2
1607014771.2696,-14
1607014771.2710,-12
1607014771.2730,-2
1607014771.2750,-2
1607014771.2770,-9
1607014771.2789,-14
1607014771.2810,-19
1607014771.2830,-21
1607014771.2850,-21
1607014771.2870,-24
1607014771.2890,-33
1607014771.2910,-36
1607014771.2930,-33
1607014771.2950,-43
1607014771.2970,-60
1607014771.2991,-43
1607014771.2996,-12
1607014771.3010,4
1607014771.3030,9
1607014771.3050,2
1607014771.3070,9
1607014771.3090,7
1607014771.3110,-31
1607014771.3130,-50
1607014771.3150,-48
1607014771.3170,-48
1607014771.3190,-41
1607014771.3210,-33
1607014771.3230,-31
1607014771.3250,-43
1607014771.3270,-50
1607014771.7910,94
1607014771.7919,457
1607014771.7943,736
1607014771.7970,547
1607014771.7990,-121
1607014771.8010,-670
1607014771.8031,-513
1607014771.8050,-116
1607014771.8070,-79
1607014771.8090,-116
1607014771.8110,-33
1607014771.8130,-26
1607014771.8150,-53
1607014771.8169,-26
1607014771.8190,-19
1607014771.8210,-36
1607014771.8216,-26
1607014771.8230,-9
1607014771.8250,-4
1607014771.8270,0
1607014771.8289,4
1607014771.8309,7
1607014771.8329,9
1607014771.8349,14
1607014771.8369,19
1607014771.8389,26
1607014771.8409,33
1607014771.8429,48
1607014771.8449,58
1607014771.8469,58
1607014771.8489,67
1607014771.8509,92
1607014771.8516,104
1607014771.8529,108
1607014771.8549,125
1607014771.8570,154
1607014771.8590,174
1607014771.8609,179
1607014771.8629,181
1607014771.8649,193
1607014771.8669,193
1607014771.8689,179
1607014771.8709,164
1607014771.8729,133
1607014771.8749,77
1607014771.8769,26
1607014771.8789,2
1607014771.8809,-2
1607014771.8816,-12
1607014771.8829,-24
1607014771.8849,-31
1607014771.8870,-33
1607014771.8889,-24
1607014771.8909,-19
1607014771.8929,-19
1607014771.8949,-12
1607014771.8969,2
1607014771.8989,4
1607014771.9009,0
1607014771.9029,12
1607014771.9049,21
1607014771.9069,19
1607014771.9089,19
1607014771.9111,21
1607014771.9116,16
1607014771.9129,16
1607014771.9149,19
1607014771.9170,19
1607014771.9189,9
1607014771.9210,0
1607014771.9229,0
1607014771.9249,-4
1607014771.9269,-26
1607014772.3308,-41
1607014772.3317,-26
1607014772.3341,14
1607014772.3368,43
1607014772.3374,33
1607014772.3397,19
1607014772.3417,7
1607014772.3437,-14
1607014772.3457,-26
1607014772.3477,-19
1607014772.3497,0
1607014772.3517,4
1607014772.3537,-9
1607014772.3559,-12
1607014772.3577,-4
1607014772.3596,-14
1607014772.3616,-19
1607014772.3637,-12
1607014772.3657,-14
1607014772.3677,-14
1607014772.3683,-2
1607014772.3696,2
1607014772.3717,2
1607014772.3737,14
1607014772.3756,14
1607014772.3776,4
1607014772.3797,-4
1607014772.3817,-26
1607014772.3837,-70
1607014772.3857,-72
1607014772.3877,-12
1607014772.3896,16
1607014772.3917,-21
1607014772.3937,-33
1607014772.3957,-4
1607014772.3978,12
1607014772.3983,14
1607014772.3997,2
1607014772.4016,16
1607014772.4036,58
1607014772.4058,58
1607014772.4077,29
1607014772.4096,21
1607014772.4116,12
1607014772.4136,-14
1607014772.4156,-19
1607014772.4176,-9
1607014772.4196,-7
1607014772.4217,4
1607014772.4237,-2
1607014772.4256,-31
1607014772.4279,-41
1607014772.4283,-7
1607014772.4297,162
1607014772.4316,518
1607014772.4338,762
1607014772.4357,535
1607014772.4377,-130
1607014772.4397,-610
1607014772.4417,-423
1607014772.4436,-89
1607014772.4456,-77
1607014772.4476,-99
1607014772.4496,-16
1607014772.4518,26
1607014772.4537,24
1607014772.4556,-4
1607014772.4577,-24
1607014772.4583,0
1607014772.4596,31
1607014772.4616,24
1607014772.4637,-16
1607014772.4656,-21
1607014772.9013,48
1607014772.9022,96
1607014772.9046,50
1607014772.9073,19
1607014772.9093,29
1607014772.9113,24
1607014772.9133,33
1607014772.9153,43
1607014772.9174,33
1607014772.9193,55
1607014772.9213,77
1607014772.9219,53
1607014772.9232,60
1607014772.9253,111
1607014772.9272,142
1607014772.9292,145
1607014772.9312,147
1607014772.9332,196
1607014772.9352,230
1607014772.9372,191
1607014772.9392,169
1607014772.9412,203
1607014772.9432,191
1607014772.9452,123
1607014772.9474,79
1607014772.9492,50
1607014772.9512,9
1607014772.9518,-4
1607014772.9532,-12
1607014772.9552,-46
1607014772.9571,-43
1607014772.9593,-7
1607014772.9612,-21
1607014772.9632,-41
1607014772.9652,-19
1607014772.9673,-7
1607014772.9692,-12
1607014772.9712,-4
1607014772.9732,9
1607014772.9752,12
1607014772.9772,16
1607014772.9792,21
1607014772.9813,29
1607014772.9820,38
1607014772.9832,38
1607014772.9851,36
1607014772.9873,41
1607014772.9892,36
1607014772.9912,26
1607014772.9932,29
1607014772.9952,33
1607014772.9972,36
1607014772.9992,38
1607014773.0012,38
1607014773.0032,43
1607014773.0051,46
1607014773.0072,43
1607014773.0092,48
1607014773.0111,53
1607014773.0119,43
1607014773.0132,41
1607014773.0152,53
1607014773.0172,55
1607014773.0193,50
1607014773.0212,53
1607014773.0232,62
1607014773.0252,58
1607014773.0272,58
1607014773.0292,60
1607014773.0312,58
1607014773.0331,55
1607014773.0352,60
1607014773.0372,62
1607014773.4413,65
1607014773.4422,67
1607014773.4448,72
1607014773.4473,89
1607014773.4493,99
1607014773.4513,87
1607014773.4533,92
1607014773.4553,99
1607014773.4573,67
1607014773.4593,36
1607014773.4613,31
1607014773.4633,26
1607014773.4653,26
1607014773.4674,36
1607014773.4692,41
1607014773.4699,29
1607014773.4712,4
1607014773.4732,55
1607014773.4752,348
1607014773.4772,779
1607014773.4794,900
1607014773.4813,399
1607014773.4832,-409
1607014773.4852,-644
1607014773.4872,-237
1607014773.4892,-21
1607014773.4912,-77
1607014773.4932,-19
1607014773.4952,38
1607014773.4972,2
1607014773.4992,4
1607014773.4999,36
1607014773.5012,33
1607014773.5032,29
1607014773.5053,38
1607014773.5065,46
1607014773.5082,46
1607014773.5102,46
1607014773.5123,50
1607014773.5142,58
1607014773.5163,62
1607014773.5182,65
1607014773.5202,70
1607014773.5222,77
1607014773.5242,84
1607014773.5262,89
1607014773.5269,99
1607014773.5282,111
1607014773.5302,123
1607014773.5322,135
1607014773.5342,150
1607014773.5363,167
1607014773.5382,188
1607014773.5402,200
1607014773.5422,215
1607014773.5443,230
1607014773.5463,239
1607014773.5482,237
1607014773.5502,220
1607014773.5522,191
1607014773.5543,150
1607014773.5563,106
1607014773.5568,67
1607014773.5582,33
1607014773.5602,9
1607014773.5622,-7
1607014773.5642,-14
1607014773.5663,-19
1607014773.5682,-19
1607014773.5702,-16
1607014773.5722,-12
1607014773.5744,-7
1607014773.5763,-4
1607014773.9811,-4
1607014773.9820,2
1607014773.9844,9
1607014773.9872,14
1607014773.9891,16
1607014773.9902,21
1607014773.9922,19
1607014773.9942,14
1607014773.9962,9
1607014773.9981,12
1607014774.0001,9
1607014774.0021,4
1607014774.0041,4
1607014774.0062,2
1607014774.0081,-2
1607014774.0101,-9
1607014774.0121,-9
1607014774.0141,-7
1607014774.0161,-7
1607014774.0181,-4
1607014774.0201,0
1607014774.0206,0
1607014774.0221,0
1607014774.0241,-2
1607014774.0261,0
1607014774.0281,4
1607014774.0301,2
1607014774.0321,2
1607014774.0340,7
1607014774.0360,4
1607014774.0381,2
1607014774.0401,4
1607014774.0421,7
1607014774.0441,4
1607014774.0461,4
1607014774.0480,4
1607014774.0500,7
1607014774.0506,7
1607014774.0520,9
1607014774.0540,9
1607014774.0560,9
1607014774.0580,4
1607014774.0600,2
1607014774.0620,9
1607014774.0640,12
1607014774.0661,12
1607014774.0681,12
1607014774.0700,19
1607014774.0720,26
1607014774.0741,41
1607014774.0761,55
1607014774.0781,48
1607014774.0800,46
1607014774.0806,53
1607014774.0820,33
1607014774.0840,4
1607014774.0861,2
1607014774.0880,4
1607014774.0900,2
1607014774.0920,7
1607014774.0940,12
1607014774.0961,2
1607014774.0980,-24
1607014774.1000,21
1607014774.1021,300
1607014774.1040,709
1607014774.1060,840
1607014774.1080,382
1607014774.1100,-392
1607014774.1106,-644
1607014774.1120,-249
1607014774.1141,-26
1607014774.1161,-92
1607014774.5509,-41
1607014774.5520,19
1607014774.5544,-14
1607014774.5571,-16
1607014774.5591,4
1607014774.5611,-2
1607014774.5632,-4
1607014774.5651,4
1607014774.5672,2
1607014774.5691,2
1607014774.5699,9
1607014774.5711,12
1607014774.5731,14
1607014774.5751,21
1607014774.5772,29
1607014774.5792,33
1607014774.5811,38
1607014774.5831,46
1607014774.5851,58
1607014774.5871,65
1607014774.5890,75
1607014774.5911,87
1607014774.5930,101
1607014774.5950,118
1607014774.5971,138
1607014774.5979,157
1607014774.5990,174
1607014774.6013,188
1607014774.6031,203
1607014774.6051,215
1607014774.6070,220
1607014774.6090,208
1607014774.6110,179
1607014774.6130,140
1607014774.6150,99
1607014774.6171,58
1607014774.6190,21
1607014774.6210,-4
1607014774.6231,-21
1607014774.6250,-36
1607014774.6271,-41
1607014774.6352,-38
1607014774.6370,-36
1607014774.6390,-36
1607014774.6410,-29
1607014774.6430,-19
1607014774.6450,-14
1607014774.6470,-9
1607014774.6490,-7
1607014774.6510,-2
1607014774.6530,4
1607014774.6550,7
1607014774.6569,9
1607014774.6590,12
1607014774.6610,12
1607014774.6630,14
1607014774.6636,14
1607014774.6649,12
1607014774.6670,9
1607014774.6690,7
1607014774.6710,7
1607014774.6730,7
1607014774.6750,4
1607014774.6770,0
1607014774.6790,-2
1607014774.6810,-2
1607014774.6830,0
1607014774.6850,0
1607014774.6870,2
1607014774.6890,4
1607014774.6910,4
1607014774.6930,4
1607014774.6936,7
1607014775.1510,2
1607014775.1518,-4
1607014775.1542,-2
1607014775.1570,2
1607014775.1590,0
1607014775.1612,-4
1607014775.1631,-7
1607014775.1650,-4
1607014775.1670,-2
1607014775.1691,-4
1607014775.1710,-2
1607014775.1730,4
1607014775.1736,4
1607014775.1750,7
1607014775.1770,9
1607014775.1789,12
1607014775.1809,16
1607014775.1829,21
1607014775.1849,33
1607014775.1869,55
1607014775.1889,53
1607014775.1909,43
1607014775.1929,53
1607014775.1949,46
1607014775.1970,7
1607014775.1989,-7
1607014775.2009,0
1607014775.2029,2
1607014775.2035,4
1607014775.2049,9
1607014775.2068,7
1607014775.2089,-14
1607014775.2109,-9
1607014775.2129,188
1607014775.2149,602
1607014775.2169,869
1607014775.2189,583
1607014775.2208,-191
1607014775.2229,-668
1607014775.2249,-380
1607014775.2269,-41
1607014775.2289,-70
1607014775.2309,-62
1607014775.2329,24
1607014775.2335,4
1607014775.2349,-12
1607014775.2368,19
1607014775.2389,24
1607014775.2409,14
1607014775.2429,21
1607014775.2449,31
1607014775.2469,29
1607014775.2489,31
1607014775.2509,36
1607014775.2528,38
1607014775.2549,38
1607014775.2570,43
1607014775.2589,48
1607014775.2609,53
1607014775.2629,60
1607014775.2635,67
1607014775.2649,77
1607014775.2669,87
1607014775.2689,96
1607014775.2708,108
1607014775.2729,123
1607014775.2749,135
1607014775.2769,152
1607014775.2789,169
1607014775.2809,184
1607014775.2829,198
1607014775.2849,213
1607014775.2869,217
1607014775.6913,208
1607014775.6921,186
1607014775.6946,152
1607014775.6958,108
1607014775.6973,67
1607014775.6993,31
1607014775.7013,2
1607014775.7033,-16
1607014775.7053,-26
1607014775.7072,-33
1607014775.7092,-41
1607014775.7113,-46
1607014775.7132,-41
1607014775.7152,-33
1607014775.7173,-31
1607014775.7193,-29
1607014775.7212,-19
1607014775.7232,-12
1607014775.7252,-7
1607014775.7259,-4
1607014775.7272,0
1607014775.7292,2
1607014775.7312,7
1607014775.7332,9
1607014775.7352,12
1607014775.7371,12
1607014775.7392,7
1607014775.7412,7
1607014775.7432,7
1607014775.7452,7
1607014775.7472,7
1607014775.7492,4
1607014775.7512,4
1607014775.7532,4
1607014775.7554,7
1607014775.7558,7
1607014775.7572,9
1607014775.7592,9
1607014775.7612,9
1607014775.7632,12
1607014775.7652,14
1607014775.7672,14
1607014775.7692,16
1607014775.7711,19
1607014775.7732,19
1607014775.7752,19
1607014775.7772,19
1607014775.7792,21
1607014775.7811,29
1607014775.7833,41
1607014775.7852,60
1607014775.7858,67
1607014775.7872,58
1607014775.7892,62
1607014775.7911,58
1607014775.7932,24
1607014775.7951,4
1607014775.7972,9
1607014775.7991,4
1607014775.8012,4
1607014775.8032,14
1607014775.8052,12
1607014775.8072,-2
1607014775.8092,-24
1607014775.8112,50
1607014775.8132,380
1607014775.8152,796
1607014775.8158,835
1607014775.8174,239
1607014775.8192,-527
1607014775.8212,-610
1607014775.8232,-174
1607014775.8252,-31
1607014776.2609,-89
1607014776.2617,-16
1607014776.2641,19
1607014776.2669,-21
1607014776.2688,-9
1607014776.2708,14
1607014776.2729,2
1607014776.2748,-4
1607014776.2754,0
1607014776.2768,2
1607014776.2787,7
1607014776.2808,12
1607014776.2830,14
1607014776.2848,16
1607014776.2868,24
1607014776.2888,29
1607014776.2908,36
1607014776.2928,43
1607014776.2948,50
1607014776.2968,55
1607014776.2988,65
1607014776.3009,79
1607014776.3028,92
1607014776.3048,106
1607014776.3053,123
1607014776.3067,138
1607014776.3088,152
1607014776.3107,169
1607014776.3127,186
1607014776.3147,198
1607014776.3168,205
1607014776.3188,200
1607014776.3208,184
1607014776.3227,154
1607014776.3247,116
1607014776.3268,75
1607014776.3287,38
1607014776.3307,4
1607014776.3327,-19
1607014776.3347,-31
1607014776.3353,-36
1607014776.3368,-36
1607014776.3387,-33
1607014776.3407,-33
1607014776.3427,-29
1607014776.3448,-21
1607014776.3467,-16
1607014776.3487,-9
1607014776.3507,-4
1607014776.3527,-2
1607014776.3547,-2
1607014776.3569,0
1607014776.3588,2
1607014776.3607,7
1607014776.3627,7
1607014776.3647,4
1607014776.3653,4
1607014776.3668,4
1607014776.3687,4
1607014776.3707,2
1607014776.3727,2
1607014776.3747,2
1607014776.3768,2
1607014776.3789,2
1607014776.3808,2
1607014776.3827,2
1607014776.3847,4
1607014776.3867,4
1607014776.3887,4
1607014776.3907,4
1607014776.3927,4
1607014776.3947,4
1607014776.3953,9
1607014776.8012,7
1607014776.8020,7
1607014776.8044,12
1607014776.8071,14
1607014776.8091,14
1607014776.8112,14
1607014776.8132,14
1607014776.8151,16
1607014776.8171,14
1607014776.8191,7
1607014776.8211,7
1607014776.8231,12
1607014776.8251,12
1607014776.8271,12
1607014776.8276,14
1607014776.8291,19
1607014776.8311,16
1607014776.8331,14
1607014776.8351,14
1607014776.8371,16
1607014776.8391,16
1607014776.8410,16
1607014776.8431,19
1607014776.8451,21
1607014776.8471,19
1607014776.8491,21
1607014776.8511,26
1607014776.8531,29
1607014776.8551,31
1607014776.8570,38
1607014776.8576,41
1607014776.8590,41
1607014776.8610,36
1607014776.8630,36
1607014776.8650,41
1607014776.8671,36
1607014776.8690,24
1607014776.8710,24
1607014776.8730,29
1607014776.8750,26
1607014776.8770,16
1607014776.8792,-9
1607014776.8811,21
1607014776.8830,288
1607014776.8850,709
1607014776.8870,857
1607014776.8876,404
1607014776.8890,-382
1607014776.8910,-644
1607014776.8931,-254
1607014776.8950,-29
1607014776.8970,-87
1607014776.8990,-36
1607014776.9010,21
1607014776.9030,-14
1607014776.9050,-12
1607014776.9070,16
1607014776.9090,14
1607014776.9110,12
1607014776.9130,24
1607014776.9150,21
1607014776.9171,16
1607014776.9177,24
1607014776.9190,29
1607014776.9210,29
1607014776.9230,33
1607014776.9250,36
1607014776.9270,36
1607014776.9290,48
1607014776.9310,58
1607014776.9330,62
1607014776.9350,67
1607014776.9371,72
1607014777.3714,82
1607014777.3723,96
1607014777.3747,113
1607014777.3759,133
1607014777.3774,150
1607014777.3795,162
1607014777.3815,169
1607014777.3835,181
1607014777.3854,193
1607014777.3874,200
1607014777.3895,193
1607014777.3914,169
1607014777.3935,140
1607014777.3955,104
1607014777.3975,58
1607014777.3994,16
1607014777.4015,-12
1607014777.4035,-36
1607014777.4054,-50
1607014777.4063,-60
1607014777.4074,-62
1607014777.4094,-60
1607014777.4114,-55
1607014777.4134,-55
1607014777.4154,-48
1607014777.4173,-38
1607014777.4193,-31
1607014777.4214,-26
1607014777.4234,-29
1607014777.4254,-36
1607014777.4274,-33
1607014777.4294,-26
1607014777.4314,-19
1607014777.4334,-21
1607014777.4354,-36
1607014777.4359,-58
1607014777.4374,-87
1607014777.4394,-94
1607014777.4414,-72
1607014777.4434,-72
1607014777.4454,-60
1607014777.4474,-38
1607014777.4493,-58
1607014777.4513,-72
1607014777.4534,-31
1607014777.4553,-7
1607014777.4574,-62
1607014777.4593,-87
1607014777.4613,-43
1607014777.4633,-21
1607014777.4653,-31
1607014777.4659,-46
1607014777.4673,-65
1607014777.4693,-53
1607014777.4713,-21
1607014777.4733,-24
1607014777.4753,-48
1607014777.4773,-58
1607014777.4794,-58
1607014777.4813,-36
1607014777.4833,-38
1607014777.4853,-82
1607014777.4873,-82
1607014777.4893,-9
1607014777.4913,19
1607014777.4933,-26
1607014777.4953,-48
1607014777.4959,-26
1607014777.4973,-38
1607014777.4993,-87
1607014777.5016,-53
1607014777.5034,29
1607014777.5053,2
1607014777.9112,-60
1607014777.9122,-29
1607014777.9146,-31
1607014777.9174,-48
1607014777.9193,38
1607014777.9213,72
1607014777.9233,-19
1607014777.9253,-46
1607014777.9273,-12
1607014777.9293,-38
1607014777.9298,-29
1607014777.9313,24
1607014777.9332,-7
1607014777.9352,-46
1607014777.9373,-33
1607014777.9393,-55
1607014777.9412,-96
1607014777.9433,-62
1607014777.9453,33
1607014777.9472,259
1607014777.9492,634
1607014777.9512,815
1607014777.9532,392
1607014777.9552,-414
1607014777.9572,-719
1607014777.9592,-317
1607014777.9598,-38
1607014777.9612,-135
1607014777.9632,-152
1607014777.9652,-82
1607014777.9672,-72
1607014777.9692,-79
1607014777.9712,-70
1607014777.9732,0
1607014777.9752,29
1607014777.9773,-58
1607014777.9792,-94
1607014777.9812,-33
1607014777.9832,-7
1607014777.9852,-46
1607014777.9872,-24
1607014777.9892,12
1607014777.9898,-58
1607014777.9912,-48
1607014777.9932,53
1607014777.9952,33
1607014777.9972,-7
1607014777.9992,-4
1607014778.0014,9
1607014778.0032,67
1607014778.0052,108
1607014778.0072,104
1607014778.0092,79
1607014778.0111,70
1607014778.0132,113
1607014778.0152,152
1607014778.0172,159
1607014778.0192,184
1607014778.0198,176
1607014778.0212,128
1607014778.0232,154
1607014778.0252,159
1607014778.0272,108
1607014778.0293,125
1607014778.0312,101
1607014778.0332,19
1607014778.0352,-2
1607014778.0373,33
1607014778.0392,70
1607014778.0411,60
1607014778.0432,9
1607014778.0451,-14
1607014778.0472,16
1607014778.5113,55
1607014778.5125,50
1607014778.5149,-2
1607014778.5177,21
1607014778.5197,89
1607014778.5216,58
1607014778.5237,60
1607014778.5256,111
1607014778.5277,94
1607014778.5296,118
1607014778.5316,188
1607014778.5337,159
1607014778.5344,118
1607014778.5356,188
1607014778.5376,227
1607014778.5397,174
1607014778.5416,174
1607014778.5438,210
1607014778.5456,188
1607014778.5476,196
1607014778.5496,227
1607014778.5516,208
1607014778.5536,176
1607014778.5555,179
1607014778.5578,198
1607014778.5596,186
1607014778.5618,162
1607014778.5623,152
1607014778.5636,157
1607014778.5656,181
1607014778.5675,174
1607014778.5696,154
1607014778.5716,164
1607014778.5735,138
1607014778.5756,96
1607014778.5775,106
1607014778.5796,96
1607014778.5815,60
1607014778.5837,48
1607014778.5856,-2
1607014778.5875,-70
1607014778.5895,-89
1607014778.5916,-121
1607014778.5921,-193
1607014778.5935,-244
1607014778.5955,-268
1607014778.5975,-307
1607014778.5996,-324
1607014778.6015,-314
1607014778.6035,-336
1607014778.6056,-365
1607014778.6075,-370
1607014778.6095,-440
1607014778.6115,-503
1607014778.6136,-387
1607014778.6155,-280
1607014778.6176,-358
1607014778.6195,-406
1607014778.6215,-368
1607014778.6222,-355
1607014778.6235,-375
1607014778.6255,-414
1607014778.6275,-394
1607014778.6295,-307
1607014778.6316,-317
1607014778.6335,-397
1607014778.6355,-341
1607014778.6375,-261
1607014778.6395,-307
1607014778.6415,-341
1607014778.6435,-324
1607014778.6455,-280
1607014778.6475,-94
1607014779.0812,254
1607014779.0821,469
1607014779.0836,208
1607014779.0856,-433
1607014779.0880,-840
1607014779.0897,-639
1607014779.0917,-307
1607014779.0936,-254
1607014779.0956,-273
1607014779.0976,-232
1607014779.0996,-222
1607014779.1016,-232
1607014779.1036,-203
1607014779.1056,-188
1607014779.1076,-213
1607014779.1096,-203
1607014779.1101,-169
1607014779.1115,-157
1607014779.1135,-145
1607014779.1156,-154
1607014779.1176,-174
1607014779.1195,-138
1607014779.1216,-133
1607014779.1236,-159
1607014779.1256,-104
1607014779.1275,-62
1607014779.1295,-104
1607014779.1315,-125
1607014779.1335,-84
1607014779.1355,-29
1607014779.1375,-24
1607014779.1395,-43
1607014779.1401,-21
1607014779.1415,2
1607014779.1435,2
1607014779.1456,-12
1607014779.1475,-9
1607014779.1495,70
1607014779.1515,154
1607014779.1535,118
1607014779.1555,62
1607014779.1575,70
1607014779.1595,36
1607014779.1615,-33
1607014779.1635,-38
1607014779.1655,-31
1607014779.1675,-111
1607014779.1694,-138
1607014779.1701,-72
1607014779.1715,-65
1607014779.1734,-84
1607014779.1755,-104
1607014779.1775,-130
1607014779.1795,-82
1607014779.1815,-38
1607014779.1836,-108
1607014779.1856,-133
1607014779.1875,-43
1607014779.1895,-21
1607014779.1915,-72
1607014779.1935,-77
1607014779.1956,-41
1607014779.1976,-24
1607014779.1995,-53
1607014779.2001,-104
1607014779.2015,-104
1607014779.2035,-50
1607014779.2055,-41
1607014779.2075,-67
1607014779.2095,-65
1607014779.2114,-60
1607014779.2135,-77
1607014779.2155,-62
1607014779.6214,-41
1607014779.6226,-87
1607014779.6249,-92
1607014779.6266,-12
1607014779.6286,-24
1607014779.6306,-101
1607014779.6326,-60
1607014779.6332,0
1607014779.6346,-48
1607014779.6367,-75
1607014779.6386,-19
1607014779.6406,-7
1607014779.6426,-50
1607014779.6446,-79
1607014779.6466,-62
1607014779.6486,-29
1607014779.6506,-14
1607014779.6526,-36
1607014779.6545,-58
1607014779.6566,-53
1607014779.6586,-38
1607014779.6606,-43
1607014779.6626,-53
1607014779.6631,-24
1607014779.6645,-4
1607014779.6666,-55
1607014779.6685,-99
1607014779.6705,-46
1607014779.6725,14
1607014779.6745,-19
1607014779.6766,-41
1607014779.6786,-2
1607014779.6806,36
1607014779.6827,33
1607014779.6846,-7
1607014779.6866,-38
1607014779.6885,-26
1607014779.6905,-12
1607014779.6925,-26
1607014779.6931,-53
1607014779.6945,-55
1607014779.6966,-48
1607014779.6985,-26
1607014779.7005,38
1607014779.7025,60
1607014779.7045,12
1607014779.7065,67
1607014779.7085,370
1607014779.7105,709
1607014779.7125,641
1607014779.7145,89
1607014779.7165,-462
1607014779.7186,-544
1607014779.7205,-302
1607014779.7225,-108
1607014779.7231,-24
1607014779.7245,-2
1607014779.7265,-16
1607014779.7285,-9
1607014779.7306,19
1607014779.7325,12
1607014779.7345,-21
1607014779.7365,-9
1607014779.7385,43
1607014779.7405,60
1607014779.7425,29
1607014779.7445,26
1607014779.7465,62
1607014779.7485,50
1607014779.7505,9
1607014779.7525,26
1607014779.7532,60
1607014779.7545,72
1607014780.1608,96
1607014780.1616,87
1607014780.1633,33
1607014780.1658,60
1607014780.1677,159
1607014780.1697,162
1607014780.1717,87
1607014780.1738,87
1607014780.1758,140
1607014780.1777,164
1607014780.1783,167
1607014780.1799,164
1607014780.1818,159
1607014780.1837,164
1607014780.1857,196
1607014780.1877,191
1607014780.1897,140
1607014780.1917,106
1607014780.1937,89
1607014780.1957,55
1607014780.1976,12
1607014780.1997,2
1607014780.2017,21
1607014780.2037,-2
1607014780.2057,-33
1607014780.2077,0
1607014780.2082,36
1607014780.2097,33
1607014780.2116,26
1607014780.2136,4
1607014780.2158,-4
1607014780.2176,19
1607014780.2196,43
1607014780.2216,31
1607014780.2236,21
1607014780.2257,58
1607014780.2276,58
1607014780.2296,14
1607014780.2317,4
1607014780.2336,-9
1607014780.2357,-19
1607014780.2376,16
1607014780.2383,29
1607014780.2396,-12
1607014780.2416,-9
1607014780.2436,21
1607014780.2457,7
1607014780.2477,-12
1607014780.2496,7
1607014780.2516,7
1607014780.2536,-21
1607014780.2557,-21
1607014780.2577,-2
1607014780.2597,7
1607014780.2616,-21
1607014780.2636,-29
1607014780.2657,21
1607014780.2677,24
1607014780.2682,-7
1607014780.2696,4
1607014780.2716,21
1607014780.2736,12
1607014780.2759,-4
1607014780.2777,-16
1607014780.2796,-19
1607014780.2817,-24
1607014780.2836,-38
1607014780.2858,-12
1607014780.2876,38
1607014780.2896,26
1607014780.2916,-19
1607014780.2936,-43
1607014780.2957,-29
1607014780.7307,2
1607014780.7317,12
1607014780.7341,24
1607014780.7359,33
1607014780.7378,19
1607014780.7398,0
1607014780.7418,2
1607014780.7438,2
1607014780.7459,4
1607014780.7478,43
1607014780.7498,58
1607014780.7518,7
1607014780.7538,4
1607014780.7558,41
1607014780.7578,14
1607014780.7597,-26
1607014780.7617,-9
1607014780.7623,58
1607014780.7637,53
1607014780.7658,-26
1607014780.7678,111
1607014780.7697,556
1607014780.7717,893
1607014780.7737,665
1607014780.7758,-75
1607014780.7777,-631
1607014780.7797,-447
1607014780.7817,-50
1607014780.7837,-16
1607014780.7858,-58
1607014780.7877,7
1607014780.7897,14
1607014780.7917,-12
1607014780.7923,-29
1607014780.7938,-46
1607014780.7958,4
1607014780.7977,65
1607014780.7997,65
1607014780.8018,48
1607014780.8037,31
1607014780.8059,29
1607014780.8078,46
1607014780.8097,53
1607014780.8117,55
1607014780.8137,62
1607014780.8158,72
1607014780.8177,84
1607014780.8197,92
1607014780.8217,96
1607014780.8223,104
1607014780.8237,116
1607014780.8257,121
1607014780.8277,133
1607014780.8297,181
1607014780.8317,210
1607014780.8337,200
1607014780.8358,213
1607014780.8377,237
1607014780.8397,213
1607014780.8417,176
1607014780.8437,230
1607014780.8457,292
1607014780.8478,232
1607014780.8497,157
1607014780.8517,140
1607014780.8523,106
1607014780.8537,70
1607014780.8558,58
1607014780.8577,38
1607014780.8596,12
1607014780.8617,12
1607014780.8637,16
1607014780.8658,7
1607014781.2715,12
1607014781.2727,24
1607014781.2751,24
1607014781.2779,21
1607014781.2799,33
1607014781.2818,38
1607014781.2824,31
1607014781.2839,29
1607014781.2858,41
1607014781.2878,48
1607014781.2898,38
1607014781.2918,36
1607014781.2938,46
1607014781.2958,48
1607014781.2978,38
1607014781.2998,36
1607014781.3017,36
1607014781.3038,38
1607014781.3060,33
1607014781.3079,31
1607014781.3097,29
1607014781.3118,29
1607014781.3123,26
1607014781.3137,29
1607014781.3158,31
1607014781.3178,31
1607014781.3197,33
1607014781.3217,31
1607014781.3237,33
1607014781.3259,38
1607014781.3277,41
1607014781.3297,41
1607014781.3317,41
1607014781.3337,41
1607014781.3358,43
1607014781.3377,46
1607014781.3396,48
1607014781.3417,46
1607014781.3423,43
1607014781.3437,43
1607014781.3457,48
1607014781.3477,50
1607014781.3497,46
1607014781.3516,43
1607014781.3537,48
1607014781.3557,48
1607014781.3577,46
1607014781.3597,46
1607014781.3617,48
1607014781.3637,46
1607014781.3658,38
1607014781.3677,36
1607014781.3697,36
1607014781.3717,36
1607014781.3723,38
1607014781.3737,41
1607014781.3757,48
1607014781.3777,48
1607014781.3797,46
1607014781.3818,43
1607014781.3838,41
1607014781.3858,41
1607014781.3877,33
1607014781.3896,21
1607014781.3917,19
1607014781.3937,29
1607014781.3957,33
1607014781.3977,19
1607014781.3997,-9
1607014781.4019,46
1607014781.4022,346
1607014781.4037,765
1607014781.4058,859
1607014781.8713,348
1607014781.8725,-433
1607014781.8749,-634
1607014781.8776,-225
1607014781.8796,-29
1607014781.8816,-92
1607014781.8836,-29
1607014781.8856,21
1607014781.8876,-21
1607014781.8896,-16
1607014781.8916,16
1607014781.8936,12
1607014781.8942,2
1607014781.8956,14
1607014781.8978,21
1607014781.8996,16
1607014781.9016,19
1607014781.9036,26
1607014781.9056,29
1607014781.9075,24
1607014781.9095,29
1607014781.9115,38
1607014781.9135,46
1607014781.9155,50
1607014781.9175,60
1607014781.9195,72
1607014781.9215,79
1607014781.9237,87
1607014781.9243,106
1607014781.9256,123
1607014781.9275,130
1607014781.9295,145
1607014781.9316,176
1607014781.9335,196
1607014781.9354,208
1607014781.9375,222
1607014781.9395,222
1607014781.9415,208
1607014781.9436,184
1607014781.9455,152
1607014781.9475,111
1607014781.9495,67
1607014781.9515,24
1607014781.9534,-12
1607014781.9541,-33
1607014781.9555,-46
1607014781.9575,-50
1607014781.9597,-50
1607014781.9615,-46
1607014781.9635,-43
1607014781.9655,-41
1607014781.9675,-33
1607014781.9695,-26
1607014781.9715,-26
1607014781.9735,-21
1607014781.9755,-12
1607014781.9775,-9
1607014781.9795,-7
1607014781.9814,-4
1607014781.9834,-7
1607014781.9841,-7
1607014781.9854,-4
1607014781.9875,-7
1607014781.9895,-9
1607014781.9915,-7
1607014781.9935,-7
1607014781.9955,-12
1607014781.9975,-12
1607014781.9995,-4
1607014782.0018,-4
1607014782.0036,-12
1607014782.0055,-19
1607014782.0075,-14
1607014782.4413,-9
1607014782.4422,-9
1607014782.4448,-14
1607014782.4464,-14
1607014782.4484,-14
1607014782.4504,-14
1607014782.4524,-9
1607014782.4544,-7
1607014782.4564,-12
1607014782.4584,-16
1607014782.4604,-14
1607014782.4624,-12
1607014782.4645,-12
1607014782.4664,-14
1607014782.4683,-12
1607014782.4703,-9
1607014782.4709,-4
1607014782.4723,-2
1607014782.4743,0
1607014782.4764,0
1607014782.4783,-4
1607014782.4804,-4
1607014782.4823,0
1607014782.4843,0
1607014782.4863,2
1607014782.4885,4
1607014782.4903,7
1607014782.4922,12
1607014782.4943,19
1607014782.4963,26
1607014782.4982,33
1607014782.5003,29
1607014782.5008,16
1607014782.5023,16
1607014782.5043,12
1607014782.5062,0
1607014782.5083,-2
1607014782.5103,7
1607014782.5123,12
1607014782.5143,4
1607014782.5163,-7
1607014782.5182,67
1607014782.5203,394
1607014782.5222,811
1607014782.5243,847
1607014782.5263,263
1607014782.5282,-503
1607014782.5303,-639
1607014782.5308,-230
1607014782.5323,-53
1607014782.5343,-87
1607014782.5362,-14
1607014782.5382,31
1607014782.5402,-2
1607014782.5423,7
1607014782.5443,31
1607014782.5463,21
1607014782.5483,24
1607014782.5503,36
1607014782.5523,36
1607014782.5542,36
1607014782.5563,43
1607014782.5583,48
1607014782.5603,48
1607014782.5608,53
1607014782.5622,60
1607014782.5643,67
1607014782.5663,67
1607014782.5683,75
1607014782.5703,84
1607014782.5723,94
1607014782.5742,101
1607014782.5764,113
1607014782.9815,130
1607014782.9826,145
1607014782.9850,157
1607014782.9881,171
1607014782.9898,186
1607014782.9918,203
1607014782.9937,215
1607014782.9944,220
1607014782.9958,222
1607014782.9978,213
1607014782.9998,179
1607014783.0018,140
1607014783.0037,108
1607014783.0058,70
1607014783.0078,31
1607014783.0097,4
1607014783.0117,-12
1607014783.0137,-21
1607014783.0158,-26
1607014783.0177,-26
1607014783.0197,-24
1607014783.0217,-24
1607014783.0237,-19
1607014783.0242,-12
1607014783.0257,-4
1607014783.0277,-4
1607014783.0297,0
1607014783.0318,2
1607014783.0337,0
1607014783.0357,-2
1607014783.0377,0
1607014783.0397,4
1607014783.0417,7
1607014783.0437,9
1607014783.0457,7
1607014783.0477,7
1607014783.0497,7
1607014783.0516,7
1607014783.0537,4
1607014783.0542,7
1607014783.0557,7
1607014783.0576,7
1607014783.0596,9
1607014783.0616,9
1607014783.0636,9
1607014783.0657,12
1607014783.0676,9
1607014783.0696,9
1607014783.0716,12
1607014783.0736,12
1607014783.0757,12
1607014783.0777,16
1607014783.0796,16
1607014783.0816,16
1607014783.0839,16
1607014783.0843,19
1607014783.0858,21
1607014783.0876,19
1607014783.0898,16
1607014783.0917,19
1607014783.0936,21
1607014783.0957,19
1607014783.0977,19
1607014783.0997,21
1607014783.1017,24
1607014783.1036,24
1607014783.1058,21
1607014783.1077,21
1607014783.1096,19
1607014783.1116,19
1607014783.1136,21
1607014783.1142,21
1607014783.1157,16
1607014783.5814,16
1607014783.5826,21
1607014783.5850,24
1607014783.5877,21
1607014783.5897,29
1607014783.5917,36
1607014783.5938,36
1607014783.5958,29
1607014783.5978,24
1607014783.5997,24
1607014783.6017,29
1607014783.6037,24
1607014783.6045,16
1607014783.6058,14
1607014783.6077,19
1607014783.6097,24
1607014783.6117,24
1607014783.6137,2
1607014783.6158,-16
1607014783.6178,113
1607014783.6198,493
1607014783.6217,837
1607014783.6237,716
1607014783.6257,41
1607014783.6277,-583
1607014783.6297,-479
1607014783.6317,-87
1607014783.6337,-43
1607014783.6342,-77
1607014783.6358,7
1607014783.6377,14
1607014783.6397,-14
1607014783.6420,12
1607014783.6437,26
1607014783.6457,19
1607014783.6477,21
1607014783.6497,29
1607014783.6517,29
1607014783.6537,31
1607014783.6558,33
1607014783.6577,41
1607014783.6596,43
1607014783.6616,43
1607014783.6637,50
1607014783.6642,60
1607014783.6658,65
1607014783.6677,70
1607014783.6697,77
1607014783.6717,87
1607014783.6737,92
1607014783.6757,99
1607014783.6776,113
1607014783.6796,133
1607014783.6816,147
1607014783.6836,162
1607014783.6857,176
1607014783.6876,193
1607014783.6896,205
1607014783.6916,217
1607014783.6936,220
1607014783.6943,205
1607014783.6957,179
1607014783.6977,142
1607014783.6997,106
1607014783.7016,67
1607014783.7037,33
1607014783.7057,7
1607014783.7076,-7
1607014783.7096,-12
1607014783.7116,-16
1607014783.7136,-16
1607014783.7157,-16
1607014783.7176,-12
1607014784.0910,-7
1607014784.0920,0
1607014784.0936,4
1607014784.0957,9
1607014784.0978,14
1607014784.0996,16
1607014784.1016,24
1607014784.1036,26
1607014784.1057,26
1607014784.1076,24
1607014784.1098,24
1607014784.1115,21
1607014784.1135,12
1607014784.1157,2
1607014784.1175,0
1607014784.1196,0
1607014784.1215,-2
1607014784.1221,-7
1607014784.1236,-2
1607014784.1256,0
1607014784.1275,-2
1607014784.1295,-4
1607014784.1315,-4
1607014784.1335,-2
1607014784.1356,2
1607014784.1375,7
1607014784.1395,4
1607014784.1415,4
1607014784.1435,7
1607014784.1456,9
1607014784.1475,9
1607014784.1496,12
1607014784.1515,14
1607014784.1521,19
1607014784.1535,21
1607014784.1555,19
1607014784.1575,14
1607014784.1595,16
1607014784.1615,21
1607014784.1635,26
1607014784.1656,26
1607014784.1675,16
1607014784.1696,12
1607014784.1715,16
1607014784.1735,19
1607014784.1756,19
1607014784.1775,14
1607014784.1794,14
1607014784.1816,16
1607014784.1821,21
1607014784.1835,24
1607014784.1856,21
1607014784.1875,19
1607014784.1895,24
1607014784.1915,24
1607014784.1935,21
1607014784.1956,24
1607014784.1976,29
1607014784.1995,26
1607014784.2015,29
1607014784.2035,41
1607014784.2057,50
1607014784.2077,46
1607014784.2095,38
1607014784.2116,31
1607014784.2120,36
1607014784.2135,38
1607014784.2156,29
1607014784.2175,24
1607014784.2195,33
1607014784.2215,33
1607014784.2235,26
1607014784.2256,12
1607014784.6608,7
1607014784.6618,171
1607014784.6642,571
1607014784.6669,883
1607014784.6689,682
1607014784.6709,-43
1607014784.6729,-627
1607014784.6749,-464
1607014784.6755,-87
1607014784.6769,-65
1607014784.6789,-87
1607014784.6809,0
1607014784.6829,4
1607014784.6850,-21
1607014784.6868,0
1607014784.6888,14
1607014784.6908,7
1607014784.6928,14
1607014784.6948,24
1607014784.6968,24
1607014784.6989,26
1607014784.7008,24
1607014784.7028,21
1607014784.7048,33
1607014784.7054,43
1607014784.7068,46
1607014784.7088,53
1607014784.7108,60
1607014784.7128,62
1607014784.7148,75
1607014784.7168,87
1607014784.7188,92
1607014784.7208,101
1607014784.7227,116
1607014784.7248,130
1607014784.7269,145
1607014784.7288,164
1607014784.7308,179
1607014784.7328,198
1607014784.7351,217
1607014784.7354,222
1607014784.7368,217
1607014784.7388,205
1607014784.7408,181
1607014784.7428,145
1607014784.7447,104
1607014784.7468,62
1607014784.7488,31
1607014784.7508,4
1607014784.7528,-12
1607014784.7548,-21
1607014784.7569,-24
1607014784.7588,-24
1607014784.7608,-24
1607014784.7628,-19
1607014784.7648,-14
1607014784.7654,-12
1607014784.7668,-9
1607014784.7687,-2
1607014784.7708,0
1607014784.7728,2
1607014784.7747,9
1607014784.7768,14
1607014784.7788,14
1607014784.7809,12
1607014784.7828,14
1607014784.7848,19
1607014784.7868,16
1607014784.7888,12
1607014784.7908,9
1607014784.7928,9
1607014784.7948,9
1607014784.7953,9
1607014785.2307,4
1607014785.2317,2
1607014785.2341,4
1607014785.2369,2
1607014785.2388,4
1607014785.2408,12
1607014785.2429,7
1607014785.2448,0
1607014785.2469,0
1607014785.2487,4
1607014785.2507,7
1607014785.2527,9
1607014785.2534,14
1607014785.2547,16
1607014785.2568,16
1607014785.2587,14
1607014785.2608,19
1607014785.2630,19
1607014785.2647,14
1607014785.2667,14
1607014785.2687,19
1607014785.2707,19
1607014785.2727,19
1607014785.2747,21
1607014785.2768,24
1607014785.2787,24
1607014785.2807,24
1607014785.2828,26
1607014785.2834,26
1607014785.2847,29
1607014785.2868,29
1607014785.2887,31
1607014785.2907,33
1607014785.2927,36
1607014785.2947,38
1607014785.2967,41
1607014785.2988,43
1607014785.3007,46
1607014785.3027,41
1607014785.3047,43
1607014785.3068,48
1607014785.3087,50
1607014785.3107,50
1607014785.3127,58
1607014785.3133,62
1607014785.3146,62
1607014785.3167,60
1607014785.3186,55
1607014785.3207,55
1607014785.3227,62
1607014785.3247,55
1607014785.3267,46
1607014785.3287,50
1607014785.3307,55
1607014785.3327,50
1607014785.3347,31
1607014785.3367,12
1607014785.3387,125
1607014785.3406,489
1607014785.3427,861
1607014785.3432,798
1607014785.3447,159
1607014785.3467,-513
1607014785.3487,-486
1607014785.3508,-89
1607014785.3527,-19
1607014785.3547,-62
1607014785.3568,21
1607014785.3589,41
1607014785.3608,7
1607014785.3628,29
1607014785.3647,48
1607014785.3667,38
1607014785.8010,38
1607014785.8020,48
1607014785.8044,48
1607014785.8057,50
1607014785.8071,55
1607014785.8091,58
1607014785.8111,60
1607014785.8131,60
1607014785.8151,58
1607014785.8171,62
1607014785.8190,70
1607014785.8210,77
1607014785.8230,87
1607014785.8251,94
1607014785.8270,96
1607014785.8290,108
1607014785.8310,125
1607014785.8331,140
1607014785.8350,152
1607014785.8356,167
1607014785.8371,184
1607014785.8390,198
1607014785.8410,213
1607014785.8430,220
1607014785.8451,222
1607014785.8470,215
1607014785.8491,188
1607014785.8511,154
1607014785.8530,118
1607014785.8550,82
1607014785.8571,46
1607014785.8590,16
1607014785.8610,0
1607014785.8631,-9
1607014785.8650,-14
1607014785.8657,-16
1607014785.8670,-14
1607014785.8690,-9
1607014785.8710,-7
1607014785.8730,-2
1607014785.8750,0
1607014785.8770,2
1607014785.8790,7
1607014785.8810,12
1607014785.8830,12
1607014785.8850,14
1607014785.8872,16
1607014785.8891,19
1607014785.8910,19
1607014785.8930,19
1607014785.8950,16
1607014785.8956,14
1607014785.8969,16
1607014785.8991,16
1607014785.9010,12
1607014785.9030,9
1607014785.9050,12
1607014785.9071,9
1607014785.9090,2
1607014785.9109,2
1607014785.9130,12
1607014785.9150,9
1607014785.9170,2
1607014785.9190,4
1607014785.9210,9
1607014785.9229,7
1607014785.9236,4
1607014785.9250,7
1607014785.9270,9
1607014785.9290,12
1607014785.9310,12
1607014785.9330,14
1607014785.9350,16
1607014786.3411,16
1607014786.3418,19
1607014786.3432,21
1607014786.3451,24
1607014786.3470,24
1607014786.3490,24
1607014786.3510,21
1607014786.3516,26
1607014786.3529,26
1607014786.3550,19
1607014786.3570,19
1607014786.3591,26
1607014786.3610,29
1607014786.3630,24
1607014786.3650,26
1607014786.3671,31
1607014786.3690,33
1607014786.3710,33
1607014786.3730,33
1607014786.3750,38
1607014786.3770,41
1607014786.3790,38
1607014786.3810,41
1607014786.3816,46
1607014786.3832,46
1607014786.3850,43
1607014786.3870,46
1607014786.3890,46
1607014786.3910,46
1607014786.3930,48
1607014786.3950,50
1607014786.3970,50
1607014786.3990,50
1607014786.4010,50
1607014786.4030,55
1607014786.4050,58
1607014786.4071,55
1607014786.4090,50
1607014786.4110,50
1607014786.4115,60
1607014786.4130,62
1607014786.4149,67
1607014786.4170,87
1607014786.4189,104
1607014786.4210,101
1607014786.4230,84
1607014786.4250,79
1607014786.4269,70
1607014786.4289,46
1607014786.4309,38
1607014786.4330,43
1607014786.4349,41
1607014786.4370,41
1607014786.4390,41
1607014786.4396,21
1607014786.4410,60
1607014786.4430,302
1607014786.4450,680
1607014786.4470,835
1607014786.4490,452
1607014786.4510,-276
1607014786.4530,-568
1607014786.4550,-237
1607014786.4570,-9
1607014786.4591,-55
1607014786.4610,-16
1607014786.4629,43
1607014786.4650,14
1607014786.4670,9
1607014786.4690,31
1607014786.4696,31
1607014786.4709,29
1607014786.4730,33
1607014786.9712,36
1607014786.9721,38
1607014786.9749,43
1607014786.9773,43
1607014786.9792,43
1607014786.9813,50
1607014786.9833,46
1607014786.9853,41
1607014786.9873,50
1607014786.9894,58
1607014786.9913,60
1607014786.9933,67
1607014786.9939,75
1607014786.9953,82
1607014786.9972,99
1607014786.9992,111
1607014787.0014,121
1607014787.0032,138
1607014787.0052,157
1607014787.0072,167
1607014787.0092,176
1607014787.0112,188
1607014787.0132,198
1607014787.0152,200
1607014787.0172,193
1607014787.0192,171
1607014787.0212,135
1607014787.0232,99
1607014787.0238,62
1607014787.0253,24
1607014787.0272,-2
1607014787.0292,-19
1607014787.0312,-31
1607014787.0332,-41
1607014787.0352,-41
1607014787.0372,-33
1607014787.0392,-26
1607014787.0411,-21
1607014787.0432,-19
1607014787.0451,-14
1607014787.0473,-12
1607014787.0492,-12
1607014787.0512,-12
1607014787.0532,-12
1607014787.0539,-12
1607014787.0552,-12
1607014787.0572,-9
1607014787.0592,-7
1607014787.0612,-4
1607014787.0632,-7
1607014787.0651,-9
1607014787.0672,-7
1607014787.0692,-9
1607014787.0713,-14
1607014787.0731,-19
1607014787.0752,-16
1607014787.0771,-12
1607014787.0792,-9
1607014787.0812,-9
1607014787.0831,-9
1607014787.0837,-9
1607014787.0852,-9
1607014787.0872,-9
1607014787.0892,-9
1607014787.0912,-7
1607014787.0932,-4
1607014787.0952,-4
1607014787.0972,-2
1607014787.0991,0
1607014787.1012,0
1607014787.1032,2
1607014787.1052,4
1607014787.1072,4
1607014787.4506,2
1607014787.4514,7
1607014787.4538,9
1607014787.4565,9
1607014787.4585,14
1607014787.4605,16
1607014787.4626,12
1607014787.4645,7
1607014787.4666,2
1607014787.4685,4
1607014787.4705,2
1607014787.4725,-4
1607014787.4745,-7
1607014787.4765,2
1607014787.4784,4
1607014787.4805,-4
1607014787.4825,-7
1607014787.4831,0
1607014787.4845,0
1607014787.4865,0
1607014787.4885,4
1607014787.4905,7
1607014787.4925,7
1607014787.4945,9
1607014787.4965,16
1607014787.4985,21
1607014787.5004,24
1607014787.5025,24
1607014787.5044,19
1607014787.5065,16
1607014787.5084,24
1607014787.5106,24
1607014787.5125,14
1607014787.5130,16
1607014787.5144,24
1607014787.5165,19
1607014787.5184,4
1607014787.5204,-2
1607014787.5225,108
1607014787.5244,455
1607014787.5265,825
1607014787.5284,782
1607014787.5304,159
1607014787.5325,-530
1607014787.5345,-542
1607014787.5365,-152
1607014787.5384,-53
1607014787.5404,-84
1607014787.5424,0
1607014787.5432,24
1607014787.5444,-9
1607014787.5465,7
1607014787.5484,24
1607014787.5504,14
1607014787.5524,16
1607014787.5545,26
1607014787.5565,29
1607014787.5585,31
1607014787.5604,33
1607014787.5624,36
1607014787.5644,41
1607014787.5665,48
1607014787.5684,53
1607014787.5705,55
1607014787.5725,62
1607014787.5731,67
1607014787.5744,72
1607014787.5765,82
1607014787.5784,94
1607014787.5804,101
1607014787.5825,108
1607014787.5844,123
1607014787.5865,140
1607014788.0207,152
1607014788.0217,164
1607014788.0241,179
1607014788.0259,193
1607014788.0279,196
1607014788.0298,193
1607014788.0318,188
1607014788.0338,174
1607014788.0344,142
1607014788.0360,104
1607014788.0378,65
1607014788.0400,31
1607014788.0419,4
1607014788.0438,-12
1607014788.0459,-19
1607014788.0477,-24
1607014788.0498,-29
1607014788.0518,-26
1607014788.0538,-21
1607014788.0558,-14
1607014788.0578,-9
1607014788.0597,-7
1607014788.0618,-4
1607014788.0637,-2
1607014788.0643,0
1607014788.0658,2
1607014788.0677,4
1607014788.0697,7
1607014788.0717,4
1607014788.0737,0
1607014788.0758,0
1607014788.0777,0
1607014788.0797,-2
1607014788.0817,-4
1607014788.0837,-7
1607014788.0858,-4
1607014788.0877,-4
1607014788.0897,-4
1607014788.0917,-4
1607014788.0937,-4
1607014788.0943,-7
1607014788.0957,-7
1607014788.0978,-9
1607014788.0998,-9
1607014788.1017,-9
1607014788.1037,-9
1607014788.1058,-9
1607014788.1077,-9
1607014788.1097,-9
1607014788.1117,-12
1607014788.1137,-12
1607014788.1157,-9
1607014788.1177,-7
1607014788.1198,-9
1607014788.1217,-7
1607014788.1237,-7
1607014788.1243,-4
1607014788.1257,-2
1607014788.1277,0
1607014788.1297,-4
1607014788.1319,-2
1607014788.1337,0
1607014788.1357,0
1607014788.1377,4
1607014788.1397,4
1607014788.1417,2
1607014788.1437,4
1607014788.1458,9
1607014788.1477,9
1607014788.1497,9
1607014788.1517,12
1607014788.1537,14
1607014788.1543,14
1607014788.6209,16
1607014788.6218,16
1607014788.6242,12
1607014788.6269,12
1607014788.6289,19
1607014788.6309,19
1607014788.6330,12
1607014788.6349,12
1607014788.6369,14
1607014788.6389,14
1607014788.6409,16
1607014788.6429,21
1607014788.6449,29
1607014788.6455,36
1607014788.6468,41
1607014788.6489,48
1607014788.6509,43
1607014788.6529,33
1607014788.6549,36
1607014788.6569,41
1607014788.6588,31
1607014788.6608,24
1607014788.6628,26
1607014788.6648,29
1607014788.6668,24
1607014788.6688,4
1607014788.6708,26
1607014788.6728,242
1607014788.6748,631
1607014788.6754,844
1607014788.6768,527
1607014788.6788,-200
1607014788.6808,-585
1607014788.6828,-307
1607014788.6848,-38
1607014788.6869,-65
1607014788.6888,-41
