Time,ECG
1605961864.2031,1127
1605961864.2055,3483
1605961864.2081,5935
1605961864.2108,7458
1605961864.2129,8002
1605961864.2149,8264
1605961864.2168,8808
1605961864.2185,9370
1605961864.2205,9763
1605961864.2225,10148
1605961864.2245,10524
1605961864.2268,10812
1605961864.2290,11079
1605961864.2310,11340
1605961864.2331,11552
1605961864.2352,11730
1605961864.2370,11892
1605961864.2385,12048
1605961864.2405,12202
1605961864.2425,12319
1605961864.2445,12397
1605961864.2465,12475
1605961864.2485,12553
1605961864.2505,12629
1605961864.2526,12685
1605961864.2545,12727
1605961864.2564,12778
1605961864.2584,12817
1605961864.2605,12829
1605961864.2624,12839
1605961864.2644,12861
1605961864.2664,12888
1605961864.2684,12900
1605961864.2704,12907
1605961864.2724,12917
1605961864.2744,12927
1605961864.2765,12924
1605961864.2785,12932
1605961864.2804,12983
1605961864.2824,13000
1605961864.2845,12956
1605961864.2865,12944
1605961864.2885,12954
1605961864.2904,12949
1605961864.2925,12937
1605961864.2944,12905
1605961864.2965,12856
1605961864.2984,12817
1605961864.3005,12773
1605961864.3024,12714
1605961864.3047,12666
1605961864.3064,12622
1605961864.3084,12558
1605961864.3105,12490
1605961864.3124,12431
1605961864.3144,12358
1605961864.3164,12292
1605961864.3184,12238
1605961864.3204,12170
1605961864.3224,12097
1605961864.3244,12023
1605961864.3264,11948
1605961864.3284,11889
1605961864.3304,11821
1605961864.3324,11740
1605961864.3344,11674
1605961864.3364,11611
1605961864.3384,11538
1605961864.3404,11452
1605961864.3424,11374
1605961864.3444,11303
1605961864.3464,11215
1605961864.3484,11132
1605961864.7717,11069
1605961864.7727,10991
1605961864.7751,10886
1605961864.7777,10793
1605961864.7797,10734
1605961864.7817,10664
1605961864.7838,10566
1605961864.7858,10488
1605961864.7878,10424
1605961864.7897,10329
1605961864.7917,10209
1605961864.7937,10119
1605961864.7958,10061
1605961864.7977,9975
1605961864.7997,9870
1605961864.8017,9787
1605961864.8037,9707
1605961864.8057,9619
1605961864.8077,9516
1605961864.8097,9411
1605961864.8117,9335
1605961864.8137,9260
1605961864.8157,9167
1605961864.8177,9089
1605961864.8197,9028
1605961864.8216,8952
1605961864.8237,8867
1605961864.8258,8791
1605961864.8278,8718
1605961864.8297,8625
1605961864.8317,8530
1605961864.8337,8457
1605961864.8357,8374
1605961864.8377,8234
1605961864.8396,7915
1605961864.8416,7443
1605961864.8436,7407
1605961864.8457,8229
1605961864.8476,8879
1605961864.8497,8374
1605961864.8573,7709
1605961864.8586,7670
1605961864.8606,7626
1605961864.8626,7419
1605961864.8646,7363
1605961864.8667,7319
1605961864.8686,7194
1605961864.8706,7124
1605961864.8726,7089
1605961864.8746,7006
1605961864.8767,6909
1605961864.8786,6833
1605961864.8806,6750
1605961864.8826,6665
1605961864.8846,6608
1605961864.8867,6542
1605961864.8886,6455
1605961864.8906,6369
1605961864.8926,6279
1605961864.8946,6198
1605961864.8967,6149
1605961864.8986,6083
1605961864.9007,5979
1605961864.9026,5886
1605961864.9046,5834
1605961864.9067,5764
1605961864.9086,5673
1605961864.9106,5615
1605961864.9126,5571
1605961864.9146,5502
1605961864.9167,5446
1605961864.9186,5412
1605961864.9206,5368
1605961865.3119,5324
1605961865.3128,5297
1605961865.3153,5268
1605961865.3179,5231
1605961865.3198,5207
1605961865.3218,5180
1605961865.3241,5136
1605961865.3259,5090
1605961865.3278,5036
1605961865.3298,4987
1605961865.3318,4936
1605961865.3338,4865
1605961865.3359,4799
1605961865.3378,4743
1605961865.3398,4685
1605961865.3418,4628
1605961865.3438,4577
1605961865.3459,4521
1605961865.3478,4455
1605961865.3498,4404
1605961865.3518,4382
1605961865.3538,4335
1605961865.3559,4265
1605961865.3578,4216
1605961865.3598,4174
1605961865.3618,4116
1605961865.3638,4060
1605961865.3658,4030
1605961865.3678,3999
1605961865.3698,3937
1605961865.3718,3889
1605961865.3739,3859
1605961865.3758,3815
1605961865.3778,3771
1605961865.3798,3737
1605961865.3818,3688
1605961865.3838,3640
1605961865.3858,3603
1605961865.3878,3566
1605961865.3898,3527
1605961865.3918,3496
1605961865.3938,3459
1605961865.3958,3413
1605961865.3978,3374
1605961865.3998,3339
1605961865.4018,3300
1605961865.4039,3254
1605961865.4058,3210
1605961865.4078,3181
1605961865.4098,3159
1605961865.4118,3132
1605961865.4137,3090
1605961865.4158,3046
1605961865.4178,3012
1605961865.4198,2976
1605961865.4218,2915
1605961865.4238,2861
1605961865.4260,2844
1605961865.4278,2827
1605961865.4298,2790
1605961865.4318,2751
1605961865.4338,2722
1605961865.4358,2714
1605961865.4378,2705
1605961865.4398,2683
1605961865.4418,2648
1605961865.4438,2600
1605961865.4458,2558
1605961865.4478,2531
1605961865.4498,2512
1605961865.4518,2460
1605961865.4538,2241
1605961865.4559,1823
1605961865.9114,1713
1605961865.9120,2480
1605961865.9145,3317
1605961865.9171,3022
1605961865.9190,2333
1605961865.9210,2258
1605961865.9231,2299
1605961865.9251,2153
1605961865.9270,2124
1605961865.9290,2153
1605961865.9310,2097
1605961865.9330,2062
1605961865.9350,2060
1605961865.9370,2019
1605961865.9390,1972
1605961865.9410,1953
1605961865.9430,1940
1605961865.9450,1926
1605961865.9470,1899
1605961865.9490,1853
1605961865.9510,1816
1605961865.9530,1787
1605961865.9550,1757
1605961865.9570,1728
1605961865.9590,1701
1605961865.9610,1682
1605961865.9631,1645
1605961865.9650,1601
1605961865.9670,1589
1605961865.9690,1572
1605961865.9710,1530
1605961865.9730,1501
1605961865.9750,1496
1605961865.9770,1496
1605961865.9790,1491
1605961865.9811,1484
1605961865.9831,1486
1605961865.9851,1491
1605961865.9870,1506
1605961865.9890,1513
1605961865.9911,1518
1605961865.9930,1525
1605961865.9950,1523
1605961865.9970,1516
1605961865.9990,1516
1605961866.0010,1516
1605961866.0030,1506
1605961866.0050,1489
1605961866.0070,1477
1605961866.0090,1464
1605961866.0110,1442
1605961866.0130,1420
1605961866.0150,1401
1605961866.0170,1379
1605961866.0190,1364
1605961866.0210,1345
1605961866.0230,1325
1605961866.0250,1306
1605961866.0270,1291
1605961866.0290,1286
1605961866.0310,1276
1605961866.0331,1262
1605961866.0350,1245
1605961866.0370,1225
1605961866.0390,1228
1605961866.0410,1232
1605961866.0430,1213
1605961866.0450,1201
1605961866.0470,1191
1605961866.0490,1176
1605961866.0510,1169
1605961866.0530,1164
1605961866.0550,1149
1605961866.4215,1120
1605961866.4219,1103
1605961866.4231,1118
1605961866.4250,1127
1605961866.4270,1103
1605961866.4290,1076
1605961866.4310,1066
1605961866.4330,1062
1605961866.4350,1049
1605961866.4370,1037
1605961866.4390,1030
1605961866.4410,1008
1605961866.4430,991
1605961866.4452,981
1605961866.4471,966
1605961866.4490,959
1605961866.4511,957
1605961866.4529,952
1605961866.4550,949
1605961866.4570,942
1605961866.4591,917
1605961866.4610,871
1605961866.4630,849
1605961866.4650,871
1605961866.4670,883
1605961866.4691,864
1605961866.4710,852
1605961866.4730,861
1605961866.4750,864
1605961866.4770,859
1605961866.4790,859
1605961866.4810,847
1605961866.4830,844
1605961866.4850,842
1605961866.4870,810
1605961866.4890,793
1605961866.4910,754
1605961866.4930,505
1605961866.4950,107
1605961866.4970,161
1605961866.4990,1057
1605961866.5009,1772
1605961866.5029,1330
1605961866.5050,742
1605961866.5070,771
1605961866.5090,791
1605961866.5109,654
1605961866.5129,671
1605961866.5149,715
1605961866.5170,651
1605961866.5189,625
1605961866.5209,676
1605961866.5230,668
1605961866.5249,622
1605961866.5270,625
1605961866.5290,625
1605961866.5304,603
1605961866.5320,598
1605961866.5339,598
1605961866.5360,581
1605961866.5379,556
1605961866.5400,537
1605961866.5419,534
1605961866.5439,537
1605961866.5461,522
1605961866.5480,485
1605961866.5500,461
1605961866.5520,449
1605961866.5539,441
1605961866.5560,446
1605961866.5580,437
1605961866.5599,417
1605961866.5619,434
1605961866.9613,458
1605961866.9620,456
1605961866.9645,458
1605961866.9672,473
1605961866.9691,480
1605961866.9711,488
1605961866.9731,510
1605961866.9751,551
1605961866.9770,578
1605961866.9790,581
1605961866.9810,568
1605961866.9830,578
1605961866.9850,603
1605961866.9870,588
1605961866.9890,549
1605961866.9910,549
1605961866.9930,571
1605961866.9951,556
1605961866.9970,522
1605961866.9990,515
1605961867.0010,529
1605961867.0030,527
1605961867.0050,512
1605961867.0071,507
1605961867.0090,505
1605961867.0110,493
1605961867.0136,488
1605961867.0150,498
1605961867.0170,493
1605961867.0190,473
1605961867.0211,485
1605961867.0230,505
1605961867.0250,498
1605961867.0270,480
1605961867.0290,471
1605961867.0310,471
1605961867.0330,476
1605961867.0350,485
1605961867.0371,483
1605961867.0390,468
1605961867.0410,458
1605961867.0430,454
1605961867.0452,466
1605961867.0470,478
1605961867.0491,461
1605961867.0510,441
1605961867.0530,437
1605961867.0550,432
1605961867.0570,437
1605961867.0590,444
1605961867.0610,439
1605961867.0630,441
1605961867.0650,449
1605961867.0670,434
1605961867.0690,422
1605961867.0710,432
1605961867.0730,429
1605961867.0751,402
1605961867.0770,410
1605961867.0790,434
1605961867.0810,415
1605961867.0830,380
1605961867.0851,354
1605961867.0870,361
1605961867.0890,390
1605961867.0910,380
1605961867.0930,351
1605961867.0951,358
1605961867.0970,395
1605961867.0990,417
1605961867.1010,390
1605961867.1030,371
1605961867.1050,388
1605961867.5620,380
1605961867.5631,363
1605961867.5645,371
1605961867.5665,349
1605961867.5684,214
1605961867.5705,-109
1605961867.5724,-380
1605961867.5744,65
1605961867.5765,1064
1605961867.5784,1257
1605961867.5804,571
1605961867.5824,283
1605961867.5844,400
1605961867.5863,322
1605961867.5884,249
1605961867.5903,302
1605961867.5925,290
1605961867.5943,258
1605961867.5964,283
1605961867.5983,305
1605961867.6005,297
1605961867.6024,280
1605961867.6044,261
1605961867.6064,236
1605961867.6083,227
1605961867.6103,244
1605961867.6124,241
1605961867.6143,227
1605961867.6164,224
1605961867.6183,209
1605961867.6203,190
1605961867.6223,173
1605961867.6243,163
1605961867.6264,156
1605961867.6283,144
1605961867.6303,134
1605961867.6323,126
1605961867.6345,124
1605961867.6364,131
1605961867.6385,131
1605961867.6404,146
1605961867.6424,175
1605961867.6444,185
1605961867.6464,205
1605961867.6483,229
1605961867.6503,236
1605961867.6523,261
1605961867.6543,295
1605961867.6564,307
1605961867.6584,317
1605961867.6603,334
1605961867.6624,341
1605961867.6643,339
1605961867.6664,336
1605961867.6685,334
1605961867.6704,336
1605961867.6724,334
1605961867.6743,322
1605961867.6764,322
1605961867.6783,327
1605961867.6803,314
1605961867.6823,307
1605961867.6843,302
1605961867.6864,288
1605961867.6883,273
1605961867.6903,273
1605961867.6923,283
1605961867.6943,292
1605961867.6964,285
1605961867.6983,268
1605961867.7003,270
1605961867.7025,292
1605961867.7045,292
1605961868.1316,275
1605961868.1326,278
1605961868.1351,288
1605961868.1377,290
1605961868.1397,288
1605961868.1417,278
1605961868.1437,278
1605961868.1457,278
1605961868.1476,266
1605961868.1496,253
1605961868.1516,249
1605961868.1536,258
1605961868.1556,275
1605961868.1575,283
1605961868.1595,280
1605961868.1615,266
1605961868.1635,249
1605961868.1656,256
1605961868.1675,258
1605961868.1695,249
1605961868.1715,249
1605961868.1735,256
1605961868.1756,253
1605961868.1775,241
1605961868.1795,244
1605961868.1815,268
1605961868.1835,266
1605961868.1857,258
1605961868.1875,258
1605961868.1895,236
1605961868.1915,197
1605961868.1935,192
1605961868.1956,229
1605961868.1975,239
1605961868.1995,212
1605961868.2015,207
1605961868.2035,234
1605961868.2056,258
1605961868.2075,266
1605961868.2095,261
1605961868.2115,253
1605961868.2135,249
1605961868.2156,244
1605961868.2175,239
1605961868.2195,234
1605961868.2215,158
1605961868.2235,-153
1605961868.2256,-520
1605961868.2275,-229
1605961868.2297,778
1605961868.2316,1206
1605961868.2335,598
1605961868.2356,187
1605961868.2375,285
1605961868.2395,236
1605961868.2415,134
1605961868.2435,180
1605961868.2456,180
1605961868.2475,148
1605961868.2495,166
1605961868.2515,166
1605961868.2535,148
1605961868.2556,148
1605961868.2575,146
1605961868.2596,136
1605961868.2615,134
1605961868.2635,129
1605961868.2655,117
1605961868.2675,102
1605961868.2695,104
1605961868.2716,102
1605961868.2735,83
1605961868.2756,80
1605961868.6717,92
1605961868.6725,73
1605961868.6749,46
1605961868.6775,48
1605961868.6795,48
1605961868.6815,31
1605961868.6836,26
1605961868.6855,29
1605961868.6874,36
1605961868.6895,46
1605961868.6914,51
1605961868.6934,73
1605961868.6964,104
1605961868.6967,126
1605961868.6984,156
1605961868.7005,180
1605961868.7024,195
1605961868.7044,224
1605961868.7065,249
1605961868.7085,253
1605961868.7105,251
1605961868.7125,258
1605961868.7144,263
1605961868.7165,253
1605961868.7184,246
1605961868.7204,244
1605961868.7224,236
1605961868.7246,234
1605961868.7265,227
1605961868.7271,219
1605961868.7284,212
1605961868.7304,207
1605961868.7324,209
1605961868.7344,219
1605961868.7365,219
1605961868.7385,219
1605961868.7404,229
1605961868.7424,222
1605961868.7445,214
1605961868.7465,219
1605961868.7484,219
1605961868.7504,209
1605961868.7524,209
1605961868.7544,214
1605961868.7565,217
1605961868.7571,217
1605961868.7585,214
1605961868.7605,214
1605961868.7624,209
1605961868.7644,202
1605961868.7665,205
1605961868.7685,202
1605961868.7704,187
1605961868.7724,200
1605961868.7744,224
1605961868.7765,222
1605961868.7784,202
1605961868.7804,187
1605961868.7824,190
1605961868.7844,207
1605961868.7864,212
1605961868.7871,200
1605961868.7884,197
1605961868.7904,209
1605961868.7924,207
1605961868.7945,202
1605961868.7965,207
1605961868.7984,202
1605961868.8004,197
1605961868.8024,202
1605961868.8045,192
1605961868.8065,161
1605961868.8084,136
1605961869.2416,148
1605961869.2425,170
1605961869.2450,156
1605961869.2462,144
1605961869.2476,170
1605961869.2498,192
1605961869.2516,192
1605961869.2535,185
1605961869.2556,185
1605961869.2575,187
1605961869.2595,180
1605961869.2615,166
1605961869.2635,158
1605961869.2655,129
1605961869.2676,-90
1605961869.2695,-512
1605961869.2715,-495
1605961869.2735,419
1605961869.2755,1184
1605961869.2762,773
1605961869.2775,175
1605961869.2795,209
1605961869.2815,236
1605961869.2835,73
1605961869.2855,83
1605961869.2875,151
1605961869.2895,119
1605961869.2915,100
1605961869.2935,107
1605961869.2955,107
1605961869.2975,114
1605961869.2995,109
1605961869.3015,97
1605961869.3035,87
1605961869.3055,78
1605961869.3062,75
1605961869.3075,70
1605961869.3095,61
1605961869.3115,46
1605961869.3135,43
1605961869.3155,58
1605961869.3175,36
1605961869.3195,2
1605961869.3215,9
1605961869.3235,4
1605961869.3255,-21
1605961869.3275,-17
1605961869.3295,-12
1605961869.3315,-19
1605961869.3335,-12
1605961869.3358,4
1605961869.3375,7
1605961869.3396,26
1605961869.3415,70
1605961869.3435,95
1605961869.3455,117
1605961869.3477,148
1605961869.3495,168
1605961869.3515,190
1605961869.3535,207
1605961869.3556,209
1605961869.3575,222
1605961869.3595,241
1605961869.3615,253
1605961869.3635,253
1605961869.3655,246
1605961869.3662,239
1605961869.3676,222
1605961869.3695,207
1605961869.3715,205
1605961869.3735,195
1605961869.3755,187
1605961869.3775,187
1605961869.7816,185
1605961869.7824,168
1605961869.7848,158
1605961869.7875,173
1605961869.7894,195
1605961869.7914,190
1605961869.7934,175
1605961869.7942,175
1605961869.7965,173
1605961869.7984,166
1605961869.8004,170
1605961869.8024,183
1605961869.8044,180
1605961869.8064,178
1605961869.8084,173
1605961869.8104,170
1605961869.8124,190
1605961869.8144,202
1605961869.8164,187
1605961869.8184,183
1605961869.8204,183
1605961869.8224,173
1605961869.8244,166
1605961869.8251,161
1605961869.8264,166
1605961869.8284,190
1605961869.8304,192
1605961869.8324,175
1605961869.8344,166
1605961869.8364,166
1605961869.8384,166
1605961869.8404,168
1605961869.8424,178
1605961869.8444,175
1605961869.8466,170
1605961869.8485,166
1605961869.8504,144
1605961869.8524,134
1605961869.8544,126
1605961869.8551,112
1605961869.8564,129
1605961869.8584,151
1605961869.8604,146
1605961869.8624,136
1605961869.8644,153
1605961869.8664,183
1605961869.8684,187
1605961869.8704,168
1605961869.8724,156
1605961869.8744,156
1605961869.8764,151
1605961869.8784,141
1605961869.8804,117
1605961869.8824,-19
1605961869.8844,-363
1605961869.8851,-590
1605961869.8864,-43
1605961869.8884,961
1605961869.8904,1047
1605961869.8924,312
1605961869.8944,80
1605961869.8964,212
1605961869.8984,95
1605961869.9004,43
1605961869.9024,141
1605961869.9044,107
1605961869.9064,51
1605961869.9084,87
1605961869.9104,97
1605961869.9123,70
1605961869.9144,92
1605961869.9151,112
1605961869.9172,80
1605961870.3512,61
1605961870.3521,56
1605961870.3546,51
1605961870.3572,61
1605961870.3592,58
1605961870.3612,36
1605961870.3632,17
1605961870.3652,4
1605961870.3671,-12
1605961870.3691,-26
1605961870.3711,-9
1605961870.3731,7
1605961870.3754,-14
1605961870.3772,-36
1605961870.3791,-21
1605961870.3811,-14
1605961870.3831,-19
1605961870.3851,-14
1605961870.3871,-2
1605961870.3891,39
1605961870.3911,83
1605961870.3931,102
1605961870.3951,134
1605961870.3971,166
1605961870.3991,156
1605961870.4011,144
1605961870.4031,158
1605961870.4051,190
1605961870.4071,192
1605961870.4091,156
1605961870.4111,173
1605961870.4131,222
1605961870.4151,205
1605961870.4171,148
1605961870.4191,163
1605961870.4211,227
1605961870.4231,207
1605961870.4251,134
1605961870.4271,126
1605961870.4291,151
1605961870.4311,146
1605961870.4331,158
1605961870.4351,195
1605961870.4371,187
1605961870.4391,151
1605961870.4411,144
1605961870.4431,141
1605961870.4451,131
1605961870.4471,146
1605961870.4491,190
1605961870.4511,205
1605961870.4531,180
1605961870.4551,158
1605961870.4571,153
1605961870.4591,153
1605961870.4611,163
1605961870.4631,168
1605961870.4651,166
1605961870.4671,187
1605961870.4691,192
1605961870.4712,146
1605961870.4731,126
1605961870.4752,183
1605961870.4773,207
1605961870.4791,144
1605961870.4811,122
1605961870.4831,170
1605961870.4851,195
1605961870.4871,183
1605961870.4891,158
1605961870.4911,134
1605961870.4931,161
1605961870.4951,185
1605961870.9818,136
1605961870.9827,73
1605961870.9851,104
1605961870.9878,207
1605961870.9897,205
1605961870.9917,102
1605961870.9938,85
1605961870.9958,139
1605961870.9977,146
1605961870.9997,134
1605961871.0017,161
1605961871.0037,158
1605961871.0058,146
1605961871.0077,170
1605961871.0098,170
1605961871.0117,129
1605961871.0137,-41
1605961871.0157,-468
1605961871.0177,-622
1605961871.0197,170
1605961871.0217,1098
1605961871.0237,878
1605961871.0257,185
1605961871.0277,102
1605961871.0297,217
1605961871.0317,122
1605961871.0337,70
1605961871.0357,104
1605961871.0377,114
1605961871.0397,90
1605961871.0417,65
1605961871.0437,78
1605961871.0457,83
1605961871.0476,51
1605961871.0496,31
1605961871.0516,46
1605961871.0537,58
1605961871.0557,61
1605961871.0576,41
1605961871.0596,-24
1605961871.0616,0
1605961871.0638,107
1605961871.0658,68
1605961871.0676,-31
1605961871.0696,14
1605961871.0716,58
1605961871.0736,-26
1605961871.0757,-70
1605961871.0777,-53
1605961871.0796,-58
1605961871.0816,-46
1605961871.0836,-29
1605961871.0857,0
1605961871.0876,29
1605961871.0897,17
1605961871.0916,39
1605961871.0936,107
1605961871.0957,126
1605961871.0977,109
1605961871.0996,126
1605961871.1017,161
1605961871.1036,168
1605961871.1057,158
1605961871.1077,153
1605961871.1097,185
1605961871.1116,236
1605961871.1137,236
1605961871.1157,209
1605961871.1176,202
1605961871.1196,185
1605961871.1216,175
1605961871.1236,178
1605961871.1257,161
1605961871.4915,144
1605961871.4925,141
1605961871.4949,139
1605961871.4976,153
1605961871.4996,156
1605961871.5016,124
1605961871.5036,141
1605961871.5056,192
1605961871.5075,175
1605961871.5095,136
1605961871.5115,136
1605961871.5135,139
1605961871.5156,148
1605961871.5177,173
1605961871.5195,170
1605961871.5216,146
1605961871.5235,134
1605961871.5256,131
1605961871.5275,136
1605961871.5297,136
1605961871.5316,124
1605961871.5335,126
1605961871.5355,153
1605961871.5375,156
1605961871.5395,139
1605961871.5415,131
1605961871.5435,141
1605961871.5455,148
1605961871.5475,134
1605961871.5495,109
1605961871.5516,100
1605961871.5536,114
1605961871.5556,126
1605961871.5575,114
1605961871.5595,102
1605961871.5615,129
1605961871.5635,161
1605961871.5655,151
1605961871.5676,131
1605961871.5695,119
1605961871.5715,112
1605961871.5735,139
1605961871.5755,158
1605961871.5775,34
1605961871.5795,-317
1605961871.5815,-639
1605961871.5835,-258
1605961871.5855,771
1605961871.5875,1098
1605961871.5895,441
1605961871.5915,83
1605961871.5935,187
1605961871.5955,124
1605961871.5975,41
1605961871.5995,92
1605961871.6015,80
1605961871.6035,46
1605961871.6055,83
1605961871.6075,102
1605961871.6095,73
1605961871.6116,63
1605961871.6135,73
1605961871.6155,56
1605961871.6175,34
1605961871.6195,39
1605961871.6215,43
1605961871.6235,26
1605961871.6255,12
1605961871.6275,9
1605961871.6295,-2
1605961871.6317,-29
1605961871.6335,-31
1605961871.6356,-19
1605961872.0315,-36
1605961872.0322,-58
1605961872.0346,-46
1605961872.0373,-48
1605961872.0392,-80
1605961872.0412,-70
1605961872.0433,-29
1605961872.0453,-14
1605961872.0472,-21
1605961872.0492,-26
1605961872.0512,4
1605961872.0532,63
1605961872.0553,87
1605961872.0572,90
1605961872.0593,122
1605961872.0614,144
1605961872.0632,144
1605961872.0653,153
1605961872.0672,163
1605961872.0692,166
1605961872.0712,163
1605961872.0732,158
1605961872.0753,153
1605961872.0772,148
1605961872.0792,148
1605961872.0812,141
1605961872.0832,129
1605961872.0852,126
1605961872.0872,126
1605961872.0892,126
1605961872.0912,131
1605961872.0932,126
1605961872.0953,114
1605961872.0972,107
1605961872.0992,109
1605961872.1012,122
1605961872.1032,134
1605961872.1052,129
1605961872.1072,124
1605961872.1092,136
1605961872.1112,136
1605961872.1132,131
1605961872.1152,139
1605961872.1172,136
1605961872.1192,131
1605961872.1212,136
1605961872.1232,134
1605961872.1253,131
1605961872.1274,136
1605961872.1292,146
1605961872.1312,139
1605961872.1331,117
1605961872.1352,107
1605961872.1372,109
1605961872.1392,107
1605961872.1412,102
1605961872.1432,107
1605961872.1454,122
1605961872.1472,136
1605961872.1492,134
1605961872.1512,129
1605961872.1532,129
1605961872.1552,126
1605961872.1572,122
1605961872.1592,112
1605961872.1612,117
1605961872.1632,70
1605961872.1652,-195
1605961872.1672,-588
1605961872.1692,-454
1605961872.1712,505
1605961872.1732,1120
1605961872.1752,603
1605961872.6012,80
1605961872.6021,148
1605961872.6046,151
1605961872.6072,31
1605961872.6092,63
1605961872.6112,95
1605961872.6133,46
1605961872.6152,39
1605961872.6171,61
1605961872.6191,48
1605961872.6211,34
1605961872.6231,41
1605961872.6252,39
1605961872.6271,29
1605961872.6291,24
1605961872.6311,29
1605961872.6331,24
1605961872.6352,12
1605961872.6371,7
1605961872.6391,2
1605961872.6411,-9
1605961872.6431,-19
1605961872.6452,-26
1605961872.6471,-39
1605961872.6491,-51
1605961872.6511,-58
1605961872.6533,-61
1605961872.6553,-65
1605961872.6572,-58
1605961872.6591,-41
1605961872.6611,-29
1605961872.6631,-12
1605961872.6652,12
1605961872.6671,26
1605961872.6691,43
1605961872.6711,73
1605961872.6731,109
1605961872.6751,139
1605961872.6771,148
1605961872.6791,153
1605961872.6811,163
1605961872.6831,163
1605961872.6852,163
1605961872.6871,158
1605961872.6891,156
1605961872.6911,148
1605961872.6931,141
1605961872.6951,139
1605961872.6971,131
1605961872.6991,126
1605961872.7011,129
1605961872.7031,129
1605961872.7052,126
1605961872.7071,117
1605961872.7091,117
1605961872.7111,126
1605961872.7131,129
1605961872.7151,129
1605961872.7171,126
1605961872.7191,122
1605961872.7211,124
1605961872.7231,129
1605961872.7251,136
1605961872.7271,129
1605961872.7291,114
1605961872.7311,119
1605961872.7331,126
1605961872.7352,122
1605961872.7371,122
1605961872.7391,131
1605961872.7411,134
1605961872.7431,124
1605961872.7452,112
1605961873.1415,102
1605961873.1422,100
1605961873.1446,112
1605961873.1473,119
1605961873.1495,114
1605961873.1513,117
1605961873.1533,126
1605961873.1553,122
1605961873.1572,114
1605961873.1592,112
1605961873.1612,112
1605961873.1632,114
1605961873.1653,112
1605961873.1672,109
1605961873.1692,95
1605961873.1712,-43
1605961873.1732,-427
1605961873.1753,-646
1605961873.1772,2
1605961873.1792,986
1605961873.1812,937
1605961873.1832,234
1605961873.1852,87
1605961873.1872,200
1605961873.1892,83
1605961873.1912,39
1605961873.1932,102
1605961873.1953,73
1605961873.1972,41
1605961873.1992,68
1605961873.2012,68
1605961873.2032,53
1605961873.2052,48
1605961873.2072,51
1605961873.2092,48
1605961873.2112,39
1605961873.2132,34
1605961873.2153,34
1605961873.2172,29
1605961873.2192,21
1605961873.2212,9
1605961873.2232,-2
1605961873.2253,-7
1605961873.2272,-17
1605961873.2292,-31
1605961873.2312,-41
1605961873.2332,-53
1605961873.2352,-53
1605961873.2378,-48
1605961873.2392,-48
1605961873.2412,-48
1605961873.2432,-34
1605961873.2453,-14
1605961873.2472,2
1605961873.2492,26
1605961873.2514,56
1605961873.2532,80
1605961873.2552,107
1605961873.2572,126
1605961873.2592,148
1605961873.2612,170
1605961873.2632,178
1605961873.2653,178
1605961873.2672,173
1605961873.2692,168
1605961873.2712,168
1605961873.2732,163
1605961873.2753,158
1605961873.2772,158
1605961873.2792,148
1605961873.2812,136
1605961873.2832,134
1605961873.2854,129
1605961873.7114,124
1605961873.7121,117
1605961873.7145,114
1605961873.7171,114
1605961873.7191,102
1605961873.7211,92
1605961873.7232,95
1605961873.7252,102
1605961873.7271,102
1605961873.7291,102
1605961873.7312,107
1605961873.7332,109
1605961873.7351,109
1605961873.7371,114
1605961873.7391,119
1605961873.7411,119
1605961873.7431,122
1605961873.7451,124
1605961873.7471,124
1605961873.7491,114
1605961873.7511,95
1605961873.7531,80
1605961873.7551,78
1605961873.7571,83
1605961873.7591,95
1605961873.7611,107
1605961873.7631,119
1605961873.7652,119
1605961873.7671,114
1605961873.7691,114
1605961873.7711,119
1605961873.7731,117
1605961873.7751,104
1605961873.7773,104
1605961873.7791,95
1605961873.7811,-75
1605961873.7831,-463
1605961873.7851,-598
1605961873.7871,136
1605961873.7891,1047
1605961873.7911,856
1605961873.7931,170
1605961873.7952,87
1605961873.7971,180
1605961873.7991,63
1605961873.8010,39
1605961873.8031,92
1605961873.8051,68
1605961873.8071,41
1605961873.8091,56
1605961873.8111,53
1605961873.8131,39
1605961873.8151,43
1605961873.8171,41
1605961873.8191,34
1605961873.8211,29
1605961873.8231,24
1605961873.8251,17
1605961873.8271,7
1605961873.8291,0
1605961873.8311,2
1605961873.8331,-7
1605961873.8352,-21
1605961873.8371,-31
1605961873.8391,-43
1605961873.8411,-48
1605961873.8431,-48
1605961873.8451,-46
1605961873.8471,-46
1605961873.8491,-41
1605961873.8511,-24
1605961873.8531,-12
1605961873.8552,-2
1605961874.3114,24
1605961874.3121,46
1605961874.3145,63
1605961874.3172,85
1605961874.3192,107
1605961874.3212,122
1605961874.3232,134
1605961874.3252,151
1605961874.3271,156
1605961874.3291,153
1605961874.3311,153
1605961874.3334,148
1605961874.3352,148
1605961874.3371,151
1605961874.3391,141
1605961874.3411,129
1605961874.3431,124
1605961874.3452,119
1605961874.3471,119
1605961874.3491,117
1605961874.3511,119
1605961874.3531,119
1605961874.3551,114
1605961874.3571,117
1605961874.3591,119
1605961874.3611,114
1605961874.3631,117
1605961874.3652,124
1605961874.3671,124
1605961874.3691,117
1605961874.3711,117
1605961874.3731,124
1605961874.3752,126
1605961874.3771,126
1605961874.3791,122
1605961874.3811,122
1605961874.3831,122
1605961874.3851,117
1605961874.3871,112
1605961874.3891,122
1605961874.3911,129
1605961874.3931,119
1605961874.3952,92
1605961874.3971,68
1605961874.3991,70
1605961874.4011,73
1605961874.4031,73
1605961874.4051,80
1605961874.4072,92
1605961874.4091,102
1605961874.4111,104
1605961874.4131,102
1605961874.4153,104
1605961874.4171,102
1605961874.4191,97
1605961874.4211,92
1605961874.4231,83
1605961874.4252,41
1605961874.4271,-183
1605961874.4291,-566
1605961874.4311,-495
1605961874.4331,415
1605961874.4353,1098
1605961874.4372,637
1605961874.4391,68
1605961874.4411,109
1605961874.4431,131
1605961874.4452,17
1605961874.4471,43
1605961874.4491,73
1605961874.4511,34
1605961874.4531,34
1605961874.4552,56
1605961874.8509,48
1605961874.8517,36
1605961874.8541,36
1605961874.8568,34
1605961874.8587,29
1605961874.8607,21
1605961874.8627,12
1605961874.8647,2
1605961874.8666,0
1605961874.8686,0
1605961874.8706,-14
1605961874.8726,-36
1605961874.8746,-43
1605961874.8767,-46
1605961874.8786,-61
1605961874.8806,-68
1605961874.8826,-63
1605961874.8846,-53
1605961874.8867,-46
1605961874.8886,-43
1605961874.8907,-36
1605961874.8926,-17
1605961874.8946,2
1605961874.8967,19
1605961874.8986,31
1605961874.9006,53
1605961874.9026,75
1605961874.9046,92
1605961874.9067,109
1605961874.9086,129
1605961874.9107,136
1605961874.9126,141
1605961874.9146,146
1605961874.9166,151
1605961874.9187,144
1605961874.9206,129
1605961874.9227,122
1605961874.9246,117
1605961874.9268,107
1605961874.9274,104
1605961874.9298,104
1605961874.9317,104
1605961874.9337,102
1605961874.9357,104
1605961874.9377,107
1605961874.9396,102
1605961874.9416,107
1605961874.9436,114
1605961874.9457,114
1605961874.9476,114
1605961874.9496,114
1605961874.9516,114
1605961874.9536,114
1605961874.9557,117
1605961874.9576,122
1605961874.9584,122
1605961874.9597,114
1605961874.9616,112
1605961874.9636,109
1605961874.9657,114
1605961874.9677,114
1605961874.9696,109
1605961874.9717,112
1605961874.9737,112
1605961874.9757,109
1605961874.9777,114
1605961874.9796,114
1605961874.9816,102
1605961874.9836,83
1605961874.9857,63
1605961874.9876,61
1605961874.9883,58
1605961874.9896,61
1605961875.4215,73
1605961875.4225,85
1605961875.4249,97
1605961875.4276,100
1605961875.4296,97
1605961875.4316,100
1605961875.4337,97
1605961875.4356,85
1605961875.4374,68
1605961875.4395,58
1605961875.4415,9
1605961875.4435,-251
1605961875.4455,-622
1605961875.4462,-439
1605961875.4484,532
1605961875.4504,1093
1605961875.4524,549
1605961875.4544,51
1605961875.4567,119
1605961875.4585,102
1605961875.4604,0
1605961875.4624,34
1605961875.4644,56
1605961875.4665,24
1605961875.4684,29
1605961875.4704,39
1605961875.4724,26
1605961875.4744,17
1605961875.4765,17
1605961875.4771,17
1605961875.4784,14
1605961875.4804,9
1605961875.4826,7
1605961875.4844,4
1605961875.4865,-4
1605961875.4884,-12
1605961875.4904,-19
1605961875.4924,-31
1605961875.4944,-36
1605961875.4965,-41
1605961875.4984,-53
1605961875.5004,-58
1605961875.5024,-56
1605961875.5044,-46
1605961875.5052,-39
1605961875.5064,-31
1605961875.5084,-21
1605961875.5104,-7
1605961875.5124,2
1605961875.5144,19
1605961875.5164,36
1605961875.5184,53
1605961875.5204,73
1605961875.5224,92
1605961875.5245,114
1605961875.5265,124
1605961875.5284,126
1605961875.5304,139
1605961875.5324,151
1605961875.5344,156
1605961875.5352,144
1605961875.5364,129
1605961875.5385,124
1605961875.5404,117
1605961875.5424,114
1605961875.5444,114
1605961875.5465,107
1605961875.5484,102
1605961875.5504,109
1605961875.5526,114
1605961875.5545,107
1605961875.5564,104
1605961875.5584,109
1605961875.9613,112
1605961875.9620,114
1605961875.9645,119
1605961875.9672,114
1605961875.9690,112
1605961875.9710,114
1605961875.9731,119
1605961875.9751,122
1605961875.9770,114
1605961875.9790,104
1605961875.9810,102
1605961875.9830,97
1605961875.9851,92
1605961875.9870,100
1605961875.9890,107
1605961875.9910,102
1605961875.9930,95
1605961875.9937,90
1605961875.9961,83
1605961875.9980,75
1605961876.0002,80
1605961876.0021,85
1605961876.0041,90
1605961876.0061,92
1605961876.0081,68
1605961876.0101,41
1605961876.0120,43
1605961876.0140,56
1605961876.0161,56
1605961876.0180,58
1605961876.0200,65
1605961876.0220,80
1605961876.0240,90
1605961876.0247,92
1605961876.0260,85
1605961876.0280,83
1605961876.0300,80
1605961876.0320,73
1605961876.0340,73
1605961876.0360,29
1605961876.0381,-219
1605961876.0400,-603
1605961876.0420,-478
1605961876.0440,466
1605961876.0460,1088
1605961876.0480,598
1605961876.0500,80
1605961876.0522,124
1605961876.0541,114
1605961876.0548,2
1605961876.0560,29
1605961876.0580,56
1605961876.0600,21
1605961876.0620,24
1605961876.0640,39
1605961876.0661,17
1605961876.0680,9
1605961876.0700,21
1605961876.0720,21
1605961876.0740,12
1605961876.0760,7
1605961876.0780,2
1605961876.0800,-4
1605961876.0820,-9
1605961876.0840,-7
1605961876.0847,-17
1605961876.0860,-36
1605961876.0880,-43
1605961876.0900,-46
1605961876.0920,-48
1605961876.0940,-53
1605961876.0961,-68
1605961876.0980,-73
1605961876.5305,-58
1605961876.5314,-43
1605961876.5338,-26
1605961876.5364,-12
1605961876.5385,-4
1605961876.5404,-2
1605961876.5424,7
1605961876.5432,31
1605961876.5455,61
1605961876.5474,87
1605961876.5494,95
1605961876.5514,100
1605961876.5535,119
1605961876.5554,126
1605961876.5574,122
1605961876.5594,126
1605961876.5614,126
1605961876.5633,122
1605961876.5654,114
1605961876.5674,114
1605961876.5693,107
1605961876.5714,97
1605961876.5721,92
1605961876.5744,95
1605961876.5764,95
1605961876.5786,97
1605961876.5804,97
1605961876.5823,90
1605961876.5845,87
1605961876.5864,95
1605961876.5883,104
1605961876.5903,104
1605961876.5924,102
1605961876.5943,104
1605961876.5964,102
1605961876.5983,104
1605961876.6003,109
1605961876.6024,102
1605961876.6043,100
1605961876.6064,97
1605961876.6083,97
1605961876.6103,100
1605961876.6123,90
1605961876.6143,92
1605961876.6164,100
1605961876.6183,92
1605961876.6203,87
1605961876.6223,97
1605961876.6243,107
1605961876.6264,114
1605961876.6284,109
1605961876.6303,95
1605961876.6323,73
1605961876.6344,61
1605961876.6364,68
1605961876.6383,73
1605961876.6403,73
1605961876.6423,75
1605961876.6443,87
1605961876.6464,100
1605961876.6483,100
1605961876.6503,100
1605961876.6524,109
1605961876.6544,102
1605961876.6564,92
1605961876.6583,87
1605961876.6603,53
1605961876.6623,-124
1605961876.6643,-495
1605961876.6664,-571
1605961876.6683,217
1605961876.6703,1079
1605961876.6723,815
1605961877.0713,146
1605961877.0720,87
1605961877.0745,146
1605961877.0774,14
1605961877.0791,17
1605961877.0811,70
1605961877.0831,29
1605961877.0851,4
1605961877.0871,12
1605961877.0891,2
1605961877.0911,0
1605961877.0931,2
1605961877.0951,-4
1605961877.0971,-7
1605961877.0991,-2
1605961877.1011,-7
1605961877.1031,-17
1605961877.1051,-17
1605961877.1071,-29
1605961877.1091,-43
1605961877.1111,-43
1605961877.1131,-48
1605961877.1151,-61
1605961877.1170,-61
1605961877.1190,-65
1605961877.1210,-75
1605961877.1230,-73
1605961877.1251,-63
1605961877.1270,-56
1605961877.1290,-48
1605961877.1311,-29
1605961877.1330,-7
1605961877.1351,7
1605961877.1370,19
1605961877.1390,39
1605961877.1410,65
1605961877.1431,95
1605961877.1451,107
1605961877.1470,119
1605961877.1490,131
1605961877.1511,144
1605961877.1530,156
1605961877.1551,156
1605961877.1570,144
1605961877.1590,139
1605961877.1610,136
1605961877.1630,129
1605961877.1651,124
1605961877.1670,122
1605961877.1690,119
1605961877.1710,104
1605961877.1730,100
1605961877.1751,95
1605961877.1770,92
1605961877.1793,100
1605961877.1811,109
1605961877.1830,102
1605961877.1851,95
1605961877.1870,102
1605961877.1890,104
1605961877.1911,95
1605961877.1930,95
1605961877.1951,104
1605961877.1970,104
1605961877.1990,100
1605961877.2011,97
1605961877.2031,100
1605961877.2051,102
1605961877.2070,102
1605961877.2090,104
1605961877.2111,97
1605961877.2130,92
1605961877.2151,102
1605961877.6708,102
1605961877.6715,97
1605961877.6739,92
1605961877.6766,75
1605961877.6786,61
1605961877.6806,56
1605961877.6827,53
1605961877.6846,56
1605961877.6866,63
1605961877.6886,80
1605961877.6906,90
1605961877.6926,87
1605961877.6946,87
1605961877.6966,85
1605961877.6985,83
1605961877.7005,83
1605961877.7025,80
1605961877.7045,65
1605961877.7066,-39
1605961877.7085,-363
1605961877.7105,-644
1605961877.7125,-183
1605961877.7145,827
1605961877.7166,1025
1605961877.7185,339
1605961877.7205,36
1605961877.7225,139
1605961877.7245,58
1605961877.7266,-7
1605961877.7285,53
1605961877.7305,51
1605961877.7325,17
1605961877.7347,29
1605961877.7366,36
1605961877.7385,24
1605961877.7405,26
1605961877.7425,29
1605961877.7445,14
1605961877.7466,9
1605961877.7485,12
1605961877.7505,7
1605961877.7525,0
1605961877.7546,-9
1605961877.7566,-14
1605961877.7585,-24
1605961877.7605,-34
1605961877.7625,-39
1605961877.7645,-43
1605961877.7665,-48
1605961877.7685,-58
1605961877.7705,-63
1605961877.7725,-51
1605961877.7745,-39
1605961877.7766,-29
1605961877.7785,-12
1605961877.7805,2
1605961877.7825,14
1605961877.7845,26
1605961877.7866,48
1605961877.7885,75
1605961877.7905,85
1605961877.7925,102
1605961877.7945,122
1605961877.7966,131
1605961877.7985,139
1605961877.8005,141
1605961877.8025,141
1605961877.8045,139
1605961877.8066,129
1605961877.8085,114
1605961877.8105,112
1605961877.8125,117
1605961877.8145,109
1605961878.2112,97
1605961878.2119,97
1605961878.2143,95
1605961878.2170,92
1605961878.2190,100
1605961878.2210,92
1605961878.2231,85
1605961878.2251,92
1605961878.2270,90
1605961878.2290,78
1605961878.2312,80
1605961878.2330,87
1605961878.2350,83
1605961878.2370,78
1605961878.2391,83
1605961878.2409,85
1605961878.2429,78
1605961878.2451,83
1605961878.2470,87
1605961878.2489,83
1605961878.2511,87
1605961878.2530,90
1605961878.2551,92
1605961878.2569,102
1605961878.2590,107
1605961878.2609,92
1605961878.2629,65
1605961878.2651,58
1605961878.2669,63
1605961878.2689,65
1605961878.2709,73
1605961878.2729,83
1605961878.2750,90
1605961878.2769,97
1605961878.2789,95
1605961878.2809,97
1605961878.2829,107
1605961878.2850,95
1605961878.2869,83
1605961878.2890,80
1605961878.2909,75
1605961878.2929,-51
1605961878.2950,-407
1605961878.2969,-649
1605961878.2989,-87
1605961878.3009,905
1605961878.3029,969
1605961878.3049,275
1605961878.3069,51
1605961878.3089,146
1605961878.3109,43
1605961878.3129,-2
1605961878.3150,63
1605961878.3169,48
1605961878.3189,17
1605961878.3209,34
1605961878.3229,31
1605961878.3250,9
1605961878.3269,17
1605961878.3289,29
1605961878.3309,14
1605961878.3331,4
1605961878.3351,7
1605961878.3369,0
1605961878.3390,-9
1605961878.3409,-12
1605961878.3429,-14
1605961878.3450,-26
1605961878.3469,-43
1605961878.3489,-46
1605961878.3509,-48
1605961878.3529,-58
1605961878.3550,-63
1605961878.7806,-63
1605961878.7814,-61
1605961878.7838,-43
1605961878.7865,-24
1605961878.7884,-14
1605961878.7904,-9
1605961878.7924,0
1605961878.7944,9
1605961878.7965,24
1605961878.7984,48
1605961878.8004,73
1605961878.8024,83
1605961878.8044,97
1605961878.8064,117
1605961878.8084,129
1605961878.8104,126
1605961878.8124,126
1605961878.8144,134
1605961878.8164,129
1605961878.8183,119
1605961878.8204,117
1605961878.8224,107
1605961878.8244,97
1605961878.8264,90
1605961878.8284,90
1605961878.8304,90
1605961878.8324,87
1605961878.8344,85
1605961878.8364,90
1605961878.8384,90
1605961878.8404,87
1605961878.8424,87
1605961878.8444,85
1605961878.8464,87
1605961878.8484,90
1605961878.8504,95
1605961878.8524,90
1605961878.8544,85
1605961878.8564,90
1605961878.8586,92
1605961878.8604,90
1605961878.8624,92
1605961878.8644,90
1605961878.8664,87
1605961878.8684,90
1605961878.8703,95
1605961878.8724,100
1605961878.8744,95
1605961878.8764,80
1605961878.8784,53
1605961878.8804,39
1605961878.8824,48
1605961878.8843,56
1605961878.8864,63
1605961878.8884,75
1605961878.8903,85
1605961878.8924,87
1605961878.8944,85
1605961878.8964,85
1605961878.8984,85
1605961878.9004,83
1605961878.9024,73
1605961878.9044,65
1605961878.9064,26
1605961878.9084,-214
1605961878.9103,-603
1605961878.9124,-488
1605961878.9143,451
1605961878.9165,1091
1605961878.9184,610
1605961878.9203,65
1605961878.9223,104
1605961878.9244,109
1605961879.3209,-2
1605961879.3217,26
1605961879.3241,58
1605961879.3267,17
1605961879.3287,17
1605961879.3307,31
1605961879.3328,21
1605961879.3347,12
1605961879.3367,4
1605961879.3387,-2
1605961879.3407,-2
1605961879.3427,-2
1605961879.3447,-7
1605961879.3467,-14
1605961879.3487,-19
1605961879.3507,-29
1605961879.3527,-46
1605961879.3549,-48
1605961879.3568,-43
1605961879.3587,-53
1605961879.3607,-65
1605961879.3627,-68
1605961879.3647,-68
1605961879.3667,-68
1605961879.3687,-65
1605961879.3707,-51
1605961879.3727,-36
1605961879.3747,-21
1605961879.3767,-7
1605961879.3787,0
1605961879.3807,21
1605961879.3827,56
1605961879.3847,73
1605961879.3867,83
1605961879.3887,100
1605961879.3907,117
1605961879.3927,122
1605961879.3947,129
1605961879.3967,139
1605961879.3987,136
1605961879.4007,129
1605961879.4027,124
1605961879.4047,114
1605961879.4067,107
1605961879.4087,104
1605961879.4107,100
1605961879.4127,95
1605961879.4147,92
1605961879.4167,90
1605961879.4187,85
1605961879.4207,80
1605961879.4227,85
1605961879.4247,87
1605961879.4267,85
1605961879.4287,83
1605961879.4307,87
1605961879.4327,100
1605961879.4347,104
1605961879.4367,100
1605961879.4387,100
1605961879.4407,97
1605961879.4427,95
1605961879.4447,87
1605961879.4467,83
1605961879.4487,83
1605961879.4507,85
1605961879.4527,85
1605961879.4547,83
1605961879.4569,85
1605961879.4588,100
1605961879.4607,102
1605961879.4627,80
1605961879.4647,58
1605961879.8911,53
1605961879.8919,58
1605961879.8943,56
1605961879.8969,61
1605961879.8989,75
1605961879.9009,78
1605961879.9029,70
1605961879.9050,78
1605961879.9069,92
1605961879.9089,87
1605961879.9109,70
1605961879.9129,65
1605961879.9151,68
1605961879.9169,53
1605961879.9189,-73
1605961879.9209,-427
1605961879.9229,-659
1605961879.9249,-75
1605961879.9269,915
1605961879.9289,944
1605961879.9309,244
1605961879.9328,29
1605961879.9349,126
1605961879.9368,26
1605961879.9389,-24
1605961879.9409,41
1605961879.9428,39
1605961879.9449,12
1605961879.9469,19
1605961879.9489,14
1605961879.9509,7
1605961879.9529,14
1605961879.9549,17
1605961879.9569,4
1605961879.9588,-4
1605961879.9609,-9
1605961879.9629,-24
1605961879.9649,-31
1605961879.9668,-34
1605961879.9689,-43
1605961879.9709,-48
1605961879.9729,-51
1605961879.9750,-63
1605961879.9769,-70
1605961879.9788,-68
1605961879.9808,-68
1605961879.9830,-73
1605961879.9850,-73
1605961879.9869,-65
1605961879.9888,-56
1605961879.9908,-39
1605961879.9929,-19
1605961879.9949,-12
1605961880.0024,2
1605961880.0038,29
1605961880.0059,51
1605961880.0078,75
1605961880.0098,100
1605961880.0118,117
1605961880.0139,124
1605961880.0159,131
1605961880.0179,141
1605961880.0198,146
1605961880.0219,139
1605961880.0238,134
1605961880.0259,126
1605961880.0278,124
1605961880.0299,119
1605961880.0319,107
1605961880.0338,107
1605961880.0359,107
1605961880.0379,102
1605961880.0398,97
1605961880.4313,92
1605961880.4320,95
1605961880.4345,100
1605961880.4371,100
1605961880.4391,97
1605961880.4411,95
1605961880.4431,90
1605961880.4451,83
1605961880.4470,87
1605961880.4490,95
1605961880.4510,85
1605961880.4530,83
1605961880.4550,95
1605961880.4570,90
1605961880.4590,83
1605961880.4610,83
1605961880.4630,80
1605961880.4651,83
1605961880.4670,87
1605961880.4690,95
1605961880.4710,102
1605961880.4730,90
1605961880.4751,70
1605961880.4770,51
1605961880.4792,46
1605961880.4811,53
1605961880.4830,56
1605961880.4851,61
1605961880.4870,68
1605961880.4891,70
1605961880.4911,80
1605961880.4930,87
1605961880.4951,80
1605961880.4971,70
1605961880.4991,65
1605961880.5010,68
1605961880.5030,68
1605961880.5050,26
1605961880.5070,-214
1605961880.5090,-617
1605961880.5110,-546
1605961880.5130,393
1605961880.5151,1108
1605961880.5170,646
1605961880.5191,61
1605961880.5210,102
1605961880.5230,114
1605961880.5251,-19
1605961880.5270,17
1605961880.5290,58
1605961880.5310,7
1605961880.5330,0
1605961880.5350,17
1605961880.5370,7
1605961880.5391,4
1605961880.5410,14
1605961880.5430,17
1605961880.5451,9
1605961880.5470,2
1605961880.5490,-2
1605961880.5510,-12
1605961880.5530,-17
1605961880.5550,-24
1605961880.5570,-34
1605961880.5590,-41
1605961880.5610,-53
1605961880.5630,-68
1605961880.5650,-73
1605961880.5670,-78
1605961880.5690,-83
1605961880.5710,-87
1605961880.5730,-80
1605961880.5750,-70
1605961881.0313,-58
1605961881.0322,-39
1605961881.0350,-29
1605961881.0373,-19
1605961881.0393,-4
1605961881.0413,19
1605961881.0433,58
1605961881.0453,90
1605961881.0472,104
1605961881.0492,124
1605961881.0512,139
1605961881.0532,146
1605961881.0552,148
1605961881.0572,151
1605961881.0592,151
1605961881.0612,139
1605961881.0632,129
1605961881.0652,131
1605961881.0672,126
1605961881.0692,114
1605961881.0712,107
1605961881.0732,100
1605961881.0752,92
1605961881.0772,85
1605961881.0792,90
1605961881.0812,95
1605961881.0832,87
1605961881.0852,85
1605961881.0872,85
1605961881.0892,87
1605961881.0912,92
1605961881.0932,97
1605961881.0952,102
1605961881.0973,102
1605961881.0993,97
1605961881.1012,95
1605961881.1032,90
1605961881.1052,95
1605961881.1072,100
1605961881.1092,92
1605961881.1112,87
1605961881.1132,92
1605961881.1152,100
1605961881.1172,100
1605961881.1192,92
1605961881.1212,80
1605961881.1232,61
1605961881.1252,53
1605961881.1272,58
1605961881.1292,58
1605961881.1312,65
1605961881.1331,80
1605961881.1352,87
1605961881.1374,90
1605961881.1392,87
1605961881.1412,90
1605961881.1432,95
1605961881.1452,85
1605961881.1472,70
1605961881.1492,65
1605961881.1512,-2
1605961881.1532,-285
1605961881.1552,-644
1605961881.1572,-373
1605961881.1592,639
1605961881.1612,1098
1605961881.1632,478
1605961881.1652,29
1605961881.1672,124
1605961881.1692,87
1605961881.1712,-17
1605961881.1732,36
1605961881.1752,58
1605961881.6011,12
1605961881.6019,14
1605961881.6043,29
1605961881.6071,21
1605961881.6090,17
1605961881.6097,14
1605961881.6120,9
1605961881.6140,7
1605961881.6160,0
1605961881.6179,-9
1605961881.6199,-21
1605961881.6219,-29
1605961881.6239,-39
1605961881.6259,-46
1605961881.6279,-56
1605961881.6299,-68
1605961881.6319,-73
1605961881.6339,-80
1605961881.6359,-92
1605961881.6379,-92
1605961881.6399,-90
1605961881.6406,-80
1605961881.6419,-61
1605961881.6439,-46
1605961881.6459,-34
1605961881.6479,-17
1605961881.6499,2
1605961881.6519,21
1605961881.6539,48
1605961881.6559,75
1605961881.6579,92
1605961881.6601,107
1605961881.6619,122
1605961881.6639,126
1605961881.6659,134
1605961881.6680,148
1605961881.6699,148
1605961881.6706,139
1605961881.6719,134
1605961881.6739,122
1605961881.6759,112
1605961881.6779,112
1605961881.6799,109
1605961881.6819,100
1605961881.6839,92
1605961881.6859,95
1605961881.6879,97
1605961881.6899,97
1605961881.6919,95
1605961881.6939,92
1605961881.6959,90
1605961881.6979,92
1605961881.6999,95
1605961881.7005,95
1605961881.7019,92
1605961881.7039,95
1605961881.7059,102
1605961881.7079,102
1605961881.7099,95
1605961881.7119,95
1605961881.7139,95
1605961881.7159,92
1605961881.7179,90
1605961881.7200,87
1605961881.7219,83
1605961881.7239,85
1605961881.7259,90
1605961881.7279,90
1605961881.7299,92
1605961881.7305,97
1605961881.7319,83
1605961881.7339,53
1605961881.7359,43
1605961882.1712,53
1605961882.1721,56
1605961882.1745,53
1605961882.1772,68
1605961882.1792,83
1605961882.1812,83
1605961882.1832,83
1605961882.1853,80
1605961882.1871,75
1605961882.1893,68
1605961882.1912,53
1605961882.1918,43
1605961882.1931,26
1605961882.1952,-156
1605961882.1971,-544
1605961882.1991,-615
1605961882.2011,183
1605961882.2031,1022
1605961882.2051,744
1605961882.2071,97
1605961882.2091,48
1605961882.2111,109
1605961882.2131,-7
1605961882.2151,-12
1605961882.2171,41
1605961882.2191,14
1605961882.2211,2
1605961882.2217,24
1605961882.2231,14
1605961882.2251,2
1605961882.2271,7
1605961882.2291,4
1605961882.2311,-4
1605961882.2331,-7
1605961882.2351,-12
1605961882.2371,-12
1605961882.2391,-12
1605961882.2411,-19
1605961882.2431,-36
1605961882.2451,-46
1605961882.2471,-48
1605961882.2491,-56
1605961882.2512,-65
1605961882.2531,-70
1605961882.2550,-70
1605961882.2571,-73
1605961882.2591,-75
1605961882.2611,-65
1605961882.2631,-48
1605961882.2651,-34
1605961882.2671,-17
1605961882.2691,-2
1605961882.2711,14
1605961882.2731,41
1605961882.2751,68
1605961882.2771,85
1605961882.2791,100
1605961882.2811,109
1605961882.2817,126
1605961882.2831,139
1605961882.2853,136
1605961882.2871,136
1605961882.2891,134
1605961882.2911,126
1605961882.2931,119
1605961882.2952,117
1605961882.2971,114
1605961882.2991,107
1605961882.3011,100
1605961882.3031,95
1605961882.3051,92
1605961882.3070,100
1605961882.3091,97
1605961882.6812,83
1605961882.6820,80
1605961882.6843,83
1605961882.6871,80
1605961882.6890,85
1605961882.6910,90
1605961882.6930,92
1605961882.6951,90
1605961882.6970,87
1605961882.6990,90
1605961882.7010,90
1605961882.7030,85
1605961882.7051,73
1605961882.7070,68
1605961882.7090,73
1605961882.7097,68
1605961882.7110,65
1605961882.7130,70
1605961882.7150,70
1605961882.7170,70
1605961882.7190,70
1605961882.7210,73
1605961882.7230,75
1605961882.7250,73
1605961882.7270,75
1605961882.7290,78
1605961882.7310,68
1605961882.7330,46
1605961882.7350,31
1605961882.7370,41
1605961882.7390,48
1605961882.7397,43
1605961882.7409,53
1605961882.7430,75
1605961882.7451,83
1605961882.7470,80
1605961882.7490,75
1605961882.7510,78
1605961882.7532,73
1605961882.7551,63
1605961882.7570,61
1605961882.7590,53
1605961882.7610,-61
1605961882.7630,-400
1605961882.7650,-664
1605961882.7670,-158
1605961882.7690,834
1605961882.7696,969
1605961882.7710,285
1605961882.7730,19
1605961882.7750,126
1605961882.7770,48
1605961882.7790,-14
1605961882.7810,41
1605961882.7830,34
1605961882.7850,2
1605961882.7870,14
1605961882.7890,24
1605961882.7910,14
1605961882.7930,9
1605961882.7951,7
1605961882.7970,2
1605961882.7990,0
1605961882.7997,-2
1605961882.8010,-14
1605961882.8030,-29
1605961882.8051,-39
1605961882.8070,-48
1605961882.8090,-51
1605961882.8110,-53
1605961882.8130,-58
1605961882.8150,-70
1605961882.8170,-85
1605961883.2510,-92
1605961883.2520,-90
1605961883.2538,-85
1605961883.2558,-75
1605961883.2578,-70
1605961883.2598,-73
1605961883.2618,-58
1605961883.2638,-36
1605961883.2658,-12
1605961883.2677,12
1605961883.2697,34
1605961883.2717,53
1605961883.2737,70
1605961883.2757,90
1605961883.2777,104
1605961883.2797,114
1605961883.2819,122
1605961883.2837,119
1605961883.2857,114
1605961883.2877,119
1605961883.2897,117
1605961883.2917,107
1605961883.2937,100
1605961883.2957,97
1605961883.2977,92
1605961883.2997,83
1605961883.3017,80
1605961883.3037,80
1605961883.3057,75
1605961883.3077,80
1605961883.3097,85
1605961883.3117,80
1605961883.3137,75
1605961883.3157,73
1605961883.3177,75
1605961883.3197,73
1605961883.3217,73
1605961883.3237,78
1605961883.3257,78
1605961883.3277,75
1605961883.3297,83
1605961883.3317,80
1605961883.3337,75
1605961883.3357,73
1605961883.3377,73
1605961883.3397,78
1605961883.3417,80
1605961883.3437,83
1605961883.3457,78
1605961883.3477,70
1605961883.3497,75
1605961883.3516,75
1605961883.3537,70
1605961883.3557,70
1605961883.3577,73
1605961883.3597,78
1605961883.3617,83
1605961883.3637,78
1605961883.3657,56
1605961883.3677,26
1605961883.3697,24
1605961883.3717,46
1605961883.3737,48
1605961883.3757,36
1605961883.3777,46
1605961883.3797,61
1605961883.3817,65
1605961883.3839,68
1605961883.3858,75
1605961883.3877,78
1605961883.3896,75
1605961883.3917,73
1605961883.3937,63
1605961883.7912,53
1605961883.7919,-36
1605961883.7944,-373
1605961883.7970,-681
1605961883.7990,-231
1605961883.8010,781
1605961883.8030,986
1605961883.8051,305
1605961883.8070,12
1605961883.8090,122
1605961883.8110,39
1605961883.8130,-31
1605961883.8151,26
1605961883.8170,26
1605961883.8190,-7
1605961883.8210,4
1605961883.8230,9
1605961883.8250,-4
1605961883.8270,-4
1605961883.8290,2
1605961883.8310,-4
1605961883.8330,-7
1605961883.8350,-7
1605961883.8370,-19
1605961883.8390,-31
1605961883.8410,-39
1605961883.8430,-48
1605961883.8450,-53
1605961883.8469,-58
1605961883.8489,-68
1605961883.8510,-78
1605961883.8529,-87
1605961883.8550,-92
1605961883.8569,-95
1605961883.8589,-95
1605961883.8609,-92
1605961883.8630,-90
1605961883.8650,-75
1605961883.8669,-53
1605961883.8689,-29
1605961883.8709,-9
1605961883.8729,2
1605961883.8750,21
1605961883.8769,56
1605961883.8790,83
1605961883.8811,97
1605961883.8831,117
1605961883.8850,131
1605961883.8869,134
1605961883.8889,131
1605961883.8909,131
1605961883.8929,124
1605961883.8950,119
1605961883.8969,117
1605961883.8989,104
1605961883.9009,92
1605961883.9029,83
1605961883.9050,80
1605961883.9070,85
1605961883.9089,80
1605961883.9109,65
1605961883.9129,61
1605961883.9150,63
1605961883.9169,73
1605961883.9189,73
1605961883.9209,68
1605961883.9229,68
1605961883.9250,68
1605961883.9269,68
1605961883.9289,73
1605961883.9309,78
1605961883.9329,75
1605961883.9350,70
1605961884.3914,80
1605961884.3923,83
1605961884.3948,80
1605961884.3974,73
1605961884.3994,65
1605961884.4014,73
1605961884.4035,80
1605961884.4054,68
1605961884.4073,61
1605961884.4093,70
1605961884.4113,75
1605961884.4133,70
1605961884.4154,68
1605961884.4173,65
1605961884.4193,65
1605961884.4213,70
1605961884.4233,73
1605961884.4254,65
1605961884.4273,41
1605961884.4293,29
1605961884.4313,48
1605961884.4333,58
1605961884.4353,39
1605961884.4375,31
1605961884.4394,58
1605961884.4414,78
1605961884.4433,80
1605961884.4453,75
1605961884.4473,78
1605961884.4493,75
1605961884.4513,63
1605961884.4533,61
1605961884.4553,70
1605961884.4573,-29
1605961884.4593,-356
1605961884.4613,-642
1605961884.4633,-205
1605961884.4653,786
1605961884.4673,991
1605961884.4693,317
1605961884.4713,21
1605961884.4733,129
1605961884.4753,39
1605961884.4773,-41
1605961884.4793,26
1605961884.4813,29
1605961884.4833,-4
1605961884.4853,7
1605961884.4873,9
1605961884.4893,-2
1605961884.4913,-4
1605961884.4933,-17
1605961884.4953,-14
1605961884.4973,4
1605961884.4993,0
1605961884.5013,-26
1605961884.5033,-39
1605961884.5053,-34
1605961884.5073,-31
1605961884.5093,-46
1605961884.5113,-58
1605961884.5133,-56
1605961884.5154,-65
1605961884.5173,-87
1605961884.5193,-102
1605961884.5213,-107
1605961884.5233,-97
1605961884.5253,-92
1605961884.5273,-90
1605961884.5293,-80
1605961884.5313,-61
1605961884.5333,-48
1605961884.5353,-39
1605961884.9613,-12
1605961884.9625,26
1605961884.9647,58
1605961884.9673,87
1605961884.9692,102
1605961884.9712,109
1605961884.9734,124
1605961884.9753,136
1605961884.9772,139
1605961884.9792,122
1605961884.9812,102
1605961884.9833,102
1605961884.9853,97
1605961884.9872,85
1605961884.9892,87
1605961884.9912,87
1605961884.9932,78
1605961884.9953,63
1605961884.9972,56
1605961884.9992,65
1605961885.0012,73
1605961885.0032,65
1605961885.0052,56
1605961885.0072,58
1605961885.0092,68
1605961885.0112,65
1605961885.0132,68
1605961885.0153,75
1605961885.0172,68
1605961885.0193,53
1605961885.0212,63
1605961885.0232,87
1605961885.0252,85
1605961885.0272,70
1605961885.0292,80
1605961885.0312,83
1605961885.0332,61
1605961885.0352,53
1605961885.0372,65
1605961885.0392,70
1605961885.0412,70
1605961885.0432,73
1605961885.0453,83
1605961885.0472,75
1605961885.0492,56
1605961885.0512,48
1605961885.0532,48
1605961885.0552,61
1605961885.0572,58
1605961885.0592,39
1605961885.0612,51
1605961885.0632,73
1605961885.0654,75
1605961885.0672,75
1605961885.0692,75
1605961885.0712,80
1605961885.0732,75
1605961885.0753,61
1605961885.0772,61
1605961885.0792,65
1605961885.0812,4
1605961885.0832,-251
1605961885.0852,-578
1605961885.0873,-349
1605961885.0892,571
1605961885.0912,979
1605961885.0932,400
1605961885.0953,29
1605961885.0972,146
1605961885.0992,78
1605961885.1012,-34
1605961885.1032,31
1605961885.1052,53
1605961885.5014,4
1605961885.5023,9
1605961885.5048,19
1605961885.5074,9
1605961885.5094,9
1605961885.5115,9
1605961885.5135,0
1605961885.5154,-2
1605961885.5174,2
1605961885.5193,-7
1605961885.5213,-21
1605961885.5233,-31
1605961885.5254,-51
1605961885.5274,-68
1605961885.5293,-61
1605961885.5313,-58
1605961885.5333,-73
1605961885.5353,-92
1605961885.5373,-107
1605961885.5393,-122
1605961885.5413,-114
1605961885.5433,-80
1605961885.5453,-63
1605961885.5473,-75
1605961885.5493,-68
1605961885.5513,-43
1605961885.5533,-31
1605961885.5553,-24
1605961885.5573,9
1605961885.5593,65
1605961885.5616,87
1605961885.5633,85
1605961885.5654,102
1605961885.5673,122
1605961885.5693,126
1605961885.5713,131
1605961885.5734,119
1605961885.5753,102
1605961885.5773,112
1605961885.5793,129
1605961885.5813,109
1605961885.5833,73
1605961885.5853,63
1605961885.5873,70
1605961885.5893,78
1605961885.5913,83
1605961885.5933,75
1605961885.5953,58
1605961885.5973,68
1605961885.5993,97
1605961885.6013,97
1605961885.6033,63
1605961885.6053,43
1605961885.6073,68
1605961885.6093,102
1605961885.6113,117
1605961885.6133,102
1605961885.6153,75
1605961885.6174,73
1605961885.6193,90
1605961885.6213,90
1605961885.6233,75
1605961885.6253,78
1605961885.6273,80
1605961885.6293,85
1605961885.6313,92
1605961885.6333,75
1605961885.6354,83
1605961885.6373,104
1605961885.6393,85
1605961885.6413,65
1605961885.6433,75
1605961885.6454,58
1605961886.0713,41
1605961886.0723,68
1605961886.0747,100
1605961886.0773,87
1605961886.0793,83
1605961886.0813,104
1605961886.0835,109
1605961886.0853,87
1605961886.0876,65
1605961886.0894,70
1605961886.0913,95
1605961886.0933,95
1605961886.0954,-26
1605961886.0973,-354
1605961886.0993,-600
1605961886.1013,-129
1605961886.1033,803
1605961886.1052,917
1605961886.1073,270
1605961886.1092,34
1605961886.1112,129
1605961886.1133,48
1605961886.1153,4
1605961886.1172,48
1605961886.1192,17
1605961886.1212,2
1605961886.1232,43
1605961886.1253,12
1605961886.1272,-14
1605961886.1292,26
1605961886.1313,17
1605961886.1332,-21
1605961886.1352,-4
1605961886.1372,17
1605961886.1392,0
1605961886.1412,-21
1605961886.1432,-39
1605961886.1453,-51
1605961886.1472,-46
1605961886.1492,-36
1605961886.1512,-48
1605961886.1532,-53
1605961886.1552,-53
1605961886.1572,-78
1605961886.1592,-97
1605961886.1612,-100
1605961886.1632,-85
1605961886.1652,-70
1605961886.1672,-73
1605961886.1692,-39
1605961886.1712,4
1605961886.1732,12
1605961886.1753,0
1605961886.1772,12
1605961886.1793,75
1605961886.1812,136
1605961886.1832,124
1605961886.1852,97
1605961886.1872,139
1605961886.1895,190
1605961886.1913,163
1605961886.1932,104
1605961886.1953,107
1605961886.1972,151
1605961886.1992,156
1605961886.2012,114
1605961886.2032,80
1605961886.2052,100
1605961886.2072,117
1605961886.2093,83
1605961886.2112,70
1605961886.2132,92
1605961886.2153,78
1605961886.6409,61
1605961886.6419,90
1605961886.6444,109
1605961886.6469,112
1605961886.6489,87
1605961886.6509,63
1605961886.6530,87
1605961886.6550,102
1605961886.6569,78
1605961886.6589,83
1605961886.6609,109
1605961886.6629,83
1605961886.6649,51
1605961886.6669,95
1605961886.6688,117
1605961886.6708,83
1605961886.6729,63
1605961886.6749,68
1605961886.6768,92
1605961886.6789,109
1605961886.6809,90
1605961886.6828,56
1605961886.6849,43
1605961886.6868,46
1605961886.6888,46
1605961886.6909,56
1605961886.6929,87
1605961886.6949,114
1605961886.6968,95
1605961886.6988,56
1605961886.7008,83
1605961886.7028,126
1605961886.7049,102
1605961886.7069,73
1605961886.7088,87
1605961886.7108,83
1605961886.7128,-26
1605961886.7151,-349
1605961886.7169,-603
1605961886.7188,-146
1605961886.7208,751
1605961886.7228,888
1605961886.7249,290
1605961886.7268,46
1605961886.7288,134
1605961886.7308,43
1605961886.7329,-12
1605961886.7349,65
1605961886.7368,65
1605961886.7389,9
1605961886.7408,2
1605961886.7428,21
1605961886.7449,14
1605961886.7468,-12
1605961886.7488,-2
1605961886.7508,9
1605961886.7528,2
1605961886.7549,17
1605961886.7568,21
1605961886.7588,2
1605961886.7608,-7
1605961886.7629,-36
1605961886.7649,-75
1605961886.7668,-70
1605961886.7689,-56
1605961886.7708,-75
1605961886.7728,-92
1605961886.7749,-95
1605961886.7768,-104
1605961886.7788,-122
1605961886.7808,-117
1605961886.7828,-85
1605961886.7848,-41
1605961887.1812,-12
1605961887.1820,-21
1605961887.1844,-24
1605961887.1870,29
1605961887.1890,58
1605961887.1910,53
1605961887.1931,65
1605961887.1950,61
1605961887.1970,68
1605961887.1990,95
1605961887.2010,92
1605961887.2030,100
1605961887.2050,102
1605961887.2070,80
1605961887.2089,83
1605961887.2111,109
1605961887.2130,90
1605961887.2150,53
1605961887.2169,41
1605961887.2190,21
1605961887.2209,19
1605961887.2229,58
1605961887.2250,95
1605961887.2269,92
1605961887.2289,70
1605961887.2310,78
1605961887.2329,92
1605961887.2350,51
1605961887.2370,9
1605961887.2389,31
1605961887.2409,51
1605961887.2430,36
1605961887.2449,41
1605961887.2470,68
1605961887.2489,80
1605961887.2510,78
1605961887.2529,112
1605961887.2550,131
1605961887.2569,58
1605961887.2589,7
1605961887.2609,56
1605961887.2629,87
1605961887.2650,68
1605961887.2670,48
1605961887.2689,21
1605961887.2709,4
1605961887.2729,39
1605961887.2750,90
1605961887.2769,70
1605961887.2789,51
1605961887.2809,85
1605961887.2829,61
1605961887.2849,24
1605961887.2869,36
1605961887.2889,51
1605961887.2910,73
1605961887.2929,104
1605961887.2950,104
1605961887.2969,53
1605961887.2989,-124
1605961887.3009,-429
1605961887.3029,-471
1605961887.3050,166
1605961887.3070,776
1605961887.3089,485
1605961887.3109,21
1605961887.3131,97
1605961887.3150,173
1605961887.3169,34
1605961887.3189,-9
1605961887.3209,29
1605961887.3231,19
1605961887.3250,7
1605961887.7809,14
1605961887.7822,4
1605961887.7847,-2
1605961887.7872,24
1605961887.7892,21
1605961887.7912,-29
1605961887.7933,-48
1605961887.7953,-29
1605961887.7972,-31
1605961887.7992,-36
1605961887.8012,-26
1605961887.8032,-36
1605961887.8052,-61
1605961887.8071,-80
1605961887.8091,-102
1605961887.8111,-104
1605961887.8131,-87
1605961887.8151,-87
1605961887.8171,-109
1605961887.8191,-90
1605961887.8211,-36
1605961887.8231,-26
1605961887.8251,-73
1605961887.8271,-70
1605961887.8291,-26
1605961887.8311,-7
1605961887.8331,12
1605961887.8351,34
1605961887.8371,58
1605961887.8391,70
1605961887.8411,36
1605961887.8431,43
1605961887.8451,107
1605961887.8471,92
1605961887.8491,63
1605961887.8511,122
1605961887.8531,146
1605961887.8551,95
1605961887.8571,61
1605961887.8591,51
1605961887.8611,39
1605961887.8631,61
1605961887.8651,117
1605961887.8671,100
1605961887.8692,41
1605961887.8711,43
1605961887.8731,56
1605961887.8752,56
1605961887.8771,65
1605961887.8791,73
1605961887.8811,83
1605961887.8831,102
1605961887.8851,87
1605961887.8871,46
1605961887.8891,9
1605961887.8911,31
1605961887.8931,97
1605961887.8952,97
1605961887.8971,56
1605961887.8991,48
1605961887.8998,46
1605961887.9011,46
1605961887.9031,73
1605961887.9051,61
1605961887.9071,17
1605961887.9091,17
1605961887.9110,48
1605961887.9131,43
1605961887.9151,21
1605961887.9171,34
1605961887.9191,58
1605961887.9211,46
1605961887.9231,12
1605961888.3208,39
1605961888.3216,87
1605961888.3232,73
1605961888.3256,51
1605961888.3276,63
1605961888.3296,46
1605961888.3316,-119
1605961888.3336,-449
1605961888.3356,-537
1605961888.3376,83
1605961888.3396,791
1605961888.3416,607
1605961888.3436,85
1605961888.3456,41
1605961888.3476,75
1605961888.3496,-24
1605961888.3515,-4
1605961888.3535,26
1605961888.3542,-17
1605961888.3556,-39
1605961888.3576,-9
1605961888.3595,34
1605961888.3617,36
1605961888.3636,0
1605961888.3656,-17
1605961888.3675,-19
1605961888.3695,-31
1605961888.3715,-21
1605961888.3735,4
1605961888.3756,-12
1605961888.3775,-65
1605961888.3795,-68
1605961888.3815,-36
1605961888.3835,-31
1605961888.3842,-43
1605961888.3856,-87
1605961888.3875,-131
1605961888.3896,-102
1605961888.3915,-65
1605961888.3936,-95
1605961888.3956,-117
1605961888.3975,-87
1605961888.3995,-56
1605961888.4015,-39
1605961888.4035,-29
1605961888.4056,-34
1605961888.4075,-9
1605961888.4095,39
1605961888.4115,70
1605961888.4135,85
1605961888.4143,100
1605961888.4157,107
1605961888.4176,109
1605961888.4195,131
1605961888.4215,153
1605961888.4235,131
1605961888.4256,97
1605961888.4275,107
1605961888.4296,129
1605961888.4315,107
1605961888.4335,83
1605961888.4355,95
1605961888.4375,102
1605961888.4395,73
1605961888.4415,53
1605961888.4422,83
1605961888.4435,102
1605961888.4456,90
1605961888.4475,80
1605961888.4495,75
1605961888.4515,61
1605961888.4535,68
1605961888.4555,100
1605961888.8612,90
1605961888.8621,53
1605961888.8645,61
1605961888.8671,95
1605961888.8691,107
1605961888.8711,104
1605961888.8718,102
1605961888.8741,87
1605961888.8761,56
1605961888.8780,39
1605961888.8800,48
1605961888.8820,53
1605961888.8840,48
1605961888.8860,29
1605961888.8880,24
1605961888.8900,53
1605961888.8920,58
1605961888.8940,46
1605961888.8961,65
1605961888.8980,70
1605961888.9000,51
1605961888.9020,53
1605961888.9027,68
1605961888.9051,41
1605961888.9070,-156
1605961888.9091,-483
1605961888.9110,-424
1605961888.9130,268
1605961888.9151,756
1605961888.9170,393
1605961888.9190,-21
1605961888.9210,73
1605961888.9230,141
1605961888.9251,41
1605961888.9270,36
1605961888.9290,46
1605961888.9310,21
1605961888.9330,24
1605961888.9337,26
1605961888.9360,9
1605961888.9380,-7
1605961888.9400,-7
1605961888.9420,-4
1605961888.9440,14
1605961888.9461,21
1605961888.9480,-7
1605961888.9500,-24
1605961888.9520,-12
1605961888.9540,-26
1605961888.9560,-51
1605961888.9580,-39
1605961888.9604,-24
1605961888.9621,-46
1605961888.9640,-73
1605961888.9648,-78
1605961888.9670,-78
1605961888.9690,-75
1605961888.9710,-83
1605961888.9731,-92
1605961888.9751,-83
1605961888.9770,-68
1605961888.9790,-46
1605961888.9810,-7
1605961888.9830,19
1605961888.9851,36
1605961888.9870,51
1605961888.9890,73
1605961888.9910,104
1605961888.9930,124
1605961888.9951,104
1605961888.9957,95
1605961888.9980,136
1605961889.0000,153
1605961889.4313,114
1605961889.4323,92
1605961889.4347,97
1605961889.4374,85
1605961889.4393,73
1605961889.4413,68
1605961889.4433,68
1605961889.4453,78
1605961889.4472,78
1605961889.4492,75
1605961889.4512,104
1605961889.4532,109
1605961889.4553,65
1605961889.4560,34
1605961889.4583,53
1605961889.4602,83
1605961889.4622,78
1605961889.4642,63
1605961889.4663,58
1605961889.4683,63
1605961889.4702,80
1605961889.4722,87
1605961889.4742,83
1605961889.4762,100
1605961889.4782,109
1605961889.4802,90
1605961889.4822,43
1605961889.4842,9
1605961889.4862,31
1605961889.4871,65
1605961889.4883,68
1605961889.4903,58
1605961889.4922,58
1605961889.4942,65
1605961889.4963,65
1605961889.4982,70
1605961889.5002,68
1605961889.5022,48
1605961889.5043,48
1605961889.5063,63
1605961889.5082,56
1605961889.5102,-24
1605961889.5122,-263
1605961889.5142,-488
1605961889.5162,-202
1605961889.5182,476
1605961889.5203,622
1605961889.5222,175
1605961889.5242,-4
1605961889.5263,92
1605961889.5282,53
1605961889.5303,12
1605961889.5322,56
1605961889.5342,48
1605961889.5362,24
1605961889.5382,31
1605961889.5402,29
1605961889.5422,17
1605961889.5442,4
1605961889.5462,7
1605961889.5482,34
1605961889.5502,34
1605961889.5522,-4
1605961889.5542,-21
1605961889.5562,0
1605961889.5582,0
1605961889.5602,-19
1605961889.5622,-14
1605961889.5642,-17
1605961889.5662,-51
1605961889.5682,-53
1605961889.5702,-48
1605961889.5722,-83
1605961889.9711,-78
1605961889.9718,-48
1605961889.9743,-43
1605961889.9769,-56
1605961889.9789,-65
1605961889.9809,-41
1605961889.9829,-9
1605961889.9853,-21
1605961889.9869,-17
1605961889.9889,26
1605961889.9909,56
1605961889.9929,63
1605961889.9949,85
1605961889.9969,124
1605961889.9989,129
1605961890.0009,92
1605961890.0029,90
1605961890.0049,119
1605961890.0069,107
1605961890.0088,73
1605961890.0108,80
1605961890.0128,92
1605961890.0149,65
1605961890.0168,46
1605961890.0189,63
1605961890.0209,70
1605961890.0229,61
1605961890.0249,56
1605961890.0268,56
1605961890.0288,70
1605961890.0308,90
1605961890.0328,85
1605961890.0348,65
1605961890.0368,65
1605961890.0388,87
1605961890.0409,78
1605961890.0428,58
1605961890.0449,63
1605961890.0468,58
1605961890.0488,46
1605961890.0508,75
1605961890.0528,95
1605961890.0549,78
1605961890.0568,85
1605961890.0588,83
1605961890.0608,31
1605961890.0628,17
1605961890.0649,56
1605961890.0669,63
1605961890.0688,48
1605961890.0708,63
1605961890.0728,83
1605961890.0749,85
1605961890.0768,68
1605961890.0788,53
1605961890.0808,63
1605961890.0828,61
1605961890.0848,48
1605961890.0870,51
1605961890.0889,43
1605961890.0908,-85
1605961890.0928,-380
1605961890.0949,-490
1605961890.0968,21
1605961890.0988,656
1605961890.1008,512
1605961890.1028,46
1605961890.1049,36
1605961890.1068,107
1605961890.1088,4
1605961890.1108,9
1605961890.1128,61
1605961890.1149,24
1605961890.5713,4
1605961890.5723,14
1605961890.5736,19
1605961890.5756,17
1605961890.5776,9
1605961890.5796,12
1605961890.5816,9
1605961890.5835,-9
1605961890.5855,-41
1605961890.5875,-34
1605961890.5895,2
1605961890.5915,-7
1605961890.5935,-43
1605961890.5955,-39
1605961890.5975,-31
1605961890.5995,-56
1605961890.6016,-78
1605961890.6035,-75
1605961890.6055,-70
1605961890.6075,-80
1605961890.6095,-87
1605961890.6115,-75
1605961890.6135,-46
1605961890.6155,-21
1605961890.6175,-36
1605961890.6195,-53
1605961890.6215,-4
1605961890.6235,36
1605961890.6256,14
1605961890.6275,29
1605961890.6295,87
1605961890.6315,117
1605961890.6335,95
1605961890.6355,87
1605961890.6375,100
1605961890.6395,87
1605961890.6417,78
1605961890.6436,100
1605961890.6456,107
1605961890.6475,85
1605961890.6495,75
1605961890.6515,100
1605961890.6535,102
1605961890.6555,68
1605961890.6575,63
1605961890.6595,80
1605961890.6615,70
1605961890.6635,68
1605961890.6655,90
1605961890.6675,90
1605961890.6695,65
1605961890.6715,70
1605961890.6735,87
1605961890.6755,80
1605961890.6775,68
1605961890.6795,80
1605961890.6815,83
1605961890.6835,68
1605961890.6855,78
1605961890.6875,97
1605961890.6895,87
1605961890.6915,78
1605961890.6935,83
1605961890.6955,80
1605961890.6975,65
1605961890.6995,43
1605961890.7016,36
1605961890.7035,56
1605961890.7055,73
1605961890.7075,68
1605961890.7095,65
1605961890.7115,85
1605961890.7135,95
1605961891.1712,75
1605961891.1722,51
1605961891.1746,43
1605961891.1772,65
1605961891.1792,73
1605961891.1812,26
1605961891.1833,-148
1605961891.1852,-439
1605961891.1872,-424
1605961891.1892,207
1605961891.1912,688
1605961891.1932,344
1605961891.1953,-39
1605961891.1972,43
1605961891.1994,65
1605961891.2012,-24
1605961891.2032,24
1605961891.2053,51
1605961891.2072,-7
1605961891.2092,-7
1605961891.2112,19
1605961891.2132,0
1605961891.2152,-14
1605961891.2172,-2
1605961891.2192,-2
1605961891.2212,-19
1605961891.2232,-17
1605961891.2252,-12
1605961891.2272,-17
1605961891.2292,-26
1605961891.2312,-46
1605961891.2332,-48
1605961891.2351,-36
1605961891.2371,-61
1605961891.2391,-97
1605961891.2411,-80
1605961891.2432,-58
1605961891.2452,-75
1605961891.2473,-78
1605961891.2494,-63
1605961891.2512,-73
1605961891.2533,-53
1605961891.2552,-24
1605961891.2572,-43
1605961891.2578,-41
1605961891.2591,2
1605961891.2611,21
1605961891.2631,34
1605961891.2652,70
1605961891.2671,102
1605961891.2691,102
1605961891.2711,92
1605961891.2731,95
1605961891.2751,107
1605961891.2772,117
1605961891.2791,107
1605961891.2811,85
1605961891.2831,87
1605961891.2851,97
1605961891.2858,95
1605961891.2871,80
1605961891.2891,65
1605961891.2911,70
1605961891.2932,92
1605961891.2952,97
1605961891.2974,83
1605961891.2992,87
1605961891.3012,90
1605961891.3032,63
1605961891.3052,70
1605961891.3072,95
1605961891.3092,83
1605961891.3112,75
1605961891.6811,90
1605961891.6818,78
1605961891.6842,61
1605961891.6869,85
1605961891.6888,102
1605961891.6908,90
1605961891.6929,95
1605961891.6949,100
1605961891.6968,65
1605961891.6988,41
1605961891.7008,53
1605961891.7028,58
1605961891.7048,48
1605961891.7068,56
1605961891.7088,73
1605961891.7095,78
1605961891.7108,70
1605961891.7128,68
1605961891.7148,58
1605961891.7168,46
1605961891.7188,61
1605961891.7208,78
1605961891.7228,43
1605961891.7248,-134
1605961891.7268,-429
1605961891.7288,-419
1605961891.7308,195
1605961891.7328,695
1605961891.7347,395
1605961891.7368,-7
1605961891.7388,39
1605961891.7394,87
1605961891.7408,2
1605961891.7428,7
1605961891.7448,36
1605961891.7468,24
1605961891.7488,34
1605961891.7508,34
1605961891.7528,2
1605961891.7548,0
1605961891.7568,19
1605961891.7588,4
1605961891.7608,-19
1605961891.7630,-7
1605961891.7649,4
1605961891.7668,-14
1605961891.7688,-29
1605961891.7695,-21
1605961891.7708,-26
1605961891.7728,-41
1605961891.7748,-58
1605961891.7768,-63
1605961891.7788,-51
1605961891.7808,-51
1605961891.7828,-75
1605961891.7847,-73
1605961891.7868,-58
1605961891.7888,-58
1605961891.7908,-51
1605961891.7928,-19
1605961891.7948,-14
1605961891.7968,-26
1605961891.7988,-4
1605961891.7994,36
1605961891.8008,56
1605961891.8028,61
1605961891.8048,68
1605961891.8068,83
1605961891.8088,104
1605961891.8108,114
1605961891.8128,104
1605961891.8148,90
1605961891.8168,87
1605961892.2508,104
1605961892.2517,114
1605961892.2541,92
1605961892.2568,70
1605961892.2588,75
1605961892.2608,73
1605961892.2614,63
1605961892.2629,70
1605961892.2648,61
1605961892.2667,41
1605961892.2687,51
1605961892.2707,68
1605961892.2727,68
1605961892.2748,61
1605961892.2767,58
1605961892.2787,65
1605961892.2807,65
1605961892.2827,58
1605961892.2847,73
1605961892.2867,83
1605961892.2886,65
1605961892.2909,65
1605961892.2913,87
1605961892.2927,90
1605961892.2947,73
1605961892.2967,65
1605961892.2987,53
1605961892.3007,36
1605961892.3027,43
1605961892.3047,56
1605961892.3067,56
1605961892.3087,53
1605961892.3107,65
1605961892.3127,78
1605961892.3147,68
1605961892.3167,68
1605961892.3187,80
1605961892.3207,75
1605961892.3213,61
1605961892.3227,56
1605961892.3247,48
1605961892.3266,-63
1605961892.3287,-358
1605961892.3307,-473
1605961892.3326,65
1605961892.3347,695
1605961892.3366,507
1605961892.3386,31
1605961892.3407,36
1605961892.3427,117
1605961892.3447,2
1605961892.3467,-21
1605961892.3487,36
1605961892.3507,36
1605961892.3513,19
1605961892.3527,17
1605961892.3547,4
1605961892.3567,-7
1605961892.3587,7
1605961892.3606,24
1605961892.3627,14
1605961892.3647,-9
1605961892.3667,-19
1605961892.3686,-29
1605961892.3706,-29
1605961892.3727,-9
1605961892.3747,-17
1605961892.3767,-58
1605961892.3787,-68
1605961892.3807,-53
1605961892.3813,-61
1605961892.3827,-68
1605961892.3849,-73
1605961892.7912,-90
1605961892.7921,-87
1605961892.7946,-61
1605961892.7972,-58
1605961892.7992,-61
1605961892.8011,-36
1605961892.8032,-21
1605961892.8052,-17
1605961892.8071,-4
1605961892.8091,14
1605961892.8111,36
1605961892.8118,63
1605961892.8131,80
1605961892.8152,95
1605961892.8171,107
1605961892.8191,100
1605961892.8211,78
1605961892.8231,80
1605961892.8251,95
1605961892.8271,85
1605961892.8291,65
1605961892.8311,65
1605961892.8331,78
1605961892.8351,73
1605961892.8371,53
1605961892.8391,61
1605961892.8411,83
1605961892.8418,68
1605961892.8431,61
1605961892.8451,73
1605961892.8471,65
1605961892.8491,80
1605961892.8511,100
1605961892.8531,78
1605961892.8551,68
1605961892.8571,87
1605961892.8591,85
1605961892.8611,75
1605961892.8631,85
1605961892.8651,97
1605961892.8671,92
1605961892.8691,75
1605961892.8711,53
1605961892.8717,46
1605961892.8731,43
1605961892.8751,46
1605961892.8771,75
1605961892.8791,83
1605961892.8811,58
1605961892.8831,65
1605961892.8853,95
1605961892.8872,90
1605961892.8891,65
1605961892.8911,61
1605961892.8931,70
1605961892.8951,65
1605961892.8971,73
1605961892.8991,51
1605961892.9011,-146
1605961892.9017,-451
1605961892.9031,-346
1605961892.9051,371
1605961892.9071,781
1605961892.9091,341
1605961892.9111,-26
1605961892.9131,75
1605961892.9151,83
1605961892.9171,-17
1605961892.9191,9
1605961892.9211,41
1605961892.9231,9
1605961892.9251,2
1605961892.9271,7
1605961893.3312,-12
1605961893.3321,-14
1605961893.3340,4
1605961893.3362,4
1605961893.3381,-7
1605961893.3403,-7
1605961893.3421,-21
1605961893.3442,-43
1605961893.3461,-43
1605961893.3481,-34
1605961893.3501,-43
1605961893.3521,-73
1605961893.3541,-85
1605961893.3561,-75
1605961893.3581,-68
1605961893.3601,-80
1605961893.3621,-87
1605961893.3627,-83
1605961893.3641,-80
1605961893.3661,-75
1605961893.3681,-65
1605961893.3701,-51
1605961893.3721,-14
1605961893.3742,0
1605961893.3761,-17
1605961893.3781,-4
1605961893.3801,43
1605961893.3821,85
1605961893.3843,90
1605961893.3861,87
1605961893.3881,109
1605961893.3901,126
1605961893.3921,119
1605961893.3927,102
1605961893.3941,87
1605961893.3962,87
1605961893.3981,102
1605961893.4001,97
1605961893.4021,85
1605961893.4041,83
1605961893.4061,75
1605961893.4081,78
1605961893.4101,87
1605961893.4121,75
1605961893.4140,68
1605961893.4161,87
1605961893.4181,83
1605961893.4201,63
1605961893.4220,65
1605961893.4227,75
1605961893.4241,73
1605961893.4261,85
1605961893.4281,102
1605961893.4301,107
1605961893.4321,92
1605961893.4341,80
1605961893.4361,92
1605961893.4381,102
1605961893.4401,83
1605961893.4421,53
1605961893.4441,41
1605961893.4461,56
1605961893.4481,58
1605961893.4501,43
1605961893.4521,53
1605961893.4528,73
1605961893.4541,65
1605961893.4561,63
1605961893.4581,80
1605961893.4601,90
1605961893.4621,75
1605961893.4641,51
1605961893.4661,48
1605961893.9012,70
1605961893.9022,26
1605961893.9046,-234
1605961893.9073,-520
1605961893.9093,-263
1605961893.9112,471
1605961893.9122,673
1605961893.9134,190
1605961893.9152,-36
1605961893.9172,83
1605961893.9192,53
1605961893.9212,-2
1605961893.9232,34
1605961893.9252,17
1605961893.9271,-9
1605961893.9291,19
1605961893.9312,31
1605961893.9331,14
1605961893.9351,2
1605961893.9371,2
1605961893.9391,9
1605961893.9411,0
1605961893.9418,-24
1605961893.9431,-29
1605961893.9452,-19
1605961893.9471,-14
1605961893.9491,-24
1605961893.9511,-51
1605961893.9531,-61
1605961893.9552,-43
1605961893.9571,-48
1605961893.9591,-75
1605961893.9611,-83
1605961893.9631,-83
1605961893.9652,-80
1605961893.9671,-61
1605961893.9691,-41
1605961893.9711,-41
1605961893.9718,-36
1605961893.9731,-24
1605961893.9752,-7
1605961893.9771,19
1605961893.9792,29
1605961893.9811,36
1605961893.9831,75
1605961893.9852,104
1605961893.9871,109
1605961893.9891,104
1605961893.9911,100
1605961893.9931,95
1605961893.9952,92
1605961893.9971,92
1605961893.9991,83
1605961894.0012,78
1605961894.0018,78
1605961894.0031,65
1605961894.0052,73
1605961894.0073,87
1605961894.0092,75
1605961894.0111,61
1605961894.0131,61
1605961894.0152,70
1605961894.0171,80
1605961894.0191,73
1605961894.0211,63
1605961894.0231,78
1605961894.0252,95
1605961894.0271,80
1605961894.0291,61
1605961894.0312,73
1605961894.0318,97
1605961894.0331,95
1605961894.0351,75
1605961894.5012,73
1605961894.5021,90
1605961894.5045,102
1605961894.5072,90
1605961894.5092,58
1605961894.5112,36
1605961894.5132,36
1605961894.5152,39
1605961894.5171,36
1605961894.5191,51
1605961894.5211,70
1605961894.5231,78
1605961894.5238,87
1605961894.5252,78
1605961894.5271,51
1605961894.5292,61
1605961894.5311,70
1605961894.5331,51
1605961894.5351,48
1605961894.5371,34
1605961894.5391,-178
1605961894.5411,-478
1605961894.5431,-322
1605961894.5451,378
1605961894.5471,700
1605961894.5491,278
1605961894.5511,-7
1605961894.5531,95
1605961894.5538,78
1605961894.5551,-9
1605961894.5571,17
1605961894.5591,36
1605961894.5611,12
1605961894.5632,14
1605961894.5652,34
1605961894.5673,34
1605961894.5692,12
1605961894.5711,-7
1605961894.5731,4
1605961894.5751,19
1605961894.5771,7
1605961894.5791,-19
1605961894.5811,-24
1605961894.5831,-14
1605961894.5837,-14
1605961894.5852,-43
1605961894.5871,-63
1605961894.5891,-70
1605961894.5911,-83
1605961894.5931,-85
1605961894.5951,-78
1605961894.5971,-68
1605961894.5991,-68
1605961894.6011,-70
1605961894.6031,-56
1605961894.6051,-46
1605961894.6071,-51
1605961894.6091,-36
1605961894.6111,-2
1605961894.6131,31
1605961894.6138,43
1605961894.6151,51
1605961894.6171,68
1605961894.6191,80
1605961894.6211,97
1605961894.6231,104
1605961894.6251,102
1605961894.6271,102
1605961894.6291,95
1605961894.6311,97
1605961894.6331,102
1605961894.6351,90
1605961894.6371,80
1605961895.0410,73
1605961895.0417,73
1605961895.0441,80
1605961895.0468,87
1605961895.0488,83
1605961895.0507,68
1605961895.0528,80
1605961895.0548,85
1605961895.0567,63
1605961895.0587,63
1605961895.0607,70
1605961895.0627,48
1605961895.0648,58
1605961895.0669,85
1605961895.0688,63
1605961895.0707,48
1605961895.0727,75
1605961895.0735,83
1605961895.0757,68
1605961895.0777,63
1605961895.0797,65
1605961895.0817,63
1605961895.0837,68
1605961895.0858,87
1605961895.0877,97
1605961895.0897,85
1605961895.0917,58
1605961895.0937,46
1605961895.0957,48
1605961895.0977,39
1605961895.0997,41
1605961895.1017,48
1605961895.1037,48
1605961895.1045,70
1605961895.1057,87
1605961895.1077,78
1605961895.1098,68
1605961895.1117,51
1605961895.1137,43
1605961895.1157,48
1605961895.1177,41
1605961895.1197,-21
1605961895.1217,-239
1605961895.1237,-483
1605961895.1257,-251
1605961895.1277,454
1605961895.1297,678
1605961895.1317,197
1605961895.1400,-46
1605961895.1417,83
1605961895.1437,56
1605961895.1457,-17
1605961895.1477,29
1605961895.1497,36
1605961895.1517,-2
1605961895.1537,7
1605961895.1557,29
1605961895.1577,9
1605961895.1597,2
1605961895.1617,14
1605961895.1637,7
1605961895.1657,-7
1605961895.1677,2
1605961895.1684,0
1605961895.1698,-19
1605961895.1717,-24
1605961895.1737,-24
1605961895.1757,-41
1605961895.1777,-56
1605961895.1797,-56
1605961895.1817,-56
1605961895.1837,-58
1605961895.1857,-65
1605961895.6105,-73
1605961895.6115,-70
1605961895.6139,-63
1605961895.6165,-53
1605961895.6172,-41
1605961895.6195,-41
1605961895.6214,-26
1605961895.6235,0
1605961895.6255,9
1605961895.6274,19
1605961895.6294,41
1605961895.6314,53
1605961895.6334,73
1605961895.6355,87
1605961895.6375,83
1605961895.6394,95
1605961895.6414,112
1605961895.6434,100
1605961895.6455,92
1605961895.6475,95
1605961895.6481,75
1605961895.6504,58
1605961895.6524,73
1605961895.6545,78
1605961895.6564,75
1605961895.6584,90
1605961895.6604,78
1605961895.6624,61
1605961895.6645,65
1605961895.6664,53
1605961895.6684,46
1605961895.6704,63
1605961895.6724,70
1605961895.6745,78
1605961895.6764,83
1605961895.6784,78
1605961895.6791,73
1605961895.6814,70
1605961895.6835,61
1605961895.6854,61
1605961895.6874,65
1605961895.6894,63
1605961895.6916,65
1605961895.6935,92
1605961895.6954,100
1605961895.6974,80
1605961895.6994,68
1605961895.7014,65
1605961895.7034,75
1605961895.7055,87
1605961895.7074,73
1605961895.7094,43
1605961895.7101,36
1605961895.7124,53
1605961895.7144,58
1605961895.7164,46
1605961895.7185,46
1605961895.7204,56
1605961895.7224,58
1605961895.7244,63
1605961895.7264,65
1605961895.7284,63
1605961895.7304,51
1605961895.7324,34
1605961895.7344,43
1605961895.7364,53
1605961895.7384,-46
1605961895.7404,-314
1605961895.7411,-483
1605961895.7434,-92
1605961895.7455,568
1605961895.7474,583
1605961895.7494,107
1605961896.1506,-7
1605961896.1513,100
1605961896.1537,43
1605961896.1564,9
1605961896.1584,46
1605961896.1603,19
1605961896.1624,-9
1605961896.1644,2
1605961896.1663,-2
1605961896.1684,-17
1605961896.1691,4
1605961896.1713,14
1605961896.1726,-9
1605961896.1743,-14
1605961896.1763,-4
1605961896.1783,-14
1605961896.1803,-36
1605961896.1823,-46
1605961896.1843,-43
1605961896.1863,-46
1605961896.1884,-58
1605961896.1903,-56
1605961896.1923,-53
1605961896.1944,-75
1605961896.1963,-102
1605961896.1969,-97
1605961896.1983,-78
1605961896.2003,-75
1605961896.2023,-68
1605961896.2043,-39
1605961896.2063,-12
1605961896.2083,-19
1605961896.2103,-19
1605961896.2123,19
1605961896.2143,39
1605961896.2163,31
1605961896.2183,53
1605961896.2203,95
1605961896.2223,102
1605961896.2243,87
1605961896.2263,112
1605961896.2269,129
1605961896.2283,97
1605961896.2303,75
1605961896.2323,90
1605961896.2343,95
1605961896.2363,80
1605961896.2383,78
1605961896.2403,75
1605961896.2423,68
1605961896.2444,78
1605961896.2464,87
1605961896.2484,70
1605961896.2504,65
1605961896.2523,80
1605961896.2544,78
1605961896.2563,75
1605961896.2569,75
1605961896.2583,56
1605961896.2603,58
1605961896.2623,92
1605961896.2643,100
1605961896.2663,73
1605961896.2683,68
1605961896.2703,85
1605961896.2723,78
1605961896.2743,70
1605961896.2763,83
1605961896.2783,70
1605961896.2803,53
1605961896.2823,68
1605961896.2845,85
1605961896.2864,75
1605961896.7212,56
1605961896.7221,73
1605961896.7245,104
1605961896.7272,90
1605961896.7292,48
1605961896.7312,19
1605961896.7332,9
1605961896.7352,21
1605961896.7371,34
1605961896.7391,34
1605961896.7411,34
1605961896.7431,46
1605961896.7452,51
1605961896.7472,26
1605961896.7478,21
1605961896.7491,48
1605961896.7511,53
1605961896.7531,39
1605961896.7552,34
1605961896.7571,-46
1605961896.7591,-300
1605961896.7611,-510
1605961896.7631,-166
1605961896.7651,549
1605961896.7671,639
1605961896.7691,136
1605961896.7711,-19
1605961896.7731,92
1605961896.7751,29
1605961896.7771,-4
1605961896.7777,51
1605961896.7791,24
1605961896.7811,-9
1605961896.7831,21
1605961896.7851,31
1605961896.7871,7
1605961896.7891,2
1605961896.7911,4
1605961896.7931,2
1605961896.7951,2
1605961896.7971,2
1605961896.7991,-9
1605961896.8011,-17
1605961896.8031,-19
1605961896.8051,-29
1605961896.8071,-36
1605961896.8077,-39
1605961896.8091,-53
1605961896.8111,-68
1605961896.8133,-70
1605961896.8152,-63
1605961896.8171,-65
1605961896.8191,-80
1605961896.8212,-73
1605961896.8231,-61
1605961896.8251,-58
1605961896.8271,-34
1605961896.8291,-4
1605961896.8311,2
1605961896.8331,12
1605961896.8351,29
1605961896.8371,48
1605961896.8377,75
1605961896.8391,90
1605961896.8411,87
1605961896.8431,100
1605961896.8451,112
1605961896.8471,104
1605961896.8491,107
1605961896.8511,109
1605961896.8531,97
1605961896.8551,90
1605961896.8571,92
1605961897.2612,87
1605961897.2621,92
1605961897.2645,80
1605961897.2661,65
1605961897.2681,68
1605961897.2687,63
1605961897.2701,58
1605961897.2722,48
1605961897.2741,46
1605961897.2761,63
1605961897.2781,63
1605961897.2801,56
1605961897.2821,73
1605961897.2841,80
1605961897.2861,68
1605961897.2881,46
1605961897.2901,39
1605961897.2921,63
1605961897.2941,75
1605961897.2961,65
1605961897.2981,58
1605961897.2987,61
1605961897.3001,56
1605961897.3021,53
1605961897.3041,63
1605961897.3060,80
1605961897.3080,68
1605961897.3102,48
1605961897.3121,43
1605961897.3140,31
1605961897.3160,21
1605961897.3180,19
1605961897.3200,26
1605961897.3221,41
1605961897.3240,46
1605961897.3260,48
1605961897.3280,61
1605961897.3287,63
1605961897.3300,48
1605961897.3320,41
1605961897.3341,48
1605961897.3361,48
1605961897.3380,53
1605961897.3400,14
1605961897.3420,-178
1605961897.3440,-473
1605961897.3461,-383
1605961897.3480,339
1605961897.3500,812
1605961897.3520,419
1605961897.3540,24
1605961897.3560,80
1605961897.3581,78
1605961897.3587,-12
1605961897.3600,7
1605961897.3620,34
1605961897.3641,12
1605961897.3661,7
1605961897.3680,21
1605961897.3701,14
1605961897.3720,-2
1605961897.3740,9
1605961897.3760,9
1605961897.3780,-17
1605961897.3800,-21
1605961897.3821,-12
1605961897.3840,-12
1605961897.3860,-24
1605961897.3880,-46
1605961897.3887,-65
1605961897.3900,-56
1605961897.3920,-58
1605961897.3941,-85
1605961897.8611,-95
1605961897.8620,-87
1605961897.8645,-97
1605961897.8662,-114
1605961897.8682,-104
1605961897.8704,-97
1605961897.8722,-102
1605961897.8741,-80
1605961897.8761,-46
1605961897.8767,-26
1605961897.8781,-21
1605961897.8801,-9
1605961897.8821,31
1605961897.8842,75
1605961897.8861,85
1605961897.8881,90
1605961897.8901,117
1605961897.8921,119
1605961897.8941,102
1605961897.8960,112
1605961897.8980,124
1605961897.9000,119
1605961897.9020,109
1605961897.9040,97
1605961897.9060,95
1605961897.9067,87
1605961897.9080,68
1605961897.9100,61
1605961897.9120,65
1605961897.9140,58
1605961897.9160,70
1605961897.9180,90
1605961897.9200,70
1605961897.9220,53
1605961897.9240,73
1605961897.9260,70
1605961897.9280,58
1605961897.9300,75
1605961897.9320,80
1605961897.9340,56
1605961897.9360,56
1605961897.9366,78
1605961897.9380,70
1605961897.9400,61
1605961897.9420,73
1605961897.9440,61
1605961897.9461,51
1605961897.9480,75
1605961897.9500,85
1605961897.9520,70
1605961897.9540,58
1605961897.9560,36
1605961897.9580,31
1605961897.9600,51
1605961897.9620,43
1605961897.9640,24
1605961897.9662,43
1605961897.9667,63
1605961897.9680,58
1605961897.9700,63
1605961897.9720,75
1605961897.9740,58
1605961897.9760,41
1605961897.9780,53
1605961897.9800,65
1605961897.9820,24
1605961897.9840,-156
1605961897.9860,-451
1605961897.9881,-405
1605961897.9900,275
1605961897.9920,778
1605961897.9940,407
1605961897.9946,-19
1605961898.4312,56
1605961898.4321,114
1605961898.4346,4
1605961898.4373,-2
1605961898.4392,51
1605961898.4412,36
1605961898.4432,9
1605961898.4452,14
1605961898.4471,17
1605961898.4491,2
1605961898.4511,-17
1605961898.4531,-4
1605961898.4551,9
1605961898.4571,-12
1605961898.4591,-19
1605961898.4597,-14
1605961898.4611,-29
1605961898.4631,-48
1605961898.4652,-58
1605961898.4671,-58
1605961898.4691,-63
1605961898.4711,-68
1605961898.4731,-78
1605961898.4751,-100
1605961898.4771,-95
1605961898.4791,-78
1605961898.4811,-78
1605961898.4831,-85
1605961898.4851,-83
1605961898.4871,-61
1605961898.4891,-34
1605961898.4897,-26
1605961898.4911,-14
1605961898.4931,24
1605961898.4953,58
1605961898.4971,78
1605961898.4991,87
1605961898.5011,100
1605961898.5031,114
1605961898.5051,119
1605961898.5071,122
1605961898.5092,124
1605961898.5111,114
1605961898.5130,102
1605961898.5151,100
1605961898.5172,107
1605961898.5191,95
1605961898.5197,80
1605961898.5210,95
1605961898.5231,102
1605961898.5250,73
1605961898.5271,53
1605961898.5291,65
1605961898.5310,83
1605961898.5331,75
1605961898.5351,53
1605961898.5370,51
1605961898.5391,63
1605961898.5411,65
1605961898.5431,58
1605961898.5451,51
1605961898.5470,56
1605961898.5490,80
1605961898.5497,80
1605961898.5511,56
1605961898.5530,58
1605961898.5551,70
1605961898.5570,46
1605961898.5591,36
1605961898.5610,53
1605961898.5631,53
1605961898.5651,73
1605961898.5670,90
1605961898.9711,53
1605961898.9720,26
1605961898.9745,36
1605961898.9771,34
1605961898.9777,36
1605961898.9791,31
1605961898.9811,26
1605961898.9831,58
1605961898.9852,73
1605961898.9871,58
1605961898.9891,48
1605961898.9911,43
1605961898.9934,48
1605961898.9951,41
1605961898.9970,29
1605961898.9990,26
1605961899.0010,-109
1605961899.0030,-412
1605961899.0051,-449
1605961899.0071,136
1605961899.0076,676
1605961899.0090,417
1605961899.0110,-9
1605961899.0130,36
1605961899.0150,114
1605961899.0170,17
1605961899.0190,-2
1605961899.0210,36
1605961899.0230,31
1605961899.0251,26
1605961899.0270,21
1605961899.0290,9
1605961899.0310,17
1605961899.0330,26
1605961899.0350,9
1605961899.0370,-2
1605961899.0376,9
1605961899.0390,17
1605961899.0410,-4
1605961899.0430,-31
1605961899.0450,-29
1605961899.0470,-29
1605961899.0490,-48
1605961899.0510,-41
1605961899.0530,-34
1605961899.0550,-63
1605961899.0570,-80
1605961899.0590,-83
1605961899.0610,-97
1605961899.0630,-97
1605961899.0650,-75
1605961899.0670,-68
1605961899.0676,-68
1605961899.0691,-46
1605961899.0710,-26
1605961899.0730,-14
1605961899.0750,19
1605961899.0770,46
1605961899.0790,51
1605961899.0810,73
1605961899.0830,107
1605961899.0850,114
1605961899.0870,107
1605961899.0892,107
1605961899.0911,107
1605961899.0930,104
1605961899.0950,102
1605961899.0970,87
1605961899.0976,83
1605961899.0990,90
1605961899.1010,90
1605961899.1030,90
1605961899.1050,90
1605961899.5119,73
1605961899.5125,63
1605961899.5140,70
1605961899.5158,61
1605961899.5177,56
1605961899.5198,78
1605961899.5218,78
1605961899.5238,51
1605961899.5244,51
1605961899.5257,61
1605961899.5277,53
1605961899.5297,53
1605961899.5318,58
1605961899.5338,51
1605961899.5357,51
1605961899.5377,61
1605961899.5397,58
1605961899.5417,41
1605961899.5437,36
1605961899.5458,48
1605961899.5477,48
1605961899.5497,34
1605961899.5517,46
1605961899.5537,61
1605961899.5544,48
1605961899.5557,51
1605961899.5577,53
1605961899.5597,43
1605961899.5617,41
1605961899.5637,24
1605961899.5657,9
1605961899.5677,17
1605961899.5697,31
1605961899.5717,36
1605961899.5737,39
1605961899.5757,41
1605961899.5777,41
1605961899.5797,34
1605961899.5817,39
1605961899.5837,58
1605961899.5843,56
1605961899.5859,41
1605961899.5877,41
1605961899.5897,29
1605961899.5917,-104
1605961899.5937,-378
1605961899.5958,-468
1605961899.5977,34
1605961899.5997,654
1605961899.6017,498
1605961899.6037,14
1605961899.6057,7
1605961899.6077,114
1605961899.6097,17
1605961899.6117,-14
1605961899.6137,39
1605961899.6143,29
1605961899.6158,4
1605961899.6177,29
1605961899.6197,41
1605961899.6217,12
1605961899.6237,0
1605961899.6258,7
1605961899.6277,0
1605961899.6297,-2
1605961899.6317,-9
1605961899.6337,-21
1605961899.6357,-14
1605961899.6377,-14
1605961899.6397,-36
1605961899.6417,-46
1605961899.6437,-36
1605961899.6443,-48
1605961900.0809,-70
1605961900.0819,-73
1605961900.0843,-83
1605961900.0870,-95
1605961900.0890,-87
1605961900.0909,-90
1605961900.0931,-100
1605961900.0950,-83
1605961900.0969,-48
1605961900.0989,-39
1605961900.1009,-31
1605961900.1029,7
1605961900.1049,34
1605961900.1069,43
1605961900.1089,70
1605961900.1095,85
1605961900.1109,73
1605961900.1129,95
1605961900.1149,124
1605961900.1171,97
1605961900.1189,73
1605961900.1209,92
1605961900.1229,100
1605961900.1249,68
1605961900.1268,68
1605961900.1289,102
1605961900.1308,95
1605961900.1328,73
1605961900.1348,83
1605961900.1368,85
1605961900.1389,70
1605961900.1395,61
1605961900.1409,61
1605961900.1428,65
1605961900.1449,75
1605961900.1468,68
1605961900.1488,51
1605961900.1508,58
1605961900.1528,63
1605961900.1549,53
1605961900.1568,53
1605961900.1588,51
1605961900.1608,61
1605961900.1628,75
1605961900.1649,65
1605961900.1668,56
1605961900.1688,46
1605961900.1694,39
1605961900.1708,53
1605961900.1728,63
1605961900.1749,46
1605961900.1768,34
1605961900.1788,46
1605961900.1808,63
1605961900.1828,61
1605961900.1848,53
1605961900.1868,51
1605961900.1888,43
1605961900.1908,46
1605961900.1928,48
1605961900.1949,56
1605961900.1968,68
1605961900.1988,46
1605961900.1994,19
1605961900.2008,24
1605961900.2028,34
1605961900.2049,41
1605961900.2068,36
1605961900.2088,26
1605961900.2108,46
1605961900.2130,70
1605961900.2149,75
1605961900.2168,75
1605961900.6211,61
1605961900.6220,56
1605961900.6245,58
1605961900.6271,48
1605961900.6277,36
1605961900.6291,-85
1605961900.6310,-371
1605961900.6331,-444
1605961900.6351,80
1605961900.6370,661
1605961900.6390,471
1605961900.6410,14
1605961900.6430,14
1605961900.6450,90
1605961900.6470,2
1605961900.6490,2
1605961900.6510,48
1605961900.6530,31
1605961900.6550,29
1605961900.6570,36
1605961900.6576,14
1605961900.6589,9
1605961900.6610,14
1605961900.6630,-2
1605961900.6650,-4
1605961900.6670,2
1605961900.6690,0
1605961900.6710,-2
1605961900.6730,-14
1605961900.6750,-31
1605961900.6769,-34
1605961900.6789,-41
1605961900.6810,-58
1605961900.6829,-63
1605961900.6849,-48
1605961900.6869,-56
1605961900.6876,-92
1605961900.6889,-90
1605961900.6909,-75
1605961900.6930,-85
1605961900.6950,-80
1605961900.6969,-61
1605961900.6990,-53
1605961900.7009,-31
1605961900.7029,-17
1605961900.7050,-12
1605961900.7069,17
1605961900.7089,70
1605961900.7111,95
1605961900.7130,78
1605961900.7150,75
1605961900.7170,95
1605961900.7176,97
1605961900.7189,100
1605961900.7209,102
1605961900.7229,87
1605961900.7250,92
1605961900.7269,95
1605961900.7290,78
1605961900.7309,70
1605961900.7329,75
1605961900.7349,75
1605961900.7369,70
1605961900.7389,73
1605961900.7410,73
1605961900.7430,61
1605961900.7450,68
1605961900.7469,70
1605961900.7476,48
1605961900.7489,48
1605961900.7509,70
1605961900.7529,73
1605961900.7550,51
1605961901.2207,43
1605961901.2216,56
1605961901.2241,56
1605961901.2258,36
1605961901.2277,34
1605961901.2297,41
1605961901.2317,39
1605961901.2337,43
1605961901.2344,58
1605961901.2356,61
1605961901.2376,46
1605961901.2396,36
1605961901.2416,41
1605961901.2437,48
1605961901.2458,56
1605961901.2477,56
1605961901.2497,41
1605961901.2517,26
1605961901.2538,26
1605961901.2557,46
1605961901.2576,56
1605961901.2597,46
1605961901.2617,41
1605961901.2637,41
1605961901.2643,46
1605961901.2656,41
1605961901.2678,17
1605961901.2697,9
1605961901.2716,19
1605961901.2736,17
1605961901.2756,26
1605961901.2777,56
1605961901.2796,68
1605961901.2817,48
1605961901.2836,46
1605961901.2856,68
1605961901.2876,65
1605961901.2896,56
1605961901.2916,46
1605961901.2937,26
1605961901.2943,14
1605961901.2956,-141
1605961901.2976,-446
1605961901.2996,-378
1605961901.3017,314
1605961901.3036,751
1605961901.3057,354
1605961901.3078,-19
1605961901.3097,75
1605961901.3117,100
1605961901.3137,2
1605961901.3157,4
1605961901.3177,24
1605961901.3196,19
1605961901.3216,19
1605961901.3236,14
1605961901.3243,12
1605961901.3256,7
1605961901.3277,9
1605961901.3296,14
1605961901.3316,4
1605961901.3336,-4
1605961901.3356,-7
1605961901.3376,-4
1605961901.3396,-12
1605961901.3416,-31
1605961901.3437,-41
1605961901.3456,-53
1605961901.3476,-73
1605961901.3496,-65
1605961901.3516,-63
1605961901.3536,-85
1605961901.3543,-95
1605961901.7911,-102
1605961901.7920,-107
1605961901.7945,-85
1605961901.7971,-61
1605961901.7994,-70
1605961901.8011,-83
1605961901.8032,-61
1605961901.8051,-21
1605961901.8070,-9
1605961901.8090,-2
1605961901.8110,34
1605961901.8130,63
1605961901.8150,68
1605961901.8156,78
1605961901.8170,87
1605961901.8190,83
1605961901.8210,85
1605961901.8230,83
1605961901.8251,63
1605961901.8270,65
1605961901.8290,85
1605961901.8310,92
1605961901.8330,65
1605961901.8350,34
1605961901.8370,46
1605961901.8390,73
1605961901.8411,58
1605961901.8430,46
1605961901.8450,53
1605961901.8456,43
1605961901.8470,39
1605961901.8490,48
1605961901.8510,48
1605961901.8530,46
1605961901.8550,46
1605961901.8570,53
1605961901.8589,56
1605961901.8610,56
1605961901.8630,56
1605961901.8650,61
1605961901.8670,70
1605961901.8690,73
1605961901.8710,56
1605961901.8730,43
1605961901.8752,56
1605961901.8758,65
1605961901.8780,70
1605961901.8800,70
1605961901.8820,58
1605961901.8840,41
1605961901.8860,53
1605961901.8880,73
1605961901.8900,61
1605961901.8920,61
1605961901.8940,68
1605961901.8961,51
1605961901.8981,46
1605961901.9000,56
1605961901.9020,53
1605961901.9040,58
1605961901.9046,80
1605961901.9060,65
1605961901.9080,26
1605961901.9100,12
1605961901.9120,31
1605961901.9140,46
1605961901.9160,34
1605961901.9180,12
1605961901.9200,21
1605961901.9220,65
1605961901.9240,80
1605961901.9260,65
1605961901.9280,63
1605961902.3611,73
1605961902.3620,70
1605961902.3645,48
1605961902.3656,43
1605961902.3671,46
1605961902.3691,-53
1605961902.3711,-317
1605961902.3731,-476
1605961902.3751,-58
1605961902.3770,632
1605961902.3790,627
1605961902.3810,109
1605961902.3830,-12
1605961902.3850,85
1605961902.3870,2
1605961902.3890,-21
1605961902.3910,53
1605961902.3930,26
1605961902.3951,-24
1605961902.3956,2
1605961902.3970,14
1605961902.3990,-7
1605961902.4010,-17
1605961902.4030,-12
1605961902.4051,-4
1605961902.4070,2
1605961902.4091,-7
1605961902.4110,-21
1605961902.4130,-31
1605961902.4151,-41
1605961902.4170,-48
1605961902.4190,-63
1605961902.4210,-70
1605961902.4232,-63
1605961902.4251,-68
1605961902.4255,-87
1605961902.4270,-95
1605961902.4290,-95
1605961902.4310,-109
1605961902.4330,-126
1605961902.4351,-114
1605961902.4370,-100
1605961902.4390,-80
1605961902.4410,-58
1605961902.4430,-48
1605961902.4451,-31
1605961902.4470,2
1605961902.4490,31
1605961902.4510,48
1605961902.4530,75
1605961902.4550,95
1605961902.4557,95
1605961902.4571,95
1605961902.4590,100
1605961902.4610,109
1605961902.4630,112
1605961902.4651,87
1605961902.4662,73
1605961902.4681,92
1605961902.4700,95
1605961902.4720,80
1605961902.4740,80
1605961902.4760,70
1605961902.4780,56
1605961902.4800,68
1605961902.4820,80
1605961902.4826,63
1605961902.4840,56
1605961902.4860,63
1605961902.4880,61
1605961902.4900,53
1605961902.4920,43
1605961902.4940,51
1605961902.9008,75
1605961902.9017,78
1605961902.9041,58
1605961902.9068,56
1605961902.9088,68
1605961902.9108,68
1605961902.9115,65
1605961902.9129,61
1605961902.9148,56
1605961902.9167,63
1605961902.9187,63
1605961902.9209,48
1605961902.9227,51
1605961902.9248,63
1605961902.9267,56
1605961902.9287,31
1605961902.9307,39
1605961902.9327,70
1605961902.9348,70
1605961902.9367,43
1605961902.9387,39
1605961902.9407,51
1605961902.9413,58
1605961902.9427,56
1605961902.9448,51
1605961902.9467,51
1605961902.9487,58
1605961902.9507,61
1605961902.9527,51
1605961902.9547,14
1605961902.9567,0
1605961902.9587,39
1605961902.9607,61
1605961902.9627,29
1605961902.9647,21
1605961902.9667,56
1605961902.9687,70
1605961902.9706,61
1605961902.9713,56
1605961902.9727,48
1605961902.9747,39
1605961902.9767,46
1605961902.9786,53
1605961902.9807,46
1605961902.9827,-19
1605961902.9847,-256
1605961902.9866,-488
1605961902.9886,-197
1605961902.9907,483
1605961902.9927,605
1605961902.9947,139
1605961902.9967,-17
1605961902.9986,112
1605961903.0007,73
1605961903.0013,2
1605961903.0027,29
1605961903.0047,34
1605961903.0066,9
1605961903.0087,12
1605961903.0107,24
1605961903.0127,17
1605961903.0147,9
1605961903.0168,14
1605961903.0187,14
1605961903.0207,2
1605961903.0226,-17
1605961903.0247,-31
1605961903.0267,-34
1605961903.0286,-36
1605961903.0306,-43
1605961903.0313,-46
1605961903.0327,-46
1605961903.0347,-63
1605961903.4410,-80
1605961903.4420,-92
1605961903.4444,-104
1605961903.4461,-109
1605961903.4481,-109
1605961903.4500,-109
1605961903.4521,-107
1605961903.4540,-100
1605961903.4560,-87
1605961903.4580,-78
1605961903.4600,-65
1605961903.4620,-56
1605961903.4640,-17
1605961903.4646,39
1605961903.4660,53
1605961903.4680,48
1605961903.4700,70
1605961903.4720,75
1605961903.4740,70
1605961903.4760,95
1605961903.4779,97
1605961903.4799,80
1605961903.4819,78
1605961903.4839,83
1605961903.4859,83
1605961903.4880,78
1605961903.4899,83
1605961903.4919,85
1605961903.4941,68
1605961903.4946,70
1605961903.4959,75
1605961903.4979,56
1605961903.4999,51
1605961903.5020,61
1605961903.5039,58
1605961903.5059,48
1605961903.5079,48
1605961903.5099,61
1605961903.5119,70
1605961903.5139,68
1605961903.5161,51
1605961903.5180,48
1605961903.5199,68
1605961903.5219,70
1605961903.5239,61
1605961903.5245,70
1605961903.5259,73
1605961903.5280,68
1605961903.5299,63
1605961903.5319,51
1605961903.5339,58
1605961903.5359,70
1605961903.5379,61
1605961903.5399,58
1605961903.5419,58
1605961903.5439,51
1605961903.5459,65
1605961903.5479,68
1605961903.5499,43
1605961903.5520,41
1605961903.5539,58
1605961903.5545,58
1605961903.5559,46
1605961903.5579,53
1605961903.5599,58
1605961903.5619,48
1605961903.5639,61
1605961903.5659,73
1605961903.5679,61
1605961903.5699,51
1605961903.5719,34
1605961903.5739,9
1605961903.5759,12
1605961904.0111,43
1605961904.0120,58
1605961904.0137,43
1605961904.0161,41
1605961904.0181,43
1605961904.0201,48
1605961904.0221,56
1605961904.0241,46
1605961904.0261,31
1605961904.0280,43
1605961904.0301,53
1605961904.0321,51
1605961904.0341,29
1605961904.0360,-122
1605961904.0380,-407
1605961904.0400,-432
1605961904.0420,136
1605961904.0440,644
1605961904.0448,371
1605961904.0460,-21
1605961904.0480,51
1605961904.0500,107
1605961904.0520,-2
1605961904.0540,-4
1605961904.0560,46
1605961904.0580,26
1605961904.0600,7
1605961904.0620,4
1605961904.0640,-4
1605961904.0660,7
1605961904.0680,7
1605961904.0700,-9
1605961904.0720,-7
1605961904.0740,-12
1605961904.0746,-24
1605961904.0760,-12
1605961904.0779,-24
1605961904.0799,-46
1605961904.0819,-34
1605961904.0840,-39
1605961904.0859,-68
1605961904.0879,-65
1605961904.0899,-65
1605961904.0920,-85
1605961904.0940,-87
1605961904.0960,-87
1605961904.0979,-104
1605961904.0999,-107
1605961904.1020,-100
1605961904.1039,-87
1605961904.1046,-68
1605961904.1059,-61
1605961904.1080,-53
1605961904.1099,-12
1605961904.1119,21
1605961904.1140,24
1605961904.1159,36
1605961904.1179,68
1605961904.1200,83
1605961904.1219,83
1605961904.1239,90
1605961904.1260,87
1605961904.1279,87
1605961904.1299,95
1605961904.1320,73
1605961904.1339,65
1605961904.1346,78
1605961904.1359,80
1605961904.1379,92
1605961904.1401,92
1605961904.1421,63
1605961904.1440,63
1605961904.1459,80
1605961904.5804,68
1605961904.5813,51
1605961904.5837,61
1605961904.5864,70
1605961904.5884,68
1605961904.5904,65
1605961904.5912,70
1605961904.5924,61
1605961904.5944,46
1605961904.5963,46
1605961904.5983,43
1605961904.6003,63
1605961904.6023,87
1605961904.6044,61
1605961904.6063,34
1605961904.6083,51
1605961904.6103,68
1605961904.6123,58
1605961904.6144,41
1605961904.6163,36
1605961904.6183,41
1605961904.6203,63
1605961904.6208,80
1605961904.6223,65
1605961904.6244,56
1605961904.6263,61
1605961904.6283,53
1605961904.6303,41
1605961904.6323,43
1605961904.6344,56
1605961904.6363,58
1605961904.6383,63
1605961904.6403,65
1605961904.6423,58
1605961904.6443,46
1605961904.6463,51
1605961904.6483,70
1605961904.6503,68
1605961904.6509,43
1605961904.6523,34
1605961904.6543,29
1605961904.6563,17
1605961904.6583,24
1605961904.6603,34
1605961904.6623,24
1605961904.6643,21
1605961904.6663,39
1605961904.6684,51
1605961904.6703,58
1605961904.6722,61
1605961904.6744,63
1605961904.6763,51
1605961904.6783,29
1605961904.6803,39
1605961904.6809,48
1605961904.6823,-31
1605961904.6843,-268
1605961904.6863,-488
1605961904.6883,-195
1605961904.6903,493
1605961904.6923,615
1605961904.6943,136
1605961904.6963,-29
1605961904.6983,92
1605961904.7003,31
1605961904.7023,-26
1605961904.7043,43
1605961904.7063,36
1605961904.7083,-19
1605961904.7103,0
1605961904.7109,29
1605961904.7123,14
1605961904.7143,-7
1605961905.1506,-9
1605961905.1515,-4
1605961905.1540,-4
1605961905.1566,-12
1605961905.1587,-14
1605961905.1606,-26
1605961905.1627,-34
1605961905.1646,-41
1605961905.1666,-58
1605961905.1686,-61
1605961905.1706,-53
1605961905.1726,-78
1605961905.1747,-104
1605961905.1751,-92
1605961905.1765,-90
1605961905.1785,-102
1605961905.1805,-102
1605961905.1825,-95
1605961905.1846,-83
1605961905.1866,-75
1605961905.1885,-65
1605961905.1905,-41
1605961905.1925,-19
1605961905.1946,-4
1605961905.1965,14
1605961905.1987,36
1605961905.2007,65
1605961905.2025,87
1605961905.2046,87
1605961905.2051,90
1605961905.2065,97
1605961905.2085,100
1605961905.2105,87
1605961905.2125,70
1605961905.2146,87
1605961905.2165,92
1605961905.2185,68
1605961905.2205,68
1605961905.2225,75
1605961905.2245,63
1605961905.2265,53
1605961905.2285,58
1605961905.2305,65
1605961905.2325,73
1605961905.2346,70
1605961905.2351,58
1605961905.2365,56
1605961905.2385,70
1605961905.2405,70
1605961905.2425,58
1605961905.2445,56
1605961905.2465,51
1605961905.2485,63
1605961905.2505,83
1605961905.2525,65
1605961905.2545,58
1605961905.2565,80
1605961905.2585,78
1605961905.2605,63
1605961905.2625,61
1605961905.2645,58
1605961905.2651,65
1605961905.2665,83
1605961905.2685,75
1605961905.2705,48
1605961905.2725,56
1605961905.2745,87
1605961905.2765,70
1605961905.2785,46
1605961905.2805,61
1605961905.2825,70
1605961905.2845,58
1605961905.2865,58
1605961905.6910,63
1605961905.6920,63
1605961905.6944,58
1605961905.6973,53
1605961905.6991,53
1605961905.7010,65
1605961905.7030,68
1605961905.7050,53
1605961905.7069,43
1605961905.7089,24
1605961905.7109,4
1605961905.7129,14
1605961905.7150,29
1605961905.7169,26
1605961905.7189,24
1605961905.7210,51
1605961905.7229,75
1605961905.7236,61
1605961905.7250,46
1605961905.7269,48
1605961905.7289,41
1605961905.7309,29
1605961905.7330,36
1605961905.7350,26
1605961905.7369,-112
1605961905.7389,-405
1605961905.7410,-444
1605961905.7429,129
1605961905.7450,656
1605961905.7469,395
1605961905.7490,-21
1605961905.7509,12
1605961905.7515,68
1605961905.7530,-19
1605961905.7550,2
1605961905.7569,51
1605961905.7589,12
1605961905.7609,-19
1605961905.7629,0
1605961905.7650,14
1605961905.7669,-2
1605961905.7689,-17
1605961905.7709,-4
1605961905.7729,2
1605961905.7749,-4
1605961905.7769,-21
1605961905.7789,-26
1605961905.7809,-19
1605961905.7815,-24
1605961905.7829,-41
1605961905.7849,-58
1605961905.7869,-70
1605961905.7889,-58
1605961905.7909,-46
1605961905.7931,-63
1605961905.7950,-92
1605961905.7969,-95
1605961905.7989,-87
1605961905.8009,-90
1605961905.8029,-92
1605961905.8049,-78
1605961905.8069,-61
1605961905.8089,-41
1605961905.8109,-14
1605961905.8115,-9
1605961905.8129,0
1605961905.8149,31
1605961905.8169,58
1605961905.8189,65
1605961905.8209,75
1605961905.8229,95
1605961905.8249,100
1605961905.8269,95
1605961906.2610,102
1605961906.2619,102
1605961906.2636,95
1605961906.2655,95
1605961906.2675,85
1605961906.2695,73
1605961906.2702,63
1605961906.2715,56
1605961906.2735,63
1605961906.2755,68
1605961906.2775,61
1605961906.2795,53
1605961906.2816,53
1605961906.2836,61
1605961906.2854,65
1605961906.2875,56
1605961906.2895,43
1605961906.2915,43
1605961906.2935,56
1605961906.2955,58
1605961906.2975,51
1605961906.2995,48
1605961906.3001,53
1605961906.3015,68
1605961906.3035,63
1605961906.3054,43
1605961906.3075,51
1605961906.3095,73
1605961906.3115,58
1605961906.3136,41
1605961906.3155,61
1605961906.3174,73
1605961906.3197,63
1605961906.3215,61
1605961906.3235,68
1605961906.3255,56
1605961906.3276,51
1605961906.3295,58
1605961906.3300,56
1605961906.3315,58
1605961906.3334,61
1605961906.3355,51
1605961906.3374,58
1605961906.3394,78
1605961906.3414,70
1605961906.3435,48
1605961906.3455,39
1605961906.3474,31
1605961906.3494,34
1605961906.3514,39
1605961906.3534,34
1605961906.3555,31
1605961906.3574,39
1605961906.3594,48
1605961906.3600,53
1605961906.3614,56
1605961906.3634,51
1605961906.3654,56
1605961906.3674,58
1605961906.3694,39
1605961906.3714,39
1605961906.3734,51
1605961906.3754,-56
1605961906.3774,-351
1605961906.3794,-485
1605961906.3814,0
1605961906.3834,639
1605961906.3855,527
1605961906.3874,51
1605961906.3894,12
1605961906.3900,102
1605961906.3914,12
1605961906.3935,-17
1605961906.8011,31
1605961906.8020,29
1605961906.8044,9
1605961906.8071,4
1605961906.8091,-4
1605961906.8111,-2
1605961906.8131,0
1605961906.8151,-12
1605961906.8170,-21
1605961906.8190,-29
1605961906.8212,-39
1605961906.8217,-41
1605961906.8230,-41
1605961906.8250,-51
1605961906.8270,-63
1605961906.8290,-61
1605961906.8310,-58
1605961906.8330,-73
1605961906.8351,-83
1605961906.8370,-95
1605961906.8390,-104
1605961906.8410,-104
1605961906.8430,-112
1605961906.8450,-102
1605961906.8470,-73
1605961906.8490,-70
1605961906.8510,-78
1605961906.8516,-65
1605961906.8530,-24
1605961906.8550,7
1605961906.8570,9
1605961906.8590,19
1605961906.8610,46
1605961906.8630,56
1605961906.8650,83
1605961906.8670,112
1605961906.8689,92
1605961906.8709,78
1605961906.8730,100
1605961906.8750,104
1605961906.8770,87
1605961906.8789,92
1605961906.8809,83
1605961906.8816,61
1605961906.8830,70
1605961906.8850,80
1605961906.8870,56
1605961906.8889,48
1605961906.8909,63
1605961906.8930,68
1605961906.8950,63
1605961906.8970,56
1605961906.8990,46
1605961906.9009,48
1605961906.9029,73
1605961906.9050,87
1605961906.9069,70
1605961906.9090,58
1605961906.9110,63
1605961906.9116,65
1605961906.9129,58
1605961906.9152,63
1605961906.9170,68
1605961906.9189,70
1605961906.9210,80
1605961906.9229,80
1605961906.9250,61
1605961906.9269,48
1605961906.9289,58
1605961906.9309,75
1605961906.9330,85
1605961906.9350,78
1605961906.9370,63
1605961907.3710,53
1605961907.3719,56
1605961907.3743,63
1605961907.3770,65
1605961907.3790,51
1605961907.3810,39
1605961907.3830,51
1605961907.3850,58
1605961907.3870,31
1605961907.3890,7
1605961907.3909,21
1605961907.3930,26
1605961907.3949,9
1605961907.3969,24
1605961907.3989,53
1605961907.4009,61
1605961907.4029,56
1605961907.4035,56
1605961907.4050,48
1605961907.4069,43
1605961907.4089,48
1605961907.4109,46
1605961907.4129,43
1605961907.4149,24
1605961907.4169,-163
1605961907.4190,-466
1605961907.4209,-349
1605961907.4229,363
1605961907.4249,754
1605961907.4269,349
1605961907.4289,9
1605961907.4309,83
1605961907.4329,70
1605961907.4335,-24
1605961907.4349,9
1605961907.4368,26
1605961907.4388,-24
1605961907.4409,-14
1605961907.4429,21
1605961907.4451,2
1605961907.4469,-19
1605961907.4488,-12
1605961907.4508,-12
1605961907.4528,-26
1605961907.4549,-24
1605961907.4568,-21
1605961907.4588,-26
1605961907.4608,-36
1605961907.4628,-43
1605961907.4635,-43
1605961907.4649,-61
1605961907.4668,-90
1605961907.4688,-87
1605961907.4708,-78
1605961907.4728,-97
1605961907.4749,-114
1605961907.4769,-119
1605961907.4789,-114
1605961907.4808,-92
1605961907.4828,-85
1605961907.4849,-83
1605961907.4868,-68
1605961907.4888,-56
1605961907.4909,-46
1605961907.4929,-17
1605961907.4935,21
1605961907.4948,53
1605961907.4968,61
1605961907.4988,61
1605961907.5008,65
1605961907.5028,85
1605961907.5049,102
1605961907.5069,92
1605961907.9713,92
1605961907.9725,102
1605961907.9737,92
1605961907.9756,87
1605961907.9768,102
1605961907.9781,100
1605961907.9796,65
1605961907.9815,43
1605961907.9836,43
1605961907.9856,39
1605961907.9876,51
1605961907.9896,63
1605961907.9916,39
1605961907.9936,31
1605961907.9956,58
1605961907.9975,73
1605961907.9995,65
1605961908.0019,56
1605961908.0036,61
1605961908.0055,58
1605961908.0061,48
1605961908.0075,65
1605961908.0095,78
1605961908.0115,65
1605961908.0135,53
1605961908.0155,63
1605961908.0175,73
1605961908.0195,65
1605961908.0215,56
1605961908.0236,51
1605961908.0255,51
1605961908.0276,63
1605961908.0296,65
1605961908.0315,61
1605961908.0335,68
1605961908.0355,73
1605961908.0361,53
1605961908.0375,31
1605961908.0395,31
1605961908.0415,48
1605961908.0435,48
1605961908.0454,36
1605961908.0475,48
1605961908.0494,63
1605961908.0515,68
1605961908.0535,70
1605961908.0555,61
1605961908.0575,53
1605961908.0595,61
1605961908.0615,56
1605961908.0635,56
1605961908.0655,56
1605961908.0660,-92
1605961908.0675,-412
1605961908.0695,-441
1605961908.0715,190
1605961908.0735,761
1605961908.0755,485
1605961908.0775,41
1605961908.0798,63
1605961908.0815,92
1605961908.0835,-14
1605961908.0855,-14
1605961908.0875,31
1605961908.0895,24
1605961908.0914,2
1605961908.0935,-7
1605961908.0955,-12
1605961908.0962,-7
1605961908.0974,2
1605961908.0994,2
1605961908.1014,-7
1605961908.1035,-24
1605961908.5105,-31
1605961908.5113,-21
1605961908.5138,-21
1605961908.5164,-41
1605961908.5184,-56
1605961908.5204,-58
1605961908.5225,-63
1605961908.5245,-73
1605961908.5264,-87
1605961908.5284,-104
1605961908.5304,-119
1605961908.5311,-129
1605961908.5324,-122
1605961908.5345,-114
1605961908.5364,-126
1605961908.5384,-124
1605961908.5404,-78
1605961908.5424,-53
1605961908.5444,-53
1605961908.5464,-36
1605961908.5484,-2
1605961908.5504,39
1605961908.5524,70
1605961908.5544,75
1605961908.5564,80
1605961908.5584,95
1605961908.5604,97
1605961908.5610,100
1605961908.5624,112
1605961908.5644,109
1605961908.5664,102
1605961908.5684,97
1605961908.5704,87
1605961908.5724,87
1605961908.5744,85
1605961908.5764,63
1605961908.5784,48
1605961908.5804,61
1605961908.5824,78
1605961908.5844,83
1605961908.5863,73
1605961908.5883,68
1605961908.5903,70
1605961908.5910,68
1605961908.5923,70
1605961908.5944,63
1605961908.5965,51
1605961908.5984,63
1605961908.6003,68
1605961908.6023,70
1605961908.6044,87
1605961908.6064,75
1605961908.6083,56
1605961908.6103,61
1605961908.6123,61
1605961908.6144,58
1605961908.6163,70
1605961908.6183,70
1605961908.6203,53
1605961908.6210,51
1605961908.6223,80
1605961908.6244,90
1605961908.6263,65
1605961908.6283,39
1605961908.6304,41
1605961908.6323,63
1605961908.6344,53
1605961908.6363,26
1605961908.6383,34
1605961908.6403,73
1605961908.6423,97
1605961908.6444,80
1605961908.6463,63
1605961909.0809,70
1605961909.0818,70
1605961909.0844,63
1605961909.0870,65
1605961909.0890,39
1605961909.0910,-124
1605961909.0930,-415
1605961909.0951,-417
1605961909.0970,190
1605961909.0990,698
1605961909.1010,393
1605961909.1030,-14
1605961909.1050,48
1605961909.1070,100
1605961909.1089,-7
1605961909.1095,4
1605961909.1109,58
1605961909.1130,19
1605961909.1150,2
1605961909.1170,31
1605961909.1190,24
1605961909.1211,9
1605961909.1229,7
1605961909.1249,4
1605961909.1270,19
1605961909.1289,21
1605961909.1308,0
1605961909.1328,-9
1605961909.1348,-14
1605961909.1368,-21
1605961909.1388,-24
1605961909.1400,-26
1605961909.1419,-43
1605961909.1438,-61
1605961909.1458,-61
1605961909.1478,-68
1605961909.1498,-95
1605961909.1518,-100
1605961909.1538,-85
1605961909.1559,-90
1605961909.1578,-90
1605961909.1598,-75
1605961909.1618,-68
1605961909.1638,-65
1605961909.1658,-36
1605961909.1678,12
1605961909.1684,41
1605961909.1698,48
1605961909.1718,46
1605961909.1738,61
1605961909.1758,90
1605961909.1778,92
1605961909.1798,85
1605961909.1818,102
1605961909.1838,107
1605961909.1859,90
1605961909.1879,85
1605961909.1898,97
1605961909.1919,87
1605961909.1924,68
1605961909.1938,70
1605961909.1958,70
1605961909.1978,65
1605961909.1998,75
1605961909.2018,75
1605961909.2038,63
1605961909.2059,51
1605961909.2078,53
1605961909.2098,73
1605961909.2118,68
1605961909.2138,53
1605961909.2158,61
1605961909.2178,63
1605961909.6202,58
1605961909.6209,68
1605961909.6235,70
1605961909.6260,58
1605961909.6279,68
1605961909.6299,80
1605961909.6319,61
1605961909.6339,51
1605961909.6359,63
1605961909.6379,65
1605961909.6399,53
1605961909.6419,43
1605961909.6439,51
1605961909.6459,73
1605961909.6479,85
1605961909.6485,70
1605961909.6499,29
1605961909.6519,12
1605961909.6539,31
1605961909.6559,39
1605961909.6579,34
1605961909.6599,41
1605961909.6619,51
1605961909.6639,63
1605961909.6659,75
1605961909.6679,63
1605961909.6699,46
1605961909.6719,61
1605961909.6739,68
1605961909.6758,46
1605961909.6778,46
1605961909.6785,-19
1605961909.6799,-297
1605961909.6818,-500
1605961909.6839,-109
1605961909.6859,568
1605961909.6878,585
1605961909.6898,104
1605961909.6919,-9
1605961909.6939,104
1605961909.6958,46
1605961909.6978,2
1605961909.6998,46
1605961909.7018,26
1605961909.7039,-4
1605961909.7059,29
1605961909.7078,41
1605961909.7085,19
1605961909.7098,9
1605961909.7118,0
1605961909.7141,4
1605961909.7159,21
1605961909.7178,4
1605961909.7200,-19
1605961909.7219,-17
1605961909.7238,-9
1605961909.7258,-14
1605961909.7278,-24
1605961909.7299,-31
1605961909.7318,-51
1605961909.7338,-70
1605961909.7358,-65
1605961909.7379,-58
1605961909.7385,-83
1605961909.7399,-102
1605961909.7419,-100
1605961909.7439,-95
1605961909.7458,-78
1605961909.7478,-53
1605961909.7498,-63
1605961909.7519,-53
1605961909.7538,4
1605961909.7559,48
1605961910.1609,53
1605961910.1617,53
1605961910.1643,70
1605961910.1668,97
1605961910.1688,109
1605961910.1708,104
1605961910.1715,95
1605961910.1728,87
1605961910.1748,92
1605961910.1767,97
1605961910.1787,83
1605961910.1807,65
1605961910.1827,68
1605961910.1848,70
1605961910.1867,56
1605961910.1887,51
1605961910.1907,61
1605961910.1927,61
1605961910.1948,51
1605961910.1967,48
1605961910.1987,58
1605961910.2007,58
1605961910.2013,34
1605961910.2027,19
1605961910.2048,34
1605961910.2067,63
1605961910.2087,73
1605961910.2107,56
1605961910.2127,39
1605961910.2148,36
1605961910.2167,41
1605961910.2189,39
1605961910.2208,29
1605961910.2227,46
1605961910.2248,68
1605961910.2267,58
1605961910.2287,43
1605961910.2307,43
1605961910.2313,43
1605961910.2327,53
1605961910.2347,61
1605961910.2367,48
1605961910.2387,36
1605961910.2407,39
1605961910.2427,61
1605961910.2448,83
1605961910.2467,78
1605961910.2487,53
1605961910.2507,31
1605961910.2528,21
1605961910.2548,19
1605961910.2567,31
1605961910.2587,41
1605961910.2607,41
1605961910.2613,58
1605961910.2627,75
1605961910.2648,56
1605961910.2667,41
1605961910.2687,48
1605961910.2707,46
1605961910.2727,46
1605961910.2747,56
1605961910.2767,58
1605961910.2787,-19
1605961910.2807,-258
1605961910.2827,-471
1605961910.2847,-187
1605961910.2867,490
1605961910.2887,629
1605961910.2907,161
1605961910.2990,-2
1605961910.3007,124
1605961910.3027,56
1605961910.7306,-21
1605961910.7313,34
1605961910.7336,56
1605961910.7364,31
1605961910.7384,9
1605961910.7403,-9
1605961910.7423,7
1605961910.7444,36
1605961910.7463,19
1605961910.7471,-7
1605961910.7483,-12
1605961910.7503,-14
1605961910.7523,-9
1605961910.7544,-7
1605961910.7563,-21
1605961910.7583,-41
1605961910.7603,-41
1605961910.7623,-39
1605961910.7643,-43
1605961910.7663,-58
1605961910.7683,-68
1605961910.7703,-90
1605961910.7723,-109
1605961910.7743,-107
1605961910.7763,-102
1605961910.7769,-97
1605961910.7783,-78
1605961910.7803,-68
1605961910.7823,-73
1605961910.7843,-56
1605961910.7863,-21
1605961910.7882,9
1605961910.7903,31
1605961910.7923,61
1605961910.7943,80
1605961910.7963,85
1605961910.7982,100
1605961910.8002,107
1605961910.8023,92
1605961910.8043,92
1605961910.8062,97
1605961910.8069,85
1605961910.8083,78
1605961910.8103,97
1605961910.8122,102
1605961910.8143,73
1605961910.8163,61
1605961910.8183,65
1605961910.8203,58
1605961910.8223,56
1605961910.8243,58
1605961910.8263,56
1605961910.8283,65
1605961910.8303,61
1605961910.8322,46
1605961910.8343,56
1605961910.8362,63
1605961910.8369,51
1605961910.8383,39
1605961910.8402,41
1605961910.8424,61
1605961910.8444,73
1605961910.8462,56
1605961910.8482,41
1605961910.8503,53
1605961910.8523,58
1605961910.8543,51
1605961910.8562,58
1605961910.8582,65
1605961910.8603,51
1605961910.8623,43
1605961910.8643,53
1605961910.8663,63
1605961911.3312,51
1605961911.3325,36
1605961911.3348,39
1605961911.3365,61
1605961911.3386,68
1605961911.3405,43
1605961911.3426,24
1605961911.3445,34
1605961911.3465,46
1605961911.3485,53
1605961911.3505,48
1605961911.3525,26
