Time,ECG
1601454709.9514,5726
1601454709.9529,6619
1601454709.9545,7392
1601454709.9565,7912
1601454709.9584,8428
1601454709.9604,8918
1601454709.9625,9311
1601454709.9645,9677
1601454709.9665,10027
1601454709.9685,10332
1601454709.9705,10594
1601454709.9724,10837
1601454709.9744,11073
1601454709.9765,11269
1601454709.9784,11448
1601454709.9805,11637
1601454709.9825,11823
1601454709.9845,11976
1601454709.9865,12066
1601454709.9885,12152
1601454709.9904,12292
1601454709.9925,12407
1601454709.9944,12471
1601454709.9964,12555
1601454709.9984,12645
1601454710.0005,12712
1601454710.0024,12778
1601454710.0044,12817
1601454710.0064,12832
1601454710.0084,12866
1601454710.0104,12906
1601454710.0124,12930
1601454710.0144,12945
1601454710.0164,12947
1601454710.0184,12957
1601454710.0204,12969
1601454710.0224,12962
1601454710.0244,12942
1601454710.0264,12942
1601454710.0284,12940
1601454710.0304,12910
1601454710.0324,12883
1601454710.0344,12856
1601454710.0364,12815
1601454710.0384,12783
1601454710.0404,12751
1601454710.0425,12707
1601454710.0444,12668
1601454710.0464,12626
1601454710.0484,12569
1601454710.0504,12520
1601454710.0523,12474
1601454710.0543,12405
1601454710.0563,12341
1601454710.0583,12295
1601454710.0603,12250
1601454710.0623,12192
1601454710.0643,12135
1601454710.0663,12064
1601454710.0684,11971
1601454710.0703,11887
1601454710.0723,11828
1601454710.0743,11767
1601454710.0763,11671
1601454710.0783,11578
1601454710.0803,11514
1601454710.0823,11451
1601454710.0843,11374
1601454710.0863,11291
1601454710.0883,11181
1601454710.0903,11033
1601454710.0923,10948
1601454710.0943,11051
1601454710.4902,11240
1601454710.4908,11198
1601454710.4932,10933
1601454710.4959,10790
1601454710.4979,10714
1601454710.4999,10491
1601454710.5019,10300
1601454710.5039,10246
1601454710.5059,10175
1601454710.5079,10081
1601454710.5099,9998
1601454710.5119,9878
1601454710.5139,9785
1601454710.5158,9733
1601454710.5178,9645
1601454710.5199,9539
1601454710.5218,9466
1601454710.5238,9392
1601454710.5259,9313
1601454710.5279,9228
1601454710.5298,9132
1601454710.5319,9044
1601454710.5338,8963
1601454710.5358,8879
1601454710.5378,8803
1601454710.5398,8729
1601454710.5418,8646
1601454710.5438,8558
1601454710.5458,8487
1601454710.5478,8410
1601454710.5498,8325
1601454710.5518,8251
1601454710.5538,8190
1601454710.5559,8109
1601454710.5578,8025
1601454710.5598,7961
1601454710.5618,7903
1601454710.5638,7834
1601454710.5658,7753
1601454710.5678,7674
1601454710.5698,7601
1601454710.5719,7520
1601454710.5738,7419
1601454710.5758,7324
1601454710.5778,7233
1601454710.5798,7135
1601454710.5818,7044
1601454710.5838,6968
1601454710.5858,6897
1601454710.5878,6821
1601454710.5898,6747
1601454710.5918,6676
1601454710.5938,6605
1601454710.5958,6531
1601454710.5978,6462
1601454710.5999,6403
1601454710.6019,6340
1601454710.6039,6261
1601454710.6059,6192
1601454710.6080,6136
1601454710.6099,6070
1601454710.6119,6006
1601454710.6139,5947
1601454710.6159,5878
1601454710.6179,5810
1601454710.6198,5756
1601454710.6218,5697
1601454710.6238,5635
1601454710.6258,5577
1601454710.6278,5515
1601454710.6298,5454
1601454710.6318,5400
1601454710.6338,5341
1601454711.0603,5282
1601454711.0615,5223
1601454711.0639,5169
1601454711.0665,5115
1601454711.0685,5056
1601454711.0705,5000
1601454711.0725,4958
1601454711.0745,4899
1601454711.0765,4823
1601454711.0785,4772
1601454711.0805,4735
1601454711.0825,4674
1601454711.0845,4610
1601454711.0865,4563
1601454711.0885,4519
1601454711.0905,4463
1601454711.0926,4414
1601454711.0945,4372
1601454711.0965,4325
1601454711.0985,4271
1601454711.1005,4225
1601454711.1024,4180
1601454711.1044,4136
1601454711.1064,4095
1601454711.1084,4050
1601454711.1104,4001
1601454711.1125,3955
1601454711.1144,3911
1601454711.1164,3869
1601454711.1184,3827
1601454711.1204,3785
1601454711.1224,3739
1601454711.1244,3697
1601454711.1264,3660
1601454711.1284,3616
1601454711.1304,3570
1601454711.1324,3533
1601454711.1344,3501
1601454711.1364,3466
1601454711.1384,3439
1601454711.1404,3408
1601454711.1424,3361
1601454711.1444,3317
1601454711.1464,3282
1601454711.1484,3243
1601454711.1504,3201
1601454711.1525,3165
1601454711.1544,3125
1601454711.1564,3089
1601454711.1583,3057
1601454711.1604,3025
1601454711.1624,2990
1601454711.1644,2939
1601454711.1664,2848
1601454711.1684,2782
1601454711.1704,2895
1601454711.1724,3138
1601454711.1744,3214
1601454711.1764,3042
1601454711.1784,2892
1601454711.1804,2843
1601454711.1824,2706
1601454711.1844,2559
1601454711.1864,2544
1601454711.1884,2541
1601454711.1904,2487
1601454711.1924,2456
1601454711.1944,2446
1601454711.1964,2421
1601454711.1984,2394
1601454711.2004,2370
1601454711.2024,2343
1601454711.2044,2323
1601454711.6296,2301
1601454711.6302,2274
1601454711.6321,2252
1601454711.6340,2230
1601454711.6361,2198
1601454711.6381,2171
1601454711.6401,2151
1601454711.6420,2129
1601454711.6441,2105
1601454711.6460,2078
1601454711.6480,2056
1601454711.6500,2041
1601454711.6520,2021
1601454711.6540,2002
1601454711.6560,1992
1601454711.6580,1972
1601454711.6600,1953
1601454711.6620,1943
1601454711.6640,1935
1601454711.6660,1923
1601454711.6680,1911
1601454711.6700,1899
1601454711.6720,1886
1601454711.6741,1869
1601454711.6760,1845
1601454711.6780,1815
1601454711.6800,1786
1601454711.6821,1746
1601454711.6841,1705
1601454711.6860,1675
1601454711.6881,1653
1601454711.6900,1629
1601454711.6921,1609
1601454711.6940,1594
1601454711.6960,1580
1601454711.6980,1565
1601454711.7000,1548
1601454711.7021,1535
1601454711.7040,1523
1601454711.7060,1508
1601454711.7080,1494
1601454711.7100,1484
1601454711.7121,1472
1601454711.7140,1452
1601454711.7161,1440
1601454711.7180,1432
1601454711.7200,1420
1601454711.7220,1403
1601454711.7240,1388
1601454711.7260,1378
1601454711.7280,1371
1601454711.7300,1356
1601454711.7320,1342
1601454711.7340,1332
1601454711.7360,1320
1601454711.7380,1307
1601454711.7400,1297
1601454711.7420,1285
1601454711.7440,1270
1601454711.7460,1261
1601454711.7480,1251
1601454711.7500,1239
1601454711.7520,1226
1601454711.7540,1216
1601454711.7560,1202
1601454711.7580,1192
1601454711.7600,1182
1601454711.7620,1167
1601454711.7640,1150
1601454711.7660,1138
1601454711.7680,1131
1601454711.7700,1118
1601454711.7720,1106
1601454712.1705,1101
1601454712.1711,1094
1601454712.1729,1079
1601454712.1749,1069
1601454712.1769,1059
1601454712.1789,1047
1601454712.1810,1040
1601454712.1829,1032
1601454712.1849,1023
1601454712.1869,1008
1601454712.1890,986
1601454712.1909,978
1601454712.1929,976
1601454712.1949,961
1601454712.1969,952
1601454712.1989,949
1601454712.2010,942
1601454712.2030,934
1601454712.2050,927
1601454712.2069,920
1601454712.2089,910
1601454712.2109,900
1601454712.2129,893
1601454712.2149,888
1601454712.2169,885
1601454712.2189,888
1601454712.2209,888
1601454712.2230,878
1601454712.2249,866
1601454712.2269,863
1601454712.2289,851
1601454712.2310,831
1601454712.2329,821
1601454712.2349,814
1601454712.2369,804
1601454712.2389,799
1601454712.2409,794
1601454712.2429,787
1601454712.2449,775
1601454712.2469,733
1601454712.2489,662
1601454712.2510,674
1601454712.2529,880
1601454712.2549,1123
1601454712.2569,1118
1601454712.2589,944
1601454712.2609,880
1601454712.2629,848
1601454712.2649,711
1601454712.2669,628
1601454712.2689,652
1601454712.2709,655
1601454712.2729,630
1601454712.2749,633
1601454712.2769,635
1601454712.2789,625
1601454712.2809,623
1601454712.2829,625
1601454712.2849,625
1601454712.2869,620
1601454712.2889,613
1601454712.2909,606
1601454712.2929,603
1601454712.2949,608
1601454712.2969,603
1601454712.2989,596
1601454712.3009,596
1601454712.3029,596
1601454712.3049,593
1601454712.3069,591
1601454712.3089,586
1601454712.3109,583
1601454712.3129,586
1601454712.7097,588
1601454712.7103,588
1601454712.7119,593
1601454712.7139,596
1601454712.7159,598
1601454712.7180,603
1601454712.7199,603
1601454712.7219,596
1601454712.7238,593
1601454712.7258,601
1601454712.7278,596
1601454712.7298,586
1601454712.7319,576
1601454712.7339,556
1601454712.7358,532
1601454712.7378,512
1601454712.7398,500
1601454712.7419,490
1601454712.7438,483
1601454712.7458,478
1601454712.7478,476
1601454712.7498,476
1601454712.7518,473
1601454712.7538,476
1601454712.7558,478
1601454712.7578,478
1601454712.7599,471
1601454712.7619,468
1601454712.7639,471
1601454712.7659,468
1601454712.7679,463
1601454712.7699,463
1601454712.7719,466
1601454712.7738,466
1601454712.7758,461
1601454712.7779,461
1601454712.7798,466
1601454712.7818,468
1601454712.7839,463
1601454712.7859,461
1601454712.7878,461
1601454712.7898,458
1601454712.7919,458
1601454712.7939,461
1601454712.7958,458
1601454712.7978,453
1601454712.7998,449
1601454712.8018,449
1601454712.8038,449
1601454712.8058,444
1601454712.8078,441
1601454712.8098,444
1601454712.8119,441
1601454712.8138,431
1601454712.8158,426
1601454712.8179,426
1601454712.8198,426
1601454712.8218,422
1601454712.8238,419
1601454712.8258,417
1601454712.8278,419
1601454712.8298,417
1601454712.8319,412
1601454712.8339,409
1601454712.8358,407
1601454712.8378,402
1601454712.8398,402
1601454712.8418,407
1601454712.8438,407
1601454712.8458,402
1601454712.8478,399
1601454712.8498,399
1601454712.8518,397
1601454713.3101,395
1601454713.3109,395
1601454713.3133,392
1601454713.3160,382
1601454713.3180,370
1601454713.3200,368
1601454713.3220,375
1601454713.3239,372
1601454713.3259,368
1601454713.3279,375
1601454713.3299,387
1601454713.3320,387
1601454713.3339,377
1601454713.3359,377
1601454713.3379,377
1601454713.3399,365
1601454713.3420,358
1601454713.3439,360
1601454713.3459,360
1601454713.3479,358
1601454713.3499,358
1601454713.3519,355
1601454713.3539,353
1601454713.3559,323
1601454713.3579,257
1601454713.3599,240
1601454713.3619,395
1601454713.3639,637
1601454713.3659,677
1601454713.3679,510
1601454713.3699,453
1601454713.3719,495
1601454713.3739,395
1601454713.3759,274
1601454713.3779,284
1601454713.3799,304
1601454713.3819,284
1601454713.3839,289
1601454713.3858,296
1601454713.3879,289
1601454713.3899,289
1601454713.3919,294
1601454713.3939,291
1601454713.3959,284
1601454713.3979,287
1601454713.3999,291
1601454713.4019,284
1601454713.4039,279
1601454713.4060,287
1601454713.4079,291
1601454713.4098,289
1601454713.4119,287
1601454713.4138,284
1601454713.4159,287
1601454713.4179,296
1601454713.4199,299
1601454713.4219,301
1601454713.4238,306
1601454713.4259,311
1601454713.4279,316
1601454713.4299,326
1601454713.4319,341
1601454713.4340,348
1601454713.4359,348
1601454713.4379,360
1601454713.4399,375
1601454713.4419,372
1601454713.4439,365
1601454713.4458,358
1601454713.4479,343
1601454713.4498,323
1601454713.4519,299
1601454713.4539,279
1601454713.8791,264
1601454713.8798,257
1601454713.8823,247
1601454713.8848,245
1601454713.8868,247
1601454713.8888,245
1601454713.8909,240
1601454713.8928,242
1601454713.8948,242
1601454713.8968,233
1601454713.8988,225
1601454713.9007,230
1601454713.9028,233
1601454713.9048,233
1601454713.9067,240
1601454713.9088,247
1601454713.9108,250
1601454713.9128,245
1601454713.9148,247
1601454713.9167,250
1601454713.9188,250
1601454713.9208,247
1601454713.9228,250
1601454713.9248,250
1601454713.9268,252
1601454713.9288,252
1601454713.9308,252
1601454713.9328,252
1601454713.9347,250
1601454713.9368,252
1601454713.9388,257
1601454713.9408,255
1601454713.9428,250
1601454713.9448,255
1601454713.9468,262
1601454713.9488,260
1601454713.9508,257
1601454713.9529,255
1601454713.9548,250
1601454713.9568,245
1601454713.9588,247
1601454713.9608,247
1601454713.9628,247
1601454713.9648,247
1601454713.9667,242
1601454713.9688,242
1601454713.9708,250
1601454713.9727,250
1601454713.9748,247
1601454713.9768,250
1601454713.9788,252
1601454713.9808,250
1601454713.9828,247
1601454713.9848,250
1601454713.9867,252
1601454713.9888,247
1601454713.9908,245
1601454713.9928,257
1601454713.9948,269
1601454713.9968,267
1601454713.9988,262
1601454714.0007,262
1601454714.0028,264
1601454714.0048,257
1601454714.0068,247
1601454714.0087,250
1601454714.0108,252
1601454714.0127,247
1601454714.0148,247
1601454714.0168,252
1601454714.0188,250
1601454714.0208,228
1601454714.0227,171
1601454714.4192,137
1601454714.4198,262
1601454714.4223,505
1601454714.4249,581
1601454714.4269,424
1601454714.4289,348
1601454714.4309,404
1601454714.4329,321
1601454714.4349,186
1601454714.4368,181
1601454714.4388,198
1601454714.4409,174
1601454714.4429,174
1601454714.4448,188
1601454714.4468,184
1601454714.4488,181
1601454714.4509,193
1601454714.4528,198
1601454714.4548,196
1601454714.4568,193
1601454714.4588,196
1601454714.4608,196
1601454714.4615,196
1601454714.4628,198
1601454714.4648,198
1601454714.4668,198
1601454714.4688,203
1601454714.4708,206
1601454714.4728,206
1601454714.4748,213
1601454714.4769,215
1601454714.4788,213
1601454714.4809,211
1601454714.4828,220
1601454714.4850,230
1601454714.4868,235
1601454714.4888,245
1601454714.4909,255
1601454714.4916,262
1601454714.4938,274
1601454714.4958,284
1601454714.4979,287
1601454714.4999,284
1601454714.5018,277
1601454714.5038,257
1601454714.5058,233
1601454714.5079,211
1601454714.5098,193
1601454714.5118,179
1601454714.5138,171
1601454714.5158,171
1601454714.5178,169
1601454714.5198,169
1601454714.5205,169
1601454714.5228,166
1601454714.5248,166
1601454714.5268,169
1601454714.5288,169
1601454714.5308,171
1601454714.5328,181
1601454714.5348,184
1601454714.5368,181
1601454714.5388,186
1601454714.5409,191
1601454714.5429,193
1601454714.5448,191
1601454714.5468,186
1601454714.5488,186
1601454714.5508,191
1601454714.5515,193
1601454714.5538,196
1601454714.5558,198
1601454714.5578,198
1601454714.9890,201
1601454714.9896,201
1601454714.9915,198
1601454714.9934,201
1601454714.9954,203
1601454714.9974,201
1601454714.9981,201
1601454715.0005,193
1601454715.0023,184
1601454715.0043,188
1601454715.0063,191
1601454715.0083,188
1601454715.0104,186
1601454715.0123,191
1601454715.0143,191
1601454715.0163,191
1601454715.0183,193
1601454715.0204,196
1601454715.0223,193
1601454715.0243,193
1601454715.0265,196
1601454715.0283,198
1601454715.0290,196
1601454715.0314,191
1601454715.0334,186
1601454715.0353,181
1601454715.0373,181
1601454715.0393,179
1601454715.0414,176
1601454715.0433,174
1601454715.0453,176
1601454715.0473,191
1601454715.0493,203
1601454715.0514,206
1601454715.0533,206
1601454715.0553,201
1601454715.0573,196
1601454715.0593,191
1601454715.0600,188
1601454715.0613,188
1601454715.0633,191
1601454715.0653,191
1601454715.0673,188
1601454715.0693,191
1601454715.0713,193
1601454715.0733,186
1601454715.0753,130
1601454715.0773,68
1601454715.0794,149
1601454715.0814,417
1601454715.0833,623
1601454715.0853,539
1601454715.0873,377
1601454715.0894,360
1601454715.0900,299
1601454715.0924,149
1601454715.0943,117
1601454715.0963,152
1601454715.0984,137
1601454715.1004,122
1601454715.1023,139
1601454715.1043,139
1601454715.1063,134
1601454715.1083,144
1601454715.1104,152
1601454715.1123,147
1601454715.1143,147
1601454715.1163,154
1601454715.1183,159
1601454715.1203,159
1601454715.1210,161
1601454715.1223,166
1601454715.1243,166
1601454715.5294,164
1601454715.5301,169
1601454715.5312,169
1601454715.5332,169
1601454715.5352,169
1601454715.5372,169
1601454715.5380,174
1601454715.5403,176
1601454715.5422,176
1601454715.5442,176
1601454715.5462,186
1601454715.5482,196
1601454715.5502,206
1601454715.5523,215
1601454715.5542,223
1601454715.5562,230
1601454715.5582,230
1601454715.5602,218
1601454715.5621,206
1601454715.5642,188
1601454715.5661,164
1601454715.5668,144
1601454715.5682,134
1601454715.5702,127
1601454715.5721,120
1601454715.5742,117
1601454715.5762,122
1601454715.5782,125
1601454715.5802,125
1601454715.5821,127
1601454715.5841,132
1601454715.5861,132
1601454715.5882,132
1601454715.5901,134
1601454715.5921,139
1601454715.5941,142
1601454715.5961,142
1601454715.5969,139
1601454715.5991,147
1601454715.6011,152
1601454715.6031,154
1601454715.6051,154
1601454715.6071,159
1601454715.6091,161
1601454715.6112,164
1601454715.6131,166
1601454715.6151,171
1601454715.6172,171
1601454715.6191,169
1601454715.6212,169
1601454715.6231,171
1601454715.6252,171
1601454715.6271,171
1601454715.6278,174
1601454715.6291,176
1601454715.6312,176
1601454715.6331,176
1601454715.6351,176
1601454715.6371,176
1601454715.6391,174
1601454715.6412,179
1601454715.6432,181
1601454715.6451,179
1601454715.6471,176
1601454715.6491,176
1601454715.6511,179
1601454715.6531,181
1601454715.6551,179
1601454715.6571,179
1601454715.6654,181
1601454715.6672,181
1601454715.6692,181
1601454715.6712,181
1601454716.0990,181
1601454716.0996,179
1601454716.1021,179
1601454716.1047,176
1601454716.1067,171
1601454716.1087,164
1601454716.1107,159
1601454716.1126,166
1601454716.1147,176
1601454716.1167,174
1601454716.1187,164
1601454716.1207,164
1601454716.1226,166
1601454716.1246,159
1601454716.1266,152
1601454716.1286,152
1601454716.1306,154
1601454716.1326,154
1601454716.1346,157
1601454716.1366,161
1601454716.1387,164
1601454716.1407,149
1601454716.1426,90
1601454716.1446,44
1601454716.1466,154
1601454716.1486,429
1601454716.1506,601
1601454716.1526,490
1601454716.1546,341
1601454716.1566,323
1601454716.1586,247
1601454716.1607,110
1601454716.1626,95
1601454716.1646,130
1601454716.1666,110
1601454716.1686,103
1601454716.1707,122
1601454716.1726,125
1601454716.1746,120
1601454716.1766,125
1601454716.1786,125
1601454716.1806,122
1601454716.1826,130
1601454716.1846,134
1601454716.1866,137
1601454716.1886,137
1601454716.1906,134
1601454716.1926,137
1601454716.1946,139
1601454716.1966,139
1601454716.1986,142
1601454716.2006,147
1601454716.2026,149
1601454716.2046,152
1601454716.2066,154
1601454716.2086,161
1601454716.2106,166
1601454716.2126,171
1601454716.2146,181
1601454716.2166,191
1601454716.2186,201
1601454716.2206,208
1601454716.2226,215
1601454716.2246,220
1601454716.2266,223
1601454716.2286,215
1601454716.2307,211
1601454716.2326,201
1601454716.2346,179
1601454716.2366,154
1601454716.2386,137
1601454716.2406,122
1601454716.2426,112
1601454716.6693,107
1601454716.6697,107
1601454716.6708,105
1601454716.6728,100
1601454716.6748,100
1601454716.6768,105
1601454716.6788,105
1601454716.6808,95
1601454716.6828,93
1601454716.6848,100
1601454716.6868,103
1601454716.6888,103
1601454716.6908,107
1601454716.6928,115
1601454716.6948,112
1601454716.6968,110
1601454716.6989,115
1601454716.7008,122
1601454716.7028,127
1601454716.7048,130
1601454716.7068,132
1601454716.7088,137
1601454716.7108,139
1601454716.7128,142
1601454716.7148,142
1601454716.7168,144
1601454716.7188,147
1601454716.7208,144
1601454716.7228,144
1601454716.7248,149
1601454716.7268,152
1601454716.7288,149
1601454716.7309,149
1601454716.7328,149
1601454716.7348,149
1601454716.7369,149
1601454716.7388,152
1601454716.7408,152
1601454716.7428,152
1601454716.7448,154
1601454716.7468,154
1601454716.7488,154
1601454716.7508,157
1601454716.7529,159
1601454716.7549,161
1601454716.7569,159
1601454716.7588,159
1601454716.7608,159
1601454716.7628,161
1601454716.7648,159
1601454716.7668,157
1601454716.7688,157
1601454716.7708,161
1601454716.7728,161
1601454716.7748,161
1601454716.7768,164
1601454716.7788,164
1601454716.7808,161
1601454716.7828,159
1601454716.7848,159
1601454716.7868,159
1601454716.7888,161
1601454716.7908,161
1601454716.7928,166
1601454716.7948,174
1601454716.7968,174
1601454716.7988,169
1601454716.8008,171
1601454716.8028,171
1601454716.8048,154
1601454716.8068,147
1601454716.8088,149
1601454716.8108,152
1601454717.2388,152
1601454717.2393,154
1601454717.2417,157
1601454717.2443,157
1601454717.2463,137
1601454717.2483,80
1601454717.2504,44
1601454717.2523,159
1601454717.2543,424
1601454717.2563,576
1601454717.2583,461
1601454717.2604,316
1601454717.2623,296
1601454717.2643,213
1601454717.2663,80
1601454717.2683,76
1601454717.2704,110
1601454717.2723,93
1601454717.2743,88
1601454717.2763,105
1601454717.2783,103
1601454717.2804,98
1601454717.2823,103
1601454717.2843,105
1601454717.2863,107
1601454717.2883,115
1601454717.2903,120
1601454717.2923,117
1601454717.2943,120
1601454717.2963,125
1601454717.2983,127
1601454717.3003,127
1601454717.3023,127
1601454717.3043,130
1601454717.3063,134
1601454717.3083,134
1601454717.3103,134
1601454717.3123,139
1601454717.3143,149
1601454717.3163,149
1601454717.3183,154
1601454717.3204,169
1601454717.3223,181
1601454717.3243,186
1601454717.3263,196
1601454717.3283,206
1601454717.3304,213
1601454717.3323,208
1601454717.3343,208
1601454717.3363,206
1601454717.3383,188
1601454717.3403,164
1601454717.3423,147
1601454717.3444,132
1601454717.3463,110
1601454717.3483,98
1601454717.3503,100
1601454717.3523,100
1601454717.3543,98
1601454717.3563,100
1601454717.3583,105
1601454717.3603,103
1601454717.3623,98
1601454717.3643,95
1601454717.3663,100
1601454717.3683,105
1601454717.3703,107
1601454717.3723,107
1601454717.3743,110
1601454717.3763,115
1601454717.3783,115
1601454717.3803,115
1601454717.3823,120
1601454717.7786,122
1601454717.7792,125
1601454717.7817,130
1601454717.7843,137
1601454717.7863,137
1601454717.7883,134
1601454717.7903,139
1601454717.7922,147
1601454717.7942,144
1601454717.7962,130
1601454717.7982,127
1601454717.8002,134
1601454717.8022,137
1601454717.8042,130
1601454717.8063,132
1601454717.8082,137
1601454717.8102,137
1601454717.8122,139
1601454717.8142,142
1601454717.8162,142
1601454717.8182,142
1601454717.8203,144
1601454717.8222,144
1601454717.8242,147
1601454717.8262,149
1601454717.8282,152
1601454717.8304,152
1601454717.8322,154
1601454717.8342,152
1601454717.8362,152
1601454717.8382,152
1601454717.8402,154
1601454717.8422,154
1601454717.8442,157
1601454717.8462,157
1601454717.8482,157
1601454717.8503,159
1601454717.8522,159
1601454717.8542,157
1601454717.8562,157
1601454717.8582,159
1601454717.8602,159
1601454717.8622,159
1601454717.8642,159
1601454717.8662,159
1601454717.8683,157
1601454717.8703,154
1601454717.8722,149
1601454717.8742,149
1601454717.8762,154
1601454717.8782,164
1601454717.8802,171
1601454717.8822,174
1601454717.8842,171
1601454717.8862,166
1601454717.8882,157
1601454717.8902,149
1601454717.8922,149
1601454717.8942,152
1601454717.8962,147
1601454717.8982,142
1601454717.9002,144
1601454717.9022,152
1601454717.9042,157
1601454717.9062,152
1601454717.9082,110
1601454717.9103,46
1601454717.9122,76
1601454717.9142,284
1601454717.9162,493
1601454717.9182,436
1601454717.9202,269
1601454717.9222,287
1601454718.3482,299
1601454718.3488,159
1601454718.3508,88
1601454718.3527,120
1601454718.3547,115
1601454718.3567,93
1601454718.3587,90
1601454718.3607,90
1601454718.3627,93
1601454718.3647,98
1601454718.3667,103
1601454718.3687,105
1601454718.3707,103
1601454718.3727,107
1601454718.3747,117
1601454718.3767,120
1601454718.3787,120
1601454718.3807,122
1601454718.3827,122
1601454718.3847,125
1601454718.3867,130
1601454718.3887,132
1601454718.3907,137
1601454718.3927,139
1601454718.3947,137
1601454718.3967,142
1601454718.3987,152
1601454718.4007,157
1601454718.4027,169
1601454718.4047,181
1601454718.4067,186
1601454718.4087,193
1601454718.4107,208
1601454718.4127,215
1601454718.4147,215
1601454718.4167,218
1601454718.4187,213
1601454718.4207,193
1601454718.4227,166
1601454718.4247,142
1601454718.4267,122
1601454718.4287,107
1601454718.4307,98
1601454718.4327,90
1601454718.4347,85
1601454718.4367,83
1601454718.4387,90
1601454718.4407,90
1601454718.4426,78
1601454718.4447,78
1601454718.4467,83
1601454718.4487,85
1601454718.4507,90
1601454718.4527,93
1601454718.4547,90
1601454718.4567,98
1601454718.4587,103
1601454718.4607,103
1601454718.4627,105
1601454718.4647,107
1601454718.4667,110
1601454718.4687,112
1601454718.4707,120
1601454718.4727,120
1601454718.4747,117
1601454718.4767,122
1601454718.4786,130
1601454718.4807,125
1601454718.4826,115
1601454718.4846,120
1601454718.4868,127
1601454718.4887,127
1601454718.4907,122
1601454718.8887,117
1601454718.8893,120
1601454718.8908,130
1601454718.8928,130
1601454718.8947,122
1601454718.8968,127
1601454718.8988,132
1601454718.9008,125
1601454718.9029,115
1601454718.9047,112
1601454718.9068,122
1601454718.9088,125
1601454718.9108,115
1601454718.9127,107
1601454718.9147,112
1601454718.9167,120
1601454718.9187,127
1601454718.9207,130
1601454718.9227,127
1601454718.9247,132
1601454718.9267,132
1601454718.9287,127
1601454718.9308,130
1601454718.9327,127
1601454718.9347,127
1601454718.9367,134
1601454718.9387,132
1601454718.9408,120
1601454718.9427,122
1601454718.9447,130
1601454718.9467,122
1601454718.9487,125
1601454718.9507,130
1601454718.9527,122
1601454718.9547,122
1601454718.9567,139
1601454718.9587,134
1601454718.9607,122
1601454718.9627,144
1601454718.9647,171
1601454718.9667,152
1601454718.9687,120
1601454718.9707,120
1601454718.9727,127
1601454718.9748,122
1601454718.9768,117
1601454718.9787,120
1601454718.9808,120
1601454718.9827,125
1601454718.9848,122
1601454718.9868,122
1601454718.9888,125
1601454718.9908,80
1601454718.9928,-4
1601454718.9947,4
1601454718.9967,220
1601454718.9987,500
1601454719.0007,532
1601454719.0028,350
1601454719.0048,262
1601454719.0068,235
1601454719.0087,115
1601454719.0108,41
1601454719.0127,63
1601454719.0147,58
1601454719.0167,53
1601454719.0187,61
1601454719.0208,36
1601454719.0227,36
1601454719.0247,68
1601454719.0267,76
1601454719.0287,53
1601454719.0308,56
1601454719.4581,80
1601454719.4587,68
1601454719.4611,51
1601454719.4638,66
1601454719.4657,73
1601454719.4677,66
1601454719.4698,71
1601454719.4717,73
1601454719.4737,71
1601454719.4757,68
1601454719.4777,73
1601454719.4797,88
1601454719.4817,90
1601454719.4836,80
1601454719.4857,88
1601454719.4876,107
1601454719.4897,117
1601454719.4918,130
1601454719.4937,142
1601454719.4957,154
1601454719.4977,154
1601454719.4997,152
1601454719.5017,161
1601454719.5037,164
1601454719.5057,161
1601454719.5077,157
1601454719.5097,132
1601454719.5117,103
1601454719.5137,83
1601454719.5157,76
1601454719.5177,68
1601454719.5197,58
1601454719.5218,51
1601454719.5237,53
1601454719.5257,53
1601454719.5276,61
1601454719.5297,66
1601454719.5317,66
1601454719.5337,63
1601454719.5357,66
1601454719.5377,68
1601454719.5397,76
1601454719.5417,78
1601454719.5437,80
1601454719.5457,83
1601454719.5477,88
1601454719.5496,90
1601454719.5517,93
1601454719.5537,98
1601454719.5557,100
1601454719.5577,95
1601454719.5597,95
1601454719.5618,103
1601454719.5637,110
1601454719.5657,110
1601454719.5677,107
1601454719.5697,105
1601454719.5717,107
1601454719.5736,115
1601454719.5757,115
1601454719.5777,110
1601454719.5797,115
1601454719.5817,127
1601454719.5837,122
1601454719.5857,117
1601454719.5877,120
1601454719.5897,127
1601454719.5918,125
1601454719.5938,127
1601454719.5957,130
1601454719.5977,127
1601454719.5996,122
1601454719.6016,125
1601454720.0588,127
1601454720.0597,127
1601454720.0621,127
1601454720.0648,130
1601454720.0668,130
1601454720.0688,122
1601454720.0709,115
1601454720.0728,115
1601454720.0747,120
1601454720.0768,115
1601454720.0787,110
1601454720.0807,115
1601454720.0827,120
1601454720.0847,117
1601454720.0867,115
1601454720.0887,115
1601454720.0907,115
1601454720.0927,117
1601454720.0947,122
1601454720.0967,122
1601454720.0987,117
1601454720.1008,115
1601454720.1028,120
1601454720.1047,122
1601454720.1067,117
1601454720.1087,117
1601454720.1108,112
1601454720.1127,112
1601454720.1147,122
1601454720.1167,130
1601454720.1187,125
1601454720.1207,122
1601454720.1227,122
1601454720.1247,117
1601454720.1267,112
1601454720.1287,110
1601454720.1307,110
1601454720.1327,110
1601454720.1347,110
1601454720.1367,110
1601454720.1388,107
1601454720.1408,110
1601454720.1427,100
1601454720.1448,61
1601454720.1467,4
1601454720.1487,56
1601454720.1507,304
1601454720.1527,532
1601454720.1547,456
1601454720.1568,250
1601454720.1587,215
1601454720.1608,203
1601454720.1627,71
1601454720.1647,17
1601454720.1667,58
1601454720.1687,56
1601454720.1707,36
1601454720.1727,49
1601454720.1747,56
1601454720.1767,53
1601454720.1787,56
1601454720.1807,63
1601454720.1827,68
1601454720.1847,68
1601454720.1867,71
1601454720.1887,76
1601454720.1907,83
1601454720.1927,85
1601454720.1947,80
1601454720.1967,83
1601454720.1987,90
1601454720.2007,95
1601454720.2027,95
1601454720.5983,95
1601454720.5989,98
1601454720.6013,105
1601454720.6040,107
1601454720.6061,112
1601454720.6080,120
1601454720.6100,130
1601454720.6119,137
1601454720.6139,144
1601454720.6159,157
1601454720.6180,159
1601454720.6200,157
1601454720.6220,161
1601454720.6239,169
1601454720.6260,169
1601454720.6279,157
1601454720.6300,144
1601454720.6319,130
1601454720.6339,107
1601454720.6360,85
1601454720.6379,71
1601454720.6399,63
1601454720.6419,61
1601454720.6439,58
1601454720.6460,58
1601454720.6479,58
1601454720.6499,63
1601454720.6519,68
1601454720.6539,68
1601454720.6559,68
1601454720.6580,71
1601454720.6600,76
1601454720.6619,73
1601454720.6639,71
1601454720.6661,73
1601454720.6679,78
1601454720.6699,83
1601454720.6719,88
1601454720.6739,88
1601454720.6759,88
1601454720.6779,93
1601454720.6799,98
1601454720.6819,100
1601454720.6839,105
1601454720.6859,105
1601454720.6879,105
1601454720.6899,107
1601454720.6919,110
1601454720.6926,110
1601454720.6940,112
1601454720.6959,112
1601454720.6979,112
1601454720.6999,115
1601454720.7019,115
1601454720.7039,112
1601454720.7059,112
1601454720.7079,115
1601454720.7100,115
1601454720.7119,115
1601454720.7139,117
1601454720.7159,120
1601454720.7179,120
1601454720.7199,122
1601454720.7219,120
1601454720.7226,115
1601454720.7239,112
1601454720.7259,115
1601454720.7279,120
1601454720.7299,120
1601454720.7319,115
1601454720.7339,117
1601454720.7359,122
1601454720.7379,120
1601454721.1692,122
1601454721.1698,125
1601454721.1714,125
1601454721.1734,127
1601454721.1754,125
1601454721.1774,122
1601454721.1794,122
1601454721.1814,120
1601454721.1833,112
1601454721.1854,110
1601454721.1874,117
1601454721.1894,117
1601454721.1913,105
1601454721.1933,98
1601454721.1953,103
1601454721.1960,103
1601454721.1973,103
1601454721.1993,107
1601454721.2013,112
1601454721.2033,117
1601454721.2053,125
1601454721.2073,127
1601454721.2094,122
1601454721.2113,125
1601454721.2133,127
1601454721.2153,120
1601454721.2173,112
1601454721.2194,112
1601454721.2213,110
1601454721.2234,107
1601454721.2254,105
1601454721.2261,107
1601454721.2283,105
1601454721.2303,88
1601454721.2323,36
1601454721.2343,7
1601454721.2363,144
1601454721.2384,404
1601454721.2403,476
1601454721.2424,287
1601454721.2443,191
1601454721.2463,260
1601454721.2483,191
1601454721.2504,56
1601454721.2523,61
1601454721.2543,90
1601454721.2563,68
1601454721.2570,68
1601454721.2583,88
1601454721.2604,88
1601454721.2623,85
1601454721.2643,90
1601454721.2663,93
1601454721.2683,98
1601454721.2703,103
1601454721.2723,100
1601454721.2743,100
1601454721.2763,107
1601454721.2783,112
1601454721.2803,110
1601454721.2823,112
1601454721.2843,117
1601454721.2863,122
1601454721.2870,120
1601454721.2883,125
1601454721.2904,132
1601454721.2923,137
1601454721.2943,137
1601454721.2963,147
1601454721.2983,159
1601454721.3003,166
1601454721.3023,171
1601454721.3043,184
1601454721.7077,193
1601454721.7084,203
1601454721.7094,211
1601454721.7113,218
1601454721.7133,218
1601454721.7153,203
1601454721.7173,186
1601454721.7194,169
1601454721.7213,142
1601454721.7233,107
1601454721.7253,85
1601454721.7273,80
1601454721.7294,73
1601454721.7313,68
1601454721.7333,73
1601454721.7353,73
1601454721.7360,68
1601454721.7383,68
1601454721.7403,71
1601454721.7423,80
1601454721.7443,85
1601454721.7463,85
1601454721.7483,85
1601454721.7503,90
1601454721.7523,93
1601454721.7543,98
1601454721.7563,103
1601454721.7583,110
1601454721.7604,112
1601454721.7623,110
1601454721.7643,110
1601454721.7663,117
1601454721.7670,120
1601454721.7683,122
1601454721.7703,122
1601454721.7723,125
1601454721.7743,125
1601454721.7763,127
1601454721.7783,127
1601454721.7803,125
1601454721.7823,127
1601454721.7843,127
1601454721.7863,125
1601454721.7883,125
1601454721.7903,130
1601454721.7923,127
1601454721.7943,125
1601454721.7963,120
1601454721.7970,120
1601454721.7984,122
1601454721.8003,127
1601454721.8023,125
1601454721.8043,122
1601454721.8063,125
1601454721.8083,122
1601454721.8102,120
1601454721.8123,125
1601454721.8143,130
1601454721.8163,130
1601454721.8183,127
1601454721.8202,127
1601454721.8222,125
1601454721.8243,127
1601454721.8263,130
1601454721.8270,130
1601454721.8293,127
1601454721.8313,130
1601454721.8332,127
1601454721.8352,125
1601454721.8373,122
1601454721.8393,120
1601454721.8413,115
1601454721.8433,107
1601454722.2781,105
1601454722.2788,110
1601454722.2812,110
1601454722.2838,110
1601454722.2858,115
1601454722.2878,117
1601454722.2898,110
1601454722.2918,103
1601454722.2937,105
1601454722.2957,110
1601454722.2978,103
1601454722.2997,93
1601454722.3017,93
1601454722.3037,98
1601454722.3057,98
1601454722.3078,98
1601454722.3085,98
1601454722.3107,88
1601454722.3127,73
1601454722.3148,31
1601454722.3167,-14
1601454722.3188,58
1601454722.3207,299
1601454722.3228,468
1601454722.3247,343
1601454722.3268,186
1601454722.3288,230
1601454722.3307,213
1601454722.3327,63
1601454722.3348,26
1601454722.3367,66
1601454722.3388,56
1601454722.3408,44
1601454722.3428,58
1601454722.3447,61
1601454722.3467,56
1601454722.3487,63
1601454722.3508,68
1601454722.3528,66
1601454722.3547,73
1601454722.3567,80
1601454722.3587,78
1601454722.3608,78
1601454722.3627,85
1601454722.3648,90
1601454722.3668,93
1601454722.3688,93
1601454722.3707,93
1601454722.3728,95
1601454722.3748,103
1601454722.3767,107
1601454722.3788,112
1601454722.3808,117
1601454722.3828,120
1601454722.3848,127
1601454722.3868,139
1601454722.3887,149
1601454722.3908,154
1601454722.3928,164
1601454722.3947,176
1601454722.3968,184
1601454722.3987,188
1601454722.4008,184
1601454722.4028,176
1601454722.4048,166
1601454722.4068,147
1601454722.4088,122
1601454722.4107,105
1601454722.4127,90
1601454722.4148,76
1601454722.4167,63
1601454722.4188,61
1601454722.4207,58
1601454722.8176,58
1601454722.8182,61
1601454722.8207,63
1601454722.8232,63
1601454722.8252,61
1601454722.8272,66
1601454722.8293,71
1601454722.8312,66
1601454722.8333,56
1601454722.8352,61
1601454722.8372,71
1601454722.8392,71
1601454722.8412,73
1601454722.8432,80
1601454722.8452,80
1601454722.8472,83
1601454722.8492,88
1601454722.8513,90
1601454722.8533,95
1601454722.8552,95
1601454722.8572,98
1601454722.8592,100
1601454722.8612,100
1601454722.8632,100
1601454722.8652,100
1601454722.8672,103
1601454722.8692,105
1601454722.8712,103
1601454722.8732,100
1601454722.8752,100
1601454722.8772,103
1601454722.8792,100
1601454722.8812,103
1601454722.8832,107
1601454722.8852,105
1601454722.8872,103
1601454722.8893,105
1601454722.8912,110
1601454722.8933,110
1601454722.8952,110
1601454722.8972,110
1601454722.8992,112
1601454722.9012,115
1601454722.9032,112
1601454722.9053,117
1601454722.9072,120
1601454722.9092,112
1601454722.9112,112
1601454722.9132,117
1601454722.9152,120
1601454722.9172,117
1601454722.9192,117
1601454722.9212,117
1601454722.9232,117
1601454722.9252,115
1601454722.9272,107
1601454722.9292,110
1601454722.9312,115
1601454722.9332,110
1601454722.9352,107
1601454722.9372,105
1601454722.9393,100
1601454722.9412,98
1601454722.9432,100
1601454722.9452,100
1601454722.9472,105
1601454722.9492,115
1601454722.9512,122
1601454722.9532,122
1601454722.9552,117
1601454722.9572,117
1601454722.9592,115
1601454722.9612,112
1601454723.4477,105
1601454723.4486,105
1601454723.4501,105
1601454723.4521,103
1601454723.4541,98
1601454723.4561,90
1601454723.4581,85
1601454723.4601,58
1601454723.4621,-7
1601454723.4641,-7
1601454723.4661,196
1601454723.4681,476
1601454723.4701,502
1601454723.4721,299
1601454723.4740,215
1601454723.4761,230
1601454723.4780,115
1601454723.4801,12
1601454723.4821,41
1601454723.4840,58
1601454723.4860,29
1601454723.4880,34
1601454723.4901,53
1601454723.4920,51
1601454723.4941,53
1601454723.4960,61
1601454723.4980,63
1601454723.5000,63
1601454723.5020,68
1601454723.5040,71
1601454723.5060,73
1601454723.5080,78
1601454723.5100,80
1601454723.5120,80
1601454723.5140,85
1601454723.5160,90
1601454723.5180,90
1601454723.5200,95
1601454723.5220,100
1601454723.5240,103
1601454723.5260,103
1601454723.5280,112
1601454723.5300,117
1601454723.5320,122
1601454723.5340,127
1601454723.5360,139
1601454723.5380,147
1601454723.5401,152
1601454723.5420,157
1601454723.5440,166
1601454723.5460,171
1601454723.5480,169
1601454723.5500,166
1601454723.5520,159
1601454723.5540,147
1601454723.5560,122
1601454723.5580,100
1601454723.5600,85
1601454723.5620,78
1601454723.5640,71
1601454723.5660,68
1601454723.5680,71
1601454723.5700,71
1601454723.5720,66
1601454723.5740,68
1601454723.5760,73
1601454723.5780,78
1601454723.5800,78
1601454723.5820,80
1601454723.5840,83
1601454723.5860,83
1601454723.5880,85
1601454723.5900,90
1601454723.9580,95
1601454723.9586,95
1601454723.9610,95
1601454723.9636,98
1601454723.9656,103
1601454723.9676,105
1601454723.9696,107
1601454723.9716,110
1601454723.9736,112
1601454723.9756,112
1601454723.9776,110
1601454723.9796,107
1601454723.9816,107
1601454723.9837,105
1601454723.9856,93
1601454723.9876,90
1601454723.9896,98
1601454723.9916,98
1601454723.9937,95
1601454723.9956,98
1601454723.9976,100
1601454723.9996,100
1601454724.0016,103
1601454724.0036,105
1601454724.0056,105
1601454724.0076,103
1601454724.0096,105
1601454724.0117,105
1601454724.0136,107
1601454724.0156,110
1601454724.0176,110
1601454724.0196,110
1601454724.0216,110
1601454724.0236,107
1601454724.0256,107
1601454724.0276,112
1601454724.0296,112
1601454724.0316,112
1601454724.0336,112
1601454724.0356,112
1601454724.0376,107
1601454724.0396,100
1601454724.0416,100
1601454724.0436,98
1601454724.0456,95
1601454724.0476,100
1601454724.0496,103
1601454724.0516,103
1601454724.0536,105
1601454724.0556,103
1601454724.0576,98
1601454724.0596,100
1601454724.0616,103
1601454724.0636,100
1601454724.0656,98
1601454724.0676,100
1601454724.0696,98
1601454724.0716,100
1601454724.0736,107
1601454724.0756,120
1601454724.0776,125
1601454724.0796,117
1601454724.0815,115
1601454724.0836,120
1601454724.0856,117
1601454724.0876,107
1601454724.0896,100
1601454724.0916,100
1601454724.0936,98
1601454724.0956,95
1601454724.0976,98
1601454724.0996,100
1601454724.1016,90
1601454724.5278,44
1601454724.5284,-17
1601454724.5302,44
1601454724.5321,299
1601454724.5342,527
1601454724.5361,449
1601454724.5381,245
1601454724.5401,208
1601454724.5421,181
1601454724.5441,49
1601454724.5461,2
1601454724.5481,41
1601454724.5501,39
1601454724.5521,24
1601454724.5541,39
1601454724.5561,44
1601454724.5581,44
1601454724.5601,53
1601454724.5621,56
1601454724.5641,56
1601454724.5661,61
1601454724.5681,68
1601454724.5701,68
1601454724.5722,73
1601454724.5741,76
1601454724.5761,76
1601454724.5781,78
1601454724.5801,83
1601454724.5821,85
1601454724.5841,90
1601454724.5861,93
1601454724.5881,90
1601454724.5901,90
1601454724.5921,88
1601454724.5941,90
1601454724.5961,95
1601454724.5981,105
1601454724.6001,115
1601454724.6021,122
1601454724.6041,132
1601454724.6061,142
1601454724.6081,152
1601454724.6102,157
1601454724.6121,159
1601454724.6141,164
1601454724.6161,161
1601454724.6181,149
1601454724.6201,132
1601454724.6221,115
1601454724.6241,98
1601454724.6261,83
1601454724.6281,76
1601454724.6301,73
1601454724.6321,71
1601454724.6341,68
1601454724.6361,66
1601454724.6381,68
1601454724.6401,73
1601454724.6421,76
1601454724.6441,78
1601454724.6461,80
1601454724.6481,80
1601454724.6501,83
1601454724.6521,88
1601454724.6541,93
1601454724.6561,90
1601454724.6581,88
1601454724.6601,90
1601454724.6621,98
1601454724.6641,100
1601454724.6661,100
1601454724.6681,103
1601454724.6701,107
1601454725.0978,105
1601454725.0984,105
1601454725.1008,110
1601454725.1034,110
1601454725.1054,110
1601454725.1074,107
1601454725.1095,110
1601454725.1114,110
1601454725.1134,100
1601454725.1154,93
1601454725.1174,95
1601454725.1194,100
1601454725.1214,98
1601454725.1234,98
1601454725.1254,105
1601454725.1274,105
1601454725.1294,103
1601454725.1314,103
1601454725.1334,105
1601454725.1354,105
1601454725.1374,105
1601454725.1394,107
1601454725.1414,107
1601454725.1434,107
1601454725.1454,105
1601454725.1475,100
1601454725.1494,100
1601454725.1514,103
1601454725.1534,103
1601454725.1554,103
1601454725.1574,105
1601454725.1594,103
1601454725.1614,103
1601454725.1634,107
1601454725.1654,112
1601454725.1674,107
1601454725.1694,105
1601454725.1714,107
1601454725.1734,110
1601454725.1754,107
1601454725.1774,107
1601454725.1794,107
1601454725.1814,103
1601454725.1834,103
1601454725.1854,105
1601454725.1874,105
1601454725.1894,103
1601454725.1914,103
1601454725.1934,103
1601454725.1954,105
1601454725.1974,115
1601454725.1994,122
1601454725.2014,125
1601454725.2033,120
1601454725.2054,120
1601454725.2074,117
1601454725.2094,107
1601454725.2114,98
1601454725.2134,93
1601454725.2154,90
1601454725.2174,90
1601454725.2194,90
1601454725.2214,93
1601454725.2234,93
1601454725.2254,83
1601454725.2274,36
1601454725.2294,-14
1601454725.2314,61
1601454725.2334,323
1601454725.2354,520
1601454725.2374,412
1601454725.2394,223
1601454725.2414,215
1601454725.6676,191
1601454725.6682,58
1601454725.6706,19
1601454725.6734,61
1601454725.6753,51
1601454725.6773,36
1601454725.6794,51
1601454725.6813,58
1601454725.6833,58
1601454725.6853,53
1601454725.6873,49
1601454725.6893,53
1601454725.6913,58
1601454725.6932,61
1601454725.6952,63
1601454725.6973,63
1601454725.6992,61
1601454725.7013,61
1601454725.7033,61
1601454725.7052,66
1601454725.7073,68
1601454725.7093,71
1601454725.7113,76
1601454725.7133,80
1601454725.7152,85
1601454725.7173,90
1601454725.7193,95
1601454725.7213,103
1601454725.7233,110
1601454725.7253,120
1601454725.7272,130
1601454725.7293,139
1601454725.7313,149
1601454725.7332,154
1601454725.7352,159
1601454725.7373,164
1601454725.7393,164
1601454725.7413,161
1601454725.7433,152
1601454725.7453,132
1601454725.7473,112
1601454725.7492,95
1601454725.7513,85
1601454725.7532,78
1601454725.7552,73
1601454725.7573,68
1601454725.7592,68
1601454725.7613,68
1601454725.7633,63
1601454725.7652,66
1601454725.7673,71
1601454725.7692,73
1601454725.7712,76
1601454725.7732,78
1601454725.7753,80
1601454725.7773,85
1601454725.7793,85
1601454725.7812,85
1601454725.7832,93
1601454725.7852,98
1601454725.7873,93
1601454725.7893,98
1601454725.7912,107
1601454725.7933,107
1601454725.7952,103
1601454725.7973,105
1601454725.7993,110
1601454725.8013,110
1601454725.8032,110
1601454725.8052,112
1601454725.8073,115
1601454725.8093,112
1601454725.8113,112
1601454726.1772,115
1601454726.1779,112
1601454726.1791,115
1601454726.1810,117
1601454726.1830,112
1601454726.1850,112
1601454726.1870,112
1601454726.1890,112
1601454726.1910,115
1601454726.1930,115
1601454726.1950,95
1601454726.1970,80
1601454726.1990,88
1601454726.2011,100
1601454726.2030,93
1601454726.2050,88
1601454726.2070,98
1601454726.2090,100
1601454726.2110,98
1601454726.2130,100
1601454726.2150,103
1601454726.2170,100
1601454726.2190,103
1601454726.2210,107
1601454726.2230,105
1601454726.2249,105
1601454726.2270,105
1601454726.2290,103
1601454726.2309,103
1601454726.2330,103
1601454726.2350,105
1601454726.2369,107
1601454726.2390,103
1601454726.2410,98
1601454726.2430,98
1601454726.2449,107
1601454726.2470,120
1601454726.2491,127
1601454726.2510,122
1601454726.2530,117
1601454726.2550,117
1601454726.2570,117
1601454726.2590,107
1601454726.2610,100
1601454726.2629,98
1601454726.2649,93
1601454726.2670,90
1601454726.2690,98
1601454726.2710,105
1601454726.2730,103
1601454726.2750,83
1601454726.2769,39
1601454726.2790,0
1601454726.2810,95
1601454726.2829,333
1601454726.2850,436
1601454726.2870,257
1601454726.2890,134
1601454726.2910,233
1601454726.2930,215
1601454726.2950,71
1601454726.2970,51
1601454726.2990,88
1601454726.3011,68
1601454726.3030,58
1601454726.3049,76
1601454726.3070,78
1601454726.3090,78
1601454726.3111,85
1601454726.3130,85
1601454726.3150,80
1601454726.3170,85
1601454726.3190,90
1601454726.7771,88
1601454726.7778,90
1601454726.7803,85
1601454726.7829,71
1601454726.7849,63
1601454726.7869,78
1601454726.7890,88
1601454726.7908,83
1601454726.7929,83
1601454726.7949,98
1601454726.7968,107
1601454726.7989,107
1601454726.8009,112
1601454726.8029,122
1601454726.8048,134
1601454726.8069,147
1601454726.8088,154
1601454726.8109,164
1601454726.8128,181
1601454726.8149,186
1601454726.8169,184
1601454726.8189,188
1601454726.8208,188
1601454726.8229,169
1601454726.8249,147
1601454726.8269,125
1601454726.8289,95
1601454726.8309,80
1601454726.8329,78
1601454726.8349,66
1601454726.8368,53
1601454726.8389,53
1601454726.8409,58
1601454726.8429,56
1601454726.8449,56
1601454726.8468,61
1601454726.8490,63
1601454726.8509,66
1601454726.8529,66
1601454726.8549,73
1601454726.8568,80
1601454726.8589,83
1601454726.8609,85
1601454726.8629,93
1601454726.8649,93
1601454726.8669,93
1601454726.8689,98
1601454726.8709,98
1601454726.8729,98
1601454726.8748,105
1601454726.8769,107
1601454726.8789,105
1601454726.8809,105
1601454726.8829,107
1601454726.8849,107
1601454726.8869,110
1601454726.8889,115
1601454726.8909,110
1601454726.8929,107
1601454726.8948,112
1601454726.8969,115
1601454726.8989,112
1601454726.9009,105
1601454726.9028,100
1601454726.9049,107
1601454726.9068,115
1601454726.9089,110
1601454726.9109,105
1601454726.9128,107
1601454726.9148,105
1601454726.9168,100
1601454726.9188,103
1601454726.9195,107
1601454727.3471,105
1601454727.3478,98
1601454727.3496,98
1601454727.3517,110
1601454727.3536,117
1601454727.3558,110
1601454727.3577,103
1601454727.3584,107
1601454727.3597,105
1601454727.3616,90
1601454727.3636,85
1601454727.3656,98
1601454727.3676,107
1601454727.3697,107
1601454727.3717,107
1601454727.3737,103
1601454727.3757,103
1601454727.3777,110
1601454727.3797,107
1601454727.3816,93
1601454727.3837,95
1601454727.3857,100
1601454727.3877,95
1601454727.3883,93
1601454727.3897,95
1601454727.3916,98
1601454727.3936,78
1601454727.3957,17
1601454727.3976,-4
1601454727.3997,147
1601454727.4017,385
1601454727.4036,404
1601454727.4057,201
1601454727.4077,164
1601454727.4097,267
1601454727.4116,169
1601454727.4136,29
1601454727.4156,51
1601454727.4176,73
1601454727.4183,41
1601454727.4196,44
1601454727.4217,63
1601454727.4237,58
1601454727.4257,58
1601454727.4276,68
1601454727.4297,71
1601454727.4317,68
1601454727.4336,68
1601454727.4356,76
1601454727.4376,80
1601454727.4397,80
1601454727.4416,78
1601454727.4437,78
1601454727.4456,78
1601454727.4476,83
1601454727.4484,85
1601454727.4496,83
1601454727.4516,90
1601454727.4538,98
1601454727.4557,95
1601454727.4577,98
1601454727.4597,105
1601454727.4616,115
1601454727.4636,125
1601454727.4656,132
1601454727.4676,144
1601454727.4696,161
1601454727.4716,166
1601454727.4736,171
1601454727.4757,181
1601454727.4763,179
1601454727.4776,164
1601454727.4796,152
1601454727.8871,132
1601454727.8877,105
1601454727.8886,80
1601454727.8907,68
1601454727.8927,63
1601454727.8947,61
1601454727.8967,63
1601454727.8986,58
1601454727.8993,51
1601454727.9006,49
1601454727.9026,46
1601454727.9046,41
1601454727.9067,39
1601454727.9087,44
1601454727.9106,46
1601454727.9126,53
1601454727.9146,58
1601454727.9166,61
1601454727.9186,63
1601454727.9206,66
1601454727.9226,73
1601454727.9246,78
1601454727.9266,76
1601454727.9286,76
1601454727.9293,83
1601454727.9306,90
1601454727.9326,93
1601454727.9346,93
1601454727.9366,93
1601454727.9386,95
1601454727.9406,95
1601454727.9426,93
1601454727.9446,100
1601454727.9466,100
1601454727.9486,93
1601454727.9506,98
1601454727.9526,105
1601454727.9546,100
1601454727.9566,95
1601454727.9586,103
1601454727.9593,105
1601454727.9606,105
1601454727.9626,105
1601454727.9646,103
1601454727.9666,98
1601454727.9686,95
1601454727.9706,98
1601454727.9726,100
1601454727.9746,100
1601454727.9766,100
1601454727.9786,98
1601454727.9806,100
1601454727.9826,100
1601454727.9846,95
1601454727.9865,90
1601454727.9886,85
1601454727.9893,85
1601454727.9906,95
1601454727.9926,105
1601454727.9946,110
1601454727.9966,110
1601454727.9986,110
1601454728.0006,112
1601454728.0026,107
1601454728.0047,100
1601454728.0066,95
1601454728.0086,103
1601454728.0106,107
1601454728.0126,98
1601454728.0146,98
1601454728.0166,105
1601454728.0186,105
1601454728.0193,73
1601454728.4574,12
1601454728.4581,0
1601454728.4605,164
1601454728.4631,419
1601454728.4651,456
1601454728.4671,262
1601454728.4691,203
1601454728.4711,255
1601454728.4718,139
1601454728.4731,9
1601454728.4751,34
1601454728.4771,58
1601454728.4791,31
1601454728.4811,34
1601454728.4831,49
1601454728.4851,44
1601454728.4871,44
1601454728.4891,53
1601454728.4911,53
1601454728.4931,51
1601454728.4951,61
1601454728.4971,66
1601454728.4991,61
1601454728.5011,61
1601454728.5018,63
1601454728.5031,66
1601454728.5051,66
1601454728.5071,61
1601454728.5091,63
1601454728.5111,68
1601454728.5131,71
1601454728.5151,73
1601454728.5171,80
1601454728.5191,88
1601454728.5211,93
1601454728.5231,98
1601454728.5251,105
1601454728.5271,117
1601454728.5291,132
1601454728.5311,144
1601454728.5318,152
1601454728.5331,159
1601454728.5351,164
1601454728.5371,164
1601454728.5391,154
1601454728.5411,134
1601454728.5431,107
1601454728.5451,80
1601454728.5470,66
1601454728.5491,53
1601454728.5511,44
1601454728.5531,39
1601454728.5550,39
1601454728.5571,41
1601454728.5591,39
1601454728.5611,41
1601454728.5618,49
1601454728.5630,51
1601454728.5650,51
1601454728.5671,53
1601454728.5692,56
1601454728.5711,56
1601454728.5730,58
1601454728.5750,63
1601454728.5770,66
1601454728.5791,68
1601454728.5810,71
1601454728.5831,71
1601454728.5851,68
1601454728.5870,71
1601454728.5891,78
1601454728.5911,80
1601454728.5930,83
1601454728.9974,85
1601454728.9980,85
1601454729.0004,88
1601454729.0030,90
1601454729.0050,90
1601454729.0071,88
1601454729.0090,90
1601454729.0110,93
1601454729.0130,83
1601454729.0150,76
1601454729.0170,80
1601454729.0190,83
1601454729.0210,78
1601454729.0230,80
1601454729.0250,88
1601454729.0270,88
1601454729.0290,85
1601454729.0310,85
1601454729.0330,90
1601454729.0350,90
1601454729.0370,90
1601454729.0390,90
1601454729.0410,95
1601454729.0430,95
1601454729.0450,93
1601454729.0470,93
1601454729.0490,90
1601454729.0510,90
1601454729.0530,90
1601454729.0550,90
1601454729.0570,90
1601454729.0590,90
1601454729.0610,90
1601454729.0630,90
1601454729.0651,88
1601454729.0670,88
1601454729.0690,93
1601454729.0710,105
1601454729.0730,112
1601454729.0750,105
1601454729.0770,98
1601454729.0790,98
1601454729.0810,95
1601454729.0830,88
1601454729.0850,85
1601454729.0870,90
1601454729.0890,93
1601454729.0910,90
1601454729.0930,88
1601454729.0950,93
1601454729.0970,90
1601454729.0990,53
1601454729.1010,-9
1601454729.1030,17
1601454729.1050,247
1601454729.1070,512
1601454729.1091,485
1601454729.1110,274
1601454729.1130,225
1601454729.1150,220
1601454729.1170,83
1601454729.1191,7
1601454729.1209,46
1601454729.1230,51
1601454729.1249,26
1601454729.1270,39
1601454729.1290,51
1601454729.1309,49
1601454729.1330,51
1601454729.1350,58
1601454729.1370,58
1601454729.1390,56
1601454729.1410,58
1601454729.5371,61
1601454729.5377,63
1601454729.5402,66
1601454729.5427,66
1601454729.5447,63
1601454729.5467,61
1601454729.5488,56
1601454729.5507,58
1601454729.5527,66
1601454729.5547,68
1601454729.5567,68
1601454729.5588,76
1601454729.5608,85
1601454729.5627,90
1601454729.5647,95
1601454729.5667,105
1601454729.5687,112
1601454729.5707,120
1601454729.5727,127
1601454729.5747,134
1601454729.5767,144
1601454729.5787,149
1601454729.5807,147
1601454729.5827,139
1601454729.5847,122
1601454729.5867,100
1601454729.5887,78
1601454729.5907,63
1601454729.5927,51
1601454729.5947,44
1601454729.5967,41
1601454729.5987,39
1601454729.6007,31
1601454729.6027,26
1601454729.6047,29
1601454729.6067,39
1601454729.6088,41
1601454729.6107,41
1601454729.6127,44
1601454729.6147,46
1601454729.6167,49
1601454729.6188,49
1601454729.6263,51
1601454729.6277,56
1601454729.6297,56
1601454729.6317,61
1601454729.6337,66
1601454729.6357,68
1601454729.6377,71
1601454729.6397,73
1601454729.6417,73
1601454729.6437,78
1601454729.6457,80
1601454729.6477,83
1601454729.6497,85
1601454729.6517,88
1601454729.6537,88
1601454729.6557,88
1601454729.6576,90
1601454729.6597,93
1601454729.6617,95
1601454729.6637,93
1601454729.6657,93
1601454729.6677,98
1601454729.6697,95
1601454729.6717,93
1601454729.6738,98
1601454729.6757,100
1601454729.6777,98
1601454729.6797,98
1601454729.6817,98
1601454729.6837,98
1601454729.6857,100
1601454730.1369,103
1601454730.1375,103
1601454730.1399,100
1601454730.1426,88
1601454730.1446,83
1601454730.1465,93
1601454730.1486,95
1601454730.1506,90
1601454730.1526,88
1601454730.1546,85
1601454730.1566,85
1601454730.1586,88
1601454730.1606,90
1601454730.1625,93
1601454730.1646,93
1601454730.1666,90
1601454730.1686,95
1601454730.1705,98
1601454730.1725,98
1601454730.1745,98
1601454730.1766,100
1601454730.1786,98
1601454730.1805,93
1601454730.1825,93
1601454730.1845,90
1601454730.1865,90
1601454730.1886,95
1601454730.1905,105
1601454730.1925,110
1601454730.1946,105
1601454730.1966,105
1601454730.1985,107
1601454730.2005,100
1601454730.2025,93
1601454730.2045,95
1601454730.2065,95
1601454730.2086,95
1601454730.2105,98
1601454730.2125,100
1601454730.2145,100
1601454730.2165,93
1601454730.2186,51
1601454730.2205,-9
1601454730.2225,22
1601454730.2245,255
1601454730.2265,529
1601454730.2285,517
1601454730.2305,299
1601454730.2326,225
1601454730.2345,218
1601454730.2365,85
1601454730.2386,4
1601454730.2405,46
1601454730.2425,56
1601454730.2446,29
1601454730.2465,41
1601454730.2485,53
1601454730.2505,44
1601454730.2525,46
1601454730.2545,56
1601454730.2565,53
1601454730.2585,56
1601454730.2605,61
1601454730.2625,61
1601454730.2645,63
1601454730.2665,66
1601454730.2687,68
1601454730.2705,73
1601454730.2725,76
1601454730.2745,76
1601454730.2765,76
1601454730.2785,80
1601454730.2805,78
1601454730.7673,76
1601454730.7679,80
1601454730.7703,83
1601454730.7729,85
1601454730.7749,90
1601454730.7769,98
1601454730.7790,110
1601454730.7809,117
1601454730.7829,115
1601454730.7849,120
1601454730.7869,134
1601454730.7890,139
1601454730.7909,137
1601454730.7929,134
1601454730.7949,125
1601454730.7969,103
1601454730.7989,80
1601454730.8009,58
1601454730.8029,41
1601454730.8049,34
1601454730.8069,29
1601454730.8089,29
1601454730.8109,31
1601454730.8129,31
1601454730.8149,34
1601454730.8169,39
1601454730.8189,41
1601454730.8209,44
1601454730.8229,49
1601454730.8249,51
1601454730.8269,53
1601454730.8289,53
1601454730.8309,53
1601454730.8329,56
1601454730.8349,58
1601454730.8369,61
1601454730.8389,61
1601454730.8409,66
1601454730.8429,73
1601454730.8450,73
1601454730.8469,76
1601454730.8489,80
1601454730.8509,85
1601454730.8529,88
1601454730.8549,85
1601454730.8569,88
1601454730.8589,93
1601454730.8609,93
1601454730.8629,93
1601454730.8649,95
1601454730.8669,95
1601454730.8689,93
1601454730.8709,95
1601454730.8729,98
1601454730.8749,98
1601454730.8769,98
1601454730.8789,98
1601454730.8809,100
1601454730.8829,98
1601454730.8849,98
1601454730.8869,103
1601454730.8889,105
1601454730.8909,103
1601454730.8929,100
1601454730.8949,100
1601454730.8969,100
1601454730.8989,100
1601454730.9009,100
1601454730.9029,103
1601454730.9049,103
1601454730.9069,100
1601454730.9089,100
1601454730.9109,105
1601454731.2769,105
1601454731.2778,100
1601454731.2802,100
1601454731.2828,103
1601454731.2848,105
1601454731.2868,105
1601454731.2888,103
1601454731.2908,103
1601454731.2928,105
1601454731.2948,103
1601454731.2968,98
1601454731.2988,98
1601454731.3008,98
1601454731.3028,95
1601454731.3048,95
1601454731.3068,103
1601454731.3088,100
1601454731.3109,85
1601454731.3128,80
1601454731.3148,85
1601454731.3168,85
1601454731.3188,85
1601454731.3208,93
1601454731.3228,100
1601454731.3248,100
1601454731.3268,98
1601454731.3288,98
1601454731.3308,103
1601454731.3328,100
1601454731.3347,90
1601454731.3368,88
1601454731.3388,90
1601454731.3408,90
1601454731.3428,88
1601454731.3447,88
1601454731.3467,93
1601454731.3487,93
1601454731.3507,68
1601454731.3527,12
1601454731.3548,-17
1601454731.3567,127
1601454731.3587,424
1601454731.3608,554
1601454731.3627,375
1601454731.3648,215
1601454731.3668,225
1601454731.3688,149
1601454731.3708,17
1601454731.3727,19
1601454731.3747,53
1601454731.3768,29
1601454731.3788,24
1601454731.3808,39
1601454731.3828,36
1601454731.3849,31
1601454731.3867,36
1601454731.3888,39
1601454731.3908,41
1601454731.3928,46
1601454731.3947,49
1601454731.3967,51
1601454731.3987,53
1601454731.4007,56
1601454731.4027,58
1601454731.4047,61
1601454731.4067,63
1601454731.4088,66
1601454731.4108,68
1601454731.4127,68
1601454731.4147,76
1601454731.4167,80
1601454731.4188,85
1601454731.4207,88
1601454731.8168,95
1601454731.8174,107
1601454731.8197,115
1601454731.8224,117
1601454731.8244,127
1601454731.8264,139
1601454731.8285,147
1601454731.8304,149
1601454731.8324,159
1601454731.8344,157
1601454731.8364,134
1601454731.8385,110
1601454731.8404,95
1601454731.8424,76
1601454731.8444,53
1601454731.8464,46
1601454731.8484,44
1601454731.8504,34
1601454731.8524,34
1601454731.8544,39
1601454731.8564,44
1601454731.8584,44
1601454731.8604,46
1601454731.8624,49
1601454731.8644,51
1601454731.8664,53
1601454731.8684,56
1601454731.8704,58
1601454731.8724,63
1601454731.8744,66
1601454731.8764,66
1601454731.8784,68
1601454731.8804,76
1601454731.8824,78
1601454731.8845,78
1601454731.8863,80
1601454731.8884,83
1601454731.8904,85
1601454731.8924,90
1601454731.8944,95
1601454731.8964,98
1601454731.8983,95
1601454731.9004,95
1601454731.9023,98
1601454731.9044,100
1601454731.9064,100
1601454731.9084,95
1601454731.9103,93
1601454731.9124,95
1601454731.9143,98
1601454731.9163,100
1601454731.9184,103
1601454731.9203,100
1601454731.9223,98
1601454731.9244,103
1601454731.9263,105
1601454731.9284,100
1601454731.9303,100
1601454731.9324,107
1601454731.9344,110
1601454731.9364,103
1601454731.9384,100
1601454731.9404,103
1601454731.9424,105
1601454731.9444,107
1601454731.9464,105
1601454731.9483,103
1601454731.9504,103
1601454731.9524,105
1601454731.9544,103
1601454731.9564,98
1601454731.9584,103
1601454731.9604,100
1601454732.3571,95
1601454732.3577,100
1601454732.3601,105
1601454732.3627,103
1601454732.3648,103
1601454732.3667,100
1601454732.3688,95
1601454732.3708,85
1601454732.3728,78
1601454732.3747,83
1601454732.3767,88
1601454732.3788,80
1601454732.3808,80
1601454732.3828,90
1601454732.3848,90
1601454732.3868,83
1601454732.3888,85
1601454732.3907,88
1601454732.3928,85
1601454732.3947,85
1601454732.3967,90
1601454732.3987,93
1601454732.4007,93
1601454732.4027,98
1601454732.4047,103
1601454732.4067,95
1601454732.4088,93
1601454732.4107,98
1601454732.4127,90
1601454732.4147,80
1601454732.4167,78
1601454732.4188,83
1601454732.4207,88
1601454732.4228,88
1601454732.4247,88
1601454732.4267,88
1601454732.4288,78
1601454732.4307,34
1601454732.4327,-22
1601454732.4348,39
1601454732.4367,274
1601454732.4388,458
1601454732.4408,341
1601454732.4427,159
1601454732.4447,206
1601454732.4467,223
1601454732.4487,76
1601454732.4507,19
1601454732.4528,63
1601454732.4547,58
1601454732.4567,39
1601454732.4588,51
1601454732.4607,61
1601454732.4627,58
1601454732.4647,58
1601454732.4667,63
1601454732.4688,66
1601454732.4708,73
1601454732.4727,76
1601454732.4747,76
1601454732.4768,80
1601454732.4788,76
1601454732.4807,68
1601454732.4827,76
1601454732.4847,83
1601454732.4867,80
1601454732.4888,83
1601454732.4907,90
1601454732.4927,93
1601454732.4947,93
1601454732.4967,95
1601454732.4987,103
1601454732.5007,112
1601454732.9271,122
1601454732.9277,132
1601454732.9301,144
1601454732.9328,157
1601454732.9347,154
1601454732.9368,152
1601454732.9388,166
1601454732.9408,181
1601454732.9428,174
1601454732.9448,159
1601454732.9467,142
1601454732.9488,122
1601454732.9507,98
1601454732.9527,83
1601454732.9547,73
1601454732.9568,61
1601454732.9588,53
1601454732.9608,51
1601454732.9628,53
1601454732.9648,56
1601454732.9668,58
1601454732.9688,58
1601454732.9708,58
1601454732.9727,61
1601454732.9748,61
1601454732.9767,63
1601454732.9787,71
1601454732.9807,71
1601454732.9827,66
1601454732.9847,76
1601454732.9867,83
1601454732.9888,85
1601454732.9907,85
1601454732.9927,88
1601454732.9947,88
1601454732.9967,93
1601454732.9987,98
1601454733.0007,100
1601454733.0027,100
1601454733.0047,98
1601454733.0067,95
1601454733.0088,100
1601454733.0107,105
1601454733.0127,105
1601454733.0147,100
1601454733.0168,98
1601454733.0188,103
1601454733.0208,103
1601454733.0228,100
1601454733.0247,103
1601454733.0267,100
1601454733.0287,98
1601454733.0307,105
1601454733.0327,107
1601454733.0347,93
1601454733.0367,83
1601454733.0387,95
1601454733.0407,100
1601454733.0427,88
1601454733.0447,80
1601454733.0467,90
1601454733.0487,95
1601454733.0507,85
1601454733.0528,83
1601454733.0547,88
1601454733.0567,93
1601454733.0587,90
1601454733.0608,88
1601454733.0627,90
1601454733.0647,95
1601454733.0667,93
1601454733.0688,90
1601454733.0707,93
1601454733.5271,90
1601454733.5277,90
1601454733.5291,90
1601454733.5311,85
1601454733.5331,80
1601454733.5351,80
1601454733.5372,73
1601454733.5392,66
1601454733.5411,68
1601454733.5431,71
1601454733.5451,68
1601454733.5471,76
1601454733.5491,85
1601454733.5511,93
1601454733.5531,93
1601454733.5551,88
1601454733.5571,88
1601454733.5591,90
1601454733.5611,83
1601454733.5631,76
1601454733.5652,73
1601454733.5671,73
1601454733.5692,76
1601454733.5711,83
1601454733.5731,85
1601454733.5751,83
1601454733.5770,58
1601454733.5791,-2
1601454733.5810,-17
1601454733.5831,139
1601454733.5850,382
1601454733.5871,407
1601454733.5891,215
1601454733.5911,171
1601454733.5931,252
1601454733.5951,157
1601454733.5971,29
1601454733.5991,41
1601454733.6011,66
1601454733.6031,46
1601454733.6052,46
1601454733.6070,58
1601454733.6091,61
1601454733.6111,63
1601454733.6131,68
1601454733.6150,63
1601454733.6170,61
1601454733.6191,63
1601454733.6197,66
1601454733.6210,68
1601454733.6231,71
1601454733.6250,68
1601454733.6271,66
1601454733.6291,68
1601454733.6310,76
1601454733.6330,80
1601454733.6351,83
1601454733.6371,85
1601454733.6391,88
1601454733.6411,93
1601454733.6431,105
1601454733.6450,112
1601454733.6471,115
1601454733.6490,120
1601454733.6497,132
1601454733.6510,149
1601454733.6530,164
1601454733.6550,171
1601454733.6570,174
1601454733.6591,176
1601454733.6610,181
1601454733.6630,179
1601454733.6650,164
1601454734.0670,142
1601454734.0676,120
1601454734.0680,98
1601454734.0701,78
1601454734.0721,68
1601454734.0742,63
1601454734.0761,61
1601454734.0782,56
1601454734.0801,56
1601454734.0821,51
1601454734.0841,44
1601454734.0861,39
1601454734.0882,41
1601454734.0901,46
1601454734.0921,46
1601454734.0941,46
1601454734.0961,49
1601454734.0981,56
1601454734.0987,63
1601454734.1001,66
1601454734.1021,66
1601454734.1041,68
1601454734.1061,73
1601454734.1082,78
1601454734.1101,80
1601454734.1121,85
1601454734.1141,85
1601454734.1161,83
1601454734.1181,85
1601454734.1201,93
1601454734.1221,93
1601454734.1241,90
1601454734.1261,90
1601454734.1281,93
1601454734.1287,90
1601454734.1301,90
1601454734.1321,93
1601454734.1341,90
1601454734.1361,90
1601454734.1381,90
1601454734.1401,88
1601454734.1421,80
1601454734.1441,78
1601454734.1461,80
1601454734.1481,85
1601454734.1501,85
1601454734.1521,85
1601454734.1541,83
1601454734.1561,80
1601454734.1582,85
1601454734.1587,88
1601454734.1601,88
1601454734.1621,83
1601454734.1641,83
1601454734.1661,83
1601454734.1681,85
1601454734.1701,88
1601454734.1721,88
1601454734.1741,88
1601454734.1761,88
1601454734.1781,90
1601454734.1801,90
1601454734.1821,85
1601454734.1841,85
1601454734.1861,85
1601454734.1882,80
1601454734.1887,78
1601454734.1901,80
1601454734.1921,78
1601454734.1941,73
1601454734.1961,76
1601454734.1981,85
1601454734.2001,93
1601454734.6370,90
1601454734.6377,83
1601454734.6400,88
1601454734.6412,93
1601454734.6427,80
1601454734.6447,73
1601454734.6467,80
1601454734.6487,78
1601454734.6507,63
1601454734.6527,61
1601454734.6547,71
1601454734.6567,68
1601454734.6587,41
1601454734.6607,-17
1601454734.6626,-26
1601454734.6646,139
1601454734.6666,402
1601454734.6687,441
1601454734.6707,250
1601454734.6712,186
1601454734.6727,235
1601454734.6746,127
1601454734.6766,7
1601454734.6787,26
1601454734.6807,46
1601454734.6827,24
1601454734.6846,31
1601454734.6866,46
1601454734.6887,39
1601454734.6906,39
1601454734.6926,51
1601454734.6946,51
1601454734.6966,44
1601454734.6986,44
1601454734.7006,46
1601454734.7013,49
1601454734.7026,56
1601454734.7046,58
1601454734.7067,58
1601454734.7087,58
1601454734.7106,61
1601454734.7126,66
1601454734.7146,73
1601454734.7166,78
1601454734.7187,78
1601454734.7206,83
1601454734.7227,90
1601454734.7246,95
1601454734.7266,103
1601454734.7286,110
1601454734.7307,122
1601454734.7313,132
1601454734.7327,144
1601454734.7346,157
1601454734.7366,161
1601454734.7386,161
1601454734.7407,166
1601454734.7426,171
1601454734.7447,159
1601454734.7466,137
1601454734.7487,115
1601454734.7506,95
1601454734.7526,76
1601454734.7546,63
1601454734.7567,56
1601454734.7587,51
1601454734.7606,44
1601454734.7613,44
1601454734.7626,49
1601454734.7646,51
1601454734.7666,51
1601454734.7686,49
1601454734.7706,51
1601454735.1770,53
1601454735.1776,58
1601454735.1780,61
1601454735.1793,63
1601454735.1813,61
1601454735.1833,63
1601454735.1853,71
1601454735.1873,73
1601454735.1893,71
1601454735.1913,63
1601454735.1933,61
1601454735.1953,66
1601454735.1973,68
1601454735.1993,68
1601454735.2013,73
1601454735.2033,73
1601454735.2053,73
1601454735.2073,76
1601454735.2080,76
1601454735.2093,78
1601454735.2113,80
1601454735.2133,80
1601454735.2153,80
1601454735.2173,83
1601454735.2193,76
1601454735.2213,68
1601454735.2233,71
1601454735.2253,80
1601454735.2273,80
1601454735.2293,78
1601454735.2313,78
1601454735.2333,80
1601454735.2353,83
1601454735.2373,80
1601454735.2380,83
1601454735.2394,85
1601454735.2413,85
1601454735.2433,85
1601454735.2453,90
1601454735.2473,90
1601454735.2493,88
1601454735.2513,88
1601454735.2533,90
1601454735.2553,93
1601454735.2573,90
1601454735.2593,88
1601454735.2613,88
1601454735.2633,90
1601454735.2653,88
1601454735.2673,88
1601454735.2694,88
1601454735.2713,88
1601454735.2733,85
1601454735.2753,88
1601454735.2773,88
1601454735.2793,85
1601454735.2813,83
1601454735.2833,83
1601454735.2853,83
1601454735.2873,85
1601454735.2893,90
1601454735.2913,95
1601454735.2933,93
1601454735.2953,85
1601454735.2973,85
1601454735.2993,85
1601454735.3013,78
1601454735.3033,71
1601454735.3053,73
1601454735.3073,78
1601454735.3094,76
1601454735.3113,76
1601454735.3133,76
1601454735.7465,73
1601454735.7471,36
1601454735.7496,-29
1601454735.7522,-7
1601454735.7542,225
1601454735.7562,495
1601454735.7582,471
1601454735.7603,255
1601454735.7622,196
1601454735.7642,198
1601454735.7662,61
1601454735.7682,-24
1601454735.7701,19
1601454735.7721,26
1601454735.7741,4
1601454735.7761,14
1601454735.7782,22
1601454735.7801,9
1601454735.7822,9
1601454735.7841,19
1601454735.7861,24
1601454735.7882,29
1601454735.7902,34
1601454735.7921,34
1601454735.7941,39
1601454735.7961,46
1601454735.7982,46
1601454735.8001,46
1601454735.8021,51
1601454735.8041,51
1601454735.8061,53
1601454735.8081,58
1601454735.8101,66
1601454735.8121,71
1601454735.8142,73
1601454735.8161,78
1601454735.8182,85
1601454735.8201,93
1601454735.8221,98
1601454735.8242,110
1601454735.8261,120
1601454735.8282,130
1601454735.8301,134
1601454735.8322,144
1601454735.8342,152
1601454735.8361,157
1601454735.8382,154
1601454735.8401,139
1601454735.8422,122
1601454735.8441,103
1601454735.8462,83
1601454735.8482,68
1601454735.8501,61
1601454735.8521,51
1601454735.8542,46
1601454735.8562,46
1601454735.8582,49
1601454735.8601,51
1601454735.8621,51
1601454735.8641,56
1601454735.8661,58
1601454735.8681,56
1601454735.8701,58
1601454735.8721,63
1601454735.8741,66
1601454735.8761,66
1601454735.8782,66
1601454735.8801,71
1601454735.8821,71
1601454735.8841,71
1601454735.8861,73
1601454735.8882,76
1601454735.8901,78
1601454736.2865,80
1601454736.2871,85
1601454736.2896,88
1601454736.2922,85
1601454736.2942,83
1601454736.2962,85
1601454736.2982,85
1601454736.3001,76
1601454736.3021,63
1601454736.3041,61
1601454736.3061,61
1601454736.3082,61
1601454736.3102,63
1601454736.3122,68
1601454736.3143,68
1601454736.3161,68
1601454736.3182,68
1601454736.3201,71
1601454736.3222,73
1601454736.3242,73
1601454736.3262,73
1601454736.3281,76
1601454736.3301,78
1601454736.3321,76
1601454736.3341,76
1601454736.3361,80
1601454736.3382,83
1601454736.3401,80
1601454736.3421,80
1601454736.3441,80
1601454736.3461,83
1601454736.3482,83
1601454736.3502,85
1601454736.3521,85
1601454736.3541,83
1601454736.3561,85
1601454736.3582,88
1601454736.3601,85
1601454736.3621,83
1601454736.3641,80
1601454736.3661,80
1601454736.3681,83
1601454736.3701,85
1601454736.3721,83
1601454736.3741,78
1601454736.3761,76
1601454736.3782,73
1601454736.3801,71
1601454736.3821,76
1601454736.3841,78
1601454736.3861,83
1601454736.3882,90
1601454736.3901,93
1601454736.3921,90
1601454736.3941,90
1601454736.3961,90
1601454736.3981,85
1601454736.4001,80
1601454736.4021,78
1601454736.4041,76
1601454736.4061,73
1601454736.4082,73
1601454736.4101,73
1601454736.4121,68
1601454736.4141,49
1601454736.4161,-7
1601454736.4182,-44
1601454736.4201,93
1601454736.4221,390
1601454736.4241,525
1601454736.4262,353
1601454736.4281,191
1601454736.4301,201
1601454736.8867,130
1601454736.8875,-4
1601454736.8900,-12
1601454736.8926,17
1601454736.8947,-7
1601454736.8966,-17
1601454736.8987,-2
1601454736.9006,4
1601454736.9026,2
1601454736.9047,4
1601454736.9066,9
1601454736.9086,17
1601454736.9106,22
1601454736.9126,24
1601454736.9146,26
1601454736.9166,29
1601454736.9186,31
1601454736.9206,36
1601454736.9226,44
1601454736.9245,46
1601454736.9265,44
1601454736.9286,46
1601454736.9305,51
1601454736.9326,58
1601454736.9346,61
1601454736.9365,63
1601454736.9386,71
1601454736.9406,78
1601454736.9426,83
1601454736.9445,90
1601454736.9466,95
1601454736.9486,107
1601454736.9506,117
1601454736.9526,122
1601454736.9545,130
1601454736.9565,137
1601454736.9585,137
1601454736.9605,134
1601454736.9612,122
1601454736.9625,100
1601454736.9645,80
1601454736.9665,68
1601454736.9686,56
1601454736.9705,49
1601454736.9725,41
1601454736.9745,39
1601454736.9766,39
1601454736.9786,41
1601454736.9805,44
1601454736.9826,46
1601454736.9846,51
1601454736.9866,49
1601454736.9885,49
1601454736.9905,51
1601454736.9912,53
1601454736.9925,56
1601454736.9946,56
1601454736.9965,58
1601454736.9985,61
1601454737.0005,63
1601454737.0026,61
1601454737.0045,63
1601454737.0066,63
1601454737.0086,63
1601454737.0106,66
1601454737.0125,71
1601454737.0145,76
1601454737.0165,73
1601454737.0186,66
1601454737.0206,66
1601454737.0212,71
1601454737.0225,71
1601454737.0246,73
1601454737.4268,76
1601454737.4276,73
1601454737.4299,71
1601454737.4326,73
1601454737.4346,78
1601454737.4366,76
1601454737.4373,76
1601454737.4387,76
1601454737.4406,76
1601454737.4426,71
1601454737.4446,63
1601454737.4466,61
1601454737.4486,68
1601454737.4506,71
1601454737.4526,66
1601454737.4546,68
1601454737.4566,71
1601454737.4586,71
1601454737.4606,71
1601454737.4626,71
1601454737.4646,68
1601454737.4666,66
1601454737.4672,68
1601454737.4686,71
1601454737.4706,71
1601454737.4726,71
1601454737.4746,71
1601454737.4766,73
1601454737.4786,73
1601454737.4806,73
1601454737.4827,73
1601454737.4846,78
1601454737.4866,78
1601454737.4886,73
1601454737.4906,66
1601454737.4926,68
1601454737.4946,71
1601454737.4966,71
1601454737.4973,73
1601454737.4986,80
1601454737.5006,90
1601454737.5026,88
1601454737.5046,85
1601454737.5066,88
1601454737.5086,85
1601454737.5106,76
1601454737.5126,71
1601454737.5146,76
1601454737.5166,73
1601454737.5186,66
1601454737.5206,68
1601454737.5226,68
1601454737.5247,61
1601454737.5266,39
1601454737.5273,-14
1601454737.5287,-41
1601454737.5306,100
1601454737.5325,382
1601454737.5346,495
1601454737.5365,318
1601454737.5386,171
1601454737.5406,186
1601454737.5426,107
1601454737.5446,-17
1601454737.5466,-9
1601454737.5486,24
1601454737.5506,2
1601454737.5525,-2
1601454737.5546,14
1601454737.5565,14
1601454737.5572,17
1601454737.5586,24
1601454737.5606,29
1601454737.9968,29
1601454737.9975,34
1601454737.9999,39
1601454738.0025,41
1601454738.0045,44
1601454738.0065,46
1601454738.0086,49
1601454738.0105,41
1601454738.0112,36
1601454738.0124,44
1601454738.0145,49
1601454738.0165,51
1601454738.0185,53
1601454738.0205,58
1601454738.0225,63
1601454738.0245,66
1601454738.0264,73
1601454738.0285,85
1601454738.0305,95
1601454738.0325,100
1601454738.0345,110
1601454738.0365,122
1601454738.0385,130
1601454738.0405,134
1601454738.0411,142
1601454738.0424,142
1601454738.0445,137
1601454738.0465,122
1601454738.0485,105
1601454738.0505,88
1601454738.0525,71
1601454738.0545,58
1601454738.0564,51
1601454738.0585,46
1601454738.0604,44
1601454738.0625,44
1601454738.0645,49
1601454738.0664,51
1601454738.0684,49
1601454738.0705,49
1601454738.0711,56
1601454738.0725,58
1601454738.0744,58
1601454738.0764,58
1601454738.0785,58
1601454738.0805,61
1601454738.0825,66
1601454738.0845,68
1601454738.0865,71
1601454738.0885,73
1601454738.0905,73
1601454738.0924,76
1601454738.0945,80
1601454738.0965,76
1601454738.0984,71
1601454738.1005,76
1601454738.1011,83
1601454738.1024,78
1601454738.1044,76
1601454738.1064,80
1601454738.1085,83
1601454738.1105,80
1601454738.1124,80
1601454738.1145,85
1601454738.1165,88
1601454738.1185,88
1601454738.1204,88
1601454738.1225,85
1601454738.1244,88
1601454738.1264,88
1601454738.1284,85
1601454738.1304,88
1601454738.1311,93
1601454738.5368,93
1601454738.5374,90
1601454738.5398,88
1601454738.5424,85
1601454738.5445,85
1601454738.5465,83
1601454738.5486,85
1601454738.5505,85
1601454738.5512,80
1601454738.5525,73
1601454738.5544,76
1601454738.5564,78
1601454738.5585,76
1601454738.5605,76
1601454738.5625,80
1601454738.5644,83
1601454738.5664,80
1601454738.5684,83
1601454738.5704,83
1601454738.5725,78
1601454738.5745,78
1601454738.5764,80
1601454738.5785,78
1601454738.5791,73
1601454738.5804,80
1601454738.5824,85
1601454738.5845,93
1601454738.5864,98
1601454738.5885,98
1601454738.5904,93
1601454738.5924,95
1601454738.5944,93
1601454738.5965,83
1601454738.5985,83
1601454738.6004,83
1601454738.6024,73
1601454738.6044,68
1601454738.6064,73
1601454738.6084,71
1601454738.6092,61
1601454738.6104,29
1601454738.6124,-22
1601454738.6144,14
1601454738.6164,230
1601454738.6185,426
1601454738.6204,331
1601454738.6224,134
1601454738.6244,169
1601454738.6264,203
1601454738.6285,66
1601454738.6304,0
1601454738.6324,39
1601454738.6344,36
1601454738.6364,22
1601454738.6384,34
1601454738.6391,39
1601454738.6404,44
1601454738.6424,56
1601454738.6444,56
1601454738.6464,49
1601454738.6485,53
1601454738.6504,58
1601454738.6524,63
1601454738.6544,66
1601454738.6564,66
1601454738.6584,68
1601454738.6604,73
1601454738.6624,76
1601454738.6644,80
1601454738.6664,80
1601454738.6684,83
1601454738.6691,88
1601454738.6704,85
1601454739.1068,95
1601454739.1074,110
1601454739.1097,112
1601454739.1125,115
1601454739.1145,125
1601454739.1165,130
1601454739.1184,130
1601454739.1204,142
1601454739.1224,154
1601454739.1231,157
1601454739.1244,157
1601454739.1264,157
1601454739.1284,152
1601454739.1306,137
1601454739.1325,117
1601454739.1344,93
1601454739.1364,71
1601454739.1385,58
1601454739.1404,53
1601454739.1424,51
1601454739.1444,49
1601454739.1464,44
1601454739.1484,46
1601454739.1504,49
1601454739.1524,46
1601454739.1531,46
1601454739.1544,51
1601454739.1564,56
1601454739.1585,56
1601454739.1604,58
1601454739.1624,63
1601454739.1644,71
1601454739.1664,71
1601454739.1684,71
1601454739.1704,76
1601454739.1724,80
1601454739.1744,83
1601454739.1764,80
1601454739.1784,78
1601454739.1804,78
1601454739.1824,78
1601454739.1831,80
1601454739.1844,85
1601454739.1864,85
1601454739.1885,83
1601454739.1904,83
1601454739.1924,85
1601454739.1945,83
1601454739.1964,80
1601454739.1984,85
1601454739.2004,88
1601454739.2024,85
1601454739.2044,85
1601454739.2064,88
1601454739.2084,88
1601454739.2105,85
1601454739.2124,85
1601454739.2130,85
1601454739.2144,83
1601454739.2164,80
1601454739.2185,80
1601454739.2204,80
1601454739.2224,83
1601454739.2244,88
1601454739.2264,80
1601454739.2285,78
1601454739.2304,83
1601454739.2324,85
1601454739.2344,85
1601454739.2364,85
1601454739.2384,85
1601454739.2404,83
1601454739.2424,78
1601454739.6463,78
1601454739.6470,80
1601454739.6493,80
1601454739.6520,83
1601454739.6540,90
1601454739.6560,95
1601454739.6581,90
1601454739.6600,80
1601454739.6620,78
1601454739.6640,76
1601454739.6647,66
1601454739.6660,58
1601454739.6680,58
1601454739.6700,63
1601454739.6720,66
1601454739.6740,66
1601454739.6759,63
1601454739.6780,56
1601454739.6799,24
1601454739.6820,-34
1601454739.6839,-19
1601454739.6859,176
1601454739.6880,412
1601454739.6900,380
1601454739.6919,181
1601454739.6940,169
1601454739.6946,208
1601454739.6960,76
1601454739.6980,-17
1601454739.7000,17
1601454739.7019,17
1601454739.7040,-12
1601454739.7060,2
1601454739.7080,19
1601454739.7100,12
1601454739.7120,12
1601454739.7140,22
1601454739.7160,24
1601454739.7180,26
1601454739.7200,34
1601454739.7219,34
1601454739.7239,34
1601454739.7246,41
1601454739.7260,46
1601454739.7280,49
1601454739.7300,49
1601454739.7320,49
1601454739.7339,53
1601454739.7359,56
1601454739.7380,56
1601454739.7400,61
1601454739.7420,68
1601454739.7439,73
1601454739.7460,78
1601454739.7480,85
1601454739.7499,98
1601454739.7520,110
1601454739.7540,117
1601454739.7546,127
1601454739.7560,137
1601454739.7580,144
1601454739.7600,147
1601454739.7620,147
1601454739.7640,142
1601454739.7660,127
1601454739.7680,103
1601454739.7699,83
1601454739.7720,66
1601454739.7739,51
1601454739.7760,41
1601454739.7780,36
1601454739.7799,34
1601454739.7820,36
1601454740.2466,36
1601454740.2472,36
1601454740.2495,36
1601454740.2522,34
1601454740.2542,24
1601454740.2562,24
1601454740.2583,34
1601454740.2602,34
1601454740.2622,31
1601454740.2629,39
1601454740.2642,46
1601454740.2662,46
1601454740.2683,46
1601454740.2702,56
1601454740.2722,58
1601454740.2742,61
1601454740.2762,66
1601454740.2782,68
1601454740.2801,68
1601454740.2822,71
1601454740.2842,71
1601454740.2862,73
1601454740.2883,76
1601454740.2902,73
1601454740.2909,68
1601454740.2922,71
1601454740.2942,76
1601454740.2962,73
1601454740.2982,71
1601454740.3002,76
1601454740.3022,76
1601454740.3042,76
1601454740.3062,76
1601454740.3082,78
1601454740.3101,80
1601454740.3122,80
1601454740.3142,78
1601454740.3162,83
1601454740.3183,85
1601454740.3202,83
1601454740.3208,80
1601454740.3222,83
1601454740.3242,83
1601454740.3262,80
1601454740.3282,83
1601454740.3302,85
1601454740.3322,83
1601454740.3342,85
1601454740.3361,85
1601454740.3382,88
1601454740.3402,85
1601454740.3422,83
1601454740.3442,83
1601454740.3462,85
1601454740.3482,80
1601454740.3502,83
1601454740.3508,90
1601454740.3522,100
1601454740.3542,105
1601454740.3562,103
1601454740.3582,103
1601454740.3602,103
1601454740.3622,98
1601454740.3642,88
1601454740.3662,88
1601454740.3682,90
1601454740.3702,90
1601454740.3721,88
1601454740.3741,88
1601454740.3762,88
1601454740.3782,83
1601454740.3802,46
1601454740.3809,-19
1601454740.8163,-4
1601454740.8169,211
1601454740.8193,471
1601454740.8219,458
1601454740.8240,257
1601454740.8260,206
1601454740.8280,213
1601454740.8300,83
1601454740.8320,-9
1601454740.8340,12
1601454740.8347,19
1601454740.8359,4
1601454740.8380,14
1601454740.8399,22
1601454740.8420,14
1601454740.8440,19
1601454740.8459,19
1601454740.8480,14
1601454740.8499,19
1601454740.8520,24
1601454740.8539,22
1601454740.8559,26
1601454740.8580,36
1601454740.8599,39
1601454740.8619,36
1601454740.8639,39
1601454740.8646,44
1601454740.8659,49
1601454740.8680,51
1601454740.8699,56
1601454740.8719,58
1601454740.8739,58
1601454740.8759,61
1601454740.8780,71
1601454740.8799,78
1601454740.8819,88
1601454740.8839,98
1601454740.8859,107
1601454740.8880,120
1601454740.8899,127
1601454740.8919,134
1601454740.8939,137
1601454740.8946,142
1601454740.8959,137
1601454740.8979,122
1601454740.8999,105
1601454740.9019,88
1601454740.9039,68
1601454740.9059,53
1601454740.9080,46
1601454740.9099,41
1601454740.9119,36
1601454740.9139,39
1601454740.9160,41
1601454740.9179,44
1601454740.9199,41
1601454740.9219,41
1601454740.9239,46
1601454740.9246,49
1601454740.9259,53
1601454740.9279,56
1601454740.9299,56
1601454740.9319,56
1601454740.9339,56
1601454740.9359,56
1601454740.9380,61
1601454740.9399,66
1601454740.9419,68
1601454740.9439,68
1601454740.9459,73
1601454740.9480,78
1601454740.9499,78
1601454740.9519,78
1601454741.3562,80
1601454741.3566,83
1601454741.3589,83
1601454741.3616,85
1601454741.3636,85
1601454741.3656,88
1601454741.3677,88
1601454741.3684,83
1601454741.3696,85
1601454741.3717,80
1601454741.3737,66
1601454741.3756,61
1601454741.3777,68
1601454741.3796,66
1601454741.3817,66
1601454741.3837,71
1601454741.3857,73
1601454741.3877,71
1601454741.3897,73
1601454741.3917,73
1601454741.3937,76
1601454741.3956,78
1601454741.3977,76
1601454741.3983,76
1601454741.3997,80
1601454741.4017,78
1601454741.4037,78
1601454741.4057,80
1601454741.4077,83
1601454741.4097,83
1601454741.4117,83
1601454741.4137,85
1601454741.4157,88
1601454741.4177,85
1601454741.4197,83
1601454741.4216,83
1601454741.4237,85
1601454741.4257,85
1601454741.4277,90
1601454741.4283,103
1601454741.4297,107
1601454741.4317,103
1601454741.4337,103
1601454741.4357,103
1601454741.4377,100
1601454741.4397,93
1601454741.4417,88
1601454741.4437,90
1601454741.4457,93
1601454741.4477,88
1601454741.4496,88
1601454741.4517,95
1601454741.4537,93
1601454741.4557,56
1601454741.4577,-9
1601454741.4583,7
1601454741.4597,228
1601454741.4617,490
1601454741.4637,473
1601454741.4657,272
1601454741.4678,215
1601454741.4697,211
1601454741.4717,80
1601454741.4737,2
1601454741.4756,39
1601454741.4777,44
1601454741.4797,24
1601454741.4816,34
1601454741.4837,44
1601454741.4857,39
1601454741.4877,44
1601454741.4883,51
1601454741.4896,51
1601454741.9267,51
1601454741.9273,53
1601454741.9297,51
1601454741.9324,46
1601454741.9344,49
1601454741.9364,49
1601454741.9384,46
1601454741.9404,39
1601454741.9424,34
1601454741.9431,41
1601454741.9444,49
1601454741.9464,46
1601454741.9483,44
1601454741.9504,51
1601454741.9523,56
1601454741.9544,61
1601454741.9551,71
1601454741.9574,80
1601454741.9594,90
1601454741.9613,98
1601454741.9634,112
1601454741.9654,125
1601454741.9674,130
1601454741.9694,132
1601454741.9699,132
1601454741.9714,130
1601454741.9734,117
1601454741.9754,100
1601454741.9774,78
1601454741.9793,63
1601454741.9813,49
1601454741.9834,39
1601454741.9854,36
1601454741.9874,34
1601454741.9894,31
1601454741.9914,36
1601454741.9933,41
1601454741.9953,41
1601454741.9974,41
1601454741.9979,44
1601454741.9994,49
1601454742.0014,49
1601454742.0034,49
1601454742.0054,51
1601454742.0074,56
1601454742.0094,51
1601454742.0114,51
1601454742.0135,56
1601454742.0154,61
1601454742.0174,63
1601454742.0194,66
1601454742.0214,68
1601454742.0234,71
1601454742.0254,76
1601454742.0274,76
1601454742.0279,76
1601454742.0294,83
1601454742.0314,85
1601454742.0334,83
1601454742.0354,80
1601454742.0374,83
1601454742.0393,85
1601454742.0414,85
1601454742.0433,88
1601454742.0453,88
1601454742.0474,85
1601454742.0494,85
1601454742.0514,85
1601454742.0534,83
1601454742.0554,73
1601454742.0574,76
1601454742.0580,80
1601454742.0594,78
1601454742.4667,78
1601454742.4673,80
1601454742.4686,83
1601454742.4705,83
1601454742.4725,78
1601454742.4745,76
1601454742.4765,78
1601454742.4771,80
1601454742.4785,73
1601454742.4805,63
1601454742.4824,66
1601454742.4845,68
1601454742.4865,68
1601454742.4885,71
1601454742.4904,73
1601454742.4925,76
1601454742.4945,76
1601454742.4965,76
1601454742.4984,78
1601454742.5004,80
1601454742.5024,80
1601454742.5044,80
1601454742.5064,80
1601454742.5070,78
1601454742.5084,73
1601454742.5104,78
1601454742.5124,83
1601454742.5144,88
1601454742.5164,93
1601454742.5184,98
1601454742.5204,100
1601454742.5224,100
1601454742.5245,100
1601454742.5265,95
1601454742.5285,88
1601454742.5304,83
1601454742.5324,83
1601454742.5344,83
1601454742.5364,85
1601454742.5370,85
1601454742.5385,83
1601454742.5404,83
1601454742.5424,71
1601454742.5444,17
1601454742.5464,-22
1601454742.5484,103
1601454742.5504,375
1601454742.5525,507
1601454742.5544,350
1601454742.5564,203
1601454742.5584,220
1601454742.5604,157
1601454742.5624,19
1601454742.5644,12
1601454742.5664,51
1601454742.5671,31
1601454742.5684,24
1601454742.5704,41
1601454742.5724,41
1601454742.5745,41
1601454742.5764,44
1601454742.5785,39
1601454742.5804,31
1601454742.5824,39
1601454742.5844,44
1601454742.5864,41
1601454742.5885,41
1601454742.5905,46
1601454742.5924,44
1601454742.5944,41
1601454742.5964,46
1601454742.5970,51
1601454742.5984,51
1601454743.0066,53
1601454743.0072,61
1601454743.0097,66
1601454743.0123,71
1601454743.0143,73
1601454743.0163,73
1601454743.0183,73
1601454743.0203,85
1601454743.0223,105
1601454743.0229,110
1601454743.0243,115
1601454743.0262,130
1601454743.0283,137
1601454743.0302,137
1601454743.0322,137
1601454743.0343,132
1601454743.0363,112
1601454743.0383,90
1601454743.0403,76
1601454743.0423,66
1601454743.0442,53
1601454743.0463,44
1601454743.0483,39
1601454743.0502,41
1601454743.0522,44
1601454743.0528,41
1601454743.0542,44
1601454743.0563,46
1601454743.0583,44
1601454743.0602,44
1601454743.0623,51
1601454743.0642,56
1601454743.0662,53
1601454743.0683,56
1601454743.0702,58
1601454743.0723,61
1601454743.0742,63
1601454743.0762,66
1601454743.0783,73
1601454743.0803,80
1601454743.0822,78
1601454743.0828,78
1601454743.0843,83
1601454743.0863,85
1601454743.0883,88
1601454743.0902,85
1601454743.0923,88
1601454743.0943,93
1601454743.0962,93
1601454743.0983,88
1601454743.1002,90
1601454743.1023,98
1601454743.1043,95
1601454743.1063,90
1601454743.1082,85
1601454743.1102,80
1601454743.1122,83
1601454743.1128,85
1601454743.1143,83
1601454743.1162,78
1601454743.1183,83
1601454743.1202,85
1601454743.1223,83
1601454743.1242,85
1601454743.1263,85
1601454743.1283,80
1601454743.1302,85
1601454743.1322,93
1601454743.1343,90
1601454743.1362,85
1601454743.1383,85
1601454743.1402,88
1601454743.1423,93
1601454743.6062,95
1601454743.6068,98
1601454743.6092,88
1601454743.6118,78
1601454743.6139,76
1601454743.6158,80
1601454743.6179,83
1601454743.6199,85
1601454743.6205,88
1601454743.6219,85
1601454743.6239,83
1601454743.6259,83
1601454743.6279,83
1601454743.6299,85
1601454743.6319,93
1601454743.6339,98
1601454743.6359,105
1601454743.6379,107
1601454743.6398,100
1601454743.6419,100
1601454743.6439,100
1601454743.6459,90
1601454743.6479,85
1601454743.6499,88
1601454743.6504,90
1601454743.6518,85
1601454743.6539,80
1601454743.6558,83
1601454743.6579,88
1601454743.6598,68
1601454743.6618,12
1601454743.6638,-22
1601454743.6658,100
1601454743.6678,348
1601454743.6698,429
1601454743.6719,247
1601454743.6738,154
1601454743.6759,235
1601454743.6779,176
1601454743.6799,34
1601454743.6804,29
1601454743.6818,58
1601454743.6838,34
1601454743.6858,29
1601454743.6879,44
1601454743.6898,39
1601454743.6918,34
1601454743.6938,36
1601454743.6958,36
1601454743.6979,39
1601454743.6998,41
1601454743.7018,39
1601454743.7038,44
1601454743.7058,46
1601454743.7079,49
1601454743.7098,53
1601454743.7105,58
1601454743.7118,58
1601454743.7138,58
1601454743.7158,66
1601454743.7179,68
1601454743.7198,73
1601454743.7218,78
1601454743.7238,83
1601454743.7259,90
1601454743.7279,98
1601454743.7298,107
1601454743.7318,120
1601454743.7338,130
1601454743.7358,139
1601454743.7379,149
1601454743.7398,159
1601454743.7405,161
1601454744.1762,164
1601454744.1768,159
1601454744.1781,144
1601454744.1801,120
1601454744.1821,98
1601454744.1841,78
1601454744.1861,58
1601454744.1881,41
1601454744.1964,22
1601454744.1980,12
1601454744.2001,14
1601454744.2020,17
1601454744.2041,17
1601454744.2060,19
1601454744.2081,22
1601454744.2101,24
1601454744.2121,24
1601454744.2141,26
1601454744.2161,34
1601454744.2181,36
1601454744.2201,39
1601454744.2220,44
1601454744.2241,51
1601454744.2246,51
1601454744.2260,56
1601454744.2281,61
1601454744.2300,58
1601454744.2321,63
1601454744.2341,68
1601454744.2361,71
1601454744.2381,71
1601454744.2401,73
1601454744.2420,73
1601454744.2440,73
1601454744.2461,76
1601454744.2481,76
1601454744.2501,73
1601454744.2521,76
1601454744.2541,78
1601454744.2547,78
1601454744.2560,71
1601454744.2581,63
1601454744.2601,63
1601454744.2620,66
1601454744.2640,66
1601454744.2661,68
1601454744.2680,71
1601454744.2700,68
1601454744.2721,71
1601454744.2741,73
1601454744.2760,73
1601454744.2781,71
1601454744.2801,76
1601454744.2820,76
1601454744.2841,76
1601454744.2847,76
1601454744.2861,78
1601454744.2881,80
1601454744.2901,78
1601454744.2921,78
1601454744.2941,80
1601454744.2960,80
1601454744.2981,78
1601454744.3001,78
1601454744.3021,80
1601454744.3040,83
1601454744.3061,83
1601454744.3081,83
1601454744.3101,83
1601454744.3120,83
1601454744.3141,85
1601454744.3147,83
1601454744.3161,80
1601454744.7162,76
1601454744.7169,71
1601454744.7193,76
1601454744.7219,85
1601454744.7239,95
1601454744.7259,90
1601454744.7279,85
1601454744.7299,85
1601454744.7319,83
1601454744.7326,68
1601454744.7339,56
1601454744.7359,61
1601454744.7380,63
1601454744.7399,61
1601454744.7419,63
1601454744.7439,68
1601454744.7459,68
1601454744.7479,58
1601454744.7499,7
1601454744.7519,-44
1601454744.7539,39
1601454744.7559,304
1601454744.7579,495
1601454744.7600,380
1601454744.7619,196
1601454744.7626,198
1601454744.7639,164
1601454744.7659,22
1601454744.7678,-12
1601454744.7699,29
1601454744.7719,17
1601454744.7739,0
1601454744.7759,12
1601454744.7779,17
1601454744.7799,14
1601454744.7819,22
1601454744.7839,26
1601454744.7858,26
1601454744.7879,34
1601454744.7899,39
1601454744.7920,39
1601454744.7927,41
1601454744.7950,46
1601454744.7968,49
1601454744.7989,49
1601454744.8008,53
1601454744.8029,58
1601454744.8049,61
1601454744.8068,63
1601454744.8089,66
1601454744.8108,71
1601454744.8129,76
1601454744.8149,80
1601454744.8169,88
1601454744.8189,98
1601454744.8208,103
1601454744.8229,112
1601454744.8235,125
1601454744.8249,137
1601454744.8269,144
1601454744.8289,149
1601454744.8309,152
1601454744.8328,152
1601454744.8348,144
1601454744.8369,130
1601454744.8389,107
1601454744.8408,85
1601454744.8428,68
1601454744.8449,56
1601454744.8469,49
1601454744.8488,44
1601454744.8509,41
1601454744.8529,39
1601454745.2861,39
1601454745.2868,44
1601454745.2892,46
1601454745.2918,46
1601454745.2938,49
1601454745.2958,51
1601454745.2978,41
1601454745.2998,34
1601454745.3018,41
1601454745.3024,49
1601454745.3038,46
1601454745.3058,53
1601454745.3078,56
1601454745.3098,56
1601454745.3118,61
1601454745.3138,66
1601454745.3158,68
1601454745.3178,68
1601454745.3198,68
1601454745.3218,76
1601454745.3238,78
1601454745.3258,76
1601454745.3278,76
1601454745.3298,76
1601454745.3317,71
1601454745.3324,63
1601454745.3338,58
1601454745.3358,66
1601454745.3378,73
1601454745.3398,68
1601454745.3417,63
1601454745.3438,68
1601454745.3458,76
1601454745.3478,73
1601454745.3498,73
1601454745.3518,76
1601454745.3538,78
1601454745.3557,76
1601454745.3578,78
1601454745.3598,78
1601454745.3617,80
1601454745.3623,80
1601454745.3638,78
1601454745.3657,78
1601454745.3678,80
1601454745.3697,83
1601454745.3718,83
1601454745.3738,83
1601454745.3758,85
1601454745.3778,88
1601454745.3797,85
1601454745.3817,85
1601454745.3838,85
1601454745.3857,85
1601454745.3877,83
1601454745.3898,80
1601454745.3918,80
1601454745.3924,80
1601454745.3937,80
1601454745.3957,80
1601454745.3978,76
1601454745.3998,73
1601454745.4018,73
1601454745.4038,73
1601454745.4058,71
1601454745.4078,73
1601454745.4097,80
1601454745.4117,90
1601454745.4138,93
1601454745.4157,88
1601454745.4178,88
1601454745.4197,90
1601454745.4217,83
1601454745.8562,73
1601454745.8569,76
1601454745.8588,76
1601454745.8606,73
1601454745.8627,71
1601454745.8647,71
1601454745.8667,68
1601454745.8688,49
1601454745.8707,-9
1601454745.8727,-56
1601454745.8732,41
1601454745.8747,314
1601454745.8769,498
1601454745.8787,372
1601454745.8807,186
1601454745.8827,181
1601454745.8847,137
1601454745.8867,-4
1601454745.8887,-34
1601454745.8906,9
1601454745.8927,-4
1601454745.8947,-14
1601454745.8966,4
1601454745.8987,9
1601454745.9007,7
1601454745.9027,17
1601454745.9033,24
1601454745.9047,24
1601454745.9067,26
1601454745.9087,34
1601454745.9106,39
1601454745.9126,44
1601454745.9147,46
1601454745.9167,49
1601454745.9187,51
1601454745.9206,53
1601454745.9226,56
1601454745.9246,61
1601454745.9266,63
1601454745.9286,66
1601454745.9307,71
1601454745.9326,73
1601454745.9332,78
1601454745.9347,88
1601454745.9366,95
1601454745.9387,105
1601454745.9407,112
1601454745.9427,117
1601454745.9446,127
1601454745.9466,137
1601454745.9486,144
1601454745.9506,147
1601454745.9527,149
1601454745.9547,142
1601454745.9567,127
1601454745.9587,110
1601454745.9606,90
1601454745.9626,71
1601454745.9633,58
1601454745.9647,49
1601454745.9666,44
1601454745.9687,44
1601454745.9707,41
1601454745.9726,44
1601454745.9747,46
1601454745.9766,46
1601454745.9787,46
1601454745.9807,53
1601454745.9826,58
1601454745.9847,56
1601454745.9867,56
1601454745.9886,58
1601454745.9907,61
1601454746.3965,61
1601454746.3972,63
1601454746.3987,66
1601454746.4007,71
1601454746.4027,73
1601454746.4049,71
1601454746.4067,71
1601454746.4087,73
1601454746.4108,68
1601454746.4126,53
1601454746.4133,49
1601454746.4147,58
1601454746.4166,61
1601454746.4188,58
1601454746.4207,61
1601454746.4227,63
1601454746.4247,61
1601454746.4267,63
1601454746.4287,71
1601454746.4307,71
1601454746.4327,71
1601454746.4346,71
1601454746.4367,71
1601454746.4387,71
1601454746.4407,71
1601454746.4427,73
1601454746.4433,78
1601454746.4447,78
1601454746.4467,73
1601454746.4487,76
1601454746.4507,80
1601454746.4527,78
1601454746.4546,78
1601454746.4567,80
1601454746.4587,78
1601454746.4607,80
1601454746.4627,83
1601454746.4646,80
1601454746.4667,76
1601454746.4687,76
1601454746.4707,76
1601454746.4726,76
1601454746.4733,80
1601454746.4746,83
1601454746.4767,80
1601454746.4788,78
1601454746.4807,78
1601454746.4827,80
1601454746.4847,83
1601454746.4866,83
1601454746.4886,78
1601454746.4906,73
1601454746.4927,73
1601454746.4947,73
1601454746.4967,78
1601454746.4987,85
1601454746.5006,95
1601454746.5027,98
1601454746.5032,93
1601454746.5047,90
1601454746.5067,93
1601454746.5087,90
1601454746.5107,83
1601454746.5127,80
1601454746.5147,80
1601454746.5167,80
1601454746.5187,80
1601454746.5206,76
1601454746.5227,73
1601454746.5247,66
1601454746.5266,24
1601454746.5287,-36
1601454746.5307,4
1601454746.9965,225
1601454746.9971,444
1601454746.9995,370
1601454747.0022,174
1601454747.0042,179
1601454747.0062,196
1601454747.0082,46
1601454747.0103,-26
1601454747.0121,19
1601454747.0142,22
1601454747.0162,-2
1601454747.0182,14
1601454747.0188,26
1601454747.0202,26
1601454747.0222,29
1601454747.0242,34
1601454747.0262,36
1601454747.0282,41
1601454747.0302,49
1601454747.0322,51
1601454747.0341,51
1601454747.0361,51
1601454747.0381,58
1601454747.0401,66
1601454747.0421,68
1601454747.0441,68
1601454747.0461,71
1601454747.0481,71
1601454747.0487,73
1601454747.0501,76
1601454747.0521,80
1601454747.0541,90
1601454747.0562,98
1601454747.0582,100
1601454747.0601,107
1601454747.0621,127
1601454747.0641,137
1601454747.0661,142
1601454747.0681,152
1601454747.0701,161
1601454747.0721,166
1601454747.0741,166
1601454747.0761,159
1601454747.0782,147
1601454747.0787,127
1601454747.0802,103
1601454747.0821,83
1601454747.0841,73
1601454747.0861,63
1601454747.0881,53
1601454747.0901,51
1601454747.0922,51
1601454747.0941,51
1601454747.0962,51
1601454747.0982,51
1601454747.1001,51
1601454747.1021,56
1601454747.1042,58
1601454747.1061,61
1601454747.1082,63
1601454747.1087,63
1601454747.1101,63
1601454747.1121,68
1601454747.1141,73
1601454747.1161,71
1601454747.1181,73
1601454747.1202,80
1601454747.1221,80
1601454747.1242,78
1601454747.1261,76
1601454747.1282,78
1601454747.1301,78
1601454747.1321,83
1601454747.5365,85
1601454747.5371,85
1601454747.5395,88
1601454747.5421,88
1601454747.5441,88
1601454747.5461,88
1601454747.5481,90
1601454747.5501,90
1601454747.5521,85
1601454747.5541,88
1601454747.5561,88
1601454747.5567,78
1601454747.5581,73
1601454747.5601,78
1601454747.5621,78
1601454747.5641,76
1601454747.5661,78
1601454747.5682,83
1601454747.5701,83
1601454747.5721,80
1601454747.5741,78
1601454747.5761,80
1601454747.5782,83
1601454747.5801,78
1601454747.5821,83
1601454747.5841,88
1601454747.5861,85
1601454747.5867,80
1601454747.5881,83
1601454747.5902,85
1601454747.5921,83
1601454747.5940,80
1601454747.5961,85
1601454747.5982,90
1601454747.6001,88
1601454747.6021,85
1601454747.6041,83
1601454747.6061,80
1601454747.6081,76
1601454747.6101,76
1601454747.6121,80
1601454747.6141,88
1601454747.6161,95
1601454747.6167,95
1601454747.6181,93
1601454747.6201,93
1601454747.6221,95
1601454747.6241,93
1601454747.6262,83
1601454747.6281,78
1601454747.6301,78
1601454747.6321,76
1601454747.6341,71
1601454747.6361,68
1601454747.6381,71
1601454747.6401,63
1601454747.6420,26
1601454747.6441,-31
1601454747.6461,-17
1601454747.6467,181
1601454747.6481,409
1601454747.6501,375
1601454747.6521,179
1601454747.6541,164
1601454747.6561,206
1601454747.6581,78
1601454747.6601,-14
1601454747.6621,17
1601454747.6641,26
1601454747.6662,7
1601454747.6681,17
1601454747.6701,26
1601454747.6721,22
1601454748.1071,26
1601454748.1078,31
1601454748.1102,34
1601454748.1128,36
1601454748.1148,44
1601454748.1168,49
1601454748.1188,51
1601454748.1208,46
1601454748.1228,39
1601454748.1248,39
1601454748.1268,44
1601454748.1288,46
1601454748.1308,44
1601454748.1314,49
1601454748.1328,53
1601454748.1348,61
1601454748.1368,66
1601454748.1388,73
1601454748.1408,80
1601454748.1428,83
1601454748.1448,93
1601454748.1468,110
1601454748.1488,122
1601454748.1508,132
1601454748.1528,139
1601454748.1548,147
1601454748.1568,152
1601454748.1587,149
1601454748.1608,144
1601454748.1614,134
1601454748.1629,115
1601454748.1648,88
1601454748.1668,68
1601454748.1688,56
1601454748.1708,46
1601454748.1727,41
1601454748.1748,36
1601454748.1768,36
1601454748.1788,36
1601454748.1808,36
1601454748.1828,36
1601454748.1848,39
1601454748.1868,41
1601454748.1888,36
1601454748.1908,39
1601454748.1913,46
1601454748.1927,51
1601454748.1948,49
1601454748.1968,53
1601454748.1988,58
1601454748.2007,61
1601454748.2028,66
1601454748.2048,63
1601454748.2068,58
1601454748.2087,61
1601454748.2108,61
1601454748.2127,66
1601454748.2148,73
1601454748.2167,73
1601454748.2188,73
1601454748.2207,76
1601454748.2214,78
1601454748.2228,76
1601454748.2247,78
1601454748.2268,83
1601454748.2287,85
1601454748.2307,85
1601454748.2328,78
1601454748.2348,76
1601454748.2360,83
1601454748.2378,90
1601454748.2398,85
1601454748.2417,90
1601454748.6460,95
1601454748.6467,90
1601454748.6491,88
1601454748.6517,88
1601454748.6537,90
1601454748.6557,88
1601454748.6578,85
1601454748.6597,88
1601454748.6617,88
1601454748.6637,80
1601454748.6657,73
1601454748.6678,73
1601454748.6697,78
1601454748.6703,78
1601454748.6717,76
1601454748.6737,78
1601454748.6757,80
1601454748.6777,80
1601454748.6797,80
1601454748.6817,80
1601454748.6837,83
1601454748.6857,80
1601454748.6877,80
1601454748.6896,85
1601454748.6917,85
1601454748.6937,83
1601454748.6957,78
1601454748.6977,78
1601454748.6996,80
1601454748.7003,80
1601454748.7017,85
1601454748.7037,98
1601454748.7057,103
1601454748.7077,93
1601454748.7097,90
1601454748.7116,95
1601454748.7136,88
1601454748.7157,76
1601454748.7177,76
1601454748.7196,80
1601454748.7217,78
1601454748.7236,73
1601454748.7257,76
1601454748.7278,76
1601454748.7297,61
1601454748.7302,9
1601454748.7317,-51
1601454748.7336,17
1601454748.7356,274
1601454748.7377,502
1601454748.7397,424
1601454748.7416,220
1601454748.7436,193
1601454748.7456,171
1601454748.7477,36
1601454748.7496,-14
1601454748.7517,26
1601454748.7537,22
1601454748.7557,2
1601454748.7577,22
1601454748.7597,34
1601454748.7603,26
1601454748.7616,31
1601454748.7637,39
1601454748.7657,39
1601454748.7677,36
1601454748.7697,36
1601454748.7717,39
1601454748.7736,49
1601454748.7757,53
1601454748.7778,51
1601454748.7796,51
1601454748.7817,58
1601454749.2158,63
1601454749.2165,68
1601454749.2175,68
1601454749.2194,73
1601454749.2215,78
1601454749.2234,80
1601454749.2254,80
1601454749.2274,76
1601454749.2295,83
1601454749.2315,95
1601454749.2335,105
1601454749.2354,117
1601454749.2361,132
1601454749.2375,137
1601454749.2394,137
1601454749.2414,144
1601454749.2435,149
1601454749.2455,152
1601454749.2475,139
1601454749.2495,115
1601454749.2515,98
1601454749.2535,83
1601454749.2554,66
1601454749.2575,56
1601454749.2594,53
1601454749.2614,46
1601454749.2634,39
1601454749.2654,49
1601454749.2660,53
1601454749.2675,51
1601454749.2694,51
1601454749.2714,56
1601454749.2735,58
1601454749.2754,58
1601454749.2775,58
1601454749.2794,63
1601454749.2814,63
1601454749.2834,63
1601454749.2854,63
1601454749.2875,68
1601454749.2895,71
1601454749.2914,71
1601454749.2934,71
1601454749.2954,76
1601454749.2960,78
1601454749.2975,80
1601454749.2994,83
1601454749.3014,83
1601454749.3034,88
1601454749.3055,90
1601454749.3075,85
1601454749.3095,83
1601454749.3115,90
1601454749.3134,88
1601454749.3154,88
1601454749.3174,90
1601454749.3194,88
1601454749.3214,83
1601454749.3234,83
1601454749.3254,85
1601454749.3260,83
1601454749.3275,80
1601454749.3294,83
1601454749.3314,80
1601454749.3334,80
1601454749.3354,90
1601454749.3375,95
1601454749.3394,90
1601454749.3414,85
1601454749.3434,88
1601454749.3454,88
1601454749.3475,88
1601454749.3495,88
1601454749.7564,88
1601454749.7571,85
1601454749.7585,85
1601454749.7605,90
1601454749.7625,95
1601454749.7645,93
1601454749.7665,90
1601454749.7685,85
1601454749.7705,76
1601454749.7725,73
1601454749.7745,80
1601454749.7765,80
1601454749.7786,78
1601454749.7805,80
1601454749.7811,80
1601454749.7825,76
1601454749.7845,73
1601454749.7865,85
1601454749.7886,98
1601454749.7905,95
1601454749.7925,93
1601454749.7945,98
1601454749.7964,98
1601454749.7985,88
1601454749.8005,83
1601454749.8025,88
1601454749.8045,88
1601454749.8065,85
1601454749.8086,85
1601454749.8105,83
1601454749.8111,73
1601454749.8125,41
1601454749.8144,-22
1601454749.8165,-17
1601454749.8185,179
1601454749.8205,446
1601454749.8225,471
1601454749.8245,284
1601454749.8265,208
1601454749.8285,203
1601454749.8305,83
1601454749.8324,-2
1601454749.8345,31
1601454749.8365,41
1601454749.8385,14
1601454749.8405,22
1601454749.8411,36
1601454749.8425,29
1601454749.8445,26
1601454749.8465,34
1601454749.8485,39
1601454749.8505,41
1601454749.8526,41
1601454749.8545,46
1601454749.8566,46
1601454749.8586,46
1601454749.8605,51
1601454749.8624,53
1601454749.8645,51
1601454749.8664,53
1601454749.8685,61
1601454749.8705,61
1601454749.8711,61
1601454749.8725,66
1601454749.8745,68
1601454749.8765,66
1601454749.8786,71
1601454749.8805,80
1601454749.8825,85
1601454749.8845,90
1601454749.8865,103
1601454749.8885,112
1601454749.8905,125
1601454750.3564,132
1601454750.3571,134
1601454750.3595,139
1601454750.3622,137
1601454750.3641,120
1601454750.3661,95
1601454750.3682,73
1601454750.3701,58
1601454750.3721,53
1601454750.3741,51
1601454750.3761,29
1601454750.3781,7
1601454750.3801,17
1601454750.3821,24
1601454750.3827,24
1601454750.3841,36
1601454750.3861,49
1601454750.3881,56
1601454750.3900,53
1601454750.3922,44
1601454750.3941,34
1601454750.3961,36
1601454750.3981,39
1601454750.4001,36
1601454750.4020,39
1601454750.4041,49
1601454750.4060,56
1601454750.4081,53
1601454750.4101,56
1601454750.4106,63
1601454750.4120,66
1601454750.4141,66
1601454750.4160,71
1601454750.4180,76
1601454750.4201,78
1601454750.4220,76
1601454750.4241,76
1601454750.4261,78
1601454750.4281,78
1601454750.4300,76
1601454750.4320,73
1601454750.4341,73
1601454750.4360,78
1601454750.4381,80
1601454750.4401,80
1601454750.4406,78
1601454750.4420,73
1601454750.4441,73
1601454750.4460,78
1601454750.4481,83
1601454750.4501,85
1601454750.4521,80
1601454750.4540,78
1601454750.4561,83
1601454750.4581,88
1601454750.4600,83
1601454750.4621,85
1601454750.4641,90
1601454750.4660,85
1601454750.4681,80
1601454750.4701,78
1601454750.4706,85
1601454750.4721,90
1601454750.4740,83
1601454750.4760,80
1601454750.4781,88
1601454750.4800,95
1601454750.4821,100
1601454750.4840,100
1601454750.4860,98
1601454750.4880,98
1601454750.4901,103
1601454750.4921,93
1601454750.9264,80
1601454750.9270,83
1601454750.9294,88
1601454750.9321,85
1601454750.9341,78
1601454750.9361,76
1601454750.9381,78
1601454750.9401,63
1601454750.9421,9
1601454750.9441,-31
1601454750.9461,71
1601454750.9481,301
1601454750.9501,390
1601454750.9521,235
1601454750.9540,157
1601454750.9547,233
1601454750.9561,164
1601454750.9581,24
1601454750.9601,19
1601454750.9621,44
1601454750.9641,26
1601454750.9661,24
1601454750.9680,31
1601454750.9700,29
1601454750.9721,31
1601454750.9741,39
1601454750.9761,36
1601454750.9780,39
1601454750.9801,51
1601454750.9820,51
1601454750.9840,49
1601454750.9846,49
1601454750.9861,56
1601454750.9880,53
1601454750.9900,56
1601454750.9920,66
1601454750.9941,68
1601454750.9960,68
1601454750.9981,76
1601454751.0000,78
1601454751.0020,80
1601454751.0040,90
1601454751.0061,98
1601454751.0080,103
1601454751.0100,115
1601454751.0121,132
1601454751.0140,144
1601454751.0147,154
1601454751.0160,169
1601454751.0181,176
1601454751.0200,176
1601454751.0220,179
1601454751.0240,176
1601454751.0260,159
1601454751.0281,132
1601454751.0300,103
1601454751.0320,78
1601454751.0340,71
1601454751.0361,68
1601454751.0381,61
1601454751.0400,58
1601454751.0420,53
1601454751.0440,44
1601454751.0446,41
1601454751.0460,53
1601454751.0481,56
1601454751.0500,49
1601454751.0520,56
1601454751.0540,63
1601454751.0560,56
1601454751.0580,63
1601454751.0600,78
1601454751.0620,73
1601454751.4665,66
1601454751.4671,78
1601454751.4695,85
1601454751.4721,80
1601454751.4742,90
1601454751.4762,95
1601454751.4781,88
1601454751.4801,88
1601454751.4821,88
1601454751.4841,85
1601454751.4861,88
1601454751.4881,78
1601454751.4901,68
1601454751.4922,78
1601454751.4941,83
1601454751.4947,80
1601454751.4961,78
1601454751.4981,80
1601454751.5001,88
1601454751.5021,90
1601454751.5041,85
1601454751.5061,76
1601454751.5081,78
1601454751.5101,85
1601454751.5121,93
1601454751.5141,93
1601454751.5161,93
1601454751.5181,85
1601454751.5201,85
1601454751.5221,95
1601454751.5241,90
1601454751.5247,76
1601454751.5261,80
1601454751.5281,100
1601454751.5301,115
1601454751.5321,115
1601454751.5341,103
1601454751.5362,100
1601454751.5381,112
1601454751.5401,107
1601454751.5421,100
1601454751.5441,103
1601454751.5461,98
1601454751.5481,90
1601454751.5501,95
1601454751.5521,103
1601454751.5541,103
1601454751.5547,95
1601454751.5562,73
1601454751.5581,12
1601454751.5601,-7
1601454751.5621,149
1601454751.5641,377
1601454751.5661,377
1601454751.5681,203
1601454751.5701,206
1601454751.5721,287
1601454751.5741,164
1601454751.5761,39
1601454751.5781,63
1601454751.5801,76
1601454751.5821,44
1601454751.5841,46
1601454751.5849,61
1601454751.5861,58
1601454751.5881,53
1601454751.5901,58
1601454751.5921,61
1601454751.5941,66
1601454751.5961,71
1601454751.5981,66
1601454751.6001,66
1601454751.6021,71
1601454752.0065,68
1601454752.0071,68
1601454752.0096,73
1601454752.0122,76
1601454752.0142,76
1601454752.0163,73
1601454752.0183,71
1601454752.0202,78
1601454752.0222,78
1601454752.0242,71
1601454752.0262,83
1601454752.0282,98
1601454752.0302,88
1601454752.0321,98
1601454752.0342,122
1601454752.0362,137
1601454752.0382,142
1601454752.0388,149
1601454752.0401,157
1601454752.0422,157
1601454752.0441,144
1601454752.0461,125
1601454752.0481,100
1601454752.0502,73
1601454752.0522,61
1601454752.0542,51
1601454752.0562,46
1601454752.0582,44
1601454752.0601,34
1601454752.0622,39
1601454752.0641,49
1601454752.0662,41
1601454752.0682,39
1601454752.0687,46
1601454752.0701,46
1601454752.0721,53
1601454752.0741,63
1601454752.0761,58
1601454752.0781,51
1601454752.0801,61
1601454752.0821,76
1601454752.0841,76
1601454752.0861,73
1601454752.0881,76
1601454752.0902,90
1601454752.0921,93
1601454752.0941,78
1601454752.0961,66
1601454752.0981,78
1601454752.0987,93
1601454752.1001,83
1601454752.1022,80
1601454752.1042,93
1601454752.1061,95
1601454752.1082,88
1601454752.1102,83
1601454752.1121,83
1601454752.1141,100
1601454752.1162,112
1601454752.1182,93
1601454752.1201,73
1601454752.1221,88
1601454752.1241,100
1601454752.1262,95
1601454752.1281,95
1601454752.1287,90
1601454752.1301,78
1601454752.1321,78
1601454752.1341,80
1601454752.1361,68
1601454752.1381,58
1601454752.1402,73
1601454752.1421,88
1601454752.5764,95
1601454752.5770,100
1601454752.5784,105
1601454752.5804,110
1601454752.5824,107
1601454752.5845,78
1601454752.5865,53
1601454752.5884,63
1601454752.5904,80
1601454752.5924,78
1601454752.5944,71
1601454752.5964,68
1601454752.5984,68
1601454752.6004,83
1601454752.6024,88
1601454752.6044,51
1601454752.6050,-19
1601454752.6064,19
1601454752.6085,264
1601454752.6104,444
1601454752.6124,333
1601454752.6144,228
1601454752.6164,287
1601454752.6185,215
1601454752.6204,39
1601454752.6224,12
1601454752.6244,58
1601454752.6264,53
1601454752.6284,44
1601454752.6304,44
1601454752.6324,36
1601454752.6344,34
1601454752.6350,41
1601454752.6364,61
1601454752.6385,73
1601454752.6404,61
1601454752.6424,51
1601454752.6444,51
1601454752.6464,51
1601454752.6484,61
1601454752.6504,66
1601454752.6524,63
1601454752.6544,68
1601454752.6564,76
1601454752.6585,80
1601454752.6604,71
1601454752.6624,68
1601454752.6644,85
1601454752.6650,90
1601454752.6664,90
1601454752.6685,107
1601454752.6704,112
1601454752.6724,105
1601454752.6744,117
1601454752.6764,130
1601454752.6784,139
1601454752.6804,159
1601454752.6824,176
1601454752.6844,174
1601454752.6864,154
1601454752.6885,137
1601454752.6904,112
1601454752.6924,88
1601454752.6944,76
1601454752.6950,68
1601454752.6965,58
1601454752.6985,53
1601454752.7004,46
1601454752.7024,39
1601454752.7044,36
1601454752.7064,34
1601454752.7084,39
1601454752.7104,44
1601454753.1159,41
1601454753.1166,49
1601454753.1171,46
1601454753.1185,39
1601454753.1204,53
1601454753.1224,68
1601454753.1244,51
1601454753.1264,26
1601454753.1285,24
1601454753.1304,36
1601454753.1325,46
1601454753.1344,51
1601454753.1365,61
1601454753.1385,68
1601454753.1404,61
1601454753.1424,58
1601454753.1445,63
1601454753.1465,66
1601454753.1471,66
1601454753.1485,71
1601454753.1504,80
1601454753.1524,80
1601454753.1544,71
1601454753.1565,73
1601454753.1584,83
1601454753.1604,83
1601454753.1624,80
1601454753.1645,93
1601454753.1665,95
1601454753.1685,73
1601454753.1704,68
1601454753.1724,85
1601454753.1744,88
1601454753.1764,88
1601454753.1771,90
1601454753.1785,88
1601454753.1805,85
1601454753.1824,95
1601454753.1845,100
1601454753.1864,95
1601454753.1885,93
1601454753.1905,93
1601454753.1924,85
1601454753.1944,83
1601454753.1964,93
1601454753.1985,105
1601454753.2005,110
1601454753.2024,110
1601454753.2044,115
1601454753.2064,110
1601454753.2070,98
1601454753.2084,95
1601454753.2105,98
1601454753.2125,95
1601454753.2144,90
1601454753.2164,100
1601454753.2185,95
1601454753.2205,85
1601454753.2224,93
1601454753.2244,95
1601454753.2264,63
1601454753.2285,-7
1601454753.2305,-17
1601454753.2324,176
1601454753.2344,449
1601454753.2350,466
1601454753.2365,274
1601454753.2384,252
1601454753.2404,296
1601454753.2424,139
1601454753.2444,4
1601454753.2464,41
1601454753.2485,58
1601454753.7460,26
1601454753.7466,36
1601454753.7482,56
1601454753.7506,44
1601454753.7527,31
1601454753.7547,36
1601454753.7567,46
1601454753.7587,49
1601454753.7607,46
1601454753.7627,51
1601454753.7647,51
1601454753.7666,46
1601454753.7686,56
1601454753.7706,68
1601454753.7727,68
1601454753.7746,63
1601454753.7767,61
1601454753.7787,63
1601454753.7792,71
1601454753.7807,76
1601454753.7828,78
1601454753.7847,80
1601454753.7867,83
1601454753.7886,90
1601454753.7906,105
1601454753.7926,117
1601454753.7946,127
1601454753.7966,139
1601454753.7986,149
1601454753.8006,157
1601454753.8026,164
1601454753.8046,161
1601454753.8067,157
1601454753.8086,149
1601454753.8092,130
1601454753.8106,105
1601454753.8126,85
1601454753.8146,78
1601454753.8166,80
1601454753.8186,73
1601454753.8206,61
1601454753.8226,56
1601454753.8246,58
1601454753.8266,61
1601454753.8286,53
1601454753.8306,53
1601454753.8326,68
1601454753.8346,68
1601454753.8366,58
1601454753.8386,63
1601454753.8392,66
1601454753.8406,61
1601454753.8426,71
1601454753.8446,73
1601454753.8466,58
1601454753.8486,51
1601454753.8506,61
1601454753.8526,78
1601454753.8546,71
1601454753.8567,58
1601454753.8586,71
1601454753.8606,73
1601454753.8626,68
1601454753.8646,76
1601454753.8666,80
1601454753.8686,83
1601454753.8692,83
1601454753.8706,80
1601454753.8726,83
1601454753.8746,93
1601454753.8766,90
1601454753.8786,83
1601454753.8806,88
1601454754.3160,95
1601454754.3165,90
1601454754.3183,85
1601454754.3203,93
1601454754.3223,90
1601454754.3243,88
1601454754.3264,95
1601454754.3283,103
1601454754.3303,98
1601454754.3323,88
1601454754.3343,93
1601454754.3363,90
1601454754.3383,85
1601454754.3403,90
1601454754.3424,85
1601454754.3443,80
1601454754.3463,88
1601454754.3469,80
1601454754.3483,78
1601454754.3503,95
1601454754.3523,100
1601454754.3543,88
1601454754.3563,83
1601454754.3584,80
1601454754.3603,78
1601454754.3623,95
1601454754.3643,112
1601454754.3663,107
1601454754.3683,110
1601454754.3703,122
1601454754.3723,120
1601454754.3743,103
1601454754.3763,93
1601454754.3769,95
1601454754.3783,107
1601454754.3803,110
1601454754.3823,100
1601454754.3843,93
1601454754.3863,100
1601454754.3883,105
1601454754.3903,83
1601454754.3923,12
1601454754.3943,-29
1601454754.3963,112
1601454754.3983,417
1601454754.4003,534
1601454754.4024,368
1601454754.4043,284
1601454754.4063,321
1601454754.4070,186
1601454754.4083,19
1601454754.4103,26
1601454754.4123,66
1601454754.4143,34
1601454754.4163,22
1601454754.4183,51
1601454754.4203,61
1601454754.4223,49
1601454754.4243,56
1601454754.4263,58
1601454754.4284,51
1601454754.4303,58
1601454754.4323,71
1601454754.4343,68
1601454754.4363,63
1601454754.4370,71
1601454754.4383,71
1601454754.4403,61
1601454754.4423,61
1601454754.4443,76
1601454754.4463,85
1601454754.4483,80
1601454754.4503,76
1601454754.8263,71
1601454754.8269,71
1601454754.8293,83
1601454754.8319,95
1601454754.8325,98
1601454754.8339,103
1601454754.8359,112
1601454754.8380,127
1601454754.8399,139
1601454754.8419,139
1601454754.8439,139
1601454754.8459,149
1601454754.8479,149
1601454754.8499,139
1601454754.8519,117
1601454754.8538,90
1601454754.8560,73
1601454754.8579,71
1601454754.8599,66
1601454754.8619,58
1601454754.8625,51
1601454754.8639,46
1601454754.8659,53
1601454754.8679,66
1601454754.8699,61
1601454754.8719,56
1601454754.8739,58
1601454754.8759,61
1601454754.8779,66
1601454754.8799,61
1601454754.8819,44
1601454754.8839,46
1601454754.8860,56
1601454754.8879,51
1601454754.8900,49
1601454754.8919,56
1601454754.8925,53
1601454754.8938,53
1601454754.8960,61
1601454754.8979,61
1601454754.8999,58
1601454754.9019,61
1601454754.9039,66
1601454754.9059,66
1601454754.9080,68
1601454754.9099,68
1601454754.9119,71
1601454754.9126,76
1601454754.9149,78
1601454754.9170,76
1601454754.9189,76
1601454754.9195,73
1601454754.9209,80
1601454754.9229,83
1601454754.9249,78
1601454754.9270,78
1601454754.9289,80
1601454754.9309,78
1601454754.9330,76
1601454754.9349,78
1601454754.9369,80
1601454754.9389,83
1601454754.9409,85
1601454754.9429,83
1601454754.9449,78
1601454754.9470,76
1601454754.9489,80
1601454754.9495,80
1601454754.9508,78
1601454754.9529,80
1601454754.9549,78
1601454754.9569,78
1601454754.9589,80
1601454755.3963,80
1601454755.3968,83
1601454755.3971,85
1601454755.3993,85
1601454755.4013,80
1601454755.4033,78
1601454755.4053,80
1601454755.4074,78
1601454755.4093,66
1601454755.4113,58
1601454755.4133,58
1601454755.4153,61
1601454755.4174,68
1601454755.4193,78
1601454755.4213,85
1601454755.4233,88
1601454755.4252,88
1601454755.4273,90
1601454755.4279,88
1601454755.4293,78
1601454755.4313,76
1601454755.4333,73
1601454755.4353,63
1601454755.4373,63
1601454755.4393,71
1601454755.4413,76
1601454755.4433,78
1601454755.4453,58
1601454755.4473,-2
1601454755.4492,-51
1601454755.4513,66
1601454755.4533,360
1601454755.4553,527
1601454755.4573,395
1601454755.4579,264
1601454755.4593,282
1601454755.4612,184
1601454755.4633,14
1601454755.4652,2
1601454755.4673,41
1601454755.4693,26
1601454755.4713,17
1601454755.4733,31
1601454755.4753,31
1601454755.4773,31
1601454755.4793,44
1601454755.4813,46
1601454755.4833,39
1601454755.4853,39
1601454755.4873,46
1601454755.4879,46
1601454755.4893,44
1601454755.4912,51
1601454755.4933,56
1601454755.4953,51
1601454755.4973,44
1601454755.4993,49
1601454755.5013,56
1601454755.5033,51
1601454755.5053,49
1601454755.5073,58
1601454755.5092,63
1601454755.5113,66
1601454755.5132,76
1601454755.5152,83
1601454755.5172,90
1601454755.5179,98
1601454755.5193,105
1601454755.5213,117
1601454755.5233,132
1601454755.5253,139
1601454755.5273,142
1601454755.5293,144
1601454755.9363,137
1601454755.9368,120
1601454755.9383,100
1601454755.9403,83
1601454755.9410,66
1601454755.9423,51
1601454755.9443,44
1601454755.9463,39
1601454755.9483,31
1601454755.9503,24
1601454755.9523,29
1601454755.9544,34
1601454755.9563,29
1601454755.9583,26
1601454755.9603,29
1601454755.9623,24
1601454755.9643,19
1601454755.9663,24
1601454755.9683,29
1601454755.9703,34
1601454755.9710,36
1601454755.9722,39
1601454755.9742,41
1601454755.9763,41
1601454755.9783,41
1601454755.9802,49
1601454755.9823,53
1601454755.9843,53
1601454755.9863,56
1601454755.9883,58
1601454755.9903,63
1601454755.9922,63
1601454755.9943,61
1601454755.9963,63
1601454755.9983,66
1601454756.0003,66
1601454756.0009,66
1601454756.0023,68
1601454756.0043,71
1601454756.0063,68
1601454756.0083,66
1601454756.0103,66
1601454756.0122,68
1601454756.0143,66
1601454756.0163,66
1601454756.0183,66
1601454756.0203,66
1601454756.0223,63
1601454756.0243,61
1601454756.0262,63
1601454756.0283,66
1601454756.0303,66
1601454756.0309,66
1601454756.0323,66
1601454756.0343,68
1601454756.0362,68
1601454756.0383,68
1601454756.0403,71
1601454756.0423,73
1601454756.0443,71
1601454756.0463,71
1601454756.0483,73
1601454756.0503,73
1601454756.0523,71
1601454756.0543,71
1601454756.0562,71
1601454756.0583,68
1601454756.0602,71
1601454756.0609,73
1601454756.0623,76
1601454756.0642,71
1601454756.0663,68
1601454756.0683,68
1601454756.4763,68
1601454756.4768,66
1601454756.4783,71
1601454756.4790,85
1601454756.4803,93
1601454756.4823,78
1601454756.4843,68
1601454756.4863,66
1601454756.4883,56
1601454756.4903,46
1601454756.4923,49
1601454756.4943,56
1601454756.4963,53
1601454756.4984,53
1601454756.5003,58
1601454756.5022,63
1601454756.5043,56
1601454756.5062,17
1601454756.5083,-53
1601454756.5089,-34
1601454756.5103,211
1601454756.5122,515
1601454756.5143,532
1601454756.5163,331
1601454756.5185,240
1601454756.5203,198
1601454756.5222,49
1601454756.5242,-36
1601454756.5263,2
1601454756.5283,2
1601454756.5303,-19
1601454756.5323,-2
1601454756.5342,7
1601454756.5363,2
1601454756.5383,4
1601454756.5389,14
1601454756.5403,17
1601454756.5423,12
1601454756.5443,12
1601454756.5462,17
1601454756.5483,14
1601454756.5503,12
1601454756.5523,14
1601454756.5542,22
1601454756.5563,22
1601454756.5583,19
1601454756.5603,22
1601454756.5622,26
1601454756.5642,29
1601454756.5663,31
1601454756.5683,36
1601454756.5689,41
1601454756.5703,44
1601454756.5722,49
1601454756.5743,58
1601454756.5763,68
1601454756.5783,80
1601454756.5803,90
1601454756.5823,98
1601454756.5843,107
1601454756.5862,115
1601454756.5883,120
1601454756.5903,122
1601454756.5923,115
1601454756.5942,98
1601454756.5962,80
1601454756.5983,63
1601454756.5989,53
1601454756.6002,41
1601454756.6023,31
1601454756.6042,29
1601454756.6063,31
1601454756.6083,29
1601454757.0764,24
1601454757.0770,26
1601454757.0795,26
1601454757.0822,14
1601454757.0841,14
1601454757.0847,26
1601454757.0861,26
1601454757.0881,22
1601454757.0900,26
1601454757.0920,31
1601454757.0941,31
1601454757.0961,34
1601454757.0981,39
1601454757.1001,44
1601454757.1020,44
1601454757.1041,46
1601454757.1060,51
1601454757.1081,53
1601454757.1100,56
1601454757.1121,58
1601454757.1140,61
1601454757.1146,61
1601454757.1161,58
1601454757.1181,61
1601454757.1200,63
1601454757.1221,66
1601454757.1241,68
1601454757.1261,66
1601454757.1281,63
1601454757.1300,63
1601454757.1320,61
