Time,ECG
1604521753.0578,-65
1604521753.0583,48
1604521753.0595,806
1604521753.0615,2293
1604521753.0635,3391
1604521753.0655,3818
1604521753.0675,4328
1604521753.0695,4892
1604521753.0715,5229
1604521753.0735,5533
1604521753.0755,5875
1604521753.0775,6137
1604521753.0795,6369
1604521753.0815,6621
1604521753.0835,6858
1604521753.0855,7053
1604521753.0875,7219
1604521753.0895,7380
1604521753.0915,7532
1604521753.0935,7672
1604521753.0955,7804
1604521753.0975,7929
1604521753.0995,8040
1604521753.1015,8144
1604521753.1035,8250
1604521753.1055,8339
1604521753.1075,8423
1604521753.1095,8510
1604521753.1115,8592
1604521753.1135,8667
1604521753.1155,8720
1604521753.1175,8715
1604521753.1195,8681
1604521753.1215,8821
1604521753.1235,9401
1604521753.1255,10259
1604521753.1275,10753
1604521753.1295,10273
1604521753.1315,9237
1604521753.1335,8883
1604521753.1355,9180
1604521753.1375,9175
1604521753.1395,9023
1604521753.1415,9110
1604521753.1435,9172
1604521753.1455,9131
1604521753.1475,9151
1604521753.1495,9184
1604521753.1515,9163
1604521753.1536,9153
1604521753.1560,9170
1604521753.1576,9165
1604521753.1595,9153
1604521753.1615,9151
1604521753.1635,9141
1604521753.1655,9139
1604521753.1675,9136
1604521753.1695,9105
1604521753.1715,9071
1604521753.1735,9066
1604521753.1755,9062
1604521753.1775,9035
1604521753.1795,9013
1604521753.1815,9001
1604521753.1835,8977
1604521753.1855,8951
1604521753.1875,8919
1604521753.1895,8886
1604521753.1915,8847
1604521753.1935,8797
1604521753.1955,8724
1604521753.1974,8642
1604521753.1995,8551
1604521753.5972,8450
1604521753.5977,8358
1604521753.6001,8274
1604521753.6028,8187
1604521753.6048,8105
1604521753.6068,8033
1604521753.6087,7973
1604521753.6108,7910
1604521753.6128,7840
1604521753.6147,7773
1604521753.6168,7725
1604521753.6188,7669
1604521753.6207,7578
1604521753.6228,7498
1604521753.6248,7455
1604521753.6269,7392
1604521753.6288,7313
1604521753.6307,7250
1604521753.6328,7197
1604521753.6347,7132
1604521753.6368,7060
1604521753.6388,6988
1604521753.6408,6920
1604521753.6427,6845
1604521753.6448,6766
1604521753.6468,6694
1604521753.6488,6629
1604521753.6508,6547
1604521753.6528,6467
1604521753.6548,6397
1604521753.6568,6330
1604521753.6588,6258
1604521753.6608,6181
1604521753.6627,6101
1604521753.6648,6036
1604521753.6668,5964
1604521753.6688,5880
1604521753.6708,5807
1604521753.6728,5742
1604521753.6748,5668
1604521753.6767,5595
1604521753.6788,5542
1604521753.6808,5489
1604521753.6827,5415
1604521753.6848,5333
1604521753.6868,5260
1604521753.6888,5191
1604521753.6908,5118
1604521753.6927,5041
1604521753.6948,4967
1604521753.6968,4904
1604521753.6988,4827
1604521753.7007,4747
1604521753.7027,4685
1604521753.7048,4627
1604521753.7068,4559
1604521753.7087,4492
1604521753.7108,4410
1604521753.7127,4282
1604521753.7148,4119
1604521753.7168,4126
1604521753.7188,4562
1604521753.7208,5277
1604521753.7228,5672
1604521753.7247,5171
1604521753.7268,4092
1604521753.7288,3610
1604521753.7308,3798
1604521753.7327,3738
1604521753.7347,3512
1604521753.7368,3514
1604521753.7387,3509
1604521753.7407,3406
1604521754.1375,3365
1604521754.1379,3345
1604521754.1404,3283
1604521754.1430,3235
1604521754.1450,3203
1604521754.1470,3155
1604521754.1492,3105
1604521754.1511,3068
1604521754.1530,3027
1604521754.1550,2977
1604521754.1570,2931
1604521754.1590,2905
1604521754.1610,2878
1604521754.1630,2840
1604521754.1650,2803
1604521754.1670,2779
1604521754.1690,2755
1604521754.1710,2731
1604521754.1730,2709
1604521754.1750,2693
1604521754.1770,2669
1604521754.1790,2637
1604521754.1810,2606
1604521754.1830,2572
1604521754.1850,2524
1604521754.1870,2466
1604521754.1890,2404
1604521754.1910,2334
1604521754.1931,2257
1604521754.1950,2187
1604521754.1970,2129
1604521754.1990,2074
1604521754.2010,2018
1604521754.2030,1970
1604521754.2050,1934
1604521754.2070,1900
1604521754.2090,1869
1604521754.2110,1837
1604521754.2130,1806
1604521754.2150,1772
1604521754.2170,1746
1604521754.2190,1719
1604521754.2210,1695
1604521754.2230,1671
1604521754.2250,1647
1604521754.2270,1623
1604521754.2290,1604
1604521754.2310,1582
1604521754.2330,1560
1604521754.2351,1536
1604521754.2370,1510
1604521754.2390,1486
1604521754.2410,1462
1604521754.2430,1438
1604521754.2450,1416
1604521754.2470,1392
1604521754.2490,1365
1604521754.2511,1346
1604521754.2530,1329
1604521754.2550,1308
1604521754.2570,1281
1604521754.2590,1257
1604521754.2610,1240
1604521754.2630,1226
1604521754.2650,1209
1604521754.2670,1194
1604521754.2690,1177
1604521754.2710,1158
1604521754.2730,1136
1604521754.2750,1122
1604521754.2770,1108
1604521754.2790,1086
1604521754.2809,1071
1604521754.7077,1059
1604521754.7088,1045
1604521754.7107,1028
1604521754.7124,1011
1604521754.7144,994
1604521754.7164,980
1604521754.7184,956
1604521754.7204,929
1604521754.7224,915
1604521754.7244,910
1604521754.7264,908
1604521754.7283,917
1604521754.7303,922
1604521754.7323,903
1604521754.7343,879
1604521754.7363,862
1604521754.7383,847
1604521754.7403,833
1604521754.7423,814
1604521754.7443,802
1604521754.7463,792
1604521754.7483,773
1604521754.7503,746
1604521754.7523,739
1604521754.7543,732
1604521754.7563,715
1604521754.7583,700
1604521754.7602,667
1604521754.7622,582
1604521754.7642,496
1604521754.7663,645
1604521754.7683,1211
1604521754.7703,1927
1604521754.7722,2196
1604521754.7743,1580
1604521754.7764,623
1604521754.7783,399
1604521754.7803,628
1604521754.7823,532
1604521754.7843,404
1604521754.7862,486
1604521754.7883,491
1604521754.7903,436
1604521754.7923,452
1604521754.7943,469
1604521754.7963,448
1604521754.7982,445
1604521754.8003,457
1604521754.8023,455
1604521754.8043,448
1604521754.8063,448
1604521754.8083,450
1604521754.8102,448
1604521754.8123,452
1604521754.8143,462
1604521754.8163,467
1604521754.8183,472
1604521754.8202,481
1604521754.8223,491
1604521754.8243,501
1604521754.8263,510
1604521754.8283,522
1604521754.8302,539
1604521754.8323,549
1604521754.8343,551
1604521754.8363,554
1604521754.8383,556
1604521754.8403,549
1604521754.8422,525
1604521754.8443,484
1604521754.8463,445
1604521754.8483,407
1604521754.8503,366
1604521755.2478,332
1604521755.2486,310
1604521755.2501,293
1604521755.2521,269
1604521755.2540,250
1604521755.2559,240
1604521755.2579,231
1604521755.2600,219
1604521755.2620,211
1604521755.2640,211
1604521755.2659,209
1604521755.2679,209
1604521755.2699,216
1604521755.2721,219
1604521755.2741,219
1604521755.2759,219
1604521755.2779,216
1604521755.2799,214
1604521755.2819,209
1604521755.2840,207
1604521755.2860,204
1604521755.2880,204
1604521755.2900,202
1604521755.2919,192
1604521755.2939,178
1604521755.2959,175
1604521755.2979,180
1604521755.2999,178
1604521755.3019,166
1604521755.3040,158
1604521755.3059,161
1604521755.3079,158
1604521755.3099,161
1604521755.3119,166
1604521755.3140,166
1604521755.3159,163
1604521755.3179,166
1604521755.3199,166
1604521755.3219,163
1604521755.3240,163
1604521755.3259,161
1604521755.3279,158
1604521755.3299,154
1604521755.3319,156
1604521755.3340,161
1604521755.3360,154
1604521755.3379,139
1604521755.3399,137
1604521755.3419,142
1604521755.3440,146
1604521755.3459,146
1604521755.3479,142
1604521755.3499,132
1604521755.3519,130
1604521755.3539,139
1604521755.3559,161
1604521755.3579,175
1604521755.3599,166
1604521755.3619,149
1604521755.3640,142
1604521755.3659,137
1604521755.3679,132
1604521755.3699,125
1604521755.3719,120
1604521755.3742,115
1604521755.3759,105
1604521755.3779,96
1604521755.3799,101
1604521755.3819,103
1604521755.3840,98
1604521755.3859,96
1604521755.3879,72
1604521755.3899,-7
1604521755.8776,-89
1604521755.8788,77
1604521755.8812,679
1604521755.8839,1409
1604521755.8858,1609
1604521755.8878,896
1604521755.8899,-4
1604521755.8918,-98
1604521755.8939,122
1604521755.8958,-9
1604521755.8978,-110
1604521755.8998,-26
1604521755.9018,-19
1604521755.9038,-48
1604521755.9057,-16
1604521755.9077,2
1604521755.9097,-7
1604521755.9117,2
1604521755.9138,16
1604521755.9157,21
1604521755.9177,28
1604521755.9197,43
1604521755.9217,52
1604521755.9237,62
1604521755.9257,72
1604521755.9277,89
1604521755.9297,101
1604521755.9317,110
1604521755.9337,127
1604521755.9357,149
1604521755.9378,161
1604521755.9397,178
1604521755.9417,202
1604521755.9439,226
1604521755.9458,243
1604521755.9477,252
1604521755.9497,262
1604521755.9517,267
1604521755.9538,257
1604521755.9557,236
1604521755.9577,204
1604521755.9598,163
1604521755.9619,120
1604521755.9637,79
1604521755.9657,43
1604521755.9677,16
1604521755.9697,2
1604521755.9717,-16
1604521755.9737,-33
1604521755.9757,-33
1604521755.9777,-31
1604521755.9797,-31
1604521755.9817,-36
1604521755.9837,-38
1604521755.9857,-31
1604521755.9877,-24
1604521755.9897,-19
1604521755.9917,-12
1604521755.9938,-2
1604521755.9957,0
1604521755.9977,0
1604521755.9997,2
1604521756.0017,7
1604521756.0037,7
1604521756.0058,7
1604521756.0077,2
1604521756.0097,0
1604521756.0117,0
1604521756.0137,-4
1604521756.0157,-9
1604521756.0177,-14
1604521756.0198,-14
1604521756.0217,-7
1604521756.4179,-4
1604521756.4192,-9
1604521756.4208,-12
1604521756.4226,-12
1604521756.4246,-14
1604521756.4266,-19
1604521756.4286,-26
1604521756.4305,-21
1604521756.4326,-16
1604521756.4345,-24
1604521756.4365,-24
1604521756.4385,-16
1604521756.4405,-19
1604521756.4425,-26
1604521756.4444,-26
1604521756.4464,-14
1604521756.4485,-9
1604521756.4504,-9
1604521756.4525,-7
1604521756.4545,-2
1604521756.4567,-2
1604521756.4585,-2
1604521756.4605,-2
1604521756.4625,0
1604521756.4645,12
1604521756.4665,28
1604521756.4685,48
1604521756.4705,60
1604521756.4724,55
1604521756.4745,45
1604521756.4765,36
1604521756.4784,33
1604521756.4805,33
1604521756.4825,33
1604521756.4845,31
1604521756.4865,26
1604521756.4884,19
1604521756.4905,16
1604521756.4925,21
1604521756.4945,21
1604521756.4964,19
1604521756.4984,4
1604521756.5006,-48
1604521756.5026,-142
1604521756.5045,-98
1604521756.5065,354
1604521756.5085,1105
1604521756.5105,1594
1604521756.5125,1242
1604521756.5144,262
1604521756.5164,-221
1604521756.5185,-4
1604521756.5204,26
1604521756.5224,-146
1604521756.5245,-98
1604521756.5265,-36
1604521756.5285,-86
1604521756.5305,-84
1604521756.5325,-45
1604521756.5345,-50
1604521756.5365,-50
1604521756.5385,-28
1604521756.5405,-19
1604521756.5425,-16
1604521756.5445,-4
1604521756.5465,9
1604521756.5485,14
1604521756.5505,16
1604521756.5525,21
1604521756.5545,31
1604521756.5620,48
1604521756.5636,65
1604521756.5655,81
1604521756.9576,103
1604521756.9585,127
1604521756.9598,146
1604521756.9616,166
1604521756.9636,190
1604521756.9656,207
1604521756.9676,211
1604521756.9696,211
1604521756.9716,209
1604521756.9735,192
1604521756.9757,156
1604521756.9776,105
1604521756.9796,65
1604521756.9818,26
1604521756.9837,-12
1604521756.9856,-43
1604521756.9877,-57
1604521756.9896,-67
1604521756.9917,-77
1604521756.9936,-86
1604521756.9956,-93
1604521756.9976,-91
1604521756.9996,-84
1604521757.0016,-77
1604521757.0036,-72
1604521757.0056,-65
1604521757.0075,-62
1604521757.0096,-55
1604521757.0116,-45
1604521757.0135,-38
1604521757.0156,-28
1604521757.0176,-21
1604521757.0196,-16
1604521757.0216,-14
1604521757.0235,-12
1604521757.0256,-12
1604521757.0276,-9
1604521757.0296,-7
1604521757.0316,-9
1604521757.0336,-9
1604521757.0356,-12
1604521757.0376,-16
1604521757.0396,-16
1604521757.0416,-16
1604521757.0436,-14
1604521757.0456,-12
1604521757.0476,-12
1604521757.0496,-9
1604521757.0516,-4
1604521757.0538,0
1604521757.0556,0
1604521757.0576,-2
1604521757.0596,0
1604521757.0616,0
1604521757.0636,0
1604521757.0655,0
1604521757.0676,4
1604521757.0696,7
1604521757.0716,4
1604521757.0736,2
1604521757.0756,4
1604521757.0776,2
1604521757.0795,0
1604521757.0816,9
1604521757.0836,14
1604521757.0856,12
1604521757.0876,12
1604521757.0896,16
1604521757.0916,16
1604521757.0935,16
1604521757.0956,19
1604521757.0976,24
1604521757.0996,26
1604521757.5278,24
1604521757.5287,21
1604521757.5311,21
1604521757.5338,28
1604521757.5357,43
1604521757.5377,60
1604521757.5397,72
1604521757.5417,60
1604521757.5437,40
1604521757.5457,36
1604521757.5477,36
1604521757.5497,28
1604521757.5517,19
1604521757.5537,19
1604521757.5556,21
1604521757.5576,12
1604521757.5596,7
1604521757.5616,9
1604521757.5637,9
1604521757.5656,7
1604521757.5676,-12
1604521757.5697,-69
1604521757.5716,-156
1604521757.5736,-74
1604521757.5757,404
1604521757.5776,1120
1604521757.5796,1529
1604521757.5819,1112
1604521757.5836,163
1604521757.5856,-226
1604521757.5876,-2
1604521757.5896,-12
1604521757.5904,-168
1604521757.5926,-110
1604521757.5946,-65
1604521757.5966,-115
1604521757.5986,-108
1604521757.6006,-74
1604521757.6026,-81
1604521757.6047,-81
1604521757.6066,-60
1604521757.6086,-50
1604521757.6107,-48
1604521757.6126,-40
1604521757.6146,-26
1604521757.6166,-12
1604521757.6186,0
1604521757.6206,12
1604521757.6213,19
1604521757.6226,28
1604521757.6247,40
1604521757.6266,55
1604521757.6286,72
1604521757.6306,86
1604521757.6326,101
1604521757.6346,122
1604521757.6367,149
1604521757.6386,163
1604521757.6406,173
1604521757.6426,180
1604521757.6447,183
1604521757.6466,173
1604521757.6487,154
1604521757.6494,122
1604521757.6516,86
1604521757.6536,45
1604521757.6556,9
1604521757.6577,-21
1604521757.6596,-43
1604521757.6616,-55
1604521757.6636,-65
1604521757.6657,-74
1604521757.6677,-79
1604521758.0675,-81
1604521758.0685,-79
1604521758.0702,-72
1604521758.0720,-67
1604521758.0740,-60
1604521758.0748,-55
1604521758.0759,-50
1604521758.0779,-45
1604521758.0799,-50
1604521758.0819,-55
1604521758.0840,-50
1604521758.0858,-40
1604521758.0878,-36
1604521758.0898,-33
1604521758.0919,-28
1604521758.0939,-31
1604521758.0958,-33
1604521758.0978,-33
1604521758.0998,-33
1604521758.1018,-36
1604521758.1039,-38
1604521758.1045,-36
1604521758.1058,-31
1604521758.1078,-31
1604521758.1099,-36
1604521758.1118,-33
1604521758.1139,-24
1604521758.1159,-21
1604521758.1179,-24
1604521758.1198,-24
1604521758.1218,-21
1604521758.1239,-21
1604521758.1259,-21
1604521758.1279,-19
1604521758.1298,-14
1604521758.1318,-14
1604521758.1339,-12
1604521758.1346,-9
1604521758.1359,-7
1604521758.1379,-7
1604521758.1399,-9
1604521758.1418,-7
1604521758.1438,-2
1604521758.1459,2
1604521758.1478,4
1604521758.1498,4
1604521758.1518,0
1604521758.1539,-2
1604521758.1558,-2
1604521758.1578,2
1604521758.1598,4
1604521758.1619,7
1604521758.1639,7
1604521758.1645,7
1604521758.1658,7
1604521758.1678,7
1604521758.1700,4
1604521758.1719,4
1604521758.1739,7
1604521758.1758,9
1604521758.1778,7
1604521758.1798,7
1604521758.1818,7
1604521758.1839,9
1604521758.1859,21
1604521758.1878,40
1604521758.1898,55
1604521758.1919,45
1604521758.1939,36
1604521758.1946,33
1604521758.1968,26
1604521758.1989,16
1604521758.2008,12
1604521758.6377,7
1604521758.6385,2
1604521758.6409,-4
1604521758.6436,-12
1604521758.6456,-14
1604521758.6476,-21
1604521758.6497,-36
1604521758.6516,-60
1604521758.6536,-122
1604521758.6555,-190
1604521758.6562,-38
1604521758.6585,503
1604521758.6605,1182
1604521758.6625,1433
1604521758.6645,850
1604521758.6664,-38
1604521758.6685,-238
1604521758.6705,-26
1604521758.6725,-105
1604521758.6745,-214
1604521758.6764,-132
1604521758.6785,-115
1604521758.6805,-156
1604521758.6824,-134
1604521758.6845,-110
1604521758.6865,-120
1604521758.6872,-113
1604521758.6885,-89
1604521758.6905,-86
1604521758.6924,-84
1604521758.6945,-72
1604521758.6965,-60
1604521758.6985,-55
1604521758.7005,-48
1604521758.7027,-36
1604521758.7046,-24
1604521758.7065,-12
1604521758.7085,0
1604521758.7105,12
1604521758.7125,26
1604521758.7145,43
1604521758.7152,62
1604521758.7175,89
1604521758.7195,115
1604521758.7214,130
1604521758.7235,142
1604521758.7254,144
1604521758.7274,137
1604521758.7294,132
1604521758.7315,120
1604521758.7335,84
1604521758.7355,40
1604521758.7375,7
1604521758.7394,-33
1604521758.7415,-69
1604521758.7435,-89
1604521758.7455,-110
1604521758.7461,-132
1604521758.7474,-142
1604521758.7494,-144
1604521758.7514,-134
1604521758.7535,-134
1604521758.7555,-142
1604521758.7575,-134
1604521758.7595,-120
1604521758.7615,-118
1604521758.7635,-113
1604521758.7655,-103
1604521758.7675,-103
1604521758.7694,-108
1604521758.7714,-103
1604521758.7735,-91
1604521758.7754,-89
1604521759.1774,-89
1604521759.1782,-84
1604521759.1807,-81
1604521759.1833,-84
1604521759.1852,-91
1604521759.1872,-96
1604521759.1893,-96
1604521759.1912,-108
1604521759.1932,-118
1604521759.1952,-101
1604521759.1972,-84
1604521759.1992,-86
1604521759.2013,-91
1604521759.2033,-101
1604521759.2040,-96
1604521759.2063,-84
1604521759.2089,-86
1604521759.2102,-74
1604521759.2122,-65
1604521759.2142,-72
1604521759.2163,-74
1604521759.2182,-65
1604521759.2202,-62
1604521759.2222,-65
1604521759.2243,-67
1604521759.2262,-65
1604521759.2282,-60
1604521759.2302,-60
1604521759.2322,-52
1604521759.2343,-50
1604521759.2362,-60
1604521759.2382,-52
1604521759.2402,-43
1604521759.2422,-52
1604521759.2442,-55
1604521759.2462,-40
1604521759.2482,-45
1604521759.2502,-50
1604521759.2522,-36
1604521759.2542,-40
1604521759.2562,-43
1604521759.2582,-16
1604521759.2602,12
1604521759.2622,14
1604521759.2643,2
1604521759.2662,0
1604521759.2682,-14
1604521759.2702,-33
1604521759.2722,-28
1604521759.2742,-24
1604521759.2762,-36
1604521759.2782,-48
1604521759.2802,-50
1604521759.2822,-43
1604521759.2843,-45
1604521759.2862,-55
1604521759.2882,-62
1604521759.2902,-96
1604521759.2922,-187
1604521759.2942,-231
1604521759.2962,45
1604521759.2982,710
1604521759.3002,1341
1604521759.3024,1271
1604521759.3043,378
1604521759.3062,-264
1604521759.3082,-84
1604521759.3103,24
1604521759.3122,-149
1604521759.3142,-115
1604521759.3163,-55
1604521759.3182,-118
1604521759.3202,-120
1604521759.7777,-62
1604521759.7787,-62
1604521759.7812,-79
1604521759.7838,-62
1604521759.7858,-52
1604521759.7878,-52
1604521759.7899,-36
1604521759.7918,-16
1604521759.7939,-16
1604521759.7958,-7
1604521759.7978,9
1604521759.7998,24
1604521759.8018,45
1604521759.8038,50
1604521759.8057,50
1604521759.8077,91
1604521759.8097,127
1604521759.8117,142
1604521759.8138,168
1604521759.8157,185
1604521759.8177,195
1604521759.8198,221
1604521759.8217,240
1604521759.8238,236
1604521759.8257,219
1604521759.8277,197
1604521759.8297,175
1604521759.8317,134
1604521759.8338,69
1604521759.8357,24
1604521759.8377,-7
1604521759.8397,-50
1604521759.8417,-93
1604521759.8438,-110
1604521759.8457,-118
1604521759.8477,-130
1604521759.8497,-130
1604521759.8517,-118
1604521759.8538,-118
1604521759.8557,-122
1604521759.8577,-108
1604521759.8598,-91
1604521759.8617,-91
1604521759.8637,-84
1604521759.8657,-67
1604521759.8677,-77
1604521759.8697,-96
1604521759.8717,-79
1604521759.8738,-57
1604521759.8757,-62
1604521759.8777,-77
1604521759.8797,-72
1604521759.8817,-74
1604521759.8838,-84
1604521759.8858,-65
1604521759.8877,-45
1604521759.8897,-67
1604521759.8917,-81
1604521759.8937,-65
1604521759.8957,-55
1604521759.8977,-52
1604521759.8997,-52
1604521759.9017,-50
1604521759.9037,-48
1604521759.9057,-45
1604521759.9077,-48
1604521759.9097,-48
1604521759.9117,-33
1604521759.9137,-26
1604521759.9157,-14
1604521759.9177,16
1604521759.9197,19
1604521759.9217,-4
1604521760.3479,-9
1604521760.3487,0
1604521760.3512,-24
1604521760.3538,-36
1604521760.3558,-14
1604521760.3578,-24
1604521760.3598,-50
1604521760.3618,-48
1604521760.3639,-40
1604521760.3657,-43
1604521760.3678,-48
1604521760.3698,-55
1604521760.3717,-113
1604521760.3738,-233
1604521760.3757,-221
1604521760.3777,236
1604521760.3797,1038
1604521760.3817,1582
1604521760.3839,1194
1604521760.3859,125
1604521760.3877,-327
1604521760.3897,-33
1604521760.3917,-28
1604521760.3938,-224
1604521760.3957,-161
1604521760.3977,-108
1604521760.3997,-154
1604521760.4017,-134
1604521760.4037,-91
1604521760.4057,-103
1604521760.4077,-105
1604521760.4097,-79
1604521760.4117,-60
1604521760.4138,-55
1604521760.4157,-48
1604521760.4177,-36
1604521760.4197,-24
1604521760.4217,-16
1604521760.4238,0
1604521760.4257,16
1604521760.4277,28
1604521760.4297,50
1604521760.4317,74
1604521760.4338,93
1604521760.4357,127
1604521760.4377,158
1604521760.4397,180
1604521760.4417,209
1604521760.4438,236
1604521760.4457,245
1604521760.4477,248
1604521760.4497,250
1604521760.4517,231
1604521760.4537,180
1604521760.4557,122
1604521760.4577,72
1604521760.4597,24
1604521760.4617,-31
1604521760.4638,-72
1604521760.4657,-103
1604521760.4677,-127
1604521760.4697,-137
1604521760.4717,-139
1604521760.4738,-146
1604521760.4757,-144
1604521760.4777,-125
1604521760.4797,-110
1604521760.4817,-110
1604521760.4838,-108
1604521760.4857,-89
1604521760.4878,-74
1604521760.4897,-81
1604521760.4917,-77
1604521760.8875,-52
1604521760.8884,-45
1604521760.8909,-50
1604521760.8935,-50
1604521760.8954,-45
1604521760.8974,-45
1604521760.8994,-45
1604521760.9014,-45
1604521760.9034,-45
1604521760.9054,-48
1604521760.9074,-60
1604521760.9094,-69
1604521760.9114,-62
1604521760.9134,-52
1604521760.9154,-62
1604521760.9174,-72
1604521760.9194,-60
1604521760.9214,-52
1604521760.9234,-50
1604521760.9254,-40
1604521760.9274,-19
1604521760.9294,2
1604521760.9314,4
1604521760.9334,-9
1604521760.9354,-16
1604521760.9374,-14
1604521760.9394,-12
1604521760.9414,-9
1604521760.9434,-14
1604521760.9454,-26
1604521760.9474,-31
1604521760.9494,-19
1604521760.9514,-12
1604521760.9534,-16
1604521760.9554,-14
1604521760.9574,-19
1604521760.9594,-65
1604521760.9614,-163
1604521760.9634,-209
1604521760.9654,118
1604521760.9674,896
1604521760.9694,1630
1604521760.9714,1575
1604521760.9734,570
1604521760.9754,-250
1604521760.9774,-113
1604521760.9794,62
1604521760.9814,-142
1604521760.9836,-158
1604521760.9854,-55
1604521760.9874,-91
1604521760.9894,-115
1604521760.9914,-69
1604521760.9934,-60
1604521760.9954,-69
1604521760.9974,-52
1604521760.9994,-40
1604521761.0014,-40
1604521761.0034,-33
1604521761.0054,-26
1604521761.0074,-19
1604521761.0094,-7
1604521761.0114,4
1604521761.0134,14
1604521761.0154,31
1604521761.0174,50
1604521761.0194,74
1604521761.0214,101
1604521761.0234,122
1604521761.0254,142
1604521761.0274,171
1604521761.0294,197
1604521761.0314,209
1604521761.4873,219
1604521761.4881,233
1604521761.4906,231
1604521761.4932,207
1604521761.4952,168
1604521761.4972,122
1604521761.4992,74
1604521761.5012,16
1604521761.5032,-45
1604521761.5052,-86
1604521761.5071,-103
1604521761.5091,-120
1604521761.5112,-146
1604521761.5131,-151
1604521761.5151,-139
1604521761.5171,-137
1604521761.5191,-132
1604521761.5211,-118
1604521761.5231,-113
1604521761.5251,-113
1604521761.5271,-103
1604521761.5291,-86
1604521761.5311,-79
1604521761.5331,-74
1604521761.5351,-65
1604521761.5371,-55
1604521761.5392,-45
1604521761.5411,-38
1604521761.5431,-38
1604521761.5451,-33
1604521761.5471,-26
1604521761.5491,-26
1604521761.5511,-28
1604521761.5531,-31
1604521761.5551,-33
1604521761.5571,-33
1604521761.5591,-33
1604521761.5611,-33
1604521761.5631,-28
1604521761.5651,-26
1604521761.5671,-26
1604521761.5691,-26
1604521761.5711,-26
1604521761.5731,-24
1604521761.5751,-21
1604521761.5772,-26
1604521761.5791,-28
1604521761.5811,-12
1604521761.5831,12
1604521761.5851,28
1604521761.5871,24
1604521761.5891,16
1604521761.5911,16
1604521761.5931,12
1604521761.5951,7
1604521761.5971,4
1604521761.5991,4
1604521761.6011,4
1604521761.6031,0
1604521761.6051,-7
1604521761.6071,0
1604521761.6091,9
1604521761.6111,9
1604521761.6131,2
1604521761.6151,-12
1604521761.6171,-67
1604521761.6191,-171
1604521761.6211,-161
1604521761.6231,269
1604521761.6251,1091
1604521761.6271,1712
1604521761.6291,1447
1604521761.6311,375
1604521762.0263,-286
1604521762.0272,-72
1604521762.0297,24
1604521762.0323,-178
1604521762.0345,-158
1604521762.0362,-84
1604521762.0382,-139
1604521762.0402,-139
1604521762.0422,-89
1604521762.0442,-93
1604521762.0462,-98
1604521762.0482,-74
1604521762.0502,-67
1604521762.0523,-74
1604521762.0542,-62
1604521762.0565,-43
1604521762.0582,-36
1604521762.0602,-33
1604521762.0622,-14
1604521762.0642,7
1604521762.0662,19
1604521762.0682,33
1604521762.0702,55
1604521762.0722,74
1604521762.0742,93
1604521762.0762,120
1604521762.0782,151
1604521762.0802,175
1604521762.0822,190
1604521762.0842,199
1604521762.0862,209
1604521762.0882,209
1604521762.0902,190
1604521762.0922,156
1604521762.0942,115
1604521762.0962,67
1604521762.0982,21
1604521762.1002,-14
1604521762.1022,-45
1604521762.1042,-74
1604521762.1062,-96
1604521762.1082,-113
1604521762.1102,-120
1604521762.1122,-115
1604521762.1142,-110
1604521762.1162,-108
1604521762.1182,-105
1604521762.1202,-103
1604521762.1222,-101
1604521762.1242,-91
1604521762.1262,-81
1604521762.1282,-74
1604521762.1302,-69
1604521762.1322,-60
1604521762.1342,-50
1604521762.1363,-45
1604521762.1382,-45
1604521762.1402,-43
1604521762.1422,-40
1604521762.1442,-45
1604521762.1462,-52
1604521762.1482,-55
1604521762.1502,-52
1604521762.1522,-52
1604521762.1543,-52
1604521762.1562,-52
1604521762.1582,-55
1604521762.1602,-52
1604521762.1622,-50
1604521762.1643,-52
1604521762.1662,-52
1604521762.1682,-48
1604521762.1702,-43
1604521762.5375,-45
1604521762.5384,-48
1604521762.5408,-45
1604521762.5435,-40
1604521762.5454,-38
1604521762.5474,-33
1604521762.5496,-43
1604521762.5514,-55
1604521762.5534,-48
1604521762.5554,-40
1604521762.5574,-45
1604521762.5594,-45
1604521762.5614,-36
1604521762.5634,-31
1604521762.5654,-33
1604521762.5674,-36
1604521762.5694,-36
1604521762.5714,-33
1604521762.5734,-19
1604521762.5754,2
1604521762.5774,21
1604521762.5794,19
1604521762.5813,7
1604521762.5834,2
1604521762.5854,4
1604521762.5874,7
1604521762.5894,4
1604521762.5914,0
1604521762.5934,-4
1604521762.5954,-12
1604521762.5974,-19
1604521762.5994,-16
1604521762.6014,-14
1604521762.6036,-16
1604521762.6054,-19
1604521762.6074,-36
1604521762.6094,-93
1604521762.6114,-187
1604521762.6134,-130
1604521762.6154,342
1604521762.6174,1115
1604521762.6194,1625
1604521762.6214,1279
1604521762.6234,245
1604521762.6254,-291
1604521762.6274,-57
1604521762.6294,-14
1604521762.6315,-204
1604521762.6335,-158
1604521762.6354,-93
1604521762.6374,-146
1604521762.6394,-142
1604521762.6414,-108
1604521762.6434,-115
1604521762.6454,-113
1604521762.6474,-89
1604521762.6494,-79
1604521762.6514,-77
1604521762.6534,-65
1604521762.6554,-50
1604521762.6574,-43
1604521762.6594,-36
1604521762.6614,-26
1604521762.6634,-12
1604521762.6654,2
1604521762.6674,16
1604521762.6694,31
1604521762.6714,48
1604521762.6734,67
1604521762.6754,89
1604521762.6774,110
1604521762.6794,132
1604521762.6813,151
1604521763.1374,163
1604521763.1383,171
1604521763.1408,171
1604521763.1434,154
1604521763.1454,120
1604521763.1474,89
1604521763.1495,55
1604521763.1514,14
1604521763.1534,-26
1604521763.1553,-55
1604521763.1573,-77
1604521763.1595,-98
1604521763.1614,-110
1604521763.1633,-110
1604521763.1653,-108
1604521763.1673,-108
1604521763.1693,-108
1604521763.1713,-103
1604521763.1733,-101
1604521763.1753,-96
1604521763.1773,-91
1604521763.1793,-89
1604521763.1813,-84
1604521763.1833,-79
1604521763.1853,-74
1604521763.1873,-69
1604521763.1893,-69
1604521763.1913,-67
1604521763.1933,-62
1604521763.1953,-52
1604521763.1973,-52
1604521763.1993,-57
1604521763.2013,-57
1604521763.2033,-60
1604521763.2053,-62
1604521763.2074,-62
1604521763.2092,-60
1604521763.2113,-60
1604521763.2133,-62
1604521763.2153,-67
1604521763.2173,-62
1604521763.2193,-60
1604521763.2213,-62
1604521763.2233,-62
1604521763.2252,-60
1604521763.2273,-65
1604521763.2292,-69
1604521763.2313,-60
1604521763.2332,-55
1604521763.2353,-52
1604521763.2373,-55
1604521763.2393,-52
1604521763.2412,-48
1604521763.2433,-43
1604521763.2453,-45
1604521763.2473,-50
1604521763.2493,-52
1604521763.2513,-48
1604521763.2533,-43
1604521763.2552,-38
1604521763.2573,-31
1604521763.2592,-31
1604521763.2614,-33
1604521763.2633,-31
1604521763.2653,-26
1604521763.2673,-28
1604521763.2693,-26
1604521763.2713,-21
1604521763.2733,-19
1604521763.2753,-19
1604521763.2773,-19
1604521763.2792,-21
1604521763.2813,-24
1604521763.7078,-12
1604521763.7086,9
1604521763.7111,24
1604521763.7137,26
1604521763.7157,14
1604521763.7177,4
1604521763.7198,0
1604521763.7217,-4
1604521763.7239,-14
1604521763.7256,-26
1604521763.7277,-28
1604521763.7296,-28
1604521763.7316,-33
1604521763.7337,-36
1604521763.7356,-36
1604521763.7375,-43
1604521763.7396,-48
1604521763.7416,-57
1604521763.7437,-101
1604521763.7456,-183
1604521763.7476,-156
1604521763.7496,243
1604521763.7516,965
1604521763.7536,1505
1604521763.7556,1279
1604521763.7576,325
1604521763.7595,-284
1604521763.7616,-105
1604521763.7638,-19
1604521763.7656,-204
1604521763.7676,-185
1604521763.7695,-105
1604521763.7715,-144
1604521763.7736,-151
1604521763.7756,-113
1604521763.7776,-110
1604521763.7796,-113
1604521763.7816,-93
1604521763.7836,-86
1604521763.7856,-91
1604521763.7878,-79
1604521763.7896,-62
1604521763.7916,-48
1604521763.7936,-38
1604521763.7956,-31
1604521763.7976,-19
1604521763.7997,-2
1604521763.8016,4
1604521763.8036,12
1604521763.8055,26
1604521763.8075,50
1604521763.8096,72
1604521763.8103,96
1604521763.8116,115
1604521763.8136,134
1604521763.8155,146
1604521763.8176,151
1604521763.8196,154
1604521763.8216,149
1604521763.8237,130
1604521763.8256,93
1604521763.8276,52
1604521763.8296,12
1604521763.8316,-31
1604521763.8336,-65
1604521763.8356,-86
1604521763.8376,-105
1604521763.8396,-125
1604521763.8403,-132
1604521763.8426,-130
1604521763.8446,-130
1604521763.8466,-132
1604521763.8486,-130
1604521764.2480,-120
1604521764.2489,-113
1604521764.2503,-110
1604521764.2520,-108
1604521764.2540,-101
1604521764.2560,-93
1604521764.2580,-93
1604521764.2600,-93
1604521764.2620,-89
1604521764.2640,-86
1604521764.2647,-91
1604521764.2669,-86
1604521764.2690,-79
1604521764.2709,-86
1604521764.2729,-89
1604521764.2750,-81
1604521764.2769,-77
1604521764.2789,-77
1604521764.2811,-74
1604521764.2829,-77
1604521764.2849,-77
1604521764.2869,-74
1604521764.2889,-69
1604521764.2909,-67
1604521764.2930,-67
1604521764.2949,-69
1604521764.2956,-65
1604521764.2969,-65
1604521764.2989,-67
1604521764.3009,-60
1604521764.3029,-52
1604521764.3049,-60
1604521764.3069,-62
1604521764.3089,-57
1604521764.3110,-57
1604521764.3129,-57
1604521764.3149,-57
1604521764.3169,-60
1604521764.3189,-60
1604521764.3209,-50
1604521764.3229,-43
1604521764.3250,-43
1604521764.3256,-45
1604521764.3279,-40
1604521764.3299,-36
1604521764.3320,-36
1604521764.3340,-33
1604521764.3359,-28
1604521764.3379,-31
1604521764.3399,-36
1604521764.3419,-31
1604521764.3441,-24
1604521764.3459,-24
1604521764.3479,-21
1604521764.3499,-19
1604521764.3519,-21
1604521764.3539,-26
1604521764.3559,-26
1604521764.3566,-16
1604521764.3589,-7
1604521764.3610,0
1604521764.3629,12
1604521764.3649,19
1604521764.3670,16
1604521764.3689,12
1604521764.3709,2
1604521764.3729,-7
1604521764.3749,-9
1604521764.3769,-12
1604521764.3791,-19
1604521764.3810,-31
1604521764.3829,-31
1604521764.3850,-26
1604521764.8174,-26
1604521764.8183,-28
1604521764.8207,-31
1604521764.8233,-43
1604521764.8253,-91
1604521764.8273,-180
1604521764.8293,-173
1604521764.8313,199
1604521764.8334,917
1604521764.8352,1476
1604521764.8372,1255
1604521764.8392,303
1604521764.8412,-296
1604521764.8432,-120
1604521764.8439,-36
1604521764.8462,-224
1604521764.8482,-209
1604521764.8502,-125
1604521764.8522,-163
1604521764.8542,-175
1604521764.8562,-134
1604521764.8582,-125
1604521764.8602,-130
1604521764.8622,-122
1604521764.8642,-113
1604521764.8662,-103
1604521764.8682,-89
1604521764.8702,-77
1604521764.8722,-69
1604521764.8742,-69
1604521764.8749,-60
1604521764.8773,-38
1604521764.8792,-26
1604521764.8812,-14
1604521764.8832,4
1604521764.8852,26
1604521764.8872,48
1604521764.8892,74
1604521764.8912,103
1604521764.8932,127
1604521764.8952,144
1604521764.8972,166
1604521764.8992,178
1604521764.9012,178
1604521764.9032,173
1604521764.9052,158
1604521764.9059,130
1604521764.9074,91
1604521764.9092,38
1604521764.9112,-12
1604521764.9133,-50
1604521764.9152,-74
1604521764.9172,-101
1604521764.9192,-125
1604521764.9212,-137
1604521764.9232,-142
1604521764.9252,-144
1604521764.9272,-142
1604521764.9292,-132
1604521764.9312,-122
1604521764.9332,-118
1604521764.9352,-113
1604521764.9359,-101
1604521764.9372,-91
1604521764.9392,-93
1604521764.9412,-91
1604521764.9433,-81
1604521764.9452,-72
1604521764.9472,-72
1604521764.9492,-74
1604521764.9512,-72
1604521764.9532,-69
1604521764.9553,-74
1604521765.3573,-79
1604521765.3582,-74
1604521765.3605,-74
1604521765.3633,-74
1604521765.3638,-74
1604521765.3662,-74
1604521765.3682,-77
1604521765.3702,-74
1604521765.3722,-81
1604521765.3742,-89
1604521765.3761,-77
1604521765.3781,-69
1604521765.3801,-77
1604521765.3821,-79
1604521765.3841,-69
1604521765.3861,-62
1604521765.3881,-65
1604521765.3901,-69
1604521765.3921,-62
1604521765.3942,-57
1604521765.3948,-62
1604521765.3971,-60
1604521765.3991,-52
1604521765.4011,-55
1604521765.4031,-52
1604521765.4054,-45
1604521765.4071,-48
1604521765.4091,-52
1604521765.4111,-48
1604521765.4131,-31
1604521765.4152,-9
1604521765.4172,7
1604521765.4191,2
1604521765.4211,-4
1604521765.4231,-12
1604521765.4252,-21
1604521765.4271,-21
1604521765.4291,-19
1604521765.4311,-24
1604521765.4331,-31
1604521765.4351,-36
1604521765.4371,-36
1604521765.4391,-28
1604521765.4411,-28
1604521765.4432,-31
1604521765.4451,-36
1604521765.4471,-62
1604521765.4491,-132
1604521765.4511,-226
1604521765.4531,-120
1604521765.4552,426
1604521765.4571,1197
1604521765.4591,1551
1604521765.4612,970
1604521765.4631,-26
1604521765.4651,-269
1604521765.4671,-2
1604521765.4691,-74
1604521765.4712,-211
1604521765.4731,-127
1604521765.4751,-101
1604521765.4772,-146
1604521765.4791,-125
1604521765.4811,-91
1604521765.4831,-93
1604521765.4851,-89
1604521765.4871,-74
1604521765.4892,-69
1604521765.4912,-62
1604521765.4932,-50
1604521765.4951,-40
1604521765.4971,-31
1604521765.4991,-19
1604521765.9273,-4
1604521765.9282,4
1604521765.9306,24
1604521765.9336,43
1604521765.9353,52
1604521765.9373,62
1604521765.9394,79
1604521765.9412,105
1604521765.9433,137
1604521765.9453,158
1604521765.9473,171
1604521765.9493,183
1604521765.9513,187
1604521765.9533,185
1604521765.9552,168
1604521765.9573,139
1604521765.9592,93
1604521765.9612,43
1604521765.9632,-2
1604521765.9652,-43
1604521765.9672,-77
1604521765.9692,-108
1604521765.9712,-132
1604521765.9732,-144
1604521765.9752,-149
1604521765.9772,-151
1604521765.9792,-149
1604521765.9812,-142
1604521765.9832,-132
1604521765.9852,-122
1604521765.9872,-118
1604521765.9892,-108
1604521765.9912,-91
1604521765.9932,-81
1604521765.9952,-77
1604521765.9972,-69
1604521765.9992,-65
1604521766.0013,-62
1604521766.0032,-52
1604521766.0052,-50
1604521766.0072,-57
1604521766.0092,-57
1604521766.0112,-52
1604521766.0132,-55
1604521766.0152,-60
1604521766.0172,-60
1604521766.0192,-60
1604521766.0212,-60
1604521766.0232,-57
1604521766.0252,-55
1604521766.0272,-57
1604521766.0293,-57
1604521766.0312,-57
1604521766.0332,-55
1604521766.0353,-52
1604521766.0372,-48
1604521766.0392,-45
1604521766.0412,-43
1604521766.0432,-38
1604521766.0452,-36
1604521766.0472,-33
1604521766.0492,-31
1604521766.0512,-31
1604521766.0532,-33
1604521766.0552,-31
1604521766.0572,-26
1604521766.0592,-26
1604521766.0612,-26
1604521766.0632,-26
1604521766.0652,-28
1604521766.0672,-28
1604521766.0692,-24
1604521766.0712,-26
1604521766.5273,-26
1604521766.5281,-24
1604521766.5305,-36
1604521766.5332,-43
1604521766.5351,-36
1604521766.5372,-24
1604521766.5393,-14
1604521766.5412,-2
1604521766.5432,0
1604521766.5451,-2
1604521766.5472,-9
1604521766.5492,-21
1604521766.5512,-26
1604521766.5531,-31
1604521766.5551,-36
1604521766.5571,-38
1604521766.5591,-38
1604521766.5611,-43
1604521766.5631,-43
1604521766.5651,-40
1604521766.5671,-40
1604521766.5691,-38
1604521766.5711,-50
1604521766.5731,-98
1604521766.5751,-187
1604521766.5771,-168
1604521766.5791,226
1604521766.5811,956
1604521766.5831,1519
1604521766.5851,1315
1604521766.5871,356
1604521766.5891,-284
1604521766.5913,-113
1604521766.5931,-14
1604521766.5951,-204
1604521766.5971,-192
1604521766.5991,-108
1604521766.6010,-144
1604521766.6031,-156
1604521766.6051,-118
1604521766.6071,-113
1604521766.6091,-113
1604521766.6111,-98
1604521766.6131,-86
1604521766.6150,-79
1604521766.6170,-69
1604521766.6190,-60
1604521766.6211,-45
1604521766.6231,-28
1604521766.6251,-16
1604521766.6271,-7
1604521766.6291,4
1604521766.6311,21
1604521766.6331,38
1604521766.6351,55
1604521766.6371,77
1604521766.6391,101
1604521766.6411,120
1604521766.6430,142
1604521766.6451,163
1604521766.6471,183
1604521766.6491,192
1604521766.6510,192
1604521766.6531,183
1604521766.6551,163
1604521766.6571,132
1604521766.6591,86
1604521766.6611,38
1604521766.6631,-2
1604521766.6651,-38
1604521766.6671,-69
1604521766.6691,-96
1604521766.6711,-110
1604521767.0676,-120
1604521767.0682,-127
1604521767.0707,-130
1604521767.0733,-122
1604521767.0753,-120
1604521767.0773,-118
1604521767.0794,-108
1604521767.0813,-103
1604521767.0833,-98
1604521767.0853,-89
1604521767.0875,-77
1604521767.0893,-74
1604521767.0913,-79
1604521767.0933,-72
1604521767.0952,-62
1604521767.0972,-60
1604521767.0994,-57
1604521767.1012,-48
1604521767.1033,-43
1604521767.1052,-50
1604521767.1073,-52
1604521767.1093,-45
1604521767.1113,-43
1604521767.1132,-45
1604521767.1152,-45
1604521767.1172,-43
1604521767.1192,-48
1604521767.1212,-50
1604521767.1232,-48
1604521767.1252,-45
1604521767.1272,-40
1604521767.1292,-38
1604521767.1312,-38
1604521767.1332,-36
1604521767.1352,-31
1604521767.1372,-31
1604521767.1392,-31
1604521767.1412,-26
1604521767.1432,-24
1604521767.1453,-24
1604521767.1472,-19
1604521767.1492,-16
1604521767.1512,-16
1604521767.1532,-16
1604521767.1552,-14
1604521767.1572,-12
1604521767.1593,-9
1604521767.1612,-9
1604521767.1632,-7
1604521767.1652,-4
1604521767.1672,-4
1604521767.1692,-4
1604521767.1712,-2
1604521767.1732,0
1604521767.1752,-2
1604521767.1772,-4
1604521767.1792,-7
1604521767.1812,-7
1604521767.1832,-2
1604521767.1852,9
1604521767.1872,26
1604521767.1894,38
1604521767.1913,31
1604521767.1932,19
1604521767.1952,12
1604521767.1972,7
1604521767.1992,0
1604521767.2012,-4
1604521767.2032,-7
1604521767.2052,-14
1604521767.2073,-21
1604521767.2092,-21
1604521767.2112,-19
1604521767.6077,-24
1604521767.6085,-26
1604521767.6101,-31
1604521767.6121,-60
1604521767.6142,-142
1604521767.6161,-168
1604521767.6181,115
1604521767.6201,768
1604521767.6222,1392
1604521767.6241,1397
1604521767.6260,580
1604521767.6281,-197
1604521767.6300,-168
1604521767.6320,0
1604521767.6341,-154
1604521767.6360,-197
1604521767.6380,-108
1604521767.6400,-127
1604521767.6420,-149
1604521767.6441,-113
1604521767.6460,-101
1604521767.6480,-108
1604521767.6500,-93
1604521767.6521,-77
1604521767.6541,-74
1604521767.6560,-65
1604521767.6580,-52
1604521767.6600,-38
1604521767.6620,-26
1604521767.6641,-19
1604521767.6661,-9
1604521767.6680,4
1604521767.6700,16
1604521767.6720,31
1604521767.6741,50
1604521767.6760,67
1604521767.6780,86
1604521767.6800,108
1604521767.6820,132
1604521767.6842,151
1604521767.6861,168
1604521767.6881,183
1604521767.6900,190
1604521767.6920,185
1604521767.6941,171
1604521767.6960,146
1604521767.6980,113
1604521767.7000,69
1604521767.7020,24
1604521767.7041,-16
1604521767.7060,-50
1604521767.7080,-77
1604521767.7100,-96
1604521767.7120,-108
1604521767.7140,-110
1604521767.7160,-110
1604521767.7180,-113
1604521767.7200,-110
1604521767.7220,-105
1604521767.7240,-105
1604521767.7260,-98
1604521767.7280,-89
1604521767.7300,-81
1604521767.7320,-77
1604521767.7341,-72
1604521767.7360,-62
1604521767.7380,-60
1604521767.7400,-60
1604521767.7420,-57
1604521767.7440,-50
1604521767.7461,-43
1604521767.7480,-40
1604521767.7500,-43
1604521768.1774,-45
1604521768.1783,-45
1604521768.1807,-45
1604521768.1833,-45
1604521768.1853,-43
1604521768.1874,-43
1604521768.1894,-55
1604521768.1913,-65
1604521768.1933,-65
1604521768.1953,-60
1604521768.1973,-55
1604521768.1993,-55
1604521768.2013,-52
1604521768.2033,-50
1604521768.2052,-52
1604521768.2072,-50
1604521768.2092,-48
1604521768.2114,-43
1604521768.2133,-40
1604521768.2152,-38
1604521768.2172,-36
1604521768.2192,-31
1604521768.2212,-28
1604521768.2232,-26
1604521768.2252,-24
1604521768.2272,-21
1604521768.2292,-19
1604521768.2312,-16
1604521768.2332,-14
1604521768.2352,-14
1604521768.2372,-14
1604521768.2392,-12
1604521768.2412,-9
1604521768.2432,-12
1604521768.2452,-9
1604521768.2473,-4
1604521768.2493,-4
1604521768.2512,-2
1604521768.2533,0
1604521768.2552,-2
1604521768.2572,-7
1604521768.2592,-7
1604521768.2612,-7
1604521768.2632,-9
1604521768.2652,-12
1604521768.2672,-21
1604521768.2692,-24
1604521768.2712,-12
1604521768.2732,4
1604521768.2752,21
1604521768.2772,33
1604521768.2792,26
1604521768.2812,14
1604521768.2832,4
1604521768.2852,0
1604521768.2872,-4
1604521768.2892,-9
1604521768.2912,-12
1604521768.2932,-14
1604521768.2952,-26
1604521768.2972,-31
1604521768.2992,-28
1604521768.3012,-26
1604521768.3032,-26
1604521768.3052,-33
1604521768.3072,-67
1604521768.3092,-142
1604521768.3112,-168
1604521768.3134,98
1604521768.3153,722
1604521768.3172,1327
1604521768.3192,1341
1604521768.3212,563
1604521768.7172,-183
1604521768.7181,-161
1604521768.7206,0
1604521768.7232,-149
1604521768.7252,-195
1604521768.7272,-118
1604521768.7293,-134
1604521768.7312,-161
1604521768.7332,-132
1604521768.7351,-120
1604521768.7372,-125
1604521768.7391,-115
1604521768.7411,-101
1604521768.7431,-93
1604521768.7451,-86
1604521768.7471,-74
1604521768.7491,-62
1604521768.7511,-52
1604521768.7532,-43
1604521768.7551,-31
1604521768.7571,-16
1604521768.7591,-2
1604521768.7612,9
1604521768.7631,24
1604521768.7651,43
1604521768.7671,65
1604521768.7691,86
1604521768.7711,110
1604521768.7731,132
1604521768.7751,146
1604521768.7771,154
1604521768.7791,161
1604521768.7811,161
1604521768.7831,154
1604521768.7852,132
1604521768.7871,98
1604521768.7891,55
1604521768.7911,12
1604521768.7931,-31
1604521768.7951,-62
1604521768.7971,-86
1604521768.7991,-110
1604521768.8011,-127
1604521768.8031,-132
1604521768.8051,-132
1604521768.8071,-132
1604521768.8093,-130
1604521768.8111,-122
1604521768.8131,-110
1604521768.8151,-103
1604521768.8170,-101
1604521768.8191,-93
1604521768.8211,-81
1604521768.8231,-84
1604521768.8251,-89
1604521768.8271,-79
1604521768.8291,-69
1604521768.8311,-67
1604521768.8332,-69
1604521768.8351,-67
1604521768.8371,-67
1604521768.8391,-65
1604521768.8411,-62
1604521768.8431,-62
1604521768.8451,-62
1604521768.8471,-62
1604521768.8491,-65
1604521768.8511,-67
1604521768.8531,-67
1604521768.8552,-72
1604521768.8571,-77
1604521768.8590,-74
1604521768.8612,-72
1604521769.2873,-72
1604521769.2882,-74
1604521769.2906,-77
1604521769.2933,-74
1604521769.2953,-79
1604521769.2973,-86
1604521769.2993,-84
1604521769.3013,-74
1604521769.3034,-72
1604521769.3052,-74
1604521769.3072,-72
1604521769.3092,-74
1604521769.3113,-72
1604521769.3132,-65
1604521769.3152,-67
1604521769.3172,-67
1604521769.3192,-65
1604521769.3212,-62
1604521769.3232,-62
1604521769.3251,-60
1604521769.3272,-60
1604521769.3292,-67
1604521769.3312,-69
1604521769.3332,-67
1604521769.3353,-67
1604521769.3372,-67
1604521769.3392,-65
1604521769.3411,-60
1604521769.3431,-62
1604521769.3451,-65
1604521769.3472,-69
1604521769.3492,-67
1604521769.3512,-57
1604521769.3532,-38
1604521769.3552,-19
1604521769.3572,-16
1604521769.3592,-26
1604521769.3612,-31
1604521769.3632,-38
1604521769.3651,-43
1604521769.3672,-40
1604521769.3692,-43
1604521769.3712,-50
1604521769.3732,-57
1604521769.3752,-55
1604521769.3772,-52
1604521769.3792,-52
1604521769.3811,-50
1604521769.3831,-60
1604521769.3851,-98
1604521769.3872,-180
1604521769.3892,-216
1604521769.3912,60
1604521769.3932,717
1604521769.3952,1320
1604521769.3972,1262
1604521769.3992,433
1604521769.4012,-240
1604521769.4032,-146
1604521769.4052,-14
1604521769.4072,-175
1604521769.4092,-190
1604521769.4112,-110
1604521769.4131,-137
1604521769.4152,-149
1604521769.4171,-113
1604521769.4192,-105
1604521769.4212,-105
1604521769.4232,-86
1604521769.4252,-77
1604521769.4272,-74
1604521769.4292,-67
1604521769.4312,-62
1604521769.8876,-52
1604521769.8885,-38
1604521769.8911,-26
1604521769.8937,-16
1604521769.8956,-2
1604521769.8976,9
1604521769.8997,14
1604521769.9016,26
1604521769.9036,50
1604521769.9055,77
1604521769.9075,101
1604521769.9095,127
1604521769.9115,149
1604521769.9136,166
1604521769.9154,178
1604521769.9175,183
1604521769.9194,183
1604521769.9215,171
1604521769.9235,146
1604521769.9254,110
1604521769.9275,65
1604521769.9295,16
1604521769.9315,-28
1604521769.9335,-67
1604521769.9354,-96
1604521769.9375,-122
1604521769.9395,-142
1604521769.9415,-146
1604521769.9435,-146
1604521769.9455,-144
1604521769.9474,-142
1604521769.9495,-134
1604521769.9515,-125
1604521769.9536,-118
1604521769.9555,-103
1604521769.9575,-91
1604521769.9595,-86
1604521769.9614,-84
1604521769.9635,-79
1604521769.9655,-74
1604521769.9675,-72
1604521769.9695,-69
1604521769.9714,-67
1604521769.9735,-65
1604521769.9755,-65
1604521769.9775,-72
1604521769.9795,-74
1604521769.9815,-72
1604521769.9835,-65
1604521769.9855,-60
1604521769.9875,-60
1604521769.9894,-62
1604521769.9915,-60
1604521769.9937,-57
1604521769.9956,-55
1604521769.9975,-48
1604521769.9994,-45
1604521770.0016,-43
1604521770.0035,-40
1604521770.0055,-38
1604521770.0075,-36
1604521770.0095,-33
1604521770.0115,-33
1604521770.0135,-31
1604521770.0155,-28
1604521770.0174,-26
1604521770.0194,-28
1604521770.0214,-24
1604521770.0234,-12
1604521770.0254,4
1604521770.0274,16
1604521770.0294,14
1604521770.0314,2
1604521770.4284,-4
1604521770.4291,-9
1604521770.4308,-12
1604521770.4327,-21
1604521770.4346,-28
1604521770.4366,-31
1604521770.4386,-33
1604521770.4406,-36
1604521770.4426,-33
1604521770.4446,-31
1604521770.4467,-33
1604521770.4486,-40
1604521770.4505,-57
1604521770.4525,-113
1604521770.4533,-209
1604521770.4555,-154
1604521770.4576,315
1604521770.4596,1055
1604521770.4615,1481
1604521770.4636,1035
1604521770.4655,74
1604521770.4675,-277
1604521770.4695,-43
1604521770.4715,-60
1604521770.4737,-204
1604521770.4755,-142
1604521770.4775,-103
1604521770.4795,-144
1604521770.4816,-120
1604521770.4836,-89
1604521770.4843,-98
1604521770.4857,-93
1604521770.4876,-72
1604521770.4895,-65
1604521770.4915,-60
1604521770.4936,-50
1604521770.4956,-38
1604521770.4975,-31
1604521770.4996,-21
1604521770.5016,-9
1604521770.5036,2
1604521770.5055,16
1604521770.5075,31
1604521770.5095,48
1604521770.5115,69
1604521770.5137,89
1604521770.5142,113
1604521770.5165,139
1604521770.5186,166
1604521770.5206,183
1604521770.5225,192
1604521770.5246,199
1604521770.5265,199
1604521770.5285,190
1604521770.5305,163
1604521770.5326,127
1604521770.5346,81
1604521770.5365,33
1604521770.5385,-9
1604521770.5407,-43
1604521770.5425,-72
1604521770.5432,-96
1604521770.5455,-113
1604521770.5475,-120
1604521770.5496,-120
1604521770.5515,-118
1604521770.5536,-118
1604521770.5556,-110
1604521770.5576,-108
1604521770.5596,-105
1604521770.5616,-96
1604521770.5636,-86
1604521770.5655,-79
1604521770.9972,-72
1604521770.9982,-67
1604521771.0006,-62
1604521771.0032,-57
1604521771.0039,-55
1604521771.0061,-50
1604521771.0082,-50
1604521771.0102,-62
1604521771.0121,-72
1604521771.0144,-77
1604521771.0162,-74
1604521771.0181,-77
1604521771.0201,-81
1604521771.0222,-77
1604521771.0242,-69
1604521771.0261,-67
1604521771.0281,-69
1604521771.0301,-65
1604521771.0321,-57
1604521771.0341,-55
1604521771.0348,-60
1604521771.0371,-57
1604521771.0391,-55
1604521771.0411,-55
1604521771.0431,-50
1604521771.0451,-43
1604521771.0471,-43
1604521771.0491,-45
1604521771.0511,-45
1604521771.0531,-45
1604521771.0551,-43
1604521771.0571,-43
1604521771.0591,-43
1604521771.0611,-40
1604521771.0631,-40
1604521771.0651,-38
1604521771.0658,-31
1604521771.0682,-14
1604521771.0701,4
1604521771.0721,9
1604521771.0741,0
1604521771.0761,-7
1604521771.0781,-14
1604521771.0801,-21
1604521771.0821,-21
1604521771.0841,-21
1604521771.0861,-24
1604521771.0881,-26
1604521771.0901,-28
1604521771.0921,-26
1604521771.0941,-24
1604521771.0961,-24
1604521771.0968,-24
1604521771.0991,-33
1604521771.1011,-86
1604521771.1031,-178
1604521771.1051,-144
1604521771.1071,257
1604521771.1091,953
1604521771.1111,1440
1604521771.1132,1141
1604521771.1151,221
1604521771.1171,-262
1604521771.1191,-74
1604521771.1211,-33
1604521771.1231,-192
1604521771.1251,-158
1604521771.1271,-103
1604521771.1278,-139
1604521771.1301,-132
1604521771.1321,-101
1604521771.1341,-101
1604521771.1361,-98
1604521771.5373,-89
1604521771.5381,-84
1604521771.5406,-74
1604521771.5432,-60
1604521771.5452,-48
1604521771.5472,-43
1604521771.5493,-36
1604521771.5512,-24
1604521771.5519,-9
1604521771.5542,-4
1604521771.5561,0
1604521771.5581,16
1604521771.5601,36
1604521771.5621,52
1604521771.5641,77
1604521771.5661,105
1604521771.5681,132
1604521771.5701,151
1604521771.5721,163
1604521771.5741,171
1604521771.5761,175
1604521771.5781,168
1604521771.5801,149
1604521771.5821,120
1604521771.5828,79
1604521771.5852,36
1604521771.5871,-2
1604521771.5891,-38
1604521771.5911,-69
1604521771.5931,-91
1604521771.5951,-105
1604521771.5971,-113
1604521771.5991,-115
1604521771.6011,-113
1604521771.6031,-110
1604521771.6051,-108
1604521771.6071,-108
1604521771.6091,-103
1604521771.6113,-93
1604521771.6133,-84
1604521771.6153,-79
1604521771.6171,-74
1604521771.6191,-69
1604521771.6211,-62
1604521771.6231,-57
1604521771.6251,-50
1604521771.6271,-43
1604521771.6292,-40
1604521771.6311,-40
1604521771.6331,-43
1604521771.6351,-43
1604521771.6371,-48
1604521771.6391,-48
1604521771.6411,-45
1604521771.6431,-43
1604521771.6451,-40
1604521771.6471,-40
1604521771.6491,-40
1604521771.6511,-40
1604521771.6531,-36
1604521771.6551,-33
1604521771.6571,-36
1604521771.6591,-33
1604521771.6611,-28
1604521771.6631,-31
1604521771.6651,-38
1604521771.6671,-38
1604521771.6691,-36
1604521771.6711,-33
1604521771.6731,-33
1604521771.6751,-31
1604521771.6771,-28
1604521771.6791,-31
1604521772.1078,-28
1604521772.1086,-21
1604521772.1110,-21
1604521772.1136,-21
1604521772.1157,-21
1604521772.1176,-26
1604521772.1197,-36
1604521772.1216,-31
1604521772.1237,-12
1604521772.1256,9
1604521772.1276,9
1604521772.1296,-4
1604521772.1317,-9
1604521772.1393,-9
1604521772.1406,-14
1604521772.1426,-21
1604521772.1448,-26
1604521772.1466,-28
1604521772.1486,-31
1604521772.1506,-38
1604521772.1526,-33
1604521772.1546,-26
1604521772.1566,-28
1604521772.1586,-31
1604521772.1606,-36
1604521772.1626,-69
1604521772.1646,-146
1604521772.1666,-161
1604521772.1686,134
1604521772.1705,780
1604521772.1726,1365
1604521772.1746,1276
1604521772.1765,438
1604521772.1785,-204
1604521772.1806,-113
1604521772.1825,-4
1604521772.1846,-158
1604521772.1866,-171
1604521772.1885,-98
1604521772.1905,-120
1604521772.1926,-134
1604521772.1946,-113
1604521772.1965,-110
1604521772.1985,-110
1604521772.2005,-93
1604521772.2025,-84
1604521772.2046,-84
1604521772.2065,-79
1604521772.2085,-62
1604521772.2105,-50
1604521772.2125,-43
1604521772.2146,-33
1604521772.2165,-24
1604521772.2186,-16
1604521772.2205,2
1604521772.2225,28
1604521772.2246,40
1604521772.2265,45
1604521772.2286,67
1604521772.2305,103
1604521772.2326,125
1604521772.2346,142
1604521772.2365,163
1604521772.2385,175
1604521772.2406,178
1604521772.2425,178
1604521772.2446,166
1604521772.2467,137
1604521772.2486,96
1604521772.2505,50
1604521772.2525,4
1604521772.2546,-38
1604521772.2565,-74
1604521772.6477,-96
1604521772.6485,-113
1604521772.6510,-130
1604521772.6537,-137
1604521772.6556,-137
1604521772.6576,-130
1604521772.6596,-125
1604521772.6616,-130
1604521772.6636,-134
1604521772.6656,-122
1604521772.6676,-105
1604521772.6696,-103
1604521772.6716,-101
1604521772.6736,-91
1604521772.6756,-81
1604521772.6776,-79
1604521772.6796,-74
1604521772.6816,-67
1604521772.6835,-65
1604521772.6855,-67
1604521772.6877,-65
1604521772.6895,-67
1604521772.6915,-69
1604521772.6936,-67
1604521772.6955,-62
1604521772.6975,-60
1604521772.6995,-62
1604521772.7015,-65
1604521772.7036,-67
1604521772.7055,-67
1604521772.7075,-65
1604521772.7095,-60
1604521772.7115,-62
1604521772.7136,-67
1604521772.7156,-60
1604521772.7175,-55
1604521772.7195,-60
1604521772.7215,-52
1604521772.7236,-43
1604521772.7255,-48
1604521772.7275,-57
1604521772.7295,-55
1604521772.7316,-40
1604521772.7336,-24
1604521772.7355,-9
1604521772.7377,2
1604521772.7396,-4
1604521772.7415,-14
1604521772.7436,-14
1604521772.7455,-16
1604521772.7475,-36
1604521772.7495,-48
1604521772.7515,-43
1604521772.7536,-45
1604521772.7555,-60
1604521772.7575,-55
1604521772.7595,-40
1604521772.7615,-43
1604521772.7636,-48
1604521772.7655,-45
1604521772.7675,-60
1604521772.7695,-122
1604521772.7715,-214
1604521772.7736,-120
1604521772.7755,390
1604521772.7775,1120
1604521772.7796,1457
1604521772.7816,896
1604521772.7836,-33
1604521772.7855,-245
1604521772.7876,-7
1604521772.7895,-81
1604521772.7915,-199
1604521773.2476,-127
1604521773.2485,-103
1604521773.2509,-132
1604521773.2536,-110
1604521773.2555,-103
1604521773.2575,-118
1604521773.2596,-105
1604521773.2615,-86
1604521773.2636,-86
1604521773.2655,-81
1604521773.2675,-62
1604521773.2695,-48
1604521773.2715,-45
1604521773.2736,-40
1604521773.2755,-26
1604521773.2775,-14
1604521773.2795,-2
1604521773.2815,14
1604521773.2835,36
1604521773.2854,57
1604521773.2874,79
1604521773.2894,103
1604521773.2914,122
1604521773.2937,142
1604521773.2955,163
1604521773.2974,178
1604521773.2994,178
1604521773.3014,175
1604521773.3035,161
1604521773.3054,130
1604521773.3074,93
1604521773.3094,55
1604521773.3115,7
1604521773.3135,-43
1604521773.3156,-79
1604521773.3174,-110
1604521773.3194,-132
1604521773.3214,-125
1604521773.3235,-130
1604521773.3254,-171
1604521773.3274,-180
1604521773.3294,-137
1604521773.3314,-130
1604521773.3335,-168
1604521773.3354,-171
1604521773.3374,-127
1604521773.3394,-105
1604521773.3414,-113
1604521773.3435,-115
1604521773.3454,-108
1604521773.3474,-93
1604521773.3494,-77
1604521773.3514,-69
1604521773.3535,-77
1604521773.3554,-86
1604521773.3574,-93
1604521773.3594,-86
1604521773.3614,-74
1604521773.3635,-67
1604521773.3654,-57
1604521773.3674,-45
1604521773.3694,-65
1604521773.3714,-86
1604521773.3735,-69
1604521773.3754,-55
1604521773.3774,-55
1604521773.3794,-57
1604521773.3814,-52
1604521773.3835,-50
1604521773.3854,-74
1604521773.3874,-74
1604521773.3894,-36
1604521773.3914,-33
1604521773.7875,-24
1604521773.7883,16
1604521773.7897,0
1604521773.7917,-50
1604521773.7937,-48
1604521773.7957,-14
1604521773.7977,-28
1604521773.7998,-67
1604521773.8017,-50
1604521773.8036,-33
1604521773.8057,-52
1604521773.8077,-43
1604521773.8097,-21
1604521773.8117,-16
1604521773.8137,-48
1604521773.8156,-91
1604521773.8177,-98
1604521773.8196,-115
1604521773.8216,-211
1604521773.8237,-175
1604521773.8256,301
1604521773.8277,1052
1604521773.8296,1498
1604521773.8316,1139
1604521773.8336,195
1604521773.8356,-296
1604521773.8376,-81
1604521773.8396,-7
1604521773.8416,-183
1604521773.8436,-195
1604521773.8456,-118
1604521773.8476,-101
1604521773.8496,-108
1604521773.8516,-134
1604521773.8537,-137
1604521773.8556,-113
1604521773.8576,-120
1604521773.8596,-115
1604521773.8616,-84
1604521773.8637,-79
1604521773.8656,-79
1604521773.8676,-65
1604521773.8696,-57
1604521773.8716,-52
1604521773.8737,-33
1604521773.8756,-7
1604521773.8776,33
1604521773.8796,43
1604521773.8816,-4
1604521773.8837,36
1604521773.8856,101
1604521773.8876,43
1604521773.8898,45
1604521773.8917,130
1604521773.8937,142
1604521773.8956,137
1604521773.8976,156
1604521773.8997,154
1604521773.9016,127
1604521773.9037,81
1604521773.9056,38
1604521773.9077,-7
1604521773.9096,-72
1604521773.9116,-91
1604521773.9137,-89
1604521773.9156,-142
1604521773.9176,-183
1604521773.9196,-158
1604521773.9216,-156
1604521773.9236,-190
1604521773.9256,-180
1604521773.9276,-130
1604521773.9296,-122
1604521774.3877,-158
1604521774.3885,-173
1604521774.3910,-146
1604521774.3937,-132
1604521774.3956,-137
1604521774.3976,-120
1604521774.3997,-108
1604521774.4016,-108
1604521774.4037,-93
1604521774.4055,-74
1604521774.4075,-81
1604521774.4095,-93
1604521774.4115,-91
1604521774.4136,-77
1604521774.4155,-74
1604521774.4175,-86
1604521774.4195,-93
1604521774.4215,-81
1604521774.4236,-72
1604521774.4255,-74
1604521774.4275,-72
1604521774.4295,-65
1604521774.4315,-65
1604521774.4336,-62
1604521774.4356,-43
1604521774.4375,-26
1604521774.4395,-50
1604521774.4415,-84
1604521774.4435,-60
1604521774.4455,-21
1604521774.4477,-69
1604521774.4495,-120
1604521774.4516,-60
1604521774.4536,-4
1604521774.4555,-28
1604521774.4575,-33
1604521774.4595,0
1604521774.4614,2
1604521774.4635,-36
1604521774.4656,-38
1604521774.4675,-19
1604521774.4695,-69
1604521774.4715,-103
1604521774.4736,-62
1604521774.4755,-43
1604521774.4775,-52
1604521774.4795,-48
1604521774.4815,-40
1604521774.4835,-36
1604521774.4855,-50
1604521774.4875,-151
1604521774.4895,-231
1604521774.4915,9
1604521774.4936,638
1604521774.4955,1322
1604521774.4975,1464
1604521774.4995,703
1604521774.5015,-168
1604521774.5036,-211
1604521774.5055,0
1604521774.5075,-134
1604521774.5095,-187
1604521774.5115,-93
1604521774.5135,-122
1604521774.5155,-163
1604521774.5175,-115
1604521774.5195,-67
1604521774.5215,-74
1604521774.5235,-130
1604521774.5255,-130
1604521774.5275,-72
1604521774.5295,-55
1604521774.5315,-65
1604521774.8970,-60
1604521774.8977,-33
1604521774.9001,0
1604521774.9027,0
1604521774.9048,-21
1604521774.9067,-7
1604521774.9088,31
1604521774.9107,38
1604521774.9129,31
1604521774.9147,67
1604521774.9167,118
1604521774.9187,115
1604521774.9207,122
1604521774.9227,166
1604521774.9246,158
1604521774.9266,132
1604521774.9286,142
1604521774.9307,137
1604521774.9327,89
1604521774.9347,50
1604521774.9366,19
1604521774.9386,-31
1604521774.9407,-74
1604521774.9427,-79
1604521774.9447,-96
1604521774.9467,-154
1604521774.9487,-180
1604521774.9507,-156
1604521774.9527,-158
1604521774.9547,-166
1604521774.9567,-154
1604521774.9586,-146
1604521774.9607,-149
1604521774.9628,-149
1604521774.9647,-139
1604521774.9667,-130
1604521774.9687,-120
1604521774.9707,-108
1604521774.9726,-91
1604521774.9747,-81
1604521774.9767,-74
1604521774.9787,-69
1604521774.9807,-65
1604521774.9827,-62
1604521774.9847,-60
1604521774.9867,-55
1604521774.9887,-57
1604521774.9907,-62
1604521774.9927,-67
1604521774.9948,-67
1604521774.9967,-67
1604521774.9986,-67
1604521775.0007,-69
1604521775.0026,-69
1604521775.0047,-60
1604521775.0067,-50
1604521775.0087,-38
1604521775.0107,-33
1604521775.0127,-69
1604521775.0149,-113
1604521775.0167,-93
1604521775.0186,-62
1604521775.0206,-74
1604521775.0227,-79
1604521775.0247,-65
1604521775.0267,-50
1604521775.0286,-40
1604521775.0307,-26
1604521775.0328,-9
1604521775.0347,-2
1604521775.0366,-7
1604521775.0388,-9
1604521775.0407,-4
1604521775.5270,-21
1604521775.5279,-33
1604521775.5303,-7
1604521775.5330,-21
1604521775.5350,-79
1604521775.5370,-62
1604521775.5390,-26
1604521775.5410,-26
1604521775.5430,-36
1604521775.5449,-57
1604521775.5469,-74
1604521775.5489,-115
1604521775.5509,-180
1604521775.5529,-52
1604521775.5549,464
1604521775.5569,1165
1604521775.5589,1454
1604521775.5608,872
1604521775.5629,-26
1604521775.5648,-228
1604521775.5669,-14
1604521775.5688,-93
1604521775.5708,-197
1604521775.5728,-127
1604521775.5748,-127
1604521775.5769,-158
1604521775.5788,-125
1604521775.5809,-108
1604521775.5828,-113
1604521775.5849,-101
1604521775.5869,-86
1604521775.5888,-60
1604521775.5908,-36
1604521775.5928,-60
1604521775.5948,-84
1604521775.5968,-69
1604521775.5988,-45
1604521775.6010,-28
1604521775.6028,-14
1604521775.6048,-2
1604521775.6068,9
1604521775.6088,24
1604521775.6108,48
1604521775.6128,74
1604521775.6149,91
1604521775.6168,110
1604521775.6188,142
1604521775.6208,173
1604521775.6229,192
1604521775.6249,183
1604521775.6269,149
1604521775.6289,137
1604521775.6309,127
1604521775.6329,93
1604521775.6348,65
1604521775.6368,38
1604521775.6389,-16
1604521775.6408,-67
1604521775.6428,-77
1604521775.6448,-86
1604521775.6468,-93
1604521775.6488,-89
1604521775.6509,-93
1604521775.6528,-93
1604521775.6549,-81
1604521775.6568,-74
1604521775.6589,-74
1604521775.6609,-74
1604521775.6629,-65
1604521775.6648,-60
1604521775.6668,-57
1604521775.6688,-55
1604521775.6709,-48
1604521776.0075,-45
1604521776.0082,-50
1604521776.0106,-50
1604521776.0133,-48
1604521776.0153,-55
1604521776.0172,-60
1604521776.0193,-57
1604521776.0212,-60
1604521776.0233,-65
1604521776.0252,-65
1604521776.0272,-69
1604521776.0292,-74
1604521776.0312,-74
1604521776.0334,-77
1604521776.0352,-86
1604521776.0374,-91
1604521776.0392,-91
1604521776.0412,-86
1604521776.0433,-81
1604521776.0452,-77
1604521776.0472,-72
1604521776.0492,-72
1604521776.0512,-77
1604521776.0532,-72
1604521776.0552,-60
1604521776.0572,-60
1604521776.0592,-57
1604521776.0612,-43
1604521776.0632,-38
1604521776.0652,-43
1604521776.0672,-45
1604521776.0692,-48
1604521776.0712,-43
1604521776.0732,-21
1604521776.0752,2
1604521776.0772,0
1604521776.0792,-16
1604521776.0812,-12
1604521776.0832,0
1604521776.0852,-14
1604521776.0872,-36
1604521776.0892,-38
1604521776.0912,-28
1604521776.0932,-38
1604521776.0952,-62
1604521776.0972,-65
1604521776.0992,-60
1604521776.1012,-65
1604521776.1032,-65
1604521776.1052,-57
1604521776.1072,-69
1604521776.1092,-132
1604521776.1112,-221
1604521776.1132,-161
1604521776.1152,284
1604521776.1172,1006
1604521776.1192,1464
1604521776.1212,1071
1604521776.1232,122
1604521776.1252,-262
1604521776.1272,-33
1604521776.1292,-50
1604521776.1312,-209
1604521776.1332,-149
1604521776.1352,-103
1604521776.1372,-139
1604521776.1394,-115
1604521776.1413,-86
1604521776.1432,-101
1604521776.1452,-93
1604521776.1472,-57
1604521776.1492,-40
1604521776.1512,-57
1604521776.6077,-72
1604521776.6085,-48
1604521776.6111,-33
1604521776.6121,-38
1604521776.6135,-31
1604521776.6155,-19
1604521776.6176,-16
1604521776.6196,9
1604521776.6215,74
1604521776.6236,72
1604521776.6255,2
1604521776.6275,36
1604521776.6295,110
1604521776.6315,118
1604521776.6336,139
1604521776.6355,183
1604521776.6377,183
1604521776.6395,173
1604521776.6415,180
1604521776.6422,171
1604521776.6437,122
1604521776.6455,74
1604521776.6475,43
1604521776.6495,-7
1604521776.6516,-67
1604521776.6535,-91
1604521776.6555,-103
1604521776.6575,-125
1604521776.6595,-130
1604521776.6615,-122
1604521776.6635,-127
1604521776.6655,-127
1604521776.6675,-122
1604521776.6695,-132
1604521776.6715,-132
1604521776.6722,-115
1604521776.6735,-113
1604521776.6755,-120
1604521776.6775,-113
1604521776.6795,-103
1604521776.6815,-101
1604521776.6835,-103
1604521776.6855,-96
1604521776.6875,-89
1604521776.6896,-89
1604521776.6916,-86
1604521776.6935,-81
1604521776.6955,-89
1604521776.6975,-91
1604521776.6995,-84
1604521776.7015,-84
1604521776.7022,-89
1604521776.7035,-84
1604521776.7055,-81
1604521776.7075,-86
1604521776.7096,-89
1604521776.7115,-86
1604521776.7135,-81
1604521776.7155,-84
1604521776.7175,-86
1604521776.7195,-86
1604521776.7215,-81
1604521776.7235,-79
1604521776.7255,-77
1604521776.7275,-62
1604521776.7295,-40
1604521776.7316,-21
1604521776.7335,-19
1604521776.7355,-21
1604521776.7375,-21
1604521776.7395,-26
1604521776.7415,-31
1604521776.7435,-28
1604521777.1774,-33
1604521777.1786,-43
1604521777.1810,-45
1604521777.1836,-43
1604521777.1856,-38
1604521777.1876,-40
1604521777.1897,-40
1604521777.1905,-33
1604521777.1926,-40
1604521777.1945,-79
1604521777.1966,-156
1604521777.1986,-231
1604521777.2005,-79
1604521777.2026,491
1604521777.2046,1216
1604521777.2065,1450
1604521777.2085,753
1604521777.2105,-142
1604521777.2125,-209
1604521777.2145,24
1604521777.2165,-113
1604521777.2185,-192
1604521777.2206,-91
1604521777.2212,-91
1604521777.2225,-122
1604521777.2245,-89
1604521777.2265,-77
1604521777.2285,-86
1604521777.2305,-74
1604521777.2325,-62
1604521777.2345,-62
1604521777.2365,-45
1604521777.2385,-31
1604521777.2405,-26
1604521777.2425,-14
1604521777.2445,4
1604521777.2465,16
1604521777.2485,31
1604521777.2505,43
1604521777.2512,57
1604521777.2525,79
1604521777.2545,103
1604521777.2565,122
1604521777.2585,149
1604521777.2604,173
1604521777.2625,202
1604521777.2645,226
1604521777.2666,236
1604521777.2685,233
1604521777.2705,226
1604521777.2725,207
1604521777.2745,175
1604521777.2765,127
1604521777.2785,74
1604521777.2805,26
1604521777.2812,-14
1604521777.2825,-57
1604521777.2845,-96
1604521777.2865,-120
1604521777.2885,-137
1604521777.2905,-149
1604521777.2925,-151
1604521777.2945,-151
1604521777.2965,-149
1604521777.2985,-139
1604521777.3005,-139
1604521777.3025,-137
1604521777.3045,-125
1604521777.3065,-113
1604521777.3085,-108
1604521777.3104,-101
1604521777.3112,-89
1604521777.3125,-81
1604521777.7474,-81
1604521777.7483,-74
1604521777.7507,-72
1604521777.7534,-74
1604521777.7553,-77
1604521777.7573,-77
1604521777.7593,-77
1604521777.7613,-77
1604521777.7633,-77
1604521777.7652,-81
1604521777.7672,-84
1604521777.7680,-91
1604521777.7703,-93
1604521777.7723,-91
1604521777.7742,-81
1604521777.7762,-72
1604521777.7782,-60
1604521777.7802,-48
1604521777.7822,-40
1604521777.7842,-48
1604521777.7862,-52
1604521777.7882,-57
1604521777.7902,-60
1604521777.7922,-60
1604521777.7942,-60
1604521777.7962,-65
1604521777.7982,-69
1604521777.7989,-69
1604521777.8002,-62
1604521777.8022,-55
1604521777.8043,-57
1604521777.8062,-57
1604521777.8082,-57
1604521777.8102,-84
1604521777.8122,-171
1604521777.8143,-228
1604521777.8162,9
1604521777.8182,674
1604521777.8202,1377
1604521777.8222,1433
1604521777.8243,582
1604521777.8262,-226
1604521777.8283,-166
1604521777.8289,14
1604521777.8313,-154
1604521777.8334,-197
1604521777.8353,-103
1604521777.8373,-120
1604521777.8392,-144
1604521777.8412,-115
1604521777.8433,-105
1604521777.8454,-113
1604521777.8473,-103
1604521777.8492,-91
1604521777.8513,-84
1604521777.8533,-72
1604521777.8552,-57
1604521777.8572,-48
1604521777.8580,-36
1604521777.8603,-21
1604521777.8622,-7
1604521777.8643,2
1604521777.8662,14
1604521777.8683,33
1604521777.8703,55
1604521777.8722,74
1604521777.8743,96
1604521777.8763,122
1604521777.8783,149
1604521777.8803,163
1604521777.8823,180
1604521777.8843,197
1604521777.8862,199
1604521778.2876,185
1604521778.2884,158
1604521778.2908,120
1604521778.2935,69
1604521778.2954,21
1604521778.2974,-16
1604521778.2995,-55
1604521778.3015,-91
1604521778.3035,-113
1604521778.3054,-122
1604521778.3074,-132
1604521778.3094,-144
1604521778.3114,-151
1604521778.3134,-149
1604521778.3154,-142
1604521778.3174,-139
1604521778.3195,-130
1604521778.3214,-118
1604521778.3235,-110
1604521778.3253,-98
1604521778.3273,-89
1604521778.3294,-79
1604521778.3313,-65
1604521778.3334,-57
1604521778.3354,-55
1604521778.3373,-55
1604521778.3394,-52
1604521778.3414,-57
1604521778.3434,-62
1604521778.3455,-57
1604521778.3474,-57
1604521778.3493,-62
1604521778.3514,-62
1604521778.3535,-65
1604521778.3553,-67
1604521778.3573,-69
1604521778.3594,-67
1604521778.3613,-62
1604521778.3634,-62
1604521778.3654,-67
1604521778.3673,-69
1604521778.3693,-57
1604521778.3713,-43
1604521778.3734,-28
1604521778.3754,-24
1604521778.3773,-31
1604521778.3793,-33
1604521778.3814,-38
1604521778.3834,-43
1604521778.3854,-40
1604521778.3873,-43
1604521778.3893,-48
1604521778.3913,-48
1604521778.3934,-50
1604521778.3953,-52
1604521778.3973,-48
1604521778.3993,-38
1604521778.4014,-38
1604521778.4035,-40
1604521778.4053,-57
1604521778.4073,-113
1604521778.4093,-202
1604521778.4114,-132
1604521778.4134,351
1604521778.4153,1122
1604521778.4173,1575
1604521778.4193,1120
1604521778.4213,110
1604521778.4234,-284
1604521778.4253,-43
1604521778.4273,-55
1604521778.4294,-221
1604521778.4313,-161
1604521778.8282,-110
1604521778.8290,-149
1604521778.8315,-130
1604521778.8341,-86
1604521778.8361,-79
1604521778.8381,-93
1604521778.8402,-115
1604521778.8423,-115
1604521778.8441,-93
1604521778.8460,-86
1604521778.8480,-79
1604521778.8500,-57
1604521778.8520,-45
1604521778.8541,-38
1604521778.8560,-21
1604521778.8580,-2
1604521778.8600,9
1604521778.8620,21
1604521778.8641,43
1604521778.8660,67
1604521778.8681,86
1604521778.8700,110
1604521778.8720,132
1604521778.8740,151
1604521778.8760,166
1604521778.8780,173
1604521778.8800,173
1604521778.8820,161
1604521778.8840,127
1604521778.8860,81
1604521778.8880,36
1604521778.8900,-7
1604521778.8920,-43
1604521778.8940,-74
1604521778.8960,-98
1604521778.8980,-115
1604521778.9000,-127
1604521778.9020,-134
1604521778.9040,-134
1604521778.9060,-130
1604521778.9080,-130
1604521778.9100,-127
1604521778.9120,-122
1604521778.9140,-115
1604521778.9160,-110
1604521778.9181,-98
1604521778.9200,-91
1604521778.9220,-86
1604521778.9240,-84
1604521778.9260,-77
1604521778.9280,-67
1604521778.9300,-60
1604521778.9320,-55
1604521778.9340,-50
1604521778.9360,-45
1604521778.9380,-45
1604521778.9400,-45
1604521778.9420,-45
1604521778.9441,-50
1604521778.9460,-55
1604521778.9480,-55
1604521778.9500,-57
1604521778.9520,-67
1604521778.9541,-69
1604521778.9560,-65
1604521778.9580,-65
1604521778.9600,-67
1604521778.9620,-65
1604521778.9640,-60
1604521778.9660,-57
1604521778.9681,-57
1604521778.9700,-57
1604521778.9720,-57
1604521779.3671,-60
1604521779.3680,-60
1604521779.3705,-45
1604521779.3731,-24
1604521779.3751,-9
1604521779.3771,-12
1604521779.3791,-26
1604521779.3811,-36
1604521779.3831,-33
1604521779.3850,-36
1604521779.3870,-45
1604521779.3890,-48
1604521779.3910,-40
1604521779.3930,-43
1604521779.3950,-50
1604521779.3970,-48
1604521779.3990,-40
1604521779.4010,-45
1604521779.4030,-43
1604521779.4050,-40
1604521779.4070,-60
1604521779.4090,-125
1604521779.4110,-202
1604521779.4130,-91
1604521779.4150,428
1604521779.4170,1158
1604521779.4190,1512
1604521779.4210,997
1604521779.4230,36
1604521779.4251,-277
1604521779.4270,-43
1604521779.4290,-86
1604521779.4310,-228
1604521779.4330,-158
1604521779.4350,-122
1604521779.4370,-163
1604521779.4391,-142
1604521779.4410,-115
1604521779.4430,-122
1604521779.4450,-120
1604521779.4470,-103
1604521779.4490,-93
1604521779.4510,-86
1604521779.4530,-74
1604521779.4551,-65
1604521779.4570,-55
1604521779.4590,-43
1604521779.4610,-31
1604521779.4630,-21
1604521779.4650,-12
1604521779.4670,2
1604521779.4690,19
1604521779.4710,38
1604521779.4730,55
1604521779.4750,77
1604521779.4770,103
1604521779.4790,125
1604521779.4810,142
1604521779.4830,158
1604521779.4837,166
1604521779.4850,161
1604521779.4870,144
1604521779.4890,120
1604521779.4910,86
1604521779.4930,48
1604521779.4950,9
1604521779.4970,-24
1604521779.4990,-52
1604521779.5010,-79
1604521779.5030,-96
1604521779.5050,-103
1604521779.5070,-108
1604521779.5090,-108
1604521779.9677,-108
1604521779.9688,-105
1604521779.9700,-105
1604521779.9719,-108
1604521779.9740,-110
1604521779.9759,-103
1604521779.9779,-96
1604521779.9800,-91
1604521779.9819,-84
1604521779.9839,-77
1604521779.9859,-72
1604521779.9879,-69
1604521779.9898,-67
1604521779.9920,-62
1604521779.9927,-60
1604521779.9940,-62
1604521779.9958,-57
1604521779.9978,-57
1604521779.9998,-60
1604521780.0019,-62
1604521780.0039,-62
1604521780.0058,-65
1604521780.0079,-72
1604521780.0098,-72
1604521780.0118,-67
1604521780.0139,-67
1604521780.0158,-72
1604521780.0178,-74
1604521780.0198,-74
1604521780.0218,-74
1604521780.0224,-72
1604521780.0239,-67
1604521780.0258,-60
1604521780.0278,-57
1604521780.0298,-55
1604521780.0318,-57
1604521780.0339,-60
1604521780.0358,-55
1604521780.0378,-52
1604521780.0398,-52
1604521780.0418,-50
1604521780.0438,-48
1604521780.0458,-52
1604521780.0478,-52
1604521780.0498,-45
1604521780.0519,-33
1604521780.0525,-12
1604521780.0539,0
1604521780.0558,-7
1604521780.0578,-14
1604521780.0599,-21
1604521780.0618,-26
1604521780.0639,-28
1604521780.0658,-31
1604521780.0678,-33
1604521780.0698,-33
1604521780.0718,-36
1604521780.0738,-40
1604521780.0758,-38
1604521780.0778,-33
1604521780.0798,-31
1604521780.0818,-28
1604521780.0824,-36
1604521780.0839,-60
1604521780.0858,-125
1604521780.0879,-180
1604521780.0899,-4
1604521780.0918,551
1604521780.0939,1223
1604521780.0958,1445
1604521780.0978,833
1604521780.0998,-50
1604521780.1018,-221
1604521780.5371,-4
1604521780.5379,-101
1604521780.5404,-207
1604521780.5415,-127
1604521780.5430,-115
1604521780.5450,-151
1604521780.5469,-122
1604521780.5490,-105
1604521780.5510,-125
1604521780.5530,-118
1604521780.5550,-96
1604521780.5570,-89
1604521780.5590,-84
1604521780.5610,-74
1604521780.5630,-69
1604521780.5650,-65
1604521780.5670,-50
1604521780.5690,-36
1604521780.5710,-24
1604521780.5716,-12
1604521780.5730,-2
1604521780.5749,14
1604521780.5769,33
1604521780.5789,52
1604521780.5809,74
1604521780.5829,98
1604521780.5850,118
1604521780.5869,132
1604521780.5889,146
1604521780.5909,154
1604521780.5929,154
1604521780.5950,144
1604521780.5969,122
1604521780.5989,91
1604521780.6009,50
1604521780.6016,12
1604521780.6029,-24
1604521780.6049,-52
1604521780.6070,-74
1604521780.6089,-91
1604521780.6109,-98
1604521780.6129,-103
1604521780.6149,-108
1604521780.6171,-110
1604521780.6190,-108
1604521780.6209,-105
1604521780.6231,-103
1604521780.6250,-101
1604521780.6270,-96
1604521780.6290,-91
1604521780.6310,-89
1604521780.6316,-84
1604521780.6330,-77
1604521780.6349,-69
1604521780.6369,-65
1604521780.6389,-65
1604521780.6409,-62
1604521780.6429,-60
1604521780.6451,-62
1604521780.6470,-62
1604521780.6489,-62
1604521780.6509,-67
1604521780.6529,-72
1604521780.6549,-72
1604521780.6569,-69
1604521780.6589,-65
1604521780.6610,-62
1604521780.6617,-65
1604521780.6629,-69
1604521780.6649,-67
1604521780.6669,-62
1604521780.6690,-67
1604521780.6709,-67
1604521781.0772,-57
1604521781.0780,-57
1604521781.0804,-62
1604521781.0831,-57
1604521781.0851,-52
1604521781.0871,-52
1604521781.0892,-55
1604521781.0911,-57
1604521781.0931,-60
1604521781.0937,-60
1604521781.0951,-62
1604521781.0970,-57
1604521781.0992,-55
1604521781.1010,-62
1604521781.1030,-62
1604521781.1050,-50
1604521781.1070,-33
1604521781.1090,-14
1604521781.1110,-4
1604521781.1130,-9
1604521781.1150,-14
1604521781.1172,-16
1604521781.1190,-21
1604521781.1210,-24
1604521781.1230,-26
1604521781.1236,-33
1604521781.1250,-43
1604521781.1270,-48
1604521781.1290,-48
1604521781.1310,-43
1604521781.1329,-40
1604521781.1350,-40
1604521781.1370,-40
1604521781.1390,-50
1604521781.1410,-86
1604521781.1429,-158
1604521781.1450,-156
1604521781.1470,163
1604521781.1490,806
1604521781.1509,1348
1604521781.1530,1238
1604521781.1537,416
1604521781.1550,-214
1604521781.1569,-120
1604521781.1590,-12
1604521781.1610,-168
1604521781.1630,-173
1604521781.1650,-98
1604521781.1670,-130
1604521781.1690,-144
1604521781.1710,-105
1604521781.1730,-98
1604521781.1750,-101
1604521781.1770,-86
1604521781.1790,-77
1604521781.1810,-74
1604521781.1830,-65
1604521781.1836,-52
1604521781.1850,-48
1604521781.1870,-40
1604521781.1890,-31
1604521781.1910,-16
1604521781.1930,-4
1604521781.1951,7
1604521781.1970,21
1604521781.1990,38
1604521781.2010,55
1604521781.2030,74
1604521781.2050,96
1604521781.2070,115
1604521781.2090,134
1604521781.2111,146
1604521781.2132,151
1604521781.6771,149
1604521781.6779,144
1604521781.6804,132
1604521781.6830,105
1604521781.6849,69
1604521781.6870,28
1604521781.6890,-14
1604521781.6909,-55
1604521781.6930,-84
1604521781.6950,-103
1604521781.6969,-118
1604521781.6989,-132
1604521781.7009,-142
1604521781.7029,-137
1604521781.7036,-134
1604521781.7049,-132
1604521781.7069,-127
1604521781.7089,-125
1604521781.7109,-125
1604521781.7130,-118
1604521781.7149,-108
1604521781.7169,-101
1604521781.7189,-93
1604521781.7209,-89
1604521781.7229,-89
1604521781.7249,-81
1604521781.7269,-77
1604521781.7289,-72
1604521781.7309,-67
1604521781.7316,-65
1604521781.7329,-67
1604521781.7349,-67
1604521781.7369,-65
1604521781.7389,-65
1604521781.7409,-67
1604521781.7429,-65
1604521781.7449,-62
1604521781.7469,-62
1604521781.7489,-65
1604521781.7509,-62
1604521781.7529,-55
1604521781.7550,-55
1604521781.7569,-60
1604521781.7589,-55
1604521781.7609,-50
1604521781.7616,-48
1604521781.7629,-50
1604521781.7649,-50
1604521781.7669,-45
1604521781.7689,-33
1604521781.7710,-14
1604521781.7729,2
1604521781.7749,0
1604521781.7769,-9
1604521781.7789,-19
1604521781.7809,-21
1604521781.7829,-24
1604521781.7849,-26
1604521781.7869,-26
1604521781.7889,-31
1604521781.7909,-36
1604521781.7916,-38
1604521781.7929,-33
1604521781.7949,-31
1604521781.7969,-31
1604521781.7988,-40
1604521781.8009,-67
1604521781.8029,-125
1604521781.8049,-178
1604521781.8069,-26
1604521781.8089,501
1604521781.8109,1151
1604521781.8129,1341
1604521782.1876,722
1604521782.1885,-74
1604521782.1908,-187
1604521782.1919,-2
1604521782.1936,-108
1604521782.1955,-192
1604521782.1975,-115
1604521782.1996,-110
1604521782.2014,-139
1604521782.2035,-113
1604521782.2055,-98
1604521782.2075,-113
1604521782.2095,-110
1604521782.2114,-93
1604521782.2135,-86
1604521782.2154,-81
1604521782.2175,-72
1604521782.2195,-60
1604521782.2215,-48
1604521782.2221,-36
1604521782.2235,-26
1604521782.2254,-12
1604521782.2274,2
1604521782.2294,12
1604521782.2314,24
1604521782.2335,43
1604521782.2355,62
1604521782.2374,81
1604521782.2396,103
1604521782.2414,127
1604521782.2435,144
1604521782.2454,151
1604521782.2474,156
1604521782.2494,158
1604521782.2515,144
1604521782.2521,108
1604521782.2535,72
1604521782.2554,36
1604521782.2574,-7
1604521782.2594,-45
1604521782.2614,-74
1604521782.2634,-103
1604521782.2654,-120
1604521782.2674,-122
1604521782.2695,-127
1604521782.2715,-130
1604521782.2734,-132
1604521782.2755,-132
1604521782.2774,-127
1604521782.2794,-118
1604521782.2814,-115
1604521782.2821,-110
1604521782.2835,-101
1604521782.2854,-93
1604521782.2874,-89
1604521782.2894,-84
1604521782.2914,-77
1604521782.2934,-77
1604521782.2954,-79
1604521782.2975,-77
1604521782.2994,-67
1604521782.3014,-67
1604521782.3034,-67
1604521782.3054,-67
1604521782.3074,-67
1604521782.3094,-67
1604521782.3114,-67
1604521782.3121,-67
1604521782.3135,-65
1604521782.3154,-62
1604521782.3174,-62
1604521782.3194,-60
1604521782.3214,-57
1604521782.8171,-57
1604521782.8179,-60
1604521782.8204,-55
1604521782.8230,-55
1604521782.8250,-65
1604521782.8270,-77
1604521782.8292,-77
1604521782.8299,-57
1604521782.8310,-38
1604521782.8330,-24
1604521782.8350,-21
1604521782.8370,-26
1604521782.8390,-33
1604521782.8410,-40
1604521782.8430,-40
1604521782.8449,-43
1604521782.8469,-43
1604521782.8489,-45
1604521782.8509,-50
1604521782.8529,-52
1604521782.8549,-50
1604521782.8569,-48
1604521782.8589,-48
1604521782.8596,-45
1604521782.8609,-48
1604521782.8629,-77
1604521782.8649,-149
1604521782.8669,-178
1604521782.8689,69
1604521782.8709,672
1604521782.8729,1262
1604521782.8749,1250
1604521782.8769,493
1604521782.8789,-178
1604521782.8809,-142
1604521782.8829,-19
1604521782.8849,-161
1604521782.8869,-187
1604521782.8889,-118
1604521782.8896,-142
1604521782.8909,-158
1604521782.8929,-122
1604521782.8949,-113
1604521782.8969,-120
1604521782.8989,-108
1604521782.9009,-93
1604521782.9029,-86
1604521782.9049,-77
1604521782.9069,-67
1604521782.9089,-57
1604521782.9109,-52
1604521782.9129,-50
1604521782.9149,-43
1604521782.9169,-26
1604521782.9189,-14
1604521782.9196,-2
1604521782.9209,9
1604521782.9231,26
1604521782.9250,45
1604521782.9269,62
1604521782.9289,79
1604521782.9309,98
1604521782.9329,115
1604521782.9349,125
1604521782.9369,120
1604521782.9390,115
1604521782.9409,105
1604521782.9429,77
1604521782.9450,33
1604521782.9469,-12
1604521782.9489,-52
1604521782.9496,-86
1604521782.9509,-113
1604521783.3571,-132
1604521783.3580,-146
1604521783.3604,-158
1604521783.3630,-163
1604521783.3652,-163
1604521783.3671,-163
1604521783.3691,-168
1604521783.3711,-171
1604521783.3731,-163
1604521783.3750,-156
1604521783.3770,-158
1604521783.3790,-161
1604521783.3810,-154
1604521783.3830,-146
1604521783.3836,-149
1604521783.3850,-146
1604521783.3870,-137
1604521783.3890,-132
1604521783.3910,-130
1604521783.3930,-125
1604521783.3950,-125
1604521783.3970,-122
1604521783.3990,-120
1604521783.4010,-122
1604521783.4030,-120
1604521783.4050,-113
1604521783.4070,-115
1604521783.4090,-115
1604521783.4110,-108
1604521783.4130,-105
1604521783.4136,-105
1604521783.4150,-103
1604521783.4170,-96
1604521783.4190,-86
1604521783.4210,-86
1604521783.4231,-91
1604521783.4250,-86
1604521783.4270,-81
1604521783.4290,-79
1604521783.4310,-84
1604521783.4330,-81
1604521783.4349,-72
1604521783.4370,-60
1604521783.4390,-43
1604521783.4409,-26
1604521783.4430,-26
1604521783.4436,-38
1604521783.4450,-43
1604521783.4470,-45
1604521783.4489,-45
1604521783.4510,-43
1604521783.4530,-48
1604521783.4550,-55
1604521783.4570,-57
1604521783.4590,-57
1604521783.4610,-55
1604521783.4630,-50
1604521783.4649,-50
1604521783.4670,-50
1604521783.4690,-50
1604521783.4710,-74
1604521783.4716,-146
1604521783.4730,-216
1604521783.4750,-65
1604521783.4770,486
1604521783.4790,1168
1604521783.4810,1356
1604521783.4830,679
1604521783.4850,-132
1604521783.4871,-171
1604521783.4890,16
1604521783.4910,-127
1604521783.4930,-187
1604521783.8972,-93
1604521783.8980,-101
1604521783.8997,-132
1604521783.9021,-98
1604521783.9041,-84
1604521783.9061,-93
1604521783.9081,-84
1604521783.9101,-69
1604521783.9121,-65
1604521783.9141,-52
1604521783.9161,-40
1604521783.9180,-48
1604521783.9201,-45
1604521783.9223,-26
1604521783.9242,-21
1604521783.9260,-19
1604521783.9280,4
1604521783.9301,24
1604521783.9307,33
1604521783.9321,48
1604521783.9340,72
1604521783.9360,96
1604521783.9380,120
1604521783.9400,139
1604521783.9420,156
1604521783.9440,166
1604521783.9460,173
1604521783.9480,171
1604521783.9500,158
1604521783.9520,132
1604521783.9540,93
1604521783.9561,52
1604521783.9580,4
1604521783.9600,-45
1604521783.9607,-79
1604521783.9620,-103
1604521783.9640,-132
1604521783.9660,-146
1604521783.9680,-156
1604521783.9700,-168
1604521783.9720,-168
1604521783.9741,-158
1604521783.9760,-154
1604521783.9780,-139
1604521783.9800,-130
1604521783.9820,-132
1604521783.9841,-122
1604521783.9860,-113
1604521783.9880,-110
1604521783.9900,-103
1604521783.9906,-96
1604521783.9920,-96
1604521783.9941,-91
1604521783.9960,-86
1604521783.9980,-89
1604521784.0000,-93
1604521784.0020,-96
1604521784.0041,-93
1604521784.0060,-91
1604521784.0080,-89
1604521784.0100,-86
1604521784.0120,-89
1604521784.0140,-93
1604521784.0160,-91
1604521784.0182,-79
1604521784.0201,-69
1604521784.0207,-57
1604521784.0220,-31
1604521784.0241,-24
1604521784.0260,-38
1604521784.0280,-38
1604521784.0287,-36
1604521784.0310,-48
1604521784.4669,-55
1604521784.4676,-55
1604521784.4688,-50
1604521784.4708,-52
1604521784.4728,-57
1604521784.4735,-62
1604521784.4748,-60
1604521784.4768,-57
1604521784.4789,-62
1604521784.4808,-69
1604521784.4828,-72
1604521784.4847,-101
1604521784.4868,-197
1604521784.4888,-255
1604521784.4908,40
1604521784.4928,751
1604521784.4948,1392
1604521784.4968,1298
1604521784.4988,373
1604521784.5008,-284
1604521784.5028,-93
1604521784.5033,21
1604521784.5048,-171
1604521784.5068,-149
1604521784.5088,-72
1604521784.5108,-122
1604521784.5127,-127
1604521784.5148,-81
1604521784.5168,-84
1604521784.5188,-86
1604521784.5208,-69
1604521784.5228,-62
1604521784.5247,-52
1604521784.5267,-38
1604521784.5287,-36
1604521784.5307,-28
1604521784.5328,-12
1604521784.5333,-2
1604521784.5347,9
1604521784.5367,21
1604521784.5387,26
1604521784.5407,45
1604521784.5429,74
1604521784.5447,91
1604521784.5467,105
1604521784.5487,137
1604521784.5507,168
1604521784.5527,180
1604521784.5547,190
1604521784.5567,199
1604521784.5587,195
1604521784.5607,178
1604521784.5627,158
1604521784.5633,122
1604521784.5647,74
1604521784.5667,24
1604521784.5687,-24
1604521784.5707,-65
1604521784.5727,-96
1604521784.5747,-122
1604521784.5767,-134
1604521784.5787,-139
1604521784.5807,-144
1604521784.5827,-149
1604521784.5847,-144
1604521784.5867,-127
1604521784.5888,-110
1604521784.5907,-108
1604521784.5928,-103
1604521784.5934,-91
1604521784.5947,-86
1604521784.5967,-81
1604521784.5987,-74
1604521785.0073,-72
1604521785.0080,-72
1604521785.0108,-67
1604521785.0129,-67
1604521785.0149,-67
1604521785.0170,-69
1604521785.0190,-72
1604521785.0210,-69
1604521785.0229,-67
1604521785.0236,-79
1604521785.0250,-93
1604521785.0270,-93
1604521785.0289,-96
1604521785.0310,-101
1604521785.0329,-86
1604521785.0349,-65
1604521785.0370,-48
1604521785.0389,-33
1604521785.0409,-36
1604521785.0431,-43
1604521785.0452,-45
1604521785.0470,-57
1604521785.0489,-74
1604521785.0510,-74
1604521785.0529,-65
1604521785.0536,-62
1604521785.0550,-69
1604521785.0569,-74
1604521785.0590,-72
1604521785.0609,-72
1604521785.0630,-67
1604521785.0650,-62
1604521785.0670,-65
1604521785.0690,-86
1604521785.0709,-156
1604521785.0730,-238
1604521785.0749,-93
1604521785.0770,501
1604521785.0789,1279
1604521785.0810,1565
1604521785.0829,891
1604521785.0835,-81
1604521785.0850,-252
1604521785.0869,-4
1604521785.0889,-108
1604521785.0909,-219
1604521785.0929,-122
1604521785.0949,-108
1604521785.0970,-156
1604521785.0990,-127
1604521785.1010,-101
1604521785.1030,-108
1604521785.1050,-96
1604521785.1070,-77
1604521785.1089,-72
1604521785.1110,-65
1604521785.1129,-55
1604521785.1136,-48
1604521785.1150,-33
1604521785.1169,-19
1604521785.1190,-12
1604521785.1210,-2
1604521785.1230,14
1604521785.1249,28
1604521785.1269,45
1604521785.1290,67
1604521785.1310,89
1604521785.1330,108
1604521785.1350,130
1604521785.1370,156
1604521785.1390,175
1604521785.1411,183
1604521785.1430,180
1604521785.5475,173
1604521785.5483,158
1604521785.5507,127
1604521785.5534,86
1604521785.5553,33
1604521785.5573,-16
1604521785.5594,-60
1604521785.5613,-98
1604521785.5634,-122
1604521785.5653,-130
1604521785.5673,-142
1604521785.5693,-154
1604521785.5713,-149
1604521785.5719,-144
1604521785.5734,-146
1604521785.5753,-146
1604521785.5773,-137
1604521785.5793,-132
1604521785.5813,-122
1604521785.5833,-110
1604521785.5853,-98
1604521785.5873,-84
1604521785.5893,-74
1604521785.5913,-72
1604521785.5934,-62
1604521785.5953,-48
1604521785.5973,-48
1604521785.5993,-55
1604521785.6013,-57
1604521785.6019,-57
1604521785.6033,-60
1604521785.6053,-60
1604521785.6072,-60
1604521785.6094,-60
1604521785.6113,-62
1604521785.6133,-62
1604521785.6153,-60
1604521785.6173,-57
1604521785.6193,-65
1604521785.6214,-67
1604521785.6234,-52
1604521785.6253,-36
1604521785.6274,-21
1604521785.6294,-16
1604521785.6313,-26
1604521785.6319,-33
1604521785.6333,-38
1604521785.6353,-38
1604521785.6373,-38
1604521785.6394,-36
1604521785.6413,-40
1604521785.6433,-52
1604521785.6453,-60
1604521785.6473,-55
1604521785.6493,-52
1604521785.6513,-50
1604521785.6533,-48
1604521785.6553,-45
1604521785.6573,-52
1604521785.6593,-93
1604521785.6614,-180
1604521785.6619,-221
1604521785.6633,72
1604521785.6653,792
1604521785.6673,1491
1604521785.6692,1464
1604521785.6713,546
1604521785.6733,-240
1604521785.6753,-161
1604521785.6773,2
1604521785.6793,-173
1604521785.6814,-202
1604521785.6832,-108
1604521786.1171,-137
1604521786.1180,-158
1604521786.1204,-115
1604521786.1232,-108
1604521786.1239,-127
1604521786.1251,-115
1604521786.1271,-101
1604521786.1291,-103
1604521786.1311,-93
1604521786.1331,-77
1604521786.1350,-72
1604521786.1370,-69
1604521786.1390,-55
1604521786.1410,-38
1604521786.1430,-24
1604521786.1450,-9
1604521786.1470,0
1604521786.1490,19
1604521786.1510,45
1604521786.1530,67
1604521786.1536,93
1604521786.1550,118
1604521786.1570,139
1604521786.1590,151
1604521786.1610,158
1604521786.1630,161
1604521786.1650,151
1604521786.1671,125
1604521786.1690,89
1604521786.1709,50
1604521786.1730,7
1604521786.1750,-38
1604521786.1769,-69
1604521786.1790,-93
1604521786.1810,-115
1604521786.1830,-127
1604521786.1836,-130
1604521786.1850,-130
1604521786.1870,-132
1604521786.1890,-137
1604521786.1910,-132
1604521786.1930,-118
1604521786.1950,-115
1604521786.1969,-115
1604521786.1989,-103
1604521786.2010,-86
1604521786.2030,-79
1604521786.2050,-72
1604521786.2069,-65
1604521786.2090,-55
1604521786.2109,-48
1604521786.2130,-43
1604521786.2136,-40
1604521786.2150,-38
1604521786.2170,-36
1604521786.2190,-40
1604521786.2210,-43
1604521786.2230,-40
1604521786.2250,-43
1604521786.2271,-45
1604521786.2290,-45
1604521786.2310,-45
1604521786.2330,-50
1604521786.2350,-52
1604521786.2369,-48
1604521786.2390,-48
1604521786.2409,-52
1604521786.2415,-52
1604521786.2430,-45
1604521786.2450,-45
1604521786.2470,-48
1604521786.2490,-50
1604521786.2509,-57
1604521786.7471,-60
1604521786.7480,-55
1604521786.7504,-40
1604521786.7522,-24
1604521786.7541,-21
1604521786.7563,-36
1604521786.7582,-50
1604521786.7588,-55
1604521786.7601,-50
1604521786.7621,-55
1604521786.7641,-60
1604521786.7661,-55
1604521786.7680,-55
1604521786.7701,-65
1604521786.7721,-62
1604521786.7741,-55
1604521786.7759,-52
1604521786.7781,-50
1604521786.7800,-48
1604521786.7821,-48
1604521786.7840,-72
1604521786.7860,-137
1604521786.7880,-211
1604521786.7887,-84
1604521786.7901,457
1604521786.7920,1199
1604521786.7940,1553
1604521786.7960,1018
1604521786.7980,26
1604521786.8000,-289
1604521786.8021,-36
1604521786.8040,-79
1604521786.8060,-228
1604521786.8081,-158
1604521786.8101,-122
1604521786.8121,-163
1604521786.8140,-142
1604521786.8159,-115
1604521786.8180,-122
1604521786.8185,-113
1604521786.8200,-96
1604521786.8220,-86
1604521786.8240,-77
1604521786.8259,-69
1604521786.8279,-62
1604521786.8300,-55
1604521786.8320,-43
1604521786.8340,-31
1604521786.8359,-21
1604521786.8380,-9
1604521786.8400,4
1604521786.8420,21
1604521786.8439,38
1604521786.8460,60
1604521786.8479,81
1604521786.8562,103
1604521786.8581,122
1604521786.8600,139
1604521786.8619,154
1604521786.8640,161
1604521786.8660,158
1604521786.8679,144
1604521786.8700,120
1604521786.8720,84
1604521786.8740,38
1604521786.8760,-9
1604521786.8779,-45
1604521786.8800,-72
1604521786.8820,-96
1604521786.8840,-113
1604521786.8845,-118
1604521786.8859,-120
1604521786.8879,-120
1604521787.2571,-120
1604521787.2579,-118
1604521787.2604,-120
1604521787.2630,-115
1604521787.2650,-108
1604521787.2670,-103
1604521787.2691,-96
1604521787.2710,-89
1604521787.2731,-81
1604521787.2750,-74
1604521787.2770,-65
1604521787.2790,-57
1604521787.2796,-50
1604521787.2810,-45
1604521787.2830,-52
1604521787.2850,-60
1604521787.2870,-55
1604521787.2890,-55
1604521787.2910,-57
1604521787.2930,-55
1604521787.2950,-57
1604521787.2970,-57
1604521787.2990,-57
1604521787.3010,-57
1604521787.3031,-60
1604521787.3050,-65
1604521787.3070,-65
1604521787.3090,-60
1604521787.3096,-57
1604521787.3110,-57
1604521787.3130,-55
1604521787.3149,-52
1604521787.3169,-50
1604521787.3189,-50
1604521787.3211,-48
1604521787.3230,-48
1604521787.3249,-48
1604521787.3269,-50
1604521787.3289,-50
1604521787.3309,-48
1604521787.3329,-48
1604521787.3349,-50
1604521787.3369,-50
1604521787.3389,-48
1604521787.3396,-45
1604521787.3409,-43
1604521787.3430,-43
1604521787.3450,-40
1604521787.3469,-36
1604521787.3490,-40
1604521787.3509,-43
1604521787.3529,-33
1604521787.3549,-14
1604521787.3569,2
1604521787.3589,9
1604521787.3609,2
1604521787.3630,-9
1604521787.3650,-21
1604521787.3670,-26
1604521787.3690,-26
1604521787.3696,-31
1604521787.3710,-36
1604521787.3729,-36
1604521787.3749,-40
1604521787.3769,-43
1604521787.3789,-40
1604521787.3809,-36
1604521787.3829,-33
1604521787.3850,-36
1604521787.3870,-36
1604521787.3889,-38
1604521787.3909,-67
1604521787.3929,-142
1604521787.8273,-190
1604521787.8282,26
1604521787.8306,635
1604521787.8333,1312
1604521787.8353,1464
1604521787.8373,749
1604521787.8393,-132
1604521787.8413,-226
1604521787.8434,-16
1604521787.8454,-144
1604521787.8473,-231
1604521787.8493,-144
1604521787.8516,-139
1604521787.8534,-168
1604521787.8552,-134
1604521787.8572,-122
1604521787.8592,-137
1604521787.8599,-122
1604521787.8612,-105
1604521787.8632,-105
1604521787.8652,-96
1604521787.8672,-79
1604521787.8692,-72
1604521787.8712,-67
1604521787.8733,-55
1604521787.8752,-40
1604521787.8772,-31
1604521787.8792,-21
1604521787.8812,-7
1604521787.8831,9
1604521787.8852,24
1604521787.8872,40
1604521787.8892,62
1604521787.8898,81
1604521787.8913,101
1604521787.8933,120
1604521787.8951,134
1604521787.8972,139
1604521787.8992,134
1604521787.9012,125
1604521787.9032,103
1604521787.9052,72
1604521787.9072,33
1604521787.9092,-7
1604521787.9112,-38
1604521787.9132,-65
1604521787.9152,-91
1604521787.9172,-113
1604521787.9192,-125
1604521787.9198,-137
1604521787.9212,-149
1604521787.9233,-149
1604521787.9252,-139
1604521787.9272,-139
1604521787.9292,-142
1604521787.9312,-134
1604521787.9332,-122
1604521787.9352,-118
1604521787.9372,-115
1604521787.9392,-108
1604521787.9412,-105
1604521787.9433,-103
1604521787.9452,-101
1604521787.9473,-98
1604521787.9492,-93
1604521787.9498,-89
1604521787.9512,-89
1604521787.9533,-89
1604521787.9552,-81
1604521787.9572,-86
1604521787.9592,-91
1604521787.9611,-89
1604521787.9632,-84
1604521788.3676,-86
1604521788.3684,-84
1604521788.3709,-79
1604521788.3735,-79
1604521788.3755,-79
1604521788.3775,-79
1604521788.3796,-81
1604521788.3802,-84
1604521788.3815,-89
1604521788.3835,-93
1604521788.3855,-93
1604521788.3875,-84
1604521788.3895,-81
1604521788.3915,-86
1604521788.3935,-79
1604521788.3954,-67
1604521788.3975,-72
1604521788.3995,-74
1604521788.4015,-67
1604521788.4036,-62
1604521788.4054,-65
1604521788.4074,-65
1604521788.4094,-65
1604521788.4100,-57
1604521788.4114,-55
1604521788.4135,-55
1604521788.4154,-55
1604521788.4174,-50
1604521788.4194,-50
1604521788.4214,-57
1604521788.4235,-50
1604521788.4254,-33
1604521788.4274,-16
1604521788.4294,-2
1604521788.4314,-2
1604521788.4334,-12
1604521788.4354,-26
1604521788.4375,-31
1604521788.4394,-31
1604521788.4400,-38
1604521788.4414,-48
1604521788.4436,-55
1604521788.4454,-60
1604521788.4474,-57
1604521788.4494,-57
1604521788.4514,-55
1604521788.4535,-50
1604521788.4554,-48
1604521788.4574,-48
1604521788.4594,-52
1604521788.4614,-77
1604521788.4635,-146
1604521788.4654,-211
1604521788.4674,-52
1604521788.4694,513
1604521788.4700,1211
1604521788.4714,1442
1604521788.4734,811
1604521788.4754,-72
1604521788.4774,-224
1604521788.4794,-12
1604521788.4814,-115
1604521788.4835,-209
1604521788.4854,-125
1604521788.4874,-115
1604521788.4894,-151
1604521788.4914,-130
1604521788.4933,-108
1604521788.4954,-110
1604521788.4974,-101
1604521788.4994,-93
1604521788.5000,-93
1604521788.5014,-89
1604521788.9370,-77
1604521788.9378,-67
1604521788.9402,-57
1604521788.9429,-45
1604521788.9449,-38
1604521788.9469,-33
1604521788.9491,-26
1604521788.9509,-14
1604521788.9529,0
1604521788.9549,16
1604521788.9569,38
1604521788.9575,57
1604521788.9588,74
1604521788.9609,96
1604521788.9629,120
1604521788.9649,139
1604521788.9669,146
1604521788.9689,139
1604521788.9709,130
1604521788.9731,113
1604521788.9749,81
1604521788.9768,36
1604521788.9788,-14
1604521788.9808,-50
1604521788.9828,-81
1604521788.9848,-118
1604521788.9869,-142
1604521788.9874,-149
1604521788.9888,-156
1604521788.9908,-163
1604521788.9928,-163
1604521788.9948,-161
1604521788.9968,-156
1604521788.9988,-146
1604521789.0008,-144
1604521789.0028,-144
1604521789.0048,-132
1604521789.0068,-118
1604521789.0088,-108
1604521789.0108,-101
1604521789.0128,-103
1604521789.0148,-105
1604521789.0168,-93
1604521789.0174,-84
1604521789.0188,-89
1604521789.0208,-91
1604521789.0228,-89
1604521789.0248,-89
1604521789.0268,-89
1604521789.0288,-89
1604521789.0308,-86
1604521789.0328,-84
1604521789.0348,-86
1604521789.0368,-86
1604521789.0388,-77
1604521789.0408,-74
1604521789.0428,-74
1604521789.0448,-74
1604521789.0468,-79
1604521789.0474,-74
1604521789.0488,-62
1604521789.0508,-60
1604521789.0528,-69
1604521789.0548,-72
1604521789.0568,-65
1604521789.0588,-57
1604521789.0608,-60
1604521789.0628,-60
1604521789.0648,-60
1604521789.0668,-57
1604521789.0690,-43
1604521789.0708,-16
1604521789.0728,-2
1604521789.4770,-7
1604521789.4778,-7
1604521789.4803,-9
1604521789.4829,-26
1604521789.4849,-31
1604521789.4869,-24
1604521789.4889,-28
1604521789.4909,-48
1604521789.4929,-55
1604521789.4949,-45
1604521789.4969,-45
1604521789.4989,-50
1604521789.5009,-45
1604521789.5029,-36
1604521789.5048,-33
1604521789.5069,-43
1604521789.5075,-81
1604521789.5089,-180
1604521789.5109,-224
1604521789.5128,79
1604521789.5148,785
1604521789.5168,1430
1604521789.5188,1341
1604521789.5208,433
1604521789.5228,-255
1604521789.5249,-115
1604521789.5268,7
1604521789.5288,-178
1604521789.5308,-178
1604521789.5329,-91
1604521789.5349,-134
1604521789.5368,-154
1604521789.5374,-108
1604521789.5388,-98
1604521789.5408,-108
1604521789.5428,-98
1604521789.5448,-79
1604521789.5468,-74
1604521789.5488,-72
1604521789.5508,-62
1604521789.5528,-52
1604521789.5548,-45
1604521789.5568,-36
1604521789.5588,-19
1604521789.5609,-4
1604521789.5629,4
1604521789.5648,14
1604521789.5668,33
1604521789.5676,57
1604521789.5688,84
1604521789.5708,110
1604521789.5728,127
1604521789.5748,139
1604521789.5768,161
1604521789.5788,175
1604521789.5808,180
1604521789.5828,178
1604521789.5848,156
1604521789.5868,115
1604521789.5888,74
1604521789.5908,28
1604521789.5928,-16
1604521789.5948,-60
1604521789.5968,-93
1604521789.5974,-118
1604521789.5988,-137
1604521789.6008,-154
1604521789.6028,-156
1604521789.6048,-151
1604521789.6068,-154
1604521789.6088,-151
1604521789.6108,-139
1604521789.6128,-125
1604521790.0777,-118
1604521790.0786,-110
1604521790.0810,-98
1604521790.0837,-89
1604521790.0857,-89
1604521790.0877,-93
1604521790.0883,-91
1604521790.0897,-81
1604521790.0916,-77
1604521790.0937,-69
1604521790.0956,-67
1604521790.0976,-72
1604521790.0996,-77
1604521790.1016,-79
1604521790.1037,-77
1604521790.1056,-72
1604521790.1076,-65
1604521790.1096,-65
1604521790.1116,-65
1604521790.1136,-67
1604521790.1156,-72
1604521790.1176,-77
1604521790.1182,-72
1604521790.1197,-65
1604521790.1216,-65
1604521790.1236,-65
1604521790.1258,-60
1604521790.1276,-52
1604521790.1296,-50
1604521790.1316,-57
1604521790.1337,-57
1604521790.1356,-45
1604521790.1376,-38
1604521790.1396,-45
1604521790.1416,-50
1604521790.1436,-45
1604521790.1455,-26
1604521790.1476,-2
1604521790.1482,4
1604521790.1496,0
1604521790.1516,-2
1604521790.1537,-4
1604521790.1556,-9
1604521790.1575,-14
1604521790.1595,-16
1604521790.1616,-21
1604521790.1636,-26
1604521790.1655,-28
1604521790.1676,-28
1604521790.1697,-24
1604521790.1716,-24
1604521790.1736,-21
1604521790.1755,-16
1604521790.1776,-14
1604521790.1782,-28
1604521790.1796,-79
1604521790.1816,-175
1604521790.1836,-175
1604521790.1856,216
1604521790.1875,973
1604521790.1896,1563
1604521790.1916,1341
1604521790.1937,366
1604521790.1955,-269
1604521790.1976,-103
1604521790.1995,-9
1604521790.2016,-192
1604521790.2037,-178
1604521790.2056,-101
1604521790.2076,-144
1604521790.2082,-156
1604521790.2096,-115
1604521790.2115,-115
1604521790.6468,-115
1604521790.6475,-96
1604521790.6499,-96
1604521790.6525,-103
1604521790.6548,-91
1604521790.6566,-72
1604521790.6586,-67
1604521790.6606,-62
1604521790.6626,-48
1604521790.6631,-40
1604521790.6645,-40
1604521790.6665,-26
1604521790.6685,-4
1604521790.6706,7
1604521790.6726,21
1604521790.6745,50
1604521790.6765,74
1604521790.6785,91
1604521790.6805,115
1604521790.6825,137
1604521790.6845,146
1604521790.6866,149
1604521790.6891,146
1604521790.6906,125
1604521790.6926,89
1604521790.6931,45
1604521790.6946,4
1604521790.6966,-36
1604521790.6985,-77
1604521790.7006,-108
1604521790.7026,-125
1604521790.7045,-137
1604521790.7066,-149
1604521790.7086,-151
1604521790.7104,-151
1604521790.7125,-156
1604521790.7145,-154
1604521790.7165,-144
1604521790.7185,-137
1604521790.7205,-132
1604521790.7211,-120
1604521790.7225,-105
1604521790.7246,-93
1604521790.7265,-89
1604521790.7285,-81
1604521790.7305,-69
1604521790.7325,-60
1604521790.7345,-55
1604521790.7365,-50
1604521790.7385,-50
1604521790.7405,-50
1604521790.7425,-50
1604521790.7445,-52
1604521790.7465,-60
1604521790.7485,-60
1604521790.7507,-57
1604521790.7511,-57
1604521790.7526,-62
1604521790.7545,-60
1604521790.7565,-57
1604521790.7585,-57
1604521790.7605,-57
1604521790.7625,-57
1604521790.7645,-55
1604521790.7665,-52
1604521790.7685,-50
1604521790.7705,-48
1604521790.7725,-48
1604521790.7745,-50
1604521790.7765,-52
1604521790.7785,-48
1604521790.7805,-43
1604521790.7811,-45
1604521791.1870,-43
1604521791.1879,-40
1604521791.1902,-40
1604521791.1919,-40
1604521791.1940,-38
1604521791.1960,-36
1604521791.1980,-40
1604521791.2000,-52
1604521791.2020,-50
1604521791.2040,-40
1604521791.2059,-38
1604521791.2079,-28
1604521791.2099,-12
1604521791.2119,-12
1604521791.2140,-21
1604521791.2145,-26
1604521791.2159,-28
1604521791.2178,-33
1604521791.2199,-36
1604521791.2219,-33
1604521791.2239,-31
1604521791.2259,-36
1604521791.2279,-45
1604521791.2299,-43
1604521791.2318,-33
1604521791.2339,-36
1604521791.2359,-38
1604521791.2379,-38
1604521791.2399,-50
1604521791.2419,-103
1604521791.2439,-190
1604521791.2444,-144
1604521791.2459,291
1604521791.2480,1016
1604521791.2499,1517
1604521791.2519,1226
1604521791.2539,257
1604521791.2558,-291
1604521791.2578,-93
1604521791.2599,-33
1604521791.2619,-211
1604521791.2639,-180
1604521791.2658,-115
1604521791.2678,-161
1604521791.2699,-158
1604521791.2718,-120
1604521791.2739,-125
1604521791.2744,-127
1604521791.2759,-110
1604521791.2778,-105
1604521791.2799,-105
1604521791.2818,-91
1604521791.2839,-81
1604521791.2859,-74
1604521791.2879,-65
1604521791.2898,-52
1604521791.2918,-40
1604521791.2939,-26
1604521791.2958,-16
1604521791.2979,-2
1604521791.2999,12
1604521791.3019,24
1604521791.3038,43
1604521791.3044,67
1604521791.3059,91
1604521791.3079,110
1604521791.3098,127
1604521791.3118,142
1604521791.3139,146
1604521791.3159,142
1604521791.3178,125
1604521791.3199,91
1604521791.3218,45
1604521791.7268,2
1604521791.7275,-33
1604521791.7299,-65
1604521791.7310,-93
1604521791.7325,-115
1604521791.7345,-132
1604521791.7365,-139
1604521791.7386,-144
1604521791.7405,-154
1604521791.7425,-154
1604521791.7445,-146
1604521791.7467,-144
1604521791.7485,-142
1604521791.7505,-132
1604521791.7525,-120
1604521791.7545,-113
1604521791.7565,-105
1604521791.7585,-101
1604521791.7605,-96
1604521791.7611,-89
1604521791.7625,-81
1604521791.7645,-74
1604521791.7665,-67
1604521791.7684,-65
1604521791.7705,-65
1604521791.7725,-62
1604521791.7744,-60
1604521791.7765,-60
1604521791.7784,-62
1604521791.7806,-62
1604521791.7825,-62
1604521791.7845,-62
1604521791.7865,-60
1604521791.7884,-60
1604521791.7905,-60
1604521791.7911,-62
1604521791.7925,-65
1604521791.7945,-62
1604521791.7965,-57
1604521791.7985,-60
1604521791.8005,-57
1604521791.8024,-52
1604521791.8045,-50
1604521791.8064,-48
1604521791.8085,-45
1604521791.8105,-43
1604521791.8124,-48
1604521791.8145,-52
1604521791.8165,-50
1604521791.8185,-48
1604521791.8205,-50
1604521791.8210,-48
1604521791.8225,-43
1604521791.8245,-40
1604521791.8265,-40
1604521791.8285,-40
1604521791.8305,-36
1604521791.8324,-38
1604521791.8345,-43
1604521791.8364,-43
1604521791.8385,-36
1604521791.8405,-21
1604521791.8426,0
1604521791.8445,14
1604521791.8465,7
1604521791.8485,-9
1604521791.8505,-19
1604521791.8511,-21
1604521791.8525,-21
1604521791.8546,-26
1604521791.8565,-36
1604521791.8585,-36
1604521791.8605,-40
1604521792.2970,-43
1604521792.2978,-36
1604521792.3003,-33
1604521792.3029,-33
1604521792.3049,-33
1604521792.3069,-50
1604521792.3090,-101
1604521792.3109,-178
1604521792.3129,-195
1604521792.3149,98
1604521792.3155,758
1604521792.3169,1368
1604521792.3189,1332
1604521792.3209,501
1604521792.3229,-226
1604521792.3249,-168
1604521792.3269,-19
1604521792.3289,-178
1604521792.3309,-207
1604521792.3328,-130
1604521792.3349,-154
1604521792.3369,-163
1604521792.3388,-127
1604521792.3409,-125
1604521792.3430,-125
1604521792.3448,-103
1604521792.3455,-96
1604521792.3469,-98
1604521792.3488,-91
1604521792.3508,-81
1604521792.3529,-67
1604521792.3549,-52
1604521792.3568,-48
1604521792.3588,-40
1604521792.3608,-24
1604521792.3630,-4
1604521792.3648,7
1604521792.3668,19
1604521792.3688,33
1604521792.3708,55
1604521792.3730,74
1604521792.3749,103
1604521792.3754,132
1604521792.3768,146
1604521792.3788,158
1604521792.3808,171
1604521792.3828,168
1604521792.3848,146
1604521792.3868,122
1604521792.3888,93
1604521792.3908,45
1604521792.3928,-2
1604521792.3948,-38
1604521792.3968,-69
1604521792.3988,-96
1604521792.4008,-118
1604521792.4028,-127
1604521792.4048,-139
1604521792.4054,-154
1604521792.4068,-154
1604521792.4088,-142
1604521792.4108,-137
1604521792.4128,-132
1604521792.4149,-122
1604521792.4168,-115
1604521792.4188,-110
1604521792.4208,-105
1604521792.4228,-93
1604521792.4248,-86
1604521792.4268,-81
1604521792.4289,-74
1604521792.4308,-67
1604521792.4328,-69
1604521792.8369,-77
1604521792.8380,-72
1604521792.8405,-67
1604521792.8431,-69
1604521792.8450,-69
1604521792.8470,-72
1604521792.8492,-81
1604521792.8511,-89
1604521792.8530,-84
1604521792.8550,-79
1604521792.8570,-84
1604521792.8589,-81
1604521792.8610,-77
1604521792.8631,-74
1604521792.8650,-69
1604521792.8656,-72
1604521792.8670,-77
1604521792.8690,-74
1604521792.8712,-67
1604521792.8731,-60
1604521792.8750,-52
1604521792.8770,-50
1604521792.8790,-52
1604521792.8809,-52
1604521792.8830,-52
1604521792.8850,-55
1604521792.8869,-55
1604521792.8889,-50
1604521792.8910,-38
1604521792.8931,-21
1604521792.8949,-7
1604521792.8956,0
1604521792.8969,-4
1604521792.8989,-16
1604521792.9009,-24
1604521792.9030,-31
1604521792.9049,-36
1604521792.9070,-38
1604521792.9089,-43
1604521792.9110,-45
1604521792.9130,-45
1604521792.9149,-45
1604521792.9169,-43
1604521792.9190,-40
1604521792.9209,-43
1604521792.9230,-43
1604521792.9249,-50
1604521792.9256,-91
1604521792.9269,-187
1604521792.9289,-216
1604521792.9309,137
1604521792.9330,869
1604521792.9349,1459
1604521792.9370,1267
1604521792.9390,315
1604521792.9409,-286
1604521792.9430,-101
1604521792.9449,-16
1604521792.9469,-195
1604521792.9489,-175
1604521792.9510,-108
1604521792.9530,-142
1604521792.9549,-139
1604521792.9555,-108
1604521792.9569,-120
1604521792.9589,-125
1604521792.9609,-105
1604521792.9630,-93
1604521792.9649,-91
1604521792.9671,-84
1604521792.9690,-79
1604521792.9710,-67
1604521792.9730,-48
1604521793.4385,-40
1604521793.4393,-31
1604521793.4407,-12
1604521793.4415,-7
1604521793.4427,-9
1604521793.4447,14
1604521793.4467,50
1604521793.4487,69
1604521793.4507,91
1604521793.4527,122
1604521793.4547,144
1604521793.4567,154
1604521793.4587,171
1604521793.4607,187
1604521793.4627,183
1604521793.4647,156
1604521793.4667,122
1604521793.4687,79
1604521793.4707,26
1604521793.4714,-21
1604521793.4727,-67
1604521793.4747,-108
1604521793.4766,-132
1604521793.4787,-149
1604521793.4807,-163
1604521793.4827,-168
1604521793.4847,-166
1604521793.4867,-173
1604521793.4888,-168
1604521793.4907,-151
1604521793.4927,-137
1604521793.4946,-125
1604521793.4966,-118
1604521793.4986,-113
1604521793.5006,-98
1604521793.5012,-86
1604521793.5026,-86
1604521793.5046,-84
1604521793.5066,-77
1604521793.5086,-77
1604521793.5107,-74
1604521793.5126,-72
1604521793.5146,-72
1604521793.5166,-79
1604521793.5186,-81
1604521793.5206,-81
1604521793.5226,-79
1604521793.5248,-81
1604521793.5266,-79
1604521793.5286,-67
1604521793.5306,-62
1604521793.5312,-74
1604521793.5326,-74
1604521793.5346,-57
1604521793.5366,-57
1604521793.5386,-69
1604521793.5406,-69
1604521793.5426,-65
1604521793.5446,-62
1604521793.5466,-50
1604521793.5486,-26
1604521793.5506,-2
1604521793.5527,0
1604521793.5546,-12
1604521793.5566,-24
1604521793.5586,-28
1604521793.5606,-31
1604521793.5612,-26
1604521793.5626,-28
1604521793.5646,-33
1604521793.5666,-40
1604521793.5686,-40
1604521793.5706,-36
1604521794.0071,-31
1604521794.0083,-28
1604521794.0108,-26
1604521794.0134,-26
1604521794.0153,-43
1604521794.0173,-93
1604521794.0194,-192
1604521794.0213,-175
1604521794.0233,245
1604521794.0253,1011
1604521794.0260,1565
1604521794.0273,1245
1604521794.0293,228
1604521794.0313,-289
1604521794.0334,-62
1604521794.0353,-21
1604521794.0373,-192
1604521794.0392,-151
1604521794.0413,-96
1604521794.0433,-142
1604521794.0452,-134
1604521794.0473,-101
1604521794.0493,-101
1604521794.0513,-93
1604521794.0533,-79
1604521794.0555,-77
1604521794.0559,-69
1604521794.0573,-57
1604521794.0593,-50
1604521794.0612,-38
1604521794.0633,-28
1604521794.0652,-21
1604521794.0672,-12
1604521794.0692,0
1604521794.0712,9
1604521794.0733,16
1604521794.0752,33
1604521794.0772,57
1604521794.0792,81
1604521794.0812,105
1604521794.0833,134
1604521794.0852,151
1604521794.0858,168
1604521794.0872,180
1604521794.0892,178
1604521794.0912,163
1604521794.0933,142
1604521794.0952,98
1604521794.0972,52
1604521794.0992,2
1604521794.1012,-52
1604521794.1034,-91
1604521794.1052,-115
1604521794.1073,-137
1604521794.1092,-154
1604521794.1112,-161
1604521794.1132,-163
1604521794.1152,-168
1604521794.1158,-166
1604521794.1172,-151
1604521794.1192,-144
1604521794.1212,-137
1604521794.1232,-115
1604521794.1252,-103
1604521794.1272,-103
1604521794.1292,-101
1604521794.1312,-89
1604521794.1333,-74
1604521794.1352,-67
1604521794.1372,-65
1604521794.1392,-60
1604521794.1412,-55
1604521794.1432,-55
1604521794.5467,-55
1604521794.5473,-52
1604521794.5497,-57
1604521794.5525,-62
1604521794.5544,-65
1604521794.5565,-67
1604521794.5584,-65
1604521794.5604,-57
1604521794.5624,-57
1604521794.5644,-69
1604521794.5664,-74
1604521794.5684,-65
1604521794.5704,-62
1604521794.5710,-69
1604521794.5724,-65
1604521794.5744,-52
1604521794.5763,-48
1604521794.5784,-50
1604521794.5804,-55
1604521794.5824,-55
1604521794.5844,-48
1604521794.5864,-33
1604521794.5883,-16
1604521794.5904,0
1604521794.5924,2
1604521794.5943,-12
1604521794.5963,-14
1604521794.5983,-14
1604521794.6004,-21
1604521794.6009,-28
1604521794.6023,-31
1604521794.6043,-38
1604521794.6063,-40
1604521794.6083,-38
1604521794.6103,-36
1604521794.6123,-36
1604521794.6144,-33
1604521794.6163,-28
1604521794.6184,-26
1604521794.6203,-33
1604521794.6223,-60
1604521794.6244,-137
1604521794.6263,-216
1604521794.6283,-28
1604521794.6303,614
1604521794.6309,1375
1604521794.6323,1589
1604521794.6343,862
1604521794.6363,-93
1604521794.6383,-233
1604521794.6404,4
1604521794.6423,-108
1604521794.6444,-207
1604521794.6463,-118
1604521794.6485,-113
1604521794.6504,-146
1604521794.6523,-118
1604521794.6544,-101
1604521794.6563,-110
1604521794.6583,-103
1604521794.6603,-89
1604521794.6609,-81
1604521794.6623,-69
1604521794.6643,-57
1604521794.6663,-52
1604521794.6684,-45
1604521794.6703,-33
1604521794.6723,-26
1604521794.6743,-16
1604521794.6763,-4
1604521794.6783,7
1604521794.6803,21
1604521794.6823,38
1604521795.1168,60
1604521795.1174,86
1604521795.1199,115
1604521795.1209,137
1604521795.1224,146
1604521795.1245,156
1604521795.1265,166
1604521795.1285,158
1604521795.1304,137
1604521795.1324,110
1604521795.1345,72
1604521795.1364,19
1604521795.1384,-28
1604521795.1405,-62
1604521795.1424,-93
1604521795.1444,-125
1604521795.1464,-142
1604521795.1484,-151
1604521795.1504,-161
1604521795.1510,-163
1604521795.1524,-166
1604521795.1545,-168
1604521795.1564,-161
1604521795.1584,-149
1604521795.1604,-142
1604521795.1624,-132
1604521795.1644,-125
1604521795.1664,-120
1604521795.1684,-113
1604521795.1704,-103
1604521795.1724,-93
1604521795.1744,-84
1604521795.1765,-74
1604521795.1785,-67
1604521795.1804,-65
1604521795.1811,-62
1604521795.1824,-62
1604521795.1844,-69
1604521795.1864,-69
1604521795.1884,-65
1604521795.1904,-62
1604521795.1924,-65
1604521795.1944,-67
1604521795.1964,-62
1604521795.1984,-52
1604521795.2005,-52
1604521795.2024,-57
1604521795.2045,-57
1604521795.2064,-52
1604521795.2084,-52
1604521795.2104,-52
1604521795.2110,-48
1604521795.2124,-43
1604521795.2144,-40
1604521795.2164,-43
1604521795.2184,-38
1604521795.2204,-36
1604521795.2224,-33
1604521795.2244,-33
1604521795.2264,-33
1604521795.2284,-33
1604521795.2304,-38
1604521795.2324,-38
1604521795.2344,-28
1604521795.2364,-12
1604521795.2384,7
1604521795.2404,14
1604521795.2410,12
1604521795.2424,4
1604521795.2444,-4
1604521795.2464,-7
1604521795.2484,-4
1604521795.2504,-9
1604521795.7169,-14
1604521795.7178,-19
1604521795.7203,-24
1604521795.7230,-24
1604521795.7249,-24
1604521795.7269,-28
1604521795.7290,-28
1604521795.7309,-26
1604521795.7315,-33
1604521795.7329,-50
1604521795.7351,-93
1604521795.7369,-185
1604521795.7388,-180
1604521795.7408,209
1604521795.7429,946
1604521795.7448,1519
1604521795.7468,1322
1604521795.7488,368
1604521795.7509,-281
1604521795.7529,-130
1604521795.7548,-33
1604521795.7568,-214
1604521795.7589,-199
1604521795.7608,-120
1604521795.7614,-156
1604521795.7629,-161
1604521795.7648,-120
1604521795.7668,-120
1604521795.7688,-127
1604521795.7708,-108
1604521795.7728,-93
1604521795.7748,-89
1604521795.7768,-77
1604521795.7788,-67
1604521795.7808,-57
1604521795.7828,-50
1604521795.7848,-43
1604521795.7868,-31
1604521795.7888,-14
1604521795.7908,-2
1604521795.7914,12
1604521795.7928,31
1604521795.7948,48
1604521795.7968,65
1604521795.7988,84
1604521795.8008,108
1604521795.8029,127
1604521795.8048,146
1604521795.8068,161
1604521795.8088,168
1604521795.8108,161
1604521795.8129,137
1604521795.8148,101
1604521795.8168,62
1604521795.8188,19
1604521795.8208,-26
1604521795.8214,-62
1604521795.8229,-91
1604521795.8248,-115
1604521795.8268,-134
1604521795.8288,-142
1604521795.8310,-142
1604521795.8328,-142
1604521795.8348,-142
1604521795.8368,-137
1604521795.8388,-132
1604521795.8408,-127
1604521795.8429,-122
1604521795.8448,-118
1604521795.8468,-108
1604521795.8488,-98
1604521795.8508,-89
1604521795.8514,-79
1604521796.2267,-77
1604521796.2274,-74
1604521796.2297,-67
1604521796.2324,-60
1604521796.2344,-60
1604521796.2364,-62
1604521796.2384,-62
1604521796.2404,-65
1604521796.2424,-67
1604521796.2444,-65
1604521796.2464,-67
1604521796.2484,-67
1604521796.2504,-67
1604521796.2524,-69
1604521796.2530,-77
1604521796.2544,-74
1604521796.2564,-69
1604521796.2584,-69
1604521796.2604,-65
1604521796.2624,-62
1604521796.2644,-60
1604521796.2664,-57
1604521796.2684,-50
1604521796.2704,-45
1604521796.2724,-45
1604521796.2744,-43
1604521796.2764,-40
1604521796.2784,-36
1604521796.2804,-36
1604521796.2824,-36
1604521796.2831,-31
1604521796.2844,-28
1604521796.2864,-28
1604521796.2884,-28
1604521796.2904,-26
1604521796.2924,-26
1604521796.2944,-21
1604521796.2964,-16
1604521796.2984,-14
1604521796.3006,-16
1604521796.3024,-19
1604521796.3044,-21
1604521796.3064,-26
1604521796.3084,-26
1604521796.3104,-19
1604521796.3124,-4
1604521796.3131,16
1604521796.3144,26
1604521796.3164,21
1604521796.3184,14
1604521796.3204,9
1604521796.3224,4
1604521796.3244,0
1604521796.3264,-4
1604521796.3284,-4
1604521796.3304,-9
1604521796.3324,-16
1604521796.3344,-16
1604521796.3364,-12
1604521796.3384,-14
1604521796.3404,-16
1604521796.3424,-12
1604521796.3430,-7
1604521796.3444,-19
1604521796.3465,-65
1604521796.3485,-144
1604521796.3504,-149
1604521796.3524,183
1604521796.3544,862
1604521796.3564,1459
1604521796.3585,1387
1604521796.3604,510
1604521796.3624,-226
1604521796.8269,-144
1604521796.8277,-2
1604521796.8294,-178
1604521796.8318,-199
1604521796.8338,-110
1604521796.8358,-137
1604521796.8379,-161
1604521796.8398,-132
1604521796.8418,-127
1604521796.8438,-127
1604521796.8458,-118
1604521796.8478,-108
1604521796.8498,-103
1604521796.8518,-89
1604521796.8538,-79
1604521796.8557,-72
1604521796.8577,-60
1604521796.8599,-50
1604521796.8604,-40
1604521796.8618,-26
1604521796.8637,-14
1604521796.8644,-4
1604521796.8658,9
1604521796.8677,26
1604521796.8698,43
1604521796.8717,62
1604521796.8738,79
1604521796.8757,98
1604521796.8777,118
1604521796.8798,134
1604521796.8818,142
1604521796.8838,142
1604521796.8857,127
1604521796.8864,98
1604521796.8877,60
1604521796.8897,21
1604521796.8917,-12
1604521796.8939,-50
1604521796.8957,-84
1604521796.8977,-105
1604521796.8997,-120
1604521796.9017,-130
1604521796.9038,-134
1604521796.9057,-132
1604521796.9077,-130
1604521796.9097,-130
1604521796.9117,-127
1604521796.9138,-120
1604521796.9157,-113
1604521796.9164,-108
1604521796.9177,-103
1604521796.9197,-93
1604521796.9217,-86
1604521796.9237,-79
1604521796.9258,-74
1604521796.9277,-67
1604521796.9297,-62
1604521796.9317,-62
1604521796.9337,-60
1604521796.9357,-55
1604521796.9377,-52
1604521796.9397,-50
1604521796.9417,-52
1604521796.9438,-57
1604521796.9457,-60
1604521796.9464,-65
1604521796.9477,-62
1604521796.9497,-55
1604521796.9519,-57
1604521796.9538,-60
1604521796.9557,-57
1604521796.9577,-55
1604521796.9597,-57
1604521797.3670,-57
1604521797.3682,-52
1604521797.3706,-48
1604521797.3732,-48
1604521797.3752,-45
1604521797.3773,-43
1604521797.3793,-43
1604521797.3812,-43
1604521797.3821,-43
1604521797.3833,-43
1604521797.3853,-40
1604521797.3872,-40
1604521797.3892,-48
1604521797.3913,-45
1604521797.3933,-38
1604521797.3953,-36
1604521797.3972,-38
1604521797.3992,-38
1604521797.4012,-33
1604521797.4033,-33
1604521797.4053,-36
1604521797.4072,-36
1604521797.4092,-28
1604521797.4112,-28
1604521797.4119,-33
1604521797.4141,-33
1604521797.4162,-33
1604521797.4181,-38
1604521797.4202,-38
1604521797.4222,-40
1604521797.4242,-33
1604521797.4262,-19
1604521797.4282,2
1604521797.4302,12
1604521797.4322,2
1604521797.4342,-7
1604521797.4362,-9
1604521797.4382,-14
1604521797.4402,-19
1604521797.4422,-24
1604521797.4427,-26
1604521797.4442,-31
1604521797.4462,-40
1604521797.4482,-43
1604521797.4502,-38
1604521797.4522,-38
1604521797.4544,-43
1604521797.4561,-40
1604521797.4581,-38
1604521797.4601,-62
1604521797.4621,-134
1604521797.4641,-195
1604521797.4661,-24
1604521797.4681,529
1604521797.4701,1202
1604521797.4721,1428
1604521797.4727,811
1604521797.4741,-77
1604521797.4761,-257
1604521797.4781,-48
1604521797.4801,-142
1604521797.4821,-240
1604521797.4842,-163
1604521797.4861,-156
1604521797.4881,-190
1604521797.4901,-156
1604521797.4921,-139
1604521797.4941,-151
1604521797.4962,-134
1604521797.4982,-115
1604521797.5002,-115
1604521797.5021,-105
1604521797.5028,-89
1604521797.9369,-84
1604521797.9377,-79
1604521797.9401,-67
1604521797.9428,-48
1604521797.9447,-31
1604521797.9467,-21
1604521797.9488,-12
1604521797.9507,4
1604521797.9527,19
1604521797.9547,24
1604521797.9567,43
1604521797.9587,74
1604521797.9593,96
1604521797.9607,113
1604521797.9627,134
1604521797.9646,142
1604521797.9667,139
1604521797.9687,137
1604521797.9707,120
1604521797.9727,86
1604521797.9747,50
1604521797.9767,12
1604521797.9787,-31
1604521797.9807,-67
1604521797.9829,-91
1604521797.9847,-115
1604521797.9868,-134
1604521797.9888,-142
1604521797.9892,-144
1604521797.9907,-146
1604521797.9928,-142
1604521797.9947,-139
1604521797.9967,-132
1604521797.9988,-120
1604521798.0006,-115
1604521798.0028,-115
1604521798.0047,-110
1604521798.0067,-101
1604521798.0087,-96
1604521798.0107,-89
1604521798.0127,-81
1604521798.0147,-77
1604521798.0167,-74
1604521798.0186,-77
1604521798.0192,-74
1604521798.0207,-65
1604521798.0227,-62
1604521798.0247,-72
1604521798.0266,-77
1604521798.0286,-77
1604521798.0307,-79
1604521798.0326,-84
1604521798.0347,-86
1604521798.0367,-84
1604521798.0386,-81
1604521798.0407,-77
1604521798.0426,-72
1604521798.0448,-69
1604521798.0467,-67
1604521798.0472,-65
1604521798.0487,-65
1604521798.0507,-65
1604521798.0527,-62
1604521798.0547,-55
1604521798.0567,-52
1604521798.0586,-57
1604521798.0606,-55
1604521798.0627,-50
1604521798.0646,-48
1604521798.0666,-43
1604521798.0687,-43
1604521798.0707,-48
1604521798.0727,-45
1604521798.4768,-43
1604521798.4776,-45
1604521798.4802,-43
1604521798.4829,-31
1604521798.4847,-14
1604521798.4867,7
1604521798.4887,4
1604521798.4906,-12
1604521798.4927,-14
1604521798.4947,-14
1604521798.4967,-31
1604521798.4987,-45
1604521798.5006,-40
1604521798.5027,-40
1604521798.5046,-55
1604521798.5066,-55
1604521798.5072,-48
1604521798.5086,-55
1604521798.5106,-57
1604521798.5127,-55
1604521798.5146,-55
1604521798.5166,-62
1604521798.5186,-115
1604521798.5206,-226
1604521798.5226,-180
1604521798.5246,277
1604521798.5266,1011
1604521798.5286,1459
1604521798.5306,1047
1604521798.5326,86
1604521798.5346,-274
1604521798.5366,-28
1604521798.5372,-50
1604521798.5386,-207
1604521798.5406,-142
1604521798.5426,-96
1604521798.5446,-142
1604521798.5466,-130
1604521798.5486,-101
1604521798.5506,-110
1604521798.5527,-101
1604521798.5546,-72
1604521798.5566,-79
1604521798.5586,-84
1604521798.5606,-69
1604521798.5625,-62
1604521798.5646,-52
1604521798.5666,-36
1604521798.5672,-26
1604521798.5686,-16
1604521798.5706,-4
1604521798.5726,12
1604521798.5746,33
1604521798.5768,50
1604521798.5786,67
1604521798.5806,98
1604521798.5826,127
1604521798.5846,146
1604521798.5866,175
1604521798.5886,204
1604521798.5906,211
1604521798.5926,209
1604521798.5946,207
1604521798.5966,187
1604521798.5972,151
