Time,ECG
1604520653.5417,87
1604520653.5421,1009
1604520653.5446,2859
1604520653.5472,4386
1604520653.5491,5222
1604520653.5512,6093
1604520653.5532,6764
1604520653.5552,7018
1604520653.5572,7454
1604520653.5591,8001
1604520653.5612,8282
1604520653.5632,8543
1604520653.5653,8887
1604520653.5672,9141
1604520653.5692,9338
1604520653.5712,9555
1604520653.5732,9754
1604520653.5752,9911
1604520653.5772,10061
1604520653.5792,10216
1604520653.5811,10371
1604520653.5832,10485
1604520653.5852,10567
1604520653.5872,10669
1604520653.5892,10776
1604520653.5912,10853
1604520653.5932,10931
1604520653.5952,11015
1604520653.5972,11083
1604520653.5991,11141
1604520653.6012,11202
1604520653.6032,11253
1604520653.6051,11301
1604520653.6072,11335
1604520653.6092,11347
1604520653.6112,11371
1604520653.6132,11400
1604520653.6151,11412
1604520653.6173,11417
1604520653.6192,11420
1604520653.6212,11417
1604520653.6232,11417
1604520653.6252,11412
1604520653.6272,11412
1604520653.6292,11408
1604520653.6312,11386
1604520653.6332,11364
1604520653.6352,11357
1604520653.6372,11340
1604520653.6392,11311
1604520653.6417,11291
1604520653.6433,11274
1604520653.6452,11240
1604520653.6471,11202
1604520653.6491,11173
1604520653.6512,11144
1604520653.6531,11105
1604520653.6551,11056
1604520653.6572,11013
1604520653.6592,10974
1604520653.6611,10923
1604520653.6632,10865
1604520653.6652,10817
1604520653.6672,10766
1604520653.6692,10701
1604520653.6712,10633
1604520653.6732,10580
1604520653.6752,10524
1604520653.6772,10461
1604520653.6792,10396
1604520653.6812,10333
1604520653.6832,10262
1604520653.6852,10190
1604520654.0824,10124
1604520654.0829,10064
1604520654.0853,9994
1604520654.0879,9914
1604520654.0899,9846
1604520654.0919,9785
1604520654.0939,9718
1604520654.0959,9652
1604520654.0979,9597
1604520654.0999,9534
1604520654.1019,9454
1604520654.1039,9345
1604520654.1059,9253
1604520654.1079,9200
1604520654.1099,9105
1604520654.1119,8986
1604520654.1139,8921
1604520654.1159,8870
1604520654.1179,8786
1604520654.1199,8701
1604520654.1219,8628
1604520654.1239,8556
1604520654.1259,8512
1604520654.1279,8548
1604520654.1299,8618
1604520654.1319,8485
1604520654.1339,8154
1604520654.1359,8033
1604520654.1381,8071
1604520654.1400,7958
1604520654.1419,7824
1604520654.1439,7783
1604520654.1459,7715
1604520654.1479,7619
1604520654.1499,7551
1604520654.1519,7481
1604520654.1539,7406
1604520654.1559,7338
1604520654.1579,7263
1604520654.1599,7183
1604520654.1619,7115
1604520654.1639,7050
1604520654.1658,6972
1604520654.1679,6892
1604520654.1699,6824
1604520654.1719,6754
1604520654.1739,6679
1604520654.1759,6609
1604520654.1779,6548
1604520654.1799,6483
1604520654.1819,6408
1604520654.1839,6338
1604520654.1859,6280
1604520654.1879,6207
1604520654.1899,6130
1604520654.1919,6062
1604520654.1939,5992
1604520654.1959,5917
1604520654.1979,5844
1604520654.1999,5779
1604520654.2019,5720
1604520654.2039,5658
1604520654.2059,5580
1604520654.2078,5512
1604520654.2099,5457
1604520654.2119,5394
1604520654.2139,5326
1604520654.2158,5273
1604520654.2179,5222
1604520654.2199,5159
1604520654.2219,5098
1604520654.2239,5047
1604520654.2259,4997
1604520654.6512,4941
1604520654.6517,4885
1604520654.6540,4834
1604520654.6567,4781
1604520654.6587,4728
1604520654.6607,4677
1604520654.6629,4629
1604520654.6648,4566
1604520654.6667,4491
1604520654.6687,4425
1604520654.6707,4382
1604520654.6727,4338
1604520654.6748,4282
1604520654.6767,4229
1604520654.6787,4181
1604520654.6807,4130
1604520654.6827,4079
1604520654.6847,4033
1604520654.6867,3989
1604520654.6887,3943
1604520654.6907,3895
1604520654.6927,3844
1604520654.6947,3798
1604520654.6967,3755
1604520654.6987,3709
1604520654.7007,3665
1604520654.7027,3624
1604520654.7047,3578
1604520654.7067,3534
1604520654.7087,3498
1604520654.7107,3462
1604520654.7127,3418
1604520654.7147,3382
1604520654.7167,3365
1604520654.7187,3331
1604520654.7207,3273
1604520654.7228,3224
1604520654.7247,3186
1604520654.7267,3137
1604520654.7287,3086
1604520654.7307,3043
1604520654.7327,3011
1604520654.7347,2980
1604520654.7367,2941
1604520654.7388,2905
1604520654.7407,2873
1604520654.7427,2844
1604520654.7448,2849
1604520654.7467,2922
1604520654.7487,3006
1604520654.7507,2900
1604520654.7527,2660
1604520654.7547,2605
1604520654.7567,2634
1604520654.7587,2551
1604520654.7607,2493
1604520654.7627,2496
1604520654.7648,2462
1604520654.7667,2418
1604520654.7687,2396
1604520654.7707,2372
1604520654.7727,2336
1604520654.7747,2300
1604520654.7767,2273
1604520654.7787,2249
1604520654.7807,2222
1604520654.7827,2193
1604520654.7846,2162
1604520654.7868,2135
1604520654.7887,2111
1604520654.7907,2086
1604520654.7927,2057
1604520654.7947,2026
1604520655.1915,2002
1604520655.1920,1978
1604520655.1944,1951
1604520655.1970,1932
1604520655.1990,1910
1604520655.2010,1886
1604520655.2030,1856
1604520655.2050,1832
1604520655.2070,1806
1604520655.2090,1772
1604520655.2110,1740
1604520655.2130,1718
1604520655.2150,1694
1604520655.2170,1665
1604520655.2190,1646
1604520655.2210,1629
1604520655.2230,1610
1604520655.2250,1588
1604520655.2270,1571
1604520655.2289,1556
1604520655.2310,1539
1604520655.2330,1522
1604520655.2350,1508
1604520655.2370,1493
1604520655.2390,1476
1604520655.2410,1459
1604520655.2430,1447
1604520655.2450,1435
1604520655.2470,1418
1604520655.2490,1404
1604520655.2510,1389
1604520655.2530,1375
1604520655.2550,1358
1604520655.2570,1341
1604520655.2590,1326
1604520655.2611,1312
1604520655.2631,1295
1604520655.2650,1278
1604520655.2670,1263
1604520655.2690,1251
1604520655.2710,1232
1604520655.2730,1215
1604520655.2750,1200
1604520655.2770,1183
1604520655.2789,1166
1604520655.2810,1152
1604520655.2830,1140
1604520655.2850,1123
1604520655.2870,1108
1604520655.2890,1096
1604520655.2910,1084
1604520655.2930,1072
1604520655.2950,1058
1604520655.2970,1048
1604520655.2990,1036
1604520655.3010,1024
1604520655.3030,1012
1604520655.3050,1007
1604520655.3070,1009
1604520655.3090,1009
1604520655.3110,990
1604520655.3130,966
1604520655.3150,953
1604520655.3170,936
1604520655.3190,907
1604520655.3210,886
1604520655.3230,876
1604520655.3250,866
1604520655.3270,854
1604520655.3289,849
1604520655.3311,842
1604520655.3330,830
1604520655.3350,835
1604520655.7623,898
1604520655.7626,1024
1604520655.7645,1060
1604520655.7665,874
1604520655.7684,721
1604520655.7704,769
1604520655.7724,760
1604520655.7744,680
1604520655.7764,690
1604520655.7784,704
1604520655.7804,673
1604520655.7824,665
1604520655.7844,670
1604520655.7866,658
1604520655.7885,648
1604520655.7904,648
1604520655.7924,641
1604520655.7944,627
1604520655.7964,619
1604520655.7984,614
1604520655.8004,605
1604520655.8024,593
1604520655.8044,585
1604520655.8064,578
1604520655.8084,573
1604520655.8104,576
1604520655.8124,571
1604520655.8144,564
1604520655.8164,561
1604520655.8184,556
1604520655.8204,547
1604520655.8224,542
1604520655.8244,537
1604520655.8264,525
1604520655.8285,513
1604520655.8304,501
1604520655.8324,493
1604520655.8344,486
1604520655.8364,474
1604520655.8384,469
1604520655.8404,467
1604520655.8424,462
1604520655.8444,455
1604520655.8464,455
1604520655.8484,455
1604520655.8505,450
1604520655.8524,447
1604520655.8544,447
1604520655.8564,445
1604520655.8583,443
1604520655.8604,443
1604520655.8623,447
1604520655.8644,443
1604520655.8664,438
1604520655.8684,435
1604520655.8704,435
1604520655.8724,426
1604520655.8744,411
1604520655.8764,411
1604520655.8784,411
1604520655.8804,401
1604520655.8824,394
1604520655.8844,394
1604520655.8864,392
1604520655.8886,384
1604520655.8905,384
1604520655.8924,377
1604520655.8944,365
1604520655.8964,358
1604520655.8984,358
1604520655.9004,353
1604520655.9024,348
1604520655.9044,343
1604520656.3302,343
1604520656.3307,346
1604520656.3331,343
1604520656.3356,338
1604520656.3377,331
1604520656.3397,336
1604520656.3417,346
1604520656.3437,348
1604520656.3457,334
1604520656.3477,319
1604520656.3497,314
1604520656.3517,307
1604520656.3537,290
1604520656.3557,278
1604520656.3577,273
1604520656.3597,273
1604520656.3617,273
1604520656.3637,276
1604520656.3657,276
1604520656.3677,268
1604520656.3697,273
1604520656.3717,319
1604520656.3737,445
1604520656.3757,578
1604520656.3777,462
1604520656.3797,193
1604520656.3817,193
1604520656.3837,300
1604520656.3857,239
1604520656.3876,205
1604520656.3897,249
1604520656.3917,239
1604520656.3937,217
1604520656.3957,230
1604520656.3977,232
1604520656.3997,227
1604520656.4018,232
1604520656.4037,237
1604520656.4057,234
1604520656.4077,230
1604520656.4097,230
1604520656.4117,227
1604520656.4139,220
1604520656.4157,217
1604520656.4177,220
1604520656.4197,217
1604520656.4217,217
1604520656.4237,220
1604520656.4257,220
1604520656.4277,215
1604520656.4297,210
1604520656.4316,210
1604520656.4338,213
1604520656.4358,208
1604520656.4377,203
1604520656.4397,198
1604520656.4417,196
1604520656.4437,191
1604520656.4457,186
1604520656.4477,181
1604520656.4497,179
1604520656.4517,176
1604520656.4537,174
1604520656.4557,174
1604520656.4577,171
1604520656.4597,171
1604520656.4617,176
1604520656.4637,181
1604520656.4657,186
1604520656.4677,191
1604520656.4697,193
1604520656.4717,196
1604520656.4737,200
1604520656.9012,203
1604520656.9017,203
1604520656.9040,205
1604520656.9069,205
1604520656.9087,203
1604520656.9107,198
1604520656.9127,200
1604520656.9147,200
1604520656.9167,191
1604520656.9187,184
1604520656.9207,186
1604520656.9227,188
1604520656.9247,184
1604520656.9267,186
1604520656.9287,186
1604520656.9307,184
1604520656.9326,181
1604520656.9347,179
1604520656.9367,179
1604520656.9388,181
1604520656.9408,179
1604520656.9428,176
1604520656.9447,179
1604520656.9467,179
1604520656.9487,176
1604520656.9507,176
1604520656.9527,179
1604520656.9547,179
1604520656.9567,184
1604520656.9587,200
1604520656.9607,213
1604520656.9627,203
1604520656.9647,188
1604520656.9667,186
1604520656.9687,181
1604520656.9707,169
1604520656.9727,157
1604520656.9747,154
1604520656.9767,157
1604520656.9788,157
1604520656.9807,157
1604520656.9826,154
1604520656.9847,147
1604520656.9867,162
1604520656.9887,242
1604520656.9907,380
1604520656.9927,423
1604520656.9947,246
1604520656.9967,101
1604520656.9987,154
1604520657.0007,164
1604520657.0027,104
1604520657.0047,118
1604520657.0067,140
1604520657.0087,123
1604520657.0107,121
1604520657.0127,128
1604520657.0147,125
1604520657.0167,125
1604520657.0187,130
1604520657.0207,130
1604520657.0227,130
1604520657.0247,128
1604520657.0267,123
1604520657.0287,125
1604520657.0307,128
1604520657.0326,128
1604520657.0347,128
1604520657.0367,133
1604520657.0388,135
1604520657.0407,133
1604520657.0428,138
1604520657.0448,142
1604520657.5003,142
1604520657.5008,138
1604520657.5032,135
1604520657.5058,133
1604520657.5078,125
1604520657.5098,121
1604520657.5118,116
1604520657.5138,111
1604520657.5158,101
1604520657.5178,87
1604520657.5198,84
1604520657.5218,89
1604520657.5238,87
1604520657.5258,75
1604520657.5278,67
1604520657.5298,72
1604520657.5318,79
1604520657.5338,82
1604520657.5358,87
1604520657.5378,92
1604520657.5398,94
1604520657.5418,96
1604520657.5438,101
1604520657.5457,104
1604520657.5478,108
1604520657.5498,111
1604520657.5517,113
1604520657.5538,116
1604520657.5558,118
1604520657.5578,116
1604520657.5598,118
1604520657.5618,118
1604520657.5638,113
1604520657.5658,111
1604520657.5678,106
1604520657.5698,104
1604520657.5718,106
1604520657.5738,104
1604520657.5758,104
1604520657.5778,101
1604520657.5798,99
1604520657.5818,94
1604520657.5838,96
1604520657.5858,94
1604520657.5878,92
1604520657.5898,94
1604520657.5918,96
1604520657.5938,96
1604520657.5958,106
1604520657.5979,108
1604520657.5999,108
1604520657.6018,118
1604520657.6038,133
1604520657.6058,133
1604520657.6079,125
1604520657.6098,118
1604520657.6118,111
1604520657.6138,96
1604520657.6158,84
1604520657.6178,82
1604520657.6198,87
1604520657.6218,94
1604520657.6238,94
1604520657.6258,96
1604520657.6278,96
1604520657.6298,104
1604520657.6318,154
1604520657.6338,268
1604520657.6358,355
1604520657.6378,244
1604520657.6398,70
1604520657.6418,89
1604520657.6438,123
1604520658.0111,62
1604520658.0115,58
1604520658.0139,77
1604520658.0166,60
1604520658.0185,58
1604520658.0205,70
1604520658.0226,67
1604520658.0245,60
1604520658.0265,65
1604520658.0285,65
1604520658.0305,58
1604520658.0326,46
1604520658.0346,43
1604520658.0366,43
1604520658.0385,36
1604520658.0406,29
1604520658.0426,31
1604520658.0445,36
1604520658.0465,33
1604520658.0486,33
1604520658.0505,43
1604520658.0512,48
1604520658.0525,46
1604520658.0545,48
1604520658.0565,50
1604520658.0585,48
1604520658.0605,38
1604520658.0626,31
1604520658.0646,31
1604520658.0665,33
1604520658.0685,31
1604520658.0705,29
1604520658.0725,26
1604520658.0745,26
1604520658.0765,24
1604520658.0785,24
1604520658.0806,38
1604520658.0812,46
1604520658.0835,41
1604520658.0855,43
1604520658.0875,48
1604520658.0895,53
1604520658.0915,53
1604520658.0935,55
1604520658.0955,60
1604520658.0975,58
1604520658.0995,55
1604520658.1015,62
1604520658.1035,67
1604520658.1055,67
1604520658.1076,65
1604520658.1095,65
1604520658.1115,70
1604520658.1122,70
1604520658.1135,67
1604520658.1155,65
1604520658.1175,65
1604520658.1195,62
1604520658.1215,58
1604520658.1235,60
1604520658.1255,58
1604520658.1275,53
1604520658.1295,58
1604520658.1315,60
1604520658.1336,50
1604520658.1356,48
1604520658.1375,58
1604520658.1395,65
1604520658.1415,65
1604520658.1422,65
1604520658.1435,72
1604520658.1455,94
1604520658.1475,99
1604520658.5512,77
1604520658.5516,65
1604520658.5540,65
1604520658.5566,58
1604520658.5586,43
1604520658.5608,36
1604520658.5627,41
1604520658.5646,38
1604520658.5666,29
1604520658.5686,29
1604520658.5706,29
1604520658.5713,29
1604520658.5736,58
1604520658.5756,167
1604520658.5776,302
1604520658.5796,254
1604520658.5816,29
1604520658.5836,-21
1604520658.5856,62
1604520658.5876,21
1604520658.5896,-21
1604520658.5916,16
1604520658.5936,21
1604520658.5956,2
1604520658.5976,2
1604520658.5996,4
1604520658.6016,2
1604520658.6023,4
1604520658.6036,7
1604520658.6056,9
1604520658.6076,12
1604520658.6096,7
1604520658.6116,0
1604520658.6136,9
1604520658.6156,14
1604520658.6176,12
1604520658.6196,9
1604520658.6216,9
1604520658.6236,9
1604520658.6256,14
1604520658.6276,19
1604520658.6296,16
1604520658.6317,14
1604520658.6324,12
1604520658.6346,9
1604520658.6366,14
1604520658.6386,12
1604520658.6406,0
1604520658.6426,-9
1604520658.6446,-14
1604520658.6466,-9
1604520658.6486,-2
1604520658.6506,-2
1604520658.6526,-9
1604520658.6546,-14
1604520658.6566,-7
1604520658.6587,0
1604520658.6607,4
1604520658.6626,9
1604520658.6633,16
1604520658.6645,24
1604520658.6667,24
1604520658.6686,26
1604520658.6706,33
1604520658.6726,41
1604520658.6746,41
1604520658.6766,41
1604520658.6786,43
1604520658.6806,43
1604520658.6826,48
1604520658.6846,53
1604520658.6866,50
1604520658.6886,38
1604520659.1813,33
1604520659.1818,50
1604520659.1841,55
1604520659.1868,50
1604520659.1887,55
1604520659.1908,41
1604520659.1928,21
1604520659.1948,31
1604520659.1968,48
1604520659.1988,50
1604520659.2008,55
1604520659.2028,65
1604520659.2048,65
1604520659.2068,60
1604520659.2088,58
1604520659.2095,50
1604520659.2118,36
1604520659.2138,29
1604520659.2158,31
1604520659.2178,31
1604520659.2198,31
1604520659.2218,38
1604520659.2238,33
1604520659.2258,36
1604520659.2278,43
1604520659.2298,46
1604520659.2318,77
1604520659.2338,186
1604520659.2358,314
1604520659.2378,237
1604520659.2398,14
1604520659.2405,-2
1604520659.2418,89
1604520659.2438,53
1604520659.2459,19
1604520659.2478,36
1604520659.2498,38
1604520659.2518,41
1604520659.2538,48
1604520659.2558,53
1604520659.2578,53
1604520659.2598,55
1604520659.2618,65
1604520659.2638,58
1604520659.2658,46
1604520659.2678,50
1604520659.2698,60
1604520659.2705,60
1604520659.2718,55
1604520659.2738,62
1604520659.2757,62
1604520659.2778,50
1604520659.2798,58
1604520659.2818,60
1604520659.2837,55
1604520659.2858,62
1604520659.2878,67
1604520659.2898,58
1604520659.2918,58
1604520659.2938,55
1604520659.2957,43
1604520659.2978,31
1604520659.2998,29
1604520659.3004,36
1604520659.3018,41
1604520659.3038,33
1604520659.3057,26
1604520659.3078,21
1604520659.3098,26
1604520659.3118,24
1604520659.3138,12
1604520659.3158,14
1604520659.3178,31
1604520659.6616,36
1604520659.6620,36
1604520659.6644,38
1604520659.6671,31
1604520659.6690,36
1604520659.6698,36
1604520659.6721,19
1604520659.6742,14
1604520659.6761,33
1604520659.6780,41
1604520659.6800,33
1604520659.6820,33
1604520659.6842,36
1604520659.6862,31
1604520659.6881,24
1604520659.6901,19
1604520659.6921,19
1604520659.6941,24
1604520659.6961,12
1604520659.6981,4
1604520659.7001,24
1604520659.7021,36
1604520659.7041,29
1604520659.7060,36
1604520659.7080,62
1604520659.7101,67
1604520659.7121,53
1604520659.7141,43
1604520659.7160,41
1604520659.7180,33
1604520659.7201,21
1604520659.7220,14
1604520659.7241,16
1604520659.7260,16
1604520659.7280,9
1604520659.7301,16
1604520659.7320,21
1604520659.7341,19
1604520659.7360,24
1604520659.7381,62
1604520659.7401,174
1604520659.7420,280
1604520659.7441,186
1604520659.7461,-2
1604520659.7481,2
1604520659.7501,53
1604520659.7521,2
1604520659.7540,0
1604520659.7561,26
1604520659.7581,7
1604520659.7601,-2
1604520659.7620,12
1604520659.7640,9
1604520659.7661,14
1604520659.7680,36
1604520659.7700,36
1604520659.7721,12
1604520659.7742,12
1604520659.7761,33
1604520659.7780,36
1604520659.7801,38
1604520659.7821,43
1604520659.7841,43
1604520659.7862,43
1604520659.7881,53
1604520659.7901,55
1604520659.7920,48
1604520659.7940,55
1604520659.7960,60
1604520659.7981,46
1604520659.8001,36
1604520659.8021,41
1604520659.8041,31
1604520660.3211,12
1604520660.3215,16
1604520660.3240,21
1604520660.3256,2
1604520660.3276,-14
1604520660.3296,-2
1604520660.3316,2
1604520660.3336,-2
1604520660.3356,2
1604520660.3376,-2
1604520660.3396,-7
1604520660.3416,-4
1604520660.3436,0
1604520660.3456,9
1604520660.3476,12
1604520660.3496,7
1604520660.3516,7
1604520660.3536,12
1604520660.3556,19
1604520660.3576,21
1604520660.3596,21
1604520660.3616,24
1604520660.3636,26
1604520660.3656,31
1604520660.3676,36
1604520660.3696,26
1604520660.3716,21
1604520660.3736,26
1604520660.3756,16
1604520660.3776,14
1604520660.3796,31
1604520660.3816,29
1604520660.3836,19
1604520660.3856,31
1604520660.3876,38
1604520660.3896,38
1604520660.3916,48
1604520660.3936,70
1604520660.3956,82
1604520660.3976,62
1604520660.3996,38
1604520660.4017,46
1604520660.4036,50
1604520660.4056,29
1604520660.4076,12
1604520660.4096,31
1604520660.4116,36
1604520660.4136,21
1604520660.4156,38
1604520660.4176,50
1604520660.4196,21
1604520660.4216,19
1604520660.4236,89
1604520660.4256,237
1604520660.4276,307
1604520660.4296,138
1604520660.4316,-7
1604520660.4336,53
1604520660.4356,65
1604520660.4376,9
1604520660.4396,21
1604520660.4416,38
1604520660.4436,31
1604520660.4456,33
1604520660.4476,33
1604520660.4496,36
1604520660.4516,33
1604520660.4536,31
1604520660.4556,33
1604520660.4576,26
1604520660.4596,21
1604520660.4616,43
1604520660.4636,50
1604520660.8612,33
1604520660.8616,38
1604520660.8640,53
1604520660.8667,38
1604520660.8686,29
1604520660.8705,48
1604520660.8727,58
1604520660.8746,60
1604520660.8766,53
1604520660.8786,29
1604520660.8806,24
1604520660.8826,41
1604520660.8847,36
1604520660.8866,26
1604520660.8887,33
1604520660.8906,43
1604520660.8926,21
1604520660.8947,2
1604520660.8966,14
1604520660.8988,21
1604520660.9006,14
1604520660.9026,14
1604520660.9046,16
1604520660.9066,21
1604520660.9086,21
1604520660.9106,16
1604520660.9125,24
1604520660.9146,33
1604520660.9166,36
1604520660.9186,43
1604520660.9206,46
1604520660.9226,43
1604520660.9246,50
1604520660.9266,58
1604520660.9286,46
1604520660.9307,29
1604520660.9326,33
1604520660.9346,48
1604520660.9366,36
1604520660.9387,26
1604520660.9406,31
1604520660.9426,31
1604520660.9446,31
1604520660.9467,36
1604520660.9486,31
1604520660.9506,38
1604520660.9526,48
1604520660.9546,31
1604520660.9567,43
1604520660.9586,77
1604520660.9606,72
1604520660.9625,43
1604520660.9646,41
1604520660.9666,41
1604520660.9686,26
1604520660.9706,12
1604520660.9726,9
1604520660.9746,14
1604520660.9766,21
1604520660.9786,29
1604520660.9806,16
1604520660.9826,4
1604520660.9846,16
1604520660.9866,38
1604520660.9886,111
1604520660.9907,254
1604520660.9927,268
1604520660.9946,72
1604520660.9966,0
1604520660.9986,77
1604520661.0008,38
1604520661.0027,-16
1604520661.0046,9
1604520661.4010,14
1604520661.4014,-2
1604520661.4039,12
1604520661.4065,29
1604520661.4085,19
1604520661.4105,19
1604520661.4125,26
1604520661.4145,21
1604520661.4165,29
1604520661.4185,33
1604520661.4205,31
1604520661.4225,36
1604520661.4245,43
1604520661.4265,33
1604520661.4285,19
1604520661.4305,24
1604520661.4325,33
1604520661.4345,33
1604520661.4365,41
1604520661.4385,46
1604520661.4405,38
1604520661.4425,29
1604520661.4445,36
1604520661.4465,38
1604520661.4485,14
1604520661.4504,7
1604520661.4525,21
1604520661.4545,24
1604520661.4565,29
1604520661.4585,33
1604520661.4605,31
1604520661.4625,29
1604520661.4645,26
1604520661.4665,31
1604520661.4685,41
1604520661.4705,43
1604520661.4725,41
1604520661.4745,43
1604520661.4765,50
1604520661.4785,53
1604520661.4805,58
1604520661.4825,60
1604520661.4845,55
1604520661.4865,58
1604520661.4885,60
1604520661.4905,50
1604520661.4925,53
1604520661.4945,58
1604520661.4966,48
1604520661.4985,43
1604520661.5005,41
1604520661.5025,36
1604520661.5045,33
1604520661.5065,41
1604520661.5085,48
1604520661.5105,41
1604520661.5125,29
1604520661.5145,31
1604520661.5165,38
1604520661.5185,33
1604520661.5205,33
1604520661.5225,38
1604520661.5244,46
1604520661.5265,65
1604520661.5285,70
1604520661.5305,55
1604520661.5325,50
1604520661.5345,46
1604520661.5365,31
1604520661.5385,21
1604520661.5405,21
1604520661.5425,21
1604520661.5444,21
1604520661.9415,24
1604520661.9419,24
1604520661.9444,26
1604520661.9470,26
1604520661.9490,31
1604520661.9509,87
1604520661.9530,217
1604520661.9549,278
1604520661.9570,133
1604520661.9589,12
1604520661.9610,50
1604520661.9629,36
1604520661.9650,-9
1604520661.9670,14
1604520661.9690,19
1604520661.9709,-7
1604520661.9730,0
1604520661.9750,14
1604520661.9770,4
1604520661.9789,2
1604520661.9810,9
1604520661.9829,19
1604520661.9850,21
1604520661.9869,9
1604520661.9890,14
1604520661.9910,29
1604520661.9931,29
1604520661.9950,24
1604520661.9970,26
1604520661.9990,33
1604520662.0010,36
1604520662.0029,33
1604520662.0050,38
1604520662.0070,38
1604520662.0090,29
1604520662.0109,24
1604520662.0130,29
1604520662.0150,24
1604520662.0170,9
1604520662.0189,7
1604520662.0210,14
1604520662.0230,16
1604520662.0250,9
1604520662.0269,7
1604520662.0290,14
1604520662.0310,16
1604520662.0329,19
1604520662.0349,19
1604520662.0370,19
1604520662.0390,29
1604520662.0410,33
1604520662.0430,26
1604520662.0449,26
1604520662.0470,29
1604520662.0490,24
1604520662.0510,21
1604520662.0584,33
1604520662.0600,38
1604520662.0619,29
1604520662.0640,36
1604520662.0659,46
1604520662.0679,38
1604520662.0700,33
1604520662.0720,41
1604520662.0740,41
1604520662.0759,31
1604520662.0780,26
1604520662.0800,29
1604520662.0820,33
1604520662.0840,29
1604520662.0860,29
1604520662.0879,38
1604520662.0899,38
1604520662.4814,29
1604520662.4819,21
1604520662.4843,24
1604520662.4869,31
1604520662.4890,26
1604520662.4909,21
1604520662.4929,29
1604520662.4948,36
1604520662.4969,33
1604520662.4989,41
1604520662.5008,43
1604520662.5029,31
1604520662.5049,16
1604520662.5069,14
1604520662.5089,7
1604520662.5109,-4
1604520662.5129,0
1604520662.5149,4
1604520662.5169,0
1604520662.5189,0
1604520662.5209,4
1604520662.5229,7
1604520662.5249,9
1604520662.5269,41
1604520662.5289,145
1604520662.5309,259
1604520662.5328,186
1604520662.5349,29
1604520662.5369,31
1604520662.5389,53
1604520662.5409,-9
1604520662.5429,-16
1604520662.5448,12
1604520662.5469,4
1604520662.5489,-7
1604520662.5509,-4
1604520662.5529,-2
1604520662.5549,2
1604520662.5569,7
1604520662.5589,7
1604520662.5609,4
1604520662.5629,9
1604520662.5649,14
1604520662.5669,9
1604520662.5689,9
1604520662.5709,16
1604520662.5728,12
1604520662.5749,12
1604520662.5769,19
1604520662.5789,24
1604520662.5809,21
1604520662.5828,19
1604520662.5849,21
1604520662.5869,21
1604520662.5889,21
1604520662.5910,16
1604520662.5929,9
1604520662.5949,7
1604520662.5969,2
1604520662.5989,0
1604520662.6009,7
1604520662.6029,14
1604520662.6049,14
1604520662.6069,16
1604520662.6089,24
1604520662.6109,29
1604520662.6129,29
1604520662.6149,24
1604520662.6169,31
1604520662.6189,43
1604520662.6209,41
1604520662.6229,41
1604520662.6249,46
1604520663.0510,46
1604520663.0514,46
1604520663.0538,50
1604520663.0564,53
1604520663.0584,48
1604520663.0604,38
1604520663.0624,29
1604520663.0644,33
1604520663.0665,43
1604520663.0684,33
1604520663.0704,26
1604520663.0724,33
1604520663.0744,33
1604520663.0764,24
1604520663.0784,21
1604520663.0804,21
1604520663.0824,16
1604520663.0844,14
1604520663.0865,14
1604520663.0884,14
1604520663.0904,12
1604520663.0924,9
1604520663.0944,9
1604520663.0964,12
1604520663.0984,14
1604520663.1004,16
1604520663.1024,19
1604520663.1044,14
1604520663.1064,14
1604520663.1084,24
1604520663.1104,41
1604520663.1124,43
1604520663.1144,29
1604520663.1166,19
1604520663.1185,14
1604520663.1204,9
1604520663.1224,-2
1604520663.1244,-7
1604520663.1264,-4
1604520663.1284,0
1604520663.1304,-2
1604520663.1324,0
1604520663.1344,4
1604520663.1364,9
1604520663.1384,38
1604520663.1404,142
1604520663.1424,254
1604520663.1444,179
1604520663.1464,12
1604520663.1484,9
1604520663.1504,33
1604520663.1524,-26
1604520663.1544,-29
1604520663.1564,0
1604520663.1584,-12
1604520663.1604,-16
1604520663.1624,-7
1604520663.1644,-7
1604520663.1664,-7
1604520663.1684,-9
1604520663.1704,-7
1604520663.1724,-2
1604520663.1744,0
1604520663.1764,0
1604520663.1784,2
1604520663.1804,2
1604520663.1824,-4
1604520663.1844,-2
1604520663.1864,2
1604520663.1884,2
1604520663.1904,4
1604520663.1924,7
1604520663.1944,7
1604520663.6811,7
1604520663.6815,7
1604520663.6838,2
1604520663.6856,-2
1604520663.6876,-4
1604520663.6895,-9
1604520663.6915,-26
1604520663.6936,-38
1604520663.6956,-29
1604520663.6975,-31
1604520663.6996,-38
1604520663.7017,-31
1604520663.7036,-19
1604520663.7056,-12
1604520663.7076,-9
1604520663.7096,-7
1604520663.7115,-2
1604520663.7135,4
1604520663.7155,4
1604520663.7176,0
1604520663.7195,-2
1604520663.7216,2
1604520663.7235,4
1604520663.7256,4
1604520663.7275,9
1604520663.7296,16
1604520663.7315,16
1604520663.7336,9
1604520663.7356,7
1604520663.7376,7
1604520663.7396,7
1604520663.7416,4
1604520663.7435,4
1604520663.7455,0
1604520663.7475,-4
1604520663.7496,-2
1604520663.7516,0
1604520663.7537,-4
1604520663.7556,-7
1604520663.7576,-4
1604520663.7595,-7
1604520663.7615,-7
1604520663.7636,-4
1604520663.7656,0
1604520663.7675,4
1604520663.7696,4
1604520663.7716,12
1604520663.7735,29
1604520663.7755,43
1604520663.7776,36
1604520663.7797,21
1604520663.7816,14
1604520663.7836,9
1604520663.7855,0
1604520663.7875,-12
1604520663.7896,-9
1604520663.7916,-4
1604520663.7935,-9
1604520663.7955,-12
1604520663.7976,0
1604520663.7995,7
1604520663.8016,7
1604520663.8037,58
1604520663.8056,203
1604520663.8075,295
1604520663.8095,121
1604520663.8115,-60
1604520663.8136,9
1604520663.8156,41
1604520663.8176,-41
1604520663.8196,-29
1604520663.8216,4
1604520663.8236,-16
1604520664.2214,-21
1604520664.2219,-7
1604520664.2242,-7
1604520664.2269,-4
1604520664.2289,0
1604520664.2310,-2
1604520664.2330,-2
1604520664.2349,0
1604520664.2369,-4
1604520664.2389,-4
1604520664.2409,0
1604520664.2429,0
1604520664.2448,-2
1604520664.2469,-4
1604520664.2489,-2
1604520664.2509,-4
1604520664.2529,-7
1604520664.2549,-4
1604520664.2569,-7
1604520664.2589,-14
1604520664.2609,-16
1604520664.2629,-16
1604520664.2649,-24
1604520664.2669,-26
1604520664.2689,-26
1604520664.2709,-26
1604520664.2729,-26
1604520664.2749,-24
1604520664.2769,-21
1604520664.2789,-21
1604520664.2809,-21
1604520664.2829,-19
1604520664.2849,-19
1604520664.2869,-14
1604520664.2888,-4
1604520664.2909,0
1604520664.2929,4
1604520664.2948,14
1604520664.2969,14
1604520664.2989,12
1604520664.3010,19
1604520664.3029,24
1604520664.3049,21
1604520664.3069,19
1604520664.3089,16
1604520664.3109,16
1604520664.3129,16
1604520664.3149,16
1604520664.3169,14
1604520664.3189,16
1604520664.3210,16
1604520664.3228,14
1604520664.3249,14
1604520664.3269,16
1604520664.3289,16
1604520664.3308,14
1604520664.3329,14
1604520664.3349,21
1604520664.3369,24
1604520664.3389,24
1604520664.3409,29
1604520664.3429,38
1604520664.3448,48
1604520664.3469,53
1604520664.3489,46
1604520664.3509,38
1604520664.3529,29
1604520664.3549,19
1604520664.3569,9
1604520664.3589,9
1604520664.3609,12
1604520664.3629,14
1604520664.3649,16
1604520664.8218,21
1604520664.8221,21
1604520664.8237,16
1604520664.8258,33
1604520664.8277,118
1604520664.8299,256
1604520664.8317,268
1604520664.8338,75
1604520664.8344,-16
1604520664.8358,55
1604520664.8377,33
1604520664.8397,-16
1604520664.8417,9
1604520664.8437,4
1604520664.8457,-16
1604520664.8477,-2
1604520664.8497,9
1604520664.8517,0
1604520664.8540,2
1604520664.8558,7
1604520664.8577,2
1604520664.8597,0
1604520664.8617,7
1604520664.8637,12
1604520664.8644,7
1604520664.8658,7
1604520664.8677,12
1604520664.8697,16
1604520664.8717,16
1604520664.8738,19
1604520664.8757,24
1604520664.8778,26
1604520664.8797,26
1604520664.8817,24
1604520664.8837,24
1604520664.8857,24
1604520664.8877,16
1604520664.8898,9
1604520664.8917,7
1604520664.8937,7
1604520664.8944,7
1604520664.8957,9
1604520664.8977,9
1604520664.8997,9
1604520664.9017,7
1604520664.9037,9
1604520664.9057,9
1604520664.9077,12
1604520664.9098,16
1604520664.9117,21
1604520664.9137,21
1604520664.9157,24
1604520664.9177,26
1604520664.9197,26
1604520664.9217,24
1604520664.9237,24
1604520664.9244,24
1604520664.9258,24
1604520664.9277,26
1604520664.9297,29
1604520664.9317,26
1604520664.9337,24
1604520664.9358,24
1604520664.9378,21
1604520664.9397,24
1604520664.9417,24
1604520664.9438,21
1604520664.9457,19
1604520664.9477,24
1604520664.9500,24
1604520664.9518,16
1604520664.9537,7
1604520664.9544,12
1604520665.3016,14
1604520665.3021,12
1604520665.3044,12
1604520665.3071,14
1604520665.3091,12
1604520665.3111,14
1604520665.3131,14
1604520665.3151,19
1604520665.3171,26
1604520665.3191,36
1604520665.3211,48
1604520665.3231,53
1604520665.3251,46
1604520665.3271,38
1604520665.3291,36
1604520665.3298,31
1604520665.3311,19
1604520665.3330,0
1604520665.3351,-12
1604520665.3371,-7
1604520665.3391,0
1604520665.3411,2
1604520665.3431,2
1604520665.3451,2
1604520665.3471,12
1604520665.3491,75
1604520665.3511,205
1604520665.3531,276
1604520665.3551,135
1604520665.3571,-4
1604520665.3591,31
1604520665.3598,31
1604520665.3611,-24
1604520665.3631,-7
1604520665.3651,12
1604520665.3671,-7
1604520665.3691,-4
1604520665.3711,4
1604520665.3731,2
1604520665.3751,0
1604520665.3771,4
1604520665.3791,7
1604520665.3811,2
1604520665.3830,-2
1604520665.3851,-2
1604520665.3871,0
1604520665.3891,0
1604520665.3899,2
1604520665.3911,4
1604520665.3931,7
1604520665.3951,9
1604520665.3971,9
1604520665.3991,12
1604520665.4011,12
1604520665.4031,9
1604520665.4051,9
1604520665.4071,9
1604520665.4091,2
1604520665.4111,-7
1604520665.4131,-9
1604520665.4151,-12
1604520665.4171,-14
1604520665.4191,-14
1604520665.4198,-14
1604520665.4211,-16
1604520665.4231,-19
1604520665.4251,-19
1604520665.4271,-16
1604520665.4291,-9
1604520665.4311,-7
1604520665.4330,-9
1604520665.4351,-7
1604520665.4371,-4
1604520665.9309,-7
1604520665.9313,-2
1604520665.9337,0
1604520665.9348,-2
1604520665.9363,0
1604520665.9383,4
1604520665.9403,2
1604520665.9423,-4
1604520665.9443,-7
1604520665.9463,-4
1604520665.9483,-4
1604520665.9503,-9
1604520665.9523,-4
1604520665.9543,0
1604520665.9563,-2
1604520665.9583,-2
1604520665.9603,0
1604520665.9623,-2
1604520665.9643,-2
1604520665.9650,0
1604520665.9663,2
1604520665.9683,4
1604520665.9703,4
1604520665.9722,2
1604520665.9743,2
1604520665.9764,7
1604520665.9783,9
1604520665.9804,9
1604520665.9823,9
1604520665.9843,14
1604520665.9863,19
1604520665.9883,24
1604520665.9904,26
1604520665.9923,33
1604520665.9930,46
1604520665.9943,46
1604520665.9963,36
1604520665.9983,31
1604520666.0003,26
1604520666.0024,16
1604520666.0043,4
1604520666.0063,2
1604520666.0083,2
1604520666.0103,7
1604520666.0123,12
1604520666.0143,14
1604520666.0163,14
1604520666.0183,14
1604520666.0203,50
1604520666.0223,157
1604520666.0230,273
1604520666.0243,217
1604520666.0263,38
1604520666.0282,16
1604520666.0303,53
1604520666.0323,-4
1604520666.0343,-19
1604520666.0363,7
1604520666.0383,-7
1604520666.0403,-21
1604520666.0423,-9
1604520666.0443,-4
1604520666.0463,-12
1604520666.0483,-9
1604520666.0503,-4
1604520666.0523,-4
1604520666.0530,-4
1604520666.0543,-2
1604520666.0563,-2
1604520666.0583,-2
1604520666.0603,-7
1604520666.0623,-7
1604520666.0643,-2
1604520666.4108,0
1604520666.4112,2
1604520666.4136,0
1604520666.4164,-2
1604520666.4183,-7
1604520666.4202,-7
1604520666.4223,-4
1604520666.4242,-7
1604520666.4263,-19
1604520666.4282,-24
1604520666.4302,-24
1604520666.4323,-26
1604520666.4343,-26
1604520666.4362,-24
1604520666.4382,-24
1604520666.4402,-26
1604520666.4423,-36
1604520666.4442,-41
1604520666.4462,-36
1604520666.4483,-29
1604520666.4503,-26
1604520666.4523,-24
1604520666.4542,-16
1604520666.4563,-12
1604520666.4582,-9
1604520666.4602,-7
1604520666.4623,-7
1604520666.4643,-4
1604520666.4662,-7
1604520666.4682,-4
1604520666.4703,0
1604520666.4723,-2
1604520666.4742,-4
1604520666.4762,-2
1604520666.4782,2
1604520666.4803,2
1604520666.4824,-2
1604520666.4843,-4
1604520666.4863,0
1604520666.4883,2
1604520666.4902,0
1604520666.4922,0
1604520666.4943,4
1604520666.4963,2
1604520666.4982,-2
1604520666.5003,-4
1604520666.5022,-2
1604520666.5042,0
1604520666.5062,2
1604520666.5083,0
1604520666.5103,-4
1604520666.5123,-9
1604520666.5142,-7
1604520666.5162,2
1604520666.5184,7
1604520666.5203,4
1604520666.5223,19
1604520666.5243,31
1604520666.5263,19
1604520666.5282,4
1604520666.5303,2
1604520666.5323,0
1604520666.5343,-9
1604520666.5363,-21
1604520666.5383,-24
1604520666.5403,-19
1604520666.5423,-16
1604520666.5443,-14
1604520666.5462,-7
1604520666.5482,-7
1604520666.5503,4
1604520666.5523,82
1604520666.5543,230
1604520667.0413,261
1604520667.0417,55
1604520667.0441,-62
1604520667.0468,19
1604520667.0488,14
1604520667.0509,-50
1604520667.0528,-36
1604520667.0548,-24
1604520667.0567,-38
1604520667.0588,-36
1604520667.0608,-24
1604520667.0627,-24
1604520667.0648,-19
1604520667.0668,-19
1604520667.0687,-21
1604520667.0708,-16
1604520667.0728,-16
1604520667.0747,-21
1604520667.0769,-24
1604520667.0788,-16
1604520667.0807,-12
1604520667.0827,-12
1604520667.0848,-12
1604520667.0867,-9
1604520667.0888,-9
1604520667.0907,-7
1604520667.0928,-4
1604520667.0947,-4
1604520667.0967,-7
1604520667.0988,-12
1604520667.1007,-14
1604520667.1027,-14
1604520667.1049,-16
1604520667.1067,-29
1604520667.1088,-33
1604520667.1107,-26
1604520667.1127,-24
1604520667.1147,-29
1604520667.1167,-24
1604520667.1187,-16
1604520667.1207,-24
1604520667.1227,-26
1604520667.1247,-16
1604520667.1267,-14
1604520667.1287,-14
1604520667.1307,-12
1604520667.1328,-4
1604520667.1347,2
1604520667.1367,4
1604520667.1387,7
1604520667.1407,12
1604520667.1427,14
1604520667.1447,12
1604520667.1468,14
1604520667.1487,16
1604520667.1507,16
1604520667.1527,19
1604520667.1547,21
1604520667.1567,21
1604520667.1587,19
1604520667.1609,19
1604520667.1629,21
1604520667.1648,21
1604520667.1668,21
1604520667.1688,19
1604520667.1708,21
1604520667.1729,24
1604520667.1750,26
1604520667.1768,24
1604520667.1788,21
1604520667.1808,26
1604520667.1828,31
1604520667.1848,33
1604520667.5514,41
1604520667.5525,58
1604520667.5539,70
1604520667.5558,58
1604520667.5578,46
1604520667.5598,41
1604520667.5619,33
1604520667.5638,19
1604520667.5658,9
1604520667.5678,14
1604520667.5701,16
1604520667.5720,19
1604520667.5739,21
1604520667.5758,24
1604520667.5778,14
1604520667.5798,19
1604520667.5819,87
1604520667.5838,230
1604520667.5859,283
1604520667.5878,106
1604520667.5898,-26
1604520667.5918,38
1604520667.5938,41
1604520667.5958,-21
1604520667.5978,0
1604520667.5998,19
1604520667.6019,0
1604520667.6038,0
1604520667.6058,12
1604520667.6078,12
1604520667.6098,9
1604520667.6119,14
1604520667.6138,16
1604520667.6158,19
1604520667.6178,14
1604520667.6198,9
1604520667.6218,9
1604520667.6238,12
1604520667.6258,12
1604520667.6277,9
1604520667.6298,9
1604520667.6317,12
1604520667.6337,9
1604520667.6357,9
1604520667.6377,14
1604520667.6398,14
1604520667.6417,12
1604520667.6437,7
1604520667.6457,4
1604520667.6478,0
1604520667.6498,-4
1604520667.6517,-7
1604520667.6537,-9
1604520667.6557,-9
1604520667.6577,-9
1604520667.6598,-12
1604520667.6617,-14
1604520667.6637,-12
1604520667.6657,-9
1604520667.6678,-7
1604520667.6697,-2
1604520667.6720,0
1604520667.6738,2
1604520667.6757,4
1604520667.6778,12
1604520667.6797,16
1604520667.6818,16
1604520667.6837,19
1604520667.6858,24
1604520667.6877,24
1604520667.6897,24
1604520667.6917,24
1604520667.6938,21
1604520668.1517,21
1604520668.1528,24
1604520668.1554,24
1604520668.1579,24
1604520668.1599,21
1604520668.1619,24
1604520668.1639,26
1604520668.1659,21
1604520668.1679,7
1604520668.1699,2
1604520668.1719,9
1604520668.1739,12
1604520668.1760,7
1604520668.1779,7
1604520668.1799,9
1604520668.1819,12
1604520668.1839,12
1604520668.1858,12
1604520668.1879,12
1604520668.1899,12
1604520668.1918,14
1604520668.1939,21
1604520668.1958,31
1604520668.1978,46
1604520668.2000,55
1604520668.2018,46
1604520668.2038,33
1604520668.2058,29
1604520668.2078,16
1604520668.2098,4
1604520668.2118,-2
1604520668.2138,-4
1604520668.2159,-4
1604520668.2178,0
1604520668.2198,4
1604520668.2219,4
1604520668.2238,7
1604520668.2259,24
1604520668.2278,87
1604520668.2300,215
1604520668.2318,271
1604520668.2338,123
1604520668.2359,-7
1604520668.2378,33
1604520668.2398,31
1604520668.2418,-21
1604520668.2438,-2
1604520668.2458,9
1604520668.2478,-7
1604520668.2498,-4
1604520668.2518,4
1604520668.2538,2
1604520668.2558,2
1604520668.2578,4
1604520668.2598,2
1604520668.2618,2
1604520668.2638,4
1604520668.2658,2
1604520668.2678,0
1604520668.2698,0
1604520668.2718,0
1604520668.2738,0
1604520668.2759,2
1604520668.2778,0
1604520668.2799,4
1604520668.2818,9
1604520668.2838,7
1604520668.2858,2
1604520668.2878,0
1604520668.2898,0
1604520668.2918,-9
1604520668.2938,-16
1604520668.2958,-16
1604520668.6614,-21
1604520668.6622,-26
1604520668.6647,-19
1604520668.6673,-14
1604520668.6693,-14
1604520668.6713,-14
1604520668.6734,-16
1604520668.6754,-14
1604520668.6773,-7
1604520668.6793,-2
1604520668.6813,0
1604520668.6833,2
1604520668.6853,4
1604520668.6872,0
1604520668.6892,-2
1604520668.6912,4
1604520668.6932,9
1604520668.6954,9
1604520668.6973,12
1604520668.6992,12
1604520668.7012,9
1604520668.7032,4
1604520668.7052,2
1604520668.7073,4
1604520668.7092,7
1604520668.7113,9
1604520668.7132,9
1604520668.7153,12
1604520668.7172,12
1604520668.7193,9
1604520668.7213,9
1604520668.7232,12
1604520668.7253,9
1604520668.7272,7
1604520668.7292,9
1604520668.7312,12
1604520668.7332,12
1604520668.7352,9
1604520668.7372,12
1604520668.7392,14
1604520668.7412,12
1604520668.7432,7
1604520668.7452,9
1604520668.7472,16
1604520668.7492,19
1604520668.7512,16
1604520668.7532,26
1604520668.7552,46
1604520668.7572,48
1604520668.7592,38
1604520668.7612,33
1604520668.7632,33
1604520668.7652,21
1604520668.7672,4
1604520668.7692,-7
1604520668.7712,-2
1604520668.7732,2
1604520668.7753,0
1604520668.7772,2
1604520668.7792,4
1604520668.7813,7
1604520668.7832,26
1604520668.7852,108
1604520668.7872,239
1604520668.7892,249
1604520668.7912,72
1604520668.7932,-4
1604520668.7952,46
1604520668.7974,12
1604520668.7993,-31
1604520668.8013,0
1604520668.8032,0
1604520668.8053,-16
1604520669.2316,-7
1604520669.2323,0
1604520669.2348,-7
1604520669.2374,-7
1604520669.2394,-2
1604520669.2414,-9
1604520669.2435,-19
1604520669.2455,-24
1604520669.2475,-21
1604520669.2494,-21
1604520669.2514,-24
1604520669.2535,-26
1604520669.2555,-24
1604520669.2575,-26
1604520669.2594,-36
1604520669.2614,-36
1604520669.2635,-26
1604520669.2654,-26
1604520669.2674,-33
1604520669.2694,-33
1604520669.2714,-36
1604520669.2734,-38
1604520669.2754,-43
1604520669.2774,-46
1604520669.2794,-46
1604520669.2814,-43
1604520669.2834,-38
1604520669.2853,-36
1604520669.2873,-33
1604520669.2893,-36
1604520669.2913,-33
1604520669.2933,-26
1604520669.2953,-19
1604520669.2973,-16
1604520669.2993,-12
1604520669.3013,-7
1604520669.3033,-2
1604520669.3053,0
1604520669.3073,2
1604520669.3093,4
1604520669.3113,7
1604520669.3133,7
1604520669.3154,7
1604520669.3173,9
1604520669.3193,14
1604520669.3213,9
1604520669.3235,4
1604520669.3254,9
1604520669.3273,9
1604520669.3293,7
1604520669.3313,4
1604520669.3333,7
1604520669.3353,7
1604520669.3373,2
1604520669.3393,2
1604520669.3413,4
1604520669.3433,7
1604520669.3453,4
1604520669.3473,0
1604520669.3493,2
1604520669.3513,7
1604520669.3533,2
1604520669.3554,2
1604520669.3573,9
1604520669.3593,9
1604520669.3613,0
1604520669.3633,4
1604520669.3653,14
1604520669.3673,16
1604520669.3693,14
1604520669.3713,19
1604520669.3734,33
1604520669.3754,43
1604520669.7709,36
1604520669.7717,29
1604520669.7741,24
1604520669.7768,12
1604520669.7787,-7
1604520669.7807,-19
1604520669.7828,-21
1604520669.7847,-24
1604520669.7867,-29
1604520669.7886,-31
1604520669.7907,-26
1604520669.7927,-24
1604520669.7947,-7
1604520669.7966,67
1604520669.7986,210
1604520669.8007,246
1604520669.8026,60
1604520669.8047,-62
1604520669.8067,4
1604520669.8086,-2
1604520669.8106,-58
1604520669.8126,-33
1604520669.8146,-19
1604520669.8166,-38
1604520669.8188,-33
1604520669.8207,-24
1604520669.8226,-29
1604520669.8246,-29
1604520669.8266,-26
1604520669.8286,-31
1604520669.8306,-31
1604520669.8326,-29
1604520669.8346,-26
1604520669.8366,-26
1604520669.8386,-26
1604520669.8406,-29
1604520669.8426,-29
1604520669.8446,-29
1604520669.8466,-26
1604520669.8486,-26
1604520669.8506,-26
1604520669.8526,-29
1604520669.8546,-31
1604520669.8566,-36
1604520669.8586,-36
1604520669.8607,-38
1604520669.8626,-41
1604520669.8646,-48
1604520669.8666,-50
1604520669.8686,-50
1604520669.8706,-50
1604520669.8727,-48
1604520669.8746,-43
1604520669.8766,-43
1604520669.8786,-43
1604520669.8806,-36
1604520669.8826,-31
1604520669.8846,-29
1604520669.8866,-26
1604520669.8886,-19
1604520669.8906,-9
1604520669.8926,-7
1604520669.8947,-4
1604520669.8966,-4
1604520669.8986,0
1604520669.9006,2
1604520669.9026,2
1604520669.9046,2
1604520669.9066,2
1604520669.9086,2
1604520669.9106,-2
1604520669.9126,-7
1604520669.9146,-9
1604520670.3713,-9
1604520670.3725,-9
1604520670.3752,-9
1604520670.3775,-9
1604520670.3796,-12
1604520670.3815,-19
1604520670.3836,-24
1604520670.3855,-19
1604520670.3875,-16
1604520670.3895,-21
1604520670.3915,-19
1604520670.3935,-12
1604520670.3955,-9
1604520670.3975,-4
1604520670.3995,0
1604520670.4015,4
1604520670.4035,4
1604520670.4054,19
1604520670.4076,38
1604520670.4094,38
1604520670.4114,24
1604520670.4134,16
1604520670.4155,16
1604520670.4174,12
1604520670.4194,0
1604520670.4214,-2
1604520670.4234,0
1604520670.4255,0
1604520670.4274,-2
1604520670.4295,2
1604520670.4314,9
1604520670.4334,14
1604520670.4355,48
1604520670.4374,159
1604520670.4394,292
1604520670.4414,215
1604520670.4434,-2
1604520670.4454,-16
1604520670.4474,58
1604520670.4494,2
1604520670.4514,-24
1604520670.4534,14
1604520670.4555,12
1604520670.4574,0
1604520670.4594,7
1604520670.4614,7
1604520670.4634,7
1604520670.4655,12
1604520670.4674,14
1604520670.4694,12
1604520670.4714,12
1604520670.4734,9
1604520670.4755,7
1604520670.4776,9
1604520670.4796,12
1604520670.4814,12
1604520670.4834,14
1604520670.4855,12
1604520670.4874,12
1604520670.4895,12
1604520670.4914,9
1604520670.4934,7
1604520670.4954,4
1604520670.4974,0
1604520670.4994,-12
1604520670.5014,-16
1604520670.5034,-14
1604520670.5055,-21
1604520670.5074,-26
1604520670.5094,-21
1604520670.5114,-16
1604520670.5134,-16
1604520670.5155,-16
1604520670.9115,-12
1604520670.9123,-9
1604520670.9147,-12
1604520670.9174,-7
1604520670.9194,0
1604520670.9214,0
1604520670.9235,2
1604520670.9254,7
1604520670.9273,12
1604520670.9293,9
1604520670.9313,7
1604520670.9333,7
1604520670.9354,12
1604520670.9373,16
1604520670.9393,14
1604520670.9413,14
1604520670.9433,19
1604520670.9452,21
1604520670.9473,16
1604520670.9493,16
1604520670.9513,19
1604520670.9533,16
1604520670.9553,16
1604520670.9573,19
1604520670.9593,19
1604520670.9613,14
1604520670.9633,14
1604520670.9653,16
1604520670.9673,19
1604520670.9693,19
1604520670.9713,21
1604520670.9734,21
1604520670.9753,19
1604520670.9773,19
1604520670.9793,21
1604520670.9813,21
1604520670.9833,26
1604520670.9853,29
1604520670.9873,31
1604520670.9893,43
1604520670.9913,60
1604520670.9933,58
1604520670.9953,43
1604520670.9973,41
1604520670.9993,33
1604520671.0013,16
1604520671.0033,9
1604520671.0053,14
1604520671.0073,16
1604520671.0093,14
1604520671.0113,12
1604520671.0133,12
1604520671.0153,12
1604520671.0173,19
1604520671.0193,70
1604520671.0213,181
1604520671.0233,273
1604520671.0253,167
1604520671.0273,-4
1604520671.0294,7
1604520671.0313,38
1604520671.0333,-21
1604520671.0353,-24
1604520671.0374,2
1604520671.0393,-12
1604520671.0416,-21
1604520671.0434,-7
1604520671.0453,-4
1604520671.0473,-12
1604520671.0493,-12
1604520671.0513,-7
1604520671.0533,-4
1604520671.0553,-7
1604520671.4816,-7
1604520671.4827,-4
1604520671.4852,-4
1604520671.4878,-7
1604520671.4898,-4
1604520671.4918,-4
1604520671.4925,-9
1604520671.4939,-19
1604520671.4957,-26
1604520671.4980,-29
1604520671.4997,-26
1604520671.5017,-26
1604520671.5037,-29
1604520671.5057,-31
1604520671.5077,-33
1604520671.5097,-36
1604520671.5117,-38
1604520671.5137,-38
1604520671.5157,-36
1604520671.5177,-38
1604520671.5197,-36
1604520671.5218,-29
1604520671.5223,-26
1604520671.5237,-26
1604520671.5258,-21
1604520671.5277,-19
1604520671.5297,-14
1604520671.5317,-9
1604520671.5337,-7
1604520671.5357,-4
1604520671.5377,0
1604520671.5397,4
1604520671.5417,7
1604520671.5437,12
1604520671.5457,14
1604520671.5477,14
1604520671.5497,16
1604520671.5517,16
1604520671.5524,16
1604520671.5537,19
1604520671.5557,19
1604520671.5577,14
1604520671.5597,9
1604520671.5617,9
1604520671.5637,9
1604520671.5657,12
1604520671.5677,12
1604520671.5697,12
1604520671.5718,4
1604520671.5737,-2
1604520671.5757,-2
1604520671.5777,0
1604520671.5797,2
1604520671.5817,2
1604520671.5823,0
1604520671.5837,0
1604520671.5857,7
1604520671.5877,7
1604520671.5897,9
1604520671.5917,14
1604520671.5938,19
1604520671.5957,24
1604520671.5977,38
1604520671.5997,46
1604520671.6017,33
1604520671.6036,24
1604520671.6057,21
1604520671.6077,12
1604520671.6097,2
1604520671.6117,-2
1604520671.6124,2
1604520671.6137,4
1604520671.6157,2
1604520672.0215,-2
1604520672.0223,0
1604520672.0247,7
1604520672.0274,41
1604520672.0294,140
1604520672.0314,263
1604520672.0335,222
1604520672.0355,31
1604520672.0374,-14
1604520672.0394,26
1604520672.0401,-19
1604520672.0414,-38
1604520672.0434,-12
1604520672.0453,-19
1604520672.0473,-29
1604520672.0493,-19
1604520672.0513,-19
1604520672.0533,-19
1604520672.0553,-16
1604520672.0573,-16
1604520672.0593,-16
1604520672.0614,-14
1604520672.0633,-12
1604520672.0653,-14
1604520672.0673,-14
1604520672.0693,-12
1604520672.0699,-9
1604520672.0713,-12
1604520672.0733,-14
1604520672.0754,-12
1604520672.0773,-12
1604520672.0793,-14
1604520672.0813,-19
1604520672.0833,-16
1604520672.0854,-16
1604520672.0873,-21
1604520672.0893,-31
1604520672.0913,-31
1604520672.0935,-31
1604520672.0953,-33
1604520672.0973,-36
1604520672.0993,-38
1604520672.1000,-43
1604520672.1013,-43
1604520672.1033,-36
1604520672.1054,-31
1604520672.1073,-29
1604520672.1093,-29
1604520672.1113,-24
1604520672.1133,-16
1604520672.1154,-12
1604520672.1173,-9
1604520672.1193,-7
1604520672.1213,-2
1604520672.1233,0
1604520672.1254,2
1604520672.1273,4
1604520672.1293,9
1604520672.1299,9
1604520672.1313,12
1604520672.1333,12
1604520672.1354,9
1604520672.1373,7
1604520672.1393,7
1604520672.1413,4
1604520672.1433,4
1604520672.1453,4
1604520672.1473,2
1604520672.1493,2
1604520672.1513,4
1604520672.1533,4
1604520672.1553,4
1604520672.1573,0
1604520672.5915,0
1604520672.5923,0
1604520672.5938,0
1604520672.5958,2
1604520672.5978,2
1604520672.5998,-4
1604520672.6018,-14
1604520672.6038,-14
1604520672.6058,-12
1604520672.6078,-9
1604520672.6097,-12
1604520672.6118,-12
1604520672.6138,-7
1604520672.6157,-2
1604520672.6177,0
1604520672.6197,9
1604520672.6206,26
1604520672.6218,29
1604520672.6237,16
1604520672.6258,12
1604520672.6277,12
1604520672.6297,0
1604520672.6317,-12
1604520672.6337,-21
1604520672.6357,-26
1604520672.6377,-24
1604520672.6397,-16
1604520672.6418,-12
1604520672.6437,-9
1604520672.6456,-9
1604520672.6477,24
1604520672.6484,133
1604520672.6497,263
1604520672.6517,188
1604520672.6537,-26
1604520672.6557,-48
1604520672.6577,14
1604520672.6597,-38
1604520672.6687,-58
1604520672.6830,-21
1604520672.6973,-36
1604520672.7116,-58
1604520672.7251,-43
1604520672.7392,-36
1604520672.7537,-43
1604520672.7677,-43
1604520672.7819,-36
1604520672.7933,-33
1604520672.8079,-33
1604520672.8222,-36
1604520672.8365,-38
1604520672.8505,-36
1604520672.8644,-36
1604520672.8787,-41
1604520672.8929,-46
1604520672.9082,-50
1604520672.9225,-50
1604520672.9370,-48
1604520672.9517,-46
1604520672.9664,-46
1604520672.9806,-46
1604520672.9949,-46
1604520673.0093,-43
1604520673.0243,-48
1604520673.0381,-55
1604520673.0511,-60
1604520673.0660,-60
1604520673.0790,-60
1604520673.0929,-58
1604520673.1071,-55
1604520673.1212,-53
1604520673.1349,-53
1604520673.1475,-48
1604520673.1747,-46
1604520673.1751,-43
1604520673.1888,-38
1604520673.2035,-31
1604520673.2183,-26
1604520673.2325,-24
1604520673.2453,-21
1604520673.2599,-26
1604520673.2744,-26
1604520673.2886,-19
1604520673.3016,-14
1604520673.3151,-12
1604520673.3281,-12
1604520673.3417,-14
1604520673.3552,-16
1604520673.3683,-16
1604520673.3795,-9
1604520673.3907,-9
1604520673.4020,-12
1604520673.4132,-14
1604520673.4245,-19
1604520673.4360,-19
1604520673.4477,-19
1604520673.4657,-16
1604520673.4774,-14
1604520673.4847,-12
1604520673.4941,-19
1604520673.5057,-29
1604520673.5182,-26
1604520673.5307,-19
1604520673.5338,-19
1604520673.5357,-14
1604520673.5377,-9
1604520673.5397,-9
1604520673.5417,-12
1604520673.5437,-4
1604520673.5457,14
1604520673.5477,26
1604520673.5497,16
1604520673.5517,4
1604520673.5537,-2
1604520673.5557,-9
1604520673.5577,-19
1604520673.5597,-24
1604520673.5617,-19
1604520673.5639,-16
1604520673.5657,-19
1604520673.5677,-19
1604520673.5697,-16
1604520673.5717,-14
1604520673.5737,0
1604520673.5757,75
1604520673.5777,230
1604520673.5797,292
1604520673.5817,77
1604520673.5837,-104
1604520673.5857,-9
1604520673.5877,29
1604520673.5897,-50
1604520673.5917,-31
1604520673.5937,2
1604520673.5957,-19
1604520673.5977,-19
1604520673.5997,-4
1604520673.6017,-9
1604520673.6037,-9
1604520673.6057,-4
1604520673.6077,-4
1604520673.6097,0
1604520673.6117,0
1604520673.6137,-2
1604520673.6157,0
1604520673.6177,2
1604520673.7319,2
1604520673.7324,2
1604520673.7338,4
1604520673.7358,0
1604520673.7378,-9
1604520673.7397,-16
1604520673.7418,-16
1604520673.7438,-12
1604520673.7458,-14
1604520673.7479,-19
1604520673.7498,-21
1604520673.7517,-24
1604520673.7537,-26
1604520673.7558,-31
1604520673.7577,-29
1604520673.7598,-26
1604520673.7617,-26
1604520673.7638,-24
1604520673.7658,-24
1604520673.7678,-29
1604520673.7697,-31
1604520673.7718,-26
1604520673.7737,-21
1604520673.7759,-19
1604520673.7778,-12
1604520673.7798,-4
1604520673.7818,0
1604520673.7837,4
1604520673.7858,9
1604520673.7878,14
1604520673.7898,19
1604520673.7917,24
1604520673.7938,24
1604520673.7958,19
1604520673.7977,21
1604520673.7998,29
1604520673.8017,29
1604520673.8037,24
1604520673.8058,16
1604520673.8077,14
1604520673.8098,19
1604520673.8118,21
1604520673.8137,21
1604520673.8158,19
1604520673.8178,19
1604520673.8197,19
1604520673.8218,21
1604520673.8238,19
1604520673.8258,21
1604520673.8278,21
1604520673.8297,24
1604520673.8317,24
1604520673.8337,26
1604520673.8358,31
1604520673.8377,29
1604520673.8397,36
1604520673.8417,55
1604520673.8438,65
1604520673.8457,58
1604520673.8477,46
1604520673.8497,41
1604520673.8517,38
1604520673.8538,24
1604520673.8558,14
1604520673.8577,16
1604520673.8598,21
1604520673.8617,21
1604520673.8638,24
1604520673.8658,26
1604520673.8678,24
1604520673.8698,31
1604520673.8718,101
1604520673.8737,239
1604520674.3012,295
1604520674.3026,125
1604520674.3049,-21
1604520674.3074,36
1604520674.3094,48
1604520674.3114,-12
1604520674.3134,0
1604520674.3154,19
1604520674.3174,0
1604520674.3194,-12
1604520674.3214,-7
1604520674.3234,-9
1604520674.3255,-16
1604520674.3274,-19
1604520674.3294,-14
1604520674.3314,-12
1604520674.3334,-9
1604520674.3353,-9
1604520674.3374,-7
1604520674.3393,-4
1604520674.3413,-4
1604520674.3433,-7
1604520674.3454,-4
1604520674.3473,-2
1604520674.3493,-2
1604520674.3513,-4
1604520674.3533,-4
1604520674.3553,-2
1604520674.3573,-2
1604520674.3593,-7
1604520674.3613,-7
1604520674.3633,-12
1604520674.3653,-16
1604520674.3673,-19
1604520674.3693,-16
1604520674.3713,-19
1604520674.3733,-19
1604520674.3753,-19
1604520674.3773,-19
1604520674.3793,-16
1604520674.3813,-14
1604520674.3833,-9
1604520674.3853,-7
1604520674.3873,-4
1604520674.3893,-2
1604520674.3913,0
1604520674.3933,4
1604520674.3953,12
1604520674.3973,14
1604520674.3993,14
1604520674.4013,16
1604520674.4034,24
1604520674.4054,24
1604520674.4073,24
1604520674.4093,31
1604520674.4113,31
1604520674.4133,29
1604520674.4153,29
1604520674.4173,29
1604520674.4193,29
1604520674.4213,26
1604520674.4233,21
1604520674.4253,21
1604520674.4273,24
1604520674.4293,21
1604520674.4313,19
1604520674.4333,21
1604520674.4353,21
1604520674.4373,19
1604520674.4393,19
1604520674.4413,21
1604520674.4433,19
1604520674.4453,21
1604520674.8411,21
1604520674.8418,21
1604520674.8443,24
1604520674.8469,24
1604520674.8490,19
1604520674.8510,19
1604520674.8539,33
1604520674.8560,46
1604520674.8579,43
1604520674.8598,33
1604520674.8618,19
1604520674.8639,2
1604520674.8659,-7
1604520674.8679,-9
1604520674.8698,-12
1604520674.8719,-9
1604520674.8738,-4
1604520674.8760,-4
1604520674.8779,-4
1604520674.8798,-7
1604520674.8819,2
1604520674.8839,58
1604520674.8859,181
1604520674.8878,268
1604520674.8899,147
1604520674.8918,-21
1604520674.8938,0
1604520674.8958,26
1604520674.8979,-31
1604520674.8999,-26
1604520674.9021,-2
1604520674.9039,-19
1604520674.9058,-19
1604520674.9078,-9
1604520674.9098,-16
1604520674.9118,-19
1604520674.9138,-9
1604520674.9159,-12
1604520674.9178,-19
1604520674.9198,-12
1604520674.9218,-9
1604520674.9238,-12
1604520674.9258,-14
1604520674.9278,-14
1604520674.9298,-14
1604520674.9318,-14
1604520674.9338,-16
1604520674.9358,-16
1604520674.9378,-14
1604520674.9398,-14
1604520674.9418,-14
1604520674.9438,-12
1604520674.9458,-19
1604520674.9478,-24
1604520674.9498,-26
1604520674.9518,-29
1604520674.9538,-29
1604520674.9558,-31
1604520674.9578,-31
1604520674.9598,-31
1604520674.9619,-31
1604520674.9638,-31
1604520674.9658,-29
1604520674.9678,-24
1604520674.9698,-24
1604520674.9718,-21
1604520674.9738,-19
1604520674.9759,-16
1604520674.9778,-14
1604520674.9798,-12
1604520674.9818,-14
1604520674.9838,-9
1604520674.9858,-2
1604520675.3815,-2
1604520675.3823,2
1604520675.3848,7
1604520675.3874,7
1604520675.3894,9
1604520675.3914,12
1604520675.3935,9
1604520675.3955,0
1604520675.3976,-7
1604520675.3994,-4
1604520675.4014,-4
1604520675.4034,-12
1604520675.4054,-14
1604520675.4073,-9
1604520675.4094,-7
1604520675.4113,-7
1604520675.4133,-7
1604520675.4154,-4
1604520675.4174,-4
1604520675.4193,-9
1604520675.4213,-9
1604520675.4233,-7
1604520675.4254,-2
1604520675.4273,-4
1604520675.4293,-7
1604520675.4313,-4
1604520675.4333,-4
1604520675.4354,-7
1604520675.4373,-7
1604520675.4393,-2
1604520675.4413,0
1604520675.4433,2
1604520675.4454,7
1604520675.4473,9
1604520675.4493,21
1604520675.4513,33
1604520675.4533,29
1604520675.4553,16
1604520675.4573,14
1604520675.4593,9
1604520675.4613,-2
1604520675.4633,-12
1604520675.4653,-14
1604520675.4673,-12
1604520675.4693,-7
1604520675.4713,-4
1604520675.4733,-7
1604520675.4753,-7
1604520675.4773,7
1604520675.4793,75
1604520675.4813,208
1604520675.4833,268
1604520675.4853,99
1604520675.4873,-48
1604520675.4893,2
1604520675.4913,9
1604520675.4933,-50
1604520675.4953,-36
1604520675.4973,-19
1604520675.4994,-36
1604520675.5013,-31
1604520675.5033,-19
1604520675.5053,-31
1604520675.5073,-41
1604520675.5093,-33
1604520675.5113,-31
1604520675.5133,-38
1604520675.5154,-38
1604520675.5173,-36
1604520675.5193,-41
1604520675.5213,-43
1604520675.5233,-41
1604520675.5253,-41
1604520675.9815,-41
1604520675.9825,-33
1604520675.9850,-31
1604520675.9876,-36
1604520675.9896,-38
1604520675.9916,-43
1604520675.9937,-48
1604520675.9956,-48
1604520675.9976,-50
1604520675.9996,-55
1604520676.0016,-58
1604520676.0036,-60
1604520676.0056,-58
1604520676.0076,-53
1604520676.0096,-53
1604520676.0116,-53
1604520676.0136,-53
1604520676.0157,-58
1604520676.0176,-55
1604520676.0196,-48
1604520676.0217,-38
1604520676.0236,-33
1604520676.0256,-33
1604520676.0276,-33
1604520676.0296,-29
1604520676.0315,-19
1604520676.0335,-12
1604520676.0356,-9
1604520676.0375,-16
1604520676.0395,-14
1604520676.0416,-4
1604520676.0435,0
1604520676.0455,-4
1604520676.0475,-7
1604520676.0495,-9
1604520676.0516,-9
1604520676.0535,-14
1604520676.0557,-19
1604520676.0575,-14
1604520676.0595,-9
1604520676.0615,-14
1604520676.0635,-16
1604520676.0656,-14
1604520676.0676,-12
1604520676.0695,-14
1604520676.0715,-16
1604520676.0735,-12
1604520676.0755,-14
1604520676.0775,-19
1604520676.0795,-16
1604520676.0815,-14
1604520676.0835,-14
1604520676.0856,-14
1604520676.0875,-14
1604520676.0895,-12
1604520676.0915,-12
1604520676.0935,-12
1604520676.0955,-12
1604520676.0975,-7
1604520676.0995,-2
1604520676.1015,12
1604520676.1035,26
1604520676.1055,19
1604520676.1075,7
1604520676.1095,2
1604520676.1116,-2
1604520676.1135,-19
1604520676.1156,-29
1604520676.1175,-26
1604520676.1195,-16
1604520676.1215,-16
1604520676.1235,-16
1604520676.1255,-14
1604520676.4914,-9
1604520676.4922,4
1604520676.4948,77
1604520676.4973,234
1604520676.4993,300
1604520676.5014,89
1604520676.5033,-87
1604520676.5053,0
1604520676.5073,31
1604520676.5093,-50
1604520676.5113,-43
1604520676.5133,-16
1604520676.5154,-33
1604520676.5173,-33
1604520676.5192,-21
1604520676.5215,-24
1604520676.5233,-24
1604520676.5252,-16
1604520676.5273,-14
1604520676.5293,-14
1604520676.5313,-14
1604520676.5332,-16
1604520676.5353,-19
1604520676.5372,-19
1604520676.5393,-19
1604520676.5412,-21
1604520676.5433,-21
1604520676.5453,-16
1604520676.5473,-14
1604520676.5493,-14
1604520676.5513,-12
1604520676.5533,-7
1604520676.5553,-7
1604520676.5572,-12
1604520676.5592,-14
1604520676.5612,-16
1604520676.5687,-16
1604520676.5703,-19
1604520676.5723,-19
1604520676.5742,-21
1604520676.5762,-24
1604520676.5782,-24
1604520676.5803,-21
1604520676.5822,-19
1604520676.5842,-16
1604520676.5862,-16
1604520676.5883,-16
1604520676.5903,-12
1604520676.5923,-12
1604520676.5942,-14
1604520676.5963,-7
1604520676.5983,0
1604520676.6002,2
1604520676.6022,4
1604520676.6042,12
1604520676.6063,16
1604520676.6083,19
1604520676.6102,14
1604520676.6122,14
1604520676.6142,19
1604520676.6163,21
1604520676.6183,19
1604520676.6202,19
1604520676.6223,21
1604520676.6243,21
1604520676.6263,16
1604520676.6284,19
1604520676.6303,21
1604520676.6323,19
1604520676.6343,19
1604520676.6363,19
1604520676.6383,21
1604520676.6403,24
1604520677.0914,21
1604520677.0922,19
1604520677.0947,16
1604520677.0974,12
1604520677.0993,4
1604520677.1013,7
1604520677.1034,12
1604520677.1053,9
1604520677.1073,9
1604520677.1093,14
1604520677.1113,14
1604520677.1133,14
1604520677.1154,16
1604520677.1173,19
1604520677.1193,19
1604520677.1213,21
1604520677.1233,24
1604520677.1253,36
1604520677.1273,50
1604520677.1293,50
1604520677.1313,38
1604520677.1332,33
1604520677.1353,29
1604520677.1373,19
1604520677.1393,9
1604520677.1413,9
1604520677.1433,12
1604520677.1453,9
1604520677.1473,12
1604520677.1493,14
1604520677.1512,14
1604520677.1532,24
1604520677.1553,87
1604520677.1572,217
1604520677.1592,288
1604520677.1613,142
1604520677.1633,-16
1604520677.1653,14
1604520677.1673,29
1604520677.1693,-31
1604520677.1713,-24
1604520677.1733,-9
1604520677.1753,-29
1604520677.1773,-31
1604520677.1795,-21
1604520677.1813,-24
1604520677.1833,-26
1604520677.1855,-24
1604520677.1872,-24
1604520677.1893,-26
1604520677.1913,-29
1604520677.1932,-29
1604520677.1952,-26
1604520677.1972,-26
1604520677.1992,-26
1604520677.2012,-21
1604520677.2032,-19
1604520677.2052,-19
1604520677.2072,-16
1604520677.2092,-12
1604520677.2112,-7
1604520677.2132,-4
1604520677.2152,-7
1604520677.2172,-7
1604520677.2192,-7
1604520677.2212,-7
1604520677.2232,-14
1604520677.2252,-16
1604520677.2272,-14
1604520677.2292,-16
1604520677.2312,-21
1604520677.2332,-21
1604520677.2353,-16
1604520677.6616,-14
1604520677.6627,-16
1604520677.6651,-16
1604520677.6677,-9
1604520677.6697,-9
1604520677.6718,-4
1604520677.6738,0
1604520677.6758,-2
1604520677.6778,-12
1604520677.6797,-14
1604520677.6817,-4
1604520677.6837,0
1604520677.6858,0
1604520677.6878,4
1604520677.6897,9
1604520677.6917,9
1604520677.6938,12
1604520677.6957,14
1604520677.6977,14
1604520677.6997,14
1604520677.7017,14
1604520677.7037,14
1604520677.7059,16
1604520677.7077,19
1604520677.7097,14
1604520677.7117,12
1604520677.7137,12
1604520677.7157,14
1604520677.7177,12
1604520677.7197,14
1604520677.7217,16
1604520677.7237,16
1604520677.7257,12
1604520677.7277,7
1604520677.7297,2
1604520677.7316,7
1604520677.7337,7
1604520677.7357,7
1604520677.7376,4
1604520677.7397,2
1604520677.7417,0
1604520677.7436,2
1604520677.7457,7
1604520677.7477,2
1604520677.7497,2
1604520677.7516,7
1604520677.7522,9
1604520677.7537,9
1604520677.7556,12
1604520677.7577,14
1604520677.7596,14
1604520677.7617,14
1604520677.7636,26
1604520677.7656,41
1604520677.7676,33
1604520677.7697,19
1604520677.7717,14
1604520677.7736,12
1604520677.7756,0
1604520677.7777,-9
1604520677.7798,-9
1604520677.7817,-9
1604520677.7822,-12
1604520677.7837,-14
1604520677.7857,-14
1604520677.7877,-9
1604520677.7897,19
1604520677.7916,104
1604520677.7937,237
1604520677.7957,237
1604520677.7976,46
1604520677.7997,-43
1604520677.8016,9
1604520678.2318,-16
1604520678.2329,-60
1604520678.2346,-33
1604520678.2369,-26
1604520678.2389,-38
1604520678.2409,-31
1604520678.2430,-26
1604520678.2450,-36
1604520678.2469,-36
1604520678.2489,-33
1604520678.2510,-41
1604520678.2530,-41
1604520678.2550,-38
1604520678.2570,-41
1604520678.2590,-41
1604520678.2609,-38
1604520678.2630,-36
1604520678.2650,-36
1604520678.2654,-38
1604520678.2669,-33
1604520678.2689,-29
1604520678.2709,-24
1604520678.2729,-21
1604520678.2749,-16
1604520678.2769,-16
1604520678.2789,-21
1604520678.2809,-29
1604520678.2829,-31
1604520678.2849,-31
1604520678.2869,-36
1604520678.2889,-46
1604520678.2909,-48
1604520678.2929,-48
1604520678.2949,-48
1604520678.2955,-48
1604520678.2969,-43
1604520678.2988,-41
1604520678.3009,-38
1604520678.3029,-33
1604520678.3049,-29
1604520678.3069,-26
1604520678.3088,-21
1604520678.3109,-14
1604520678.3129,-12
1604520678.3149,-12
1604520678.3169,-9
1604520678.3189,-4
1604520678.3209,0
1604520678.3229,2
1604520678.3249,2
1604520678.3254,4
1604520678.3270,4
1604520678.3289,4
1604520678.3309,4
1604520678.3328,7
1604520678.3349,2
1604520678.3368,0
1604520678.3389,2
1604520678.3409,4
1604520678.3429,2
1604520678.3449,0
1604520678.3469,-2
1604520678.3489,-9
1604520678.3509,-9
1604520678.3529,-7
1604520678.3549,-7
1604520678.3555,-9
1604520678.3569,-9
1604520678.3588,-9
1604520678.3609,-9
1604520678.3629,-4
1604520678.3649,-2
1604520678.3669,-4
1604520678.7707,-12
1604520678.7715,-16
1604520678.7728,-14
1604520678.7749,-14
1604520678.7769,-14
1604520678.7789,-7
1604520678.7795,-7
1604520678.7808,-19
1604520678.7828,-9
1604520678.7849,12
1604520678.7868,0
1604520678.7888,-26
1604520678.7908,-29
1604520678.7928,-33
1604520678.7948,-50
1604520678.7968,-60
1604520678.7988,-58
1604520678.8008,-58
1604520678.8028,-55
1604520678.8048,-53
1604520678.8068,-58
1604520678.8088,-60
1604520678.8093,-43
1604520678.8108,31
1604520678.8128,181
1604520678.8148,251
1604520678.8167,53
1604520678.8187,-130
1604520678.8207,-48
1604520678.8229,-9
1604520678.8248,-89
1604520678.8267,-77
1604520678.8288,-41
1604520678.8308,-60
1604520678.8327,-60
1604520678.8348,-43
1604520678.8368,-48
1604520678.8388,-53
1604520678.8393,-46
1604520678.8407,-33
1604520678.8428,-31
1604520678.8448,-36
1604520678.8468,-36
1604520678.8488,-31
1604520678.8508,-31
1604520678.8527,-33
1604520678.8548,-29
1604520678.8567,-24
1604520678.8588,-21
1604520678.8607,-24
1604520678.8627,-21
1604520678.8648,-14
1604520678.8668,-9
1604520678.8688,-14
1604520678.8694,-19
1604520678.8708,-19
1604520678.8728,-21
1604520678.8748,-26
1604520678.8768,-29
1604520678.8788,-29
1604520678.8808,-31
1604520678.8827,-36
1604520678.8848,-36
1604520678.8867,-31
1604520678.8887,-29
1604520678.8907,-33
1604520678.8927,-33
1604520678.8948,-29
1604520678.8968,-24
1604520678.8987,-19
1604520678.8993,-14
1604520678.9009,-7
1604520678.9028,-4
1604520679.3115,-2
1604520679.3124,4
1604520679.3149,12
1604520679.3174,14
1604520679.3194,12
1604520679.3214,14
1604520679.3236,19
1604520679.3258,19
1604520679.3275,7
1604520679.3294,2
1604520679.3314,7
1604520679.3334,2
1604520679.3354,-7
1604520679.3361,-4
1604520679.3374,-2
1604520679.3394,-2
1604520679.3414,-4
1604520679.3434,-2
1604520679.3456,0
1604520679.3474,0
1604520679.3494,0
1604520679.3514,0
1604520679.3534,2
1604520679.3554,2
1604520679.3574,2
1604520679.3594,9
1604520679.3614,12
1604520679.3633,7
1604520679.3642,4
1604520679.3655,7
1604520679.3674,9
1604520679.3694,9
1604520679.3714,19
1604520679.3734,38
1604520679.3754,48
1604520679.3774,38
1604520679.3794,31
1604520679.3814,29
1604520679.3834,19
1604520679.3854,4
1604520679.3873,-7
1604520679.3893,-9
1604520679.3914,-9
1604520679.3933,-7
1604520679.3954,-9
1604520679.3974,-12
1604520679.3993,-9
1604520679.4013,2
1604520679.4033,65
1604520679.4054,210
1604520679.4074,297
1604520679.4094,133
1604520679.4113,-50
1604520679.4134,0
1604520679.4154,33
1604520679.4174,-36
1604520679.4194,-29
1604520679.4214,2
1604520679.4235,-16
1604520679.4254,-24
1604520679.4274,-7
1604520679.4293,-4
1604520679.4313,-7
1604520679.4333,-4
1604520679.4353,-2
1604520679.4373,0
1604520679.4394,0
1604520679.4413,2
1604520679.4434,4
1604520679.4454,4
1604520679.4474,4
1604520679.4493,4
1604520679.4514,9
1604520679.8811,12
1604520679.8819,14
1604520679.8844,14
1604520679.8870,12
1604520679.8890,7
1604520679.8910,0
1604520679.8931,-2
1604520679.8951,0
1604520679.8970,0
1604520679.8990,-7
1604520679.9010,-12
1604520679.9030,-9
1604520679.9051,-9
1604520679.9070,-12
1604520679.9090,-14
1604520679.9109,-14
1604520679.9129,-16
1604520679.9150,-14
1604520679.9169,-12
1604520679.9189,-9
1604520679.9209,-9
1604520679.9229,-7
1604520679.9250,-2
1604520679.9270,4
1604520679.9289,7
1604520679.9309,7
1604520679.9329,9
1604520679.9349,19
1604520679.9369,21
1604520679.9389,21
1604520679.9409,26
1604520679.9429,31
1604520679.9450,31
1604520679.9469,29
1604520679.9490,29
1604520679.9510,26
1604520679.9531,24
1604520679.9549,26
1604520679.9569,26
1604520679.9589,21
1604520679.9609,19
1604520679.9629,21
1604520679.9649,21
1604520679.9669,24
1604520679.9689,24
1604520679.9709,21
1604520679.9729,21
1604520679.9749,21
1604520679.9769,19
1604520679.9789,21
1604520679.9809,24
1604520679.9829,21
1604520679.9849,19
1604520679.9869,21
1604520679.9889,21
1604520679.9909,14
1604520679.9929,14
1604520679.9949,16
1604520679.9969,14
1604520679.9989,12
1604520680.0009,16
1604520680.0029,19
1604520680.0049,24
1604520680.0069,36
1604520680.0089,46
1604520680.0109,38
1604520680.0129,26
1604520680.0149,16
1604520680.0169,4
1604520680.0189,-12
1604520680.0209,-21
1604520680.0229,-24
1604520680.0250,-24
1604520680.5409,-19
1604520680.5418,-14
1604520680.5436,-14
1604520680.5457,-16
1604520680.5476,2
1604520680.5496,79
1604520680.5517,208
1604520680.5536,242
1604520680.5556,72
1604520680.5576,-55
1604520680.5597,-7
1604520680.5616,-9
1604520680.5636,-60
1604520680.5657,-36
1604520680.5678,-24
1604520680.5697,-43
1604520680.5716,-38
1604520680.5736,-26
1604520680.5756,-29
1604520680.5776,-29
1604520680.5796,-24
1604520680.5817,-24
1604520680.5837,-24
1604520680.5857,-19
1604520680.5876,-19
1604520680.5897,-16
1604520680.5916,-19
1604520680.5936,-21
1604520680.5957,-19
1604520680.5976,-14
1604520680.5996,-12
1604520680.6016,-7
1604520680.6036,-2
1604520680.6056,-4
1604520680.6076,0
1604520680.6096,4
1604520680.6116,4
1604520680.6136,4
1604520680.6156,0
1604520680.6176,-4
1604520680.6195,-7
1604520680.6216,-9
1604520680.6235,-9
1604520680.6256,-9
1604520680.6276,-14
1604520680.6295,-19
1604520680.6316,-16
1604520680.6336,-14
1604520680.6356,-14
1604520680.6376,-14
1604520680.6395,-9
1604520680.6415,-4
1604520680.6435,0
1604520680.6456,0
1604520680.6475,2
1604520680.6495,7
1604520680.6515,9
1604520680.6535,9
1604520680.6555,9
1604520680.6575,9
1604520680.6595,12
1604520680.6615,12
1604520680.6635,7
1604520680.6656,4
1604520680.6675,7
1604520680.6697,7
1604520680.6717,7
1604520680.6736,9
1604520680.6756,7
1604520680.6775,4
1604520680.6795,7
1604520680.6815,9
1604520680.6835,9
1604520681.0513,9
1604520681.0521,9
1604520681.0547,9
1604520681.0572,9
1604520681.0592,7
1604520681.0612,7
1604520681.0633,9
1604520681.0653,7
1604520681.0672,7
1604520681.0692,7
1604520681.0712,4
1604520681.0732,2
1604520681.0752,2
1604520681.0772,4
1604520681.0792,0
1604520681.0812,-7
1604520681.0832,-12
1604520681.0852,-12
1604520681.0872,-14
1604520681.0892,-24
1604520681.0911,-29
1604520681.0931,-21
1604520681.0952,-21
1604520681.0972,-24
1604520681.0992,-14
1604520681.1012,2
1604520681.1018,9
1604520681.1032,0
1604520681.1052,-9
1604520681.1072,-12
1604520681.1091,-19
1604520681.1112,-31
1604520681.1132,-36
1604520681.1152,-33
1604520681.1171,-29
1604520681.1191,-29
1604520681.1212,-26
1604520681.1232,-21
1604520681.1252,-16
1604520681.1271,19
1604520681.1291,130
1604520681.1311,256
1604520681.1318,198
1604520681.1333,-4
1604520681.1352,-43
1604520681.1372,14
1604520681.1391,-33
1604520681.1411,-58
1604520681.1431,-24
1604520681.1451,-29
1604520681.1471,-46
1604520681.1491,-38
1604520681.1512,-33
1604520681.1532,-38
1604520681.1552,-38
1604520681.1571,-41
1604520681.1592,-38
1604520681.1598,-31
1604520681.1611,-33
1604520681.1631,-36
1604520681.1652,-33
1604520681.1671,-29
1604520681.1691,-29
1604520681.1712,-26
1604520681.1732,-21
1604520681.1752,-19
1604520681.1772,-16
1604520681.1791,-16
1604520681.1812,-14
1604520681.1832,-9
1604520681.1851,-7
1604520681.1872,-7
1604520681.1892,-9
1604520681.5613,-16
1604520681.5621,-26
1604520681.5645,-24
1604520681.5672,-19
1604520681.5691,-19
1604520681.5712,-21
1604520681.5732,-26
1604520681.5752,-33
1604520681.5772,-36
1604520681.5792,-31
1604520681.5811,-29
1604520681.5832,-29
1604520681.5852,-31
1604520681.5871,-36
1604520681.5892,-31
1604520681.5899,-21
1604520681.5912,-19
1604520681.5931,-16
1604520681.5952,-12
1604520681.5971,-9
1604520681.5991,-9
1604520681.6013,-7
1604520681.6032,-4
1604520681.6051,0
1604520681.6071,2
1604520681.6091,2
1604520681.6112,0
1604520681.6131,-2
1604520681.6152,0
1604520681.6171,2
1604520681.6191,0
1604520681.6198,-2
1604520681.6211,0
1604520681.6231,-2
1604520681.6251,-2
1604520681.6271,-2
1604520681.6291,-7
1604520681.6311,-7
1604520681.6331,-4
1604520681.6352,-4
1604520681.6371,-4
1604520681.6391,-2
1604520681.6411,-4
1604520681.6431,-7
1604520681.6452,-12
1604520681.6471,-9
1604520681.6491,-9
1604520681.6498,-16
1604520681.6511,-26
1604520681.6531,-24
1604520681.6551,-14
1604520681.6571,-12
1604520681.6591,-14
1604520681.6611,-12
1604520681.6631,-2
1604520681.6652,9
1604520681.6671,12
1604520681.6691,0
1604520681.6711,-7
1604520681.6731,-14
1604520681.6752,-24
1604520681.6771,-33
1604520681.6791,-41
1604520681.6798,-41
1604520681.6811,-38
1604520681.6831,-33
1604520681.6852,-29
1604520681.6871,-33
1604520681.6891,-31
1604520681.6911,0
1604520681.6931,99
1604520681.6952,251
1604520681.6973,244
1604520682.1314,-12
1604520682.1323,-121
1604520682.1348,-9
1604520682.1373,-21
1604520682.1379,-82
1604520682.1393,-48
1604520682.1414,-46
1604520682.1435,-67
1604520682.1454,-53
1604520682.1473,-38
1604520682.1493,-48
1604520682.1513,-43
1604520682.1533,-33
1604520682.1553,-36
1604520682.1572,-36
1604520682.1593,-29
1604520682.1613,-26
1604520682.1633,-29
1604520682.1653,-29
1604520682.1673,-26
1604520682.1679,-19
1604520682.1692,-12
1604520682.1712,-7
1604520682.1732,-4
1604520682.1753,-2
1604520682.1773,-2
1604520682.1792,0
1604520682.1812,4
1604520682.1833,7
1604520682.1853,0
1604520682.1873,-2
1604520682.1893,-4
1604520682.1913,-12
1604520682.1933,-14
1604520682.1953,-14
1604520682.1973,-14
1604520682.1979,-19
1604520682.1993,-19
1604520682.2013,-14
1604520682.2033,-19
1604520682.2053,-26
1604520682.2072,-26
1604520682.2093,-16
1604520682.2112,-9
1604520682.2134,-4
1604520682.2153,-2
1604520682.2172,4
1604520682.2192,12
1604520682.2213,14
1604520682.2232,16
1604520682.2254,26
1604520682.2273,31
1604520682.2279,31
1604520682.2293,33
1604520682.2313,36
1604520682.2332,36
1604520682.2353,36
1604520682.2373,36
1604520682.2393,38
1604520682.2413,38
1604520682.2432,33
1604520682.2453,31
1604520682.2473,33
1604520682.2493,33
1604520682.2513,29
1604520682.2533,26
1604520682.2552,26
1604520682.2573,26
1604520682.2579,24
1604520682.2593,24
1604520682.2613,29
1604520682.2633,29
1604520682.2653,26
1604520682.6709,26
1604520682.6714,29
1604520682.6738,26
1604520682.6765,24
1604520682.6784,24
1604520682.6805,26
1604520682.6825,21
1604520682.6831,14
1604520682.6844,16
1604520682.6864,19
1604520682.6885,19
1604520682.6904,26
1604520682.6925,46
1604520682.6944,46
1604520682.6964,29
1604520682.6984,24
1604520682.7004,21
1604520682.7024,9
1604520682.7044,-2
1604520682.7064,-4
1604520682.7084,-2
1604520682.7104,2
1604520682.7124,0
1604520682.7131,-2
1604520682.7144,0
1604520682.7164,12
1604520682.7184,58
1604520682.7204,181
1604520682.7226,300
1604520682.7244,205
1604520682.7264,-7
1604520682.7284,-14
1604520682.7304,36
1604520682.7324,-24
1604520682.7344,-41
1604520682.7364,-9
1604520682.7384,-16
1604520682.7404,-24
1604520682.7424,-12
1604520682.7431,-9
1604520682.7444,-12
1604520682.7464,-9
1604520682.7484,-7
1604520682.7504,-7
1604520682.7524,-2
1604520682.7544,0
1604520682.7564,-2
1604520682.7584,-4
1604520682.7604,0
1604520682.7624,2
1604520682.7644,2
1604520682.7664,7
1604520682.7684,12
1604520682.7691,12
1604520682.7704,14
1604520682.7724,16
1604520682.7744,16
1604520682.7765,19
1604520682.7786,16
1604520682.7804,14
1604520682.7824,14
1604520682.7844,9
1604520682.7864,4
1604520682.7884,7
1604520682.7904,4
1604520682.7924,-2
1604520682.7944,-7
1604520682.7964,-4
1604520682.7970,-4
1604520682.7984,-7
1604520682.8004,-4
1604520682.8024,-2
1604520682.8044,0
1604520683.2711,2
1604520683.2718,2
1604520683.2742,4
1604520683.2768,7
1604520683.2788,4
1604520683.2808,0
1604520683.2831,4
1604520683.2849,12
1604520683.2868,14
1604520683.2888,14
1604520683.2908,14
1604520683.2928,14
1604520683.2941,16
1604520683.2958,14
1604520683.2978,14
1604520683.2998,12
1604520683.3018,9
1604520683.3025,9
1604520683.3038,12
1604520683.3058,12
1604520683.3078,12
1604520683.3098,12
1604520683.3118,12
1604520683.3138,12
1604520683.3157,12
1604520683.3178,12
1604520683.3198,7
1604520683.3218,-2
1604520683.3238,-4
1604520683.3259,-2
1604520683.3278,0
1604520683.3299,0
1604520683.3318,0
1604520683.3324,0
1604520683.3338,2
1604520683.3359,0
1604520683.3378,0
1604520683.3398,2
1604520683.3418,2
1604520683.3438,0
1604520683.3458,0
1604520683.3478,2
1604520683.3498,2
1604520683.3518,7
1604520683.3538,24
1604520683.3558,33
1604520683.3578,19
1604520683.3598,2
1604520683.3618,0
1604520683.3624,0
1604520683.3638,-9
1604520683.3658,-21
1604520683.3678,-19
1604520683.3698,-14
1604520683.3718,-14
1604520683.3738,-14
1604520683.3758,-9
1604520683.3780,-2
1604520683.3798,24
1604520683.3818,116
1604520683.3838,256
1604520683.3858,251
1604520683.3878,50
1604520683.3898,-36
1604520683.3918,21
1604520683.3925,-4
1604520683.3938,-48
1604520683.3958,-19
1604520683.3978,-12
1604520683.3998,-29
1604520683.4018,-21
1604520683.4038,-14
1604520683.4058,-16
1604520683.8709,-14
1604520683.8718,-12
1604520683.8742,-14
1604520683.8769,-14
1604520683.8789,-14
1604520683.8809,-14
1604520683.8816,-14
1604520683.8830,-12
1604520683.8850,-9
1604520683.8869,-21
1604520683.8889,-31
1604520683.8909,-21
1604520683.8929,-14
1604520683.8949,-14
1604520683.8969,-12
1604520683.8988,-4
1604520683.9008,-2
1604520683.9028,-4
1604520683.9048,-7
1604520683.9068,-12
1604520683.9088,-21
1604520683.9108,-26
1604520683.9115,-24
1604520683.9128,-24
1604520683.9149,-26
1604520683.9168,-29
1604520683.9188,-29
1604520683.9209,-29
1604520683.9229,-26
1604520683.9249,-26
1604520683.9268,-26
1604520683.9288,-21
1604520683.9308,-16
1604520683.9328,-16
1604520683.9348,-14
1604520683.9370,-9
1604520683.9389,-7
1604520683.9409,-7
1604520683.9415,-4
1604520683.9428,-2
1604520683.9449,0
1604520683.9469,0
1604520683.9489,2
1604520683.9508,9
1604520683.9528,9
1604520683.9548,4
1604520683.9568,4
1604520683.9588,4
1604520683.9608,2
1604520683.9628,2
1604520683.9649,2
1604520683.9668,0
1604520683.9688,-2
1604520683.9708,2
1604520683.9715,4
1604520683.9728,0
1604520683.9748,-4
1604520683.9768,-4
1604520683.9788,-9
1604520683.9808,-12
1604520683.9828,-7
1604520683.9848,-7
1604520683.9869,-12
1604520683.9888,-14
1604520683.9908,-14
1604520683.9928,-14
1604520683.9948,-14
1604520683.9968,-16
1604520683.9988,-21
1604520684.0008,-26
1604520684.0015,-26
1604520684.0028,-29
1604520684.0049,-29
1604520684.3808,-24
1604520684.3815,-19
1604520684.3839,-7
1604520684.3866,4
1604520684.3886,-2
1604520684.3906,-14
1604520684.3926,-14
1604520684.3947,-21
1604520684.3965,-36
1604520684.3985,-43
1604520684.3992,-48
1604520684.4005,-58
1604520684.4025,-62
1604520684.4049,-60
1604520684.4067,-65
1604520684.4085,-70
1604520684.4105,-46
1604520684.4125,41
1604520684.4146,188
1604520684.4165,220
1604520684.4185,14
1604520684.4205,-121
1604520684.4225,-43
1604520684.4245,-36
1604520684.4265,-94
1604520684.4285,-67
1604520684.4292,-50
1604520684.4305,-75
1604520684.4325,-70
1604520684.4345,-60
1604520684.4365,-65
1604520684.4385,-62
1604520684.4405,-53
1604520684.4425,-50
1604520684.4446,-50
1604520684.4465,-50
1604520684.4485,-46
1604520684.4505,-46
1604520684.4525,-48
1604520684.4547,-43
1604520684.4565,-38
1604520684.4572,-38
1604520684.4585,-36
1604520684.4605,-33
1604520684.4625,-26
1604520684.4646,-19
1604520684.4665,-21
1604520684.4685,-24
1604520684.4705,-21
1604520684.4725,-21
1604520684.4746,-26
1604520684.4765,-29
1604520684.4785,-31
1604520684.4805,-36
1604520684.4825,-33
1604520684.4846,-33
1604520684.4865,-41
1604520684.4872,-46
1604520684.4885,-41
1604520684.4905,-33
1604520684.4925,-38
1604520684.4945,-41
1604520684.4965,-38
1604520684.4985,-38
1604520684.5007,-36
1604520684.5026,-29
1604520684.5046,-24
1604520684.5066,-19
1604520684.5085,-14
1604520684.5105,-7
1604520684.5125,-2
1604520684.5146,2
1604520684.5165,7
1604520684.9512,2
1604520684.9518,-2
1604520684.9541,4
1604520684.9568,4
1604520684.9588,-2
1604520684.9608,-4
1604520684.9629,-4
1604520684.9648,-12
1604520684.9668,-24
1604520684.9688,-24
1604520684.9708,-14
1604520684.9728,-14
1604520684.9748,-19
1604520684.9755,-19
1604520684.9768,-14
1604520684.9788,-12
1604520684.9808,-12
1604520684.9828,-9
1604520684.9848,-9
1604520684.9868,-16
1604520684.9888,-16
1604520684.9908,-12
1604520684.9928,-12
1604520684.9948,-12
1604520684.9969,-9
1604520684.9988,-4
1604520685.0007,0
1604520685.0028,12
1604520685.0048,31
1604520685.0054,31
1604520685.0068,12
1604520685.0088,0
1604520685.0108,-4
1604520685.0128,-12
1604520685.0148,-19
1604520685.0168,-21
1604520685.0188,-16
1604520685.0208,-14
1604520685.0228,-16
1604520685.0248,-16
1604520685.0268,-14
1604520685.0288,-4
1604520685.0309,43
1604520685.0328,174
1604520685.0348,312
1604520685.0354,200
1604520685.0368,-53
1604520685.0388,-55
1604520685.0408,38
1604520685.0428,-24
1604520685.0448,-50
1604520685.0468,-9
1604520685.0488,-19
1604520685.0508,-31
1604520685.0528,-14
1604520685.0548,-12
1604520685.0567,-16
1604520685.0588,-7
1604520685.0608,-4
1604520685.0628,-4
1604520685.0649,-2
1604520685.0654,-2
1604520685.0668,-7
1604520685.0688,-2
1604520685.0708,2
1604520685.0728,4
1604520685.0748,2
1604520685.0768,4
1604520685.0788,9
1604520685.0808,12
1604520685.0827,12
1604520685.0847,12
1604520685.0868,14
1604520685.4913,14
1604520685.4922,12
1604520685.4947,12
1604520685.4973,12
1604520685.4979,7
1604520685.4993,0
1604520685.5013,-2
1604520685.5034,0
1604520685.5053,-7
1604520685.5073,-21
1604520685.5093,-29
1604520685.5113,-29
1604520685.5133,-29
1604520685.5153,-31
1604520685.5172,-26
1604520685.5192,-21
1604520685.5213,-16
1604520685.5232,-12
1604520685.5252,-7
1604520685.5273,0
1604520685.5280,2
1604520685.5293,7
1604520685.5312,12
1604520685.5332,16
1604520685.5353,16
1604520685.5372,19
1604520685.5392,24
1604520685.5412,29
1604520685.5432,29
1604520685.5453,26
1604520685.5472,26
1604520685.5492,29
1604520685.5512,29
1604520685.5532,29
1604520685.5552,29
1604520685.5572,29
1604520685.5578,26
1604520685.5592,26
1604520685.5612,29
1604520685.5632,26
1604520685.5653,24
1604520685.5672,24
1604520685.5692,21
1604520685.5712,16
1604520685.5732,19
1604520685.5753,21
1604520685.5772,19
1604520685.5792,19
1604520685.5812,16
1604520685.5832,14
1604520685.5853,16
1604520685.5872,19
1604520685.5879,19
1604520685.5892,24
1604520685.5912,38
1604520685.5932,48
1604520685.5952,43
1604520685.5972,33
1604520685.5992,31
1604520685.6012,21
1604520685.6032,7
1604520685.6052,-4
1604520685.6072,-9
1604520685.6092,-14
1604520685.6112,-16
1604520685.6132,-12
1604520685.6153,-9
1604520685.6172,-9
1604520685.6178,2
1604520685.6192,70
1604520685.6212,205
1604520685.6234,283
1604520685.6253,130
1604520686.0608,-41
1604520686.0614,-7
1604520686.0638,12
1604520686.0665,-48
1604520686.0684,-41
1604520686.0689,-16
1604520686.0692,-41
1604520686.0715,-48
1604520686.0720,-33
1604520686.0734,-29
1604520686.0754,-33
1604520686.0774,-31
1604520686.0794,-26
1604520686.0814,-26
1604520686.0834,-24
1604520686.0854,-21
1604520686.0874,-21
1604520686.0894,-21
1604520686.0914,-21
1604520686.0934,-19
1604520686.0954,-12
1604520686.0974,-9
1604520686.0994,-9
1604520686.1014,-4
1604520686.1020,0
1604520686.1034,2
1604520686.1054,2
1604520686.1074,7
1604520686.1094,7
1604520686.1114,2
1604520686.1134,0
1604520686.1154,0
1604520686.1173,-2
1604520686.1194,-7
1604520686.1214,-12
1604520686.1234,-16
1604520686.1254,-16
1604520686.1274,-16
1604520686.1294,-16
1604520686.1314,-16
1604520686.1320,-16
1604520686.1334,-14
1604520686.1354,-12
1604520686.1374,-7
1604520686.1394,-2
1604520686.1413,0
1604520686.1434,2
1604520686.1454,7
1604520686.1474,9
1604520686.1495,12
1604520686.1514,14
1604520686.1534,16
1604520686.1554,21
1604520686.1574,19
1604520686.1594,19
1604520686.1614,19
1604520686.1620,14
1604520686.1634,9
1604520686.1654,9
1604520686.1673,12
1604520686.1694,12
1604520686.1714,12
1604520686.1734,9
1604520686.1754,12
1604520686.1774,12
1604520686.1794,9
1604520686.1814,7
1604520686.1834,7
1604520686.1854,7
1604520686.1874,7
1604520686.1894,9
1604520686.1914,7
1604520686.1920,4
1604520686.6011,7
1604520686.6019,9
1604520686.6046,9
1604520686.6070,7
1604520686.6090,4
1604520686.6110,4
1604520686.6131,4
1604520686.6150,-2
1604520686.6170,-9
1604520686.6190,-7
1604520686.6209,0
1604520686.6230,4
1604520686.6250,21
1604520686.6270,26
1604520686.6290,16
1604520686.6296,9
1604520686.6309,2
1604520686.6329,-9
1604520686.6350,-21
1604520686.6370,-29
1604520686.6389,-26
1604520686.6409,-21
1604520686.6429,-24
1604520686.6450,-21
1604520686.6470,-19
1604520686.6489,-19
1604520686.6509,19
1604520686.6531,128
1604520686.6549,251
1604520686.6569,193
1604520686.6589,-7
1604520686.6595,-41
1604520686.6609,12
1604520686.6629,-33
1604520686.6649,-60
1604520686.6669,-29
1604520686.6689,-29
1604520686.6709,-38
1604520686.6729,-29
1604520686.6750,-29
1604520686.6769,-31
1604520686.6789,-24
1604520686.6809,-24
1604520686.6829,-26
1604520686.6849,-24
1604520686.6869,-19
1604520686.6889,-21
1604520686.6895,-26
1604520686.6909,-29
1604520686.6929,-26
1604520686.6949,-21
1604520686.6969,-21
1604520686.6989,-19
1604520686.7009,-14
1604520686.7029,-9
1604520686.7050,-9
1604520686.7070,-7
1604520686.7089,-12
1604520686.7109,-12
1604520686.7129,-12
1604520686.7151,-12
1604520686.7169,-16
1604520686.7176,-21
1604520686.7189,-21
1604520686.7209,-19
1604520686.7229,-24
1604520686.7249,-31
1604520686.7269,-31
1604520686.7289,-24
1604520686.7309,-26
1604520686.7329,-31
1604520686.7349,-26
1604520686.7369,-19
1604520687.2016,-14
1604520687.2027,-12
1604520687.2050,-9
1604520687.2061,-9
1604520687.2077,-12
1604520687.2100,-16
1604520687.2119,-12
1604520687.2138,-7
1604520687.2158,-7
1604520687.2177,-7
1604520687.2197,-4
1604520687.2217,-2
1604520687.2238,-2
1604520687.2258,0
1604520687.2277,2
1604520687.2298,-2
1604520687.2319,-7
1604520687.2338,-7
1604520687.2357,-2
1604520687.2362,-4
1604520687.2377,-12
1604520687.2397,-14
1604520687.2417,-9
1604520687.2437,-9
1604520687.2458,-9
1604520687.2477,-9
1604520687.2497,-9
1604520687.2517,-9
1604520687.2537,-12
1604520687.2557,-12
1604520687.2576,-9
1604520687.2597,-7
1604520687.2616,-4
1604520687.2637,-4
1604520687.2657,-2
1604520687.2663,-7
1604520687.2677,-9
1604520687.2697,-7
1604520687.2717,-7
1604520687.2737,-12
1604520687.2757,-16
1604520687.2777,-14
1604520687.2796,-9
1604520687.2817,-7
1604520687.2837,0
1604520687.2857,12
1604520687.2877,16
1604520687.2897,4
1604520687.2917,-7
1604520687.2936,-14
1604520687.2956,-26
1604520687.2962,-41
1604520687.2977,-50
1604520687.2996,-43
1604520687.3017,-38
1604520687.3036,-38
1604520687.3058,-38
1604520687.3077,-36
1604520687.3097,-24
1604520687.3117,36
1604520687.3136,171
1604520687.3156,263
1604520687.3176,111
1604520687.3197,-84
1604520687.3216,-43
1604520687.3237,4
1604520687.3257,-62
1604520687.3262,-65
1604520687.3277,-38
1604520687.3296,-53
1604520687.3317,-58
1604520687.3337,-41
1604520687.3357,-38
1604520687.7408,-43
1604520687.7417,-41
1604520687.7430,-36
1604520687.7450,-38
1604520687.7471,-38
1604520687.7491,-33
1604520687.7497,-33
1604520687.7511,-41
1604520687.7530,-38
1604520687.7551,-38
1604520687.7570,-48
1604520687.7590,-48
1604520687.7610,-43
1604520687.7630,-43
1604520687.7651,-38
1604520687.7671,-29
1604520687.7691,-24
1604520687.7710,-29
1604520687.7731,-31
1604520687.7750,-31
1604520687.7771,-33
1604520687.7790,-38
1604520687.7796,-41
1604520687.7810,-43
1604520687.7830,-41
1604520687.7850,-41
1604520687.7870,-43
1604520687.7891,-43
1604520687.7910,-38
1604520687.7930,-38
1604520687.7950,-36
1604520687.7970,-31
1604520687.7989,-31
1604520687.8010,-31
1604520687.8032,-24
1604520687.8051,-16
1604520687.8070,-14
1604520687.8090,-16
1604520687.8096,-12
1604520687.8110,-9
1604520687.8130,-7
1604520687.8150,-2
1604520687.8170,2
1604520687.8189,4
1604520687.8209,2
1604520687.8230,2
1604520687.8250,4
1604520687.8269,7
1604520687.8290,9
1604520687.8310,9
1604520687.8330,7
1604520687.8350,7
1604520687.8370,7
1604520687.8389,9
1604520687.8396,9
1604520687.8410,9
1604520687.8429,9
1604520687.8450,9
1604520687.8470,9
1604520687.8490,12
1604520687.8510,14
1604520687.8530,12
1604520687.8550,9
1604520687.8570,12
1604520687.8589,14
1604520687.8610,16
1604520687.8629,19
1604520687.8650,19
1604520687.8669,16
1604520687.8689,19
1604520687.8695,26
1604520687.8710,38
1604520687.8730,41
1604520688.3109,33
1604520688.3118,26
1604520688.3142,21
1604520688.3168,14
1604520688.3188,4
1604520688.3209,0
1604520688.3229,-4
1604520688.3249,-14
1604520688.3269,-19
1604520688.3289,-14
1604520688.3308,-14
1604520688.3328,-14
1604520688.3351,9
1604520688.3356,96
1604520688.3368,242
1604520688.3387,261
1604520688.3408,53
1604520688.3428,-58
1604520688.3448,16
1604520688.3468,4
1604520688.3488,-50
1604520688.3508,-21
1604520688.3528,-7
1604520688.3548,-26
1604520688.3568,-21
1604520688.3588,-16
1604520688.3607,-26
1604520688.3629,-24
1604520688.3648,-14
1604520688.3653,-16
1604520688.3668,-21
1604520688.3688,-19
1604520688.3708,-16
1604520688.3728,-14
1604520688.3748,-14
1604520688.3767,-14
1604520688.3787,-9
1604520688.3808,-7
1604520688.3827,-7
1604520688.3848,-2
1604520688.3868,4
1604520688.3888,9
1604520688.3907,7
1604520688.3927,7
1604520688.3948,12
1604520688.3953,12
1604520688.3968,7
1604520688.3988,4
1604520688.4007,0
1604520688.4027,-2
1604520688.4048,-4
1604520688.4068,-4
1604520688.4088,-4
1604520688.4107,-7
1604520688.4127,-7
1604520688.4148,-4
1604520688.4167,-4
1604520688.4187,-7
1604520688.4207,-4
1604520688.4228,2
1604520688.4247,7
1604520688.4253,7
1604520688.4268,9
1604520688.4289,12
1604520688.4308,16
1604520688.4327,19
1604520688.4348,21
1604520688.4368,24
1604520688.4387,26
1604520688.4407,29
1604520688.4428,26
1604520688.4448,29
1604520688.4467,31
1604520688.8511,29
1604520688.8518,26
1604520688.8542,26
1604520688.8568,29
1604520688.8588,29
1604520688.8608,26
1604520688.8629,26
1604520688.8649,24
1604520688.8668,12
1604520688.8688,7
1604520688.8708,12
1604520688.8728,14
1604520688.8749,12
1604520688.8768,9
1604520688.8788,12
1604520688.8808,14
1604520688.8828,12
1604520688.8834,9
1604520688.8849,4
1604520688.8868,2
1604520688.8889,0
1604520688.8908,-4
1604520688.8927,-4
1604520688.8948,-4
1604520688.8967,-2
1604520688.8988,0
1604520688.9007,7
1604520688.9029,24
1604520688.9048,33
1604520688.9068,29
1604520688.9087,16
1604520688.9108,12
1604520688.9128,7
1604520688.9134,-4
1604520688.9147,-16
1604520688.9168,-24
1604520688.9187,-21
1604520688.9208,-16
1604520688.9228,-14
1604520688.9248,-16
1604520688.9268,-16
1604520688.9289,4
1604520688.9308,70
1604520688.9328,198
1604520688.9348,266
1604520688.9367,116
1604520688.9388,-38
1604520688.9408,-2
1604520688.9428,9
1604520688.9434,-48
1604520688.9448,-33
1604520688.9468,-14
1604520688.9489,-31
1604520688.9508,-36
1604520688.9527,-26
1604520688.9547,-29
1604520688.9568,-29
1604520688.9587,-24
1604520688.9607,-21
1604520688.9627,-24
1604520688.9648,-26
1604520688.9668,-24
1604520688.9689,-19
1604520688.9707,-24
1604520688.9727,-24
1604520688.9733,-21
1604520688.9748,-21
1604520688.9768,-24
1604520688.9787,-16
1604520688.9807,-12
1604520688.9828,-12
1604520688.9847,-9
1604520688.9868,-7
1604520689.4213,-9
1604520689.4221,-9
1604520689.4246,-7
1604520689.4272,-9
1604520689.4292,-19
1604520689.4312,-33
1604520689.4332,-41
1604520689.4339,-41
1604520689.4352,-36
1604520689.4371,-38
1604520689.4391,-43
1604520689.4412,-50
1604520689.4431,-50
1604520689.4452,-50
1604520689.4472,-48
1604520689.4492,-38
1604520689.4511,-36
1604520689.4532,-38
1604520689.4551,-31
1604520689.4573,-21
1604520689.4591,-19
1604520689.4611,-16
1604520689.4631,-14
1604520689.4637,-14
1604520689.4652,-9
1604520689.4671,-7
1604520689.4691,-4
1604520689.4711,-2
1604520689.4731,-4
1604520689.4751,-7
1604520689.4771,-2
1604520689.4791,4
1604520689.4811,0
1604520689.4831,-4
1604520689.4852,-4
1604520689.4871,-7
1604520689.4891,-7
1604520689.4911,-4
1604520689.4931,-4
1604520689.4937,-4
1604520689.4951,-4
1604520689.4971,-7
1604520689.4991,-9
1604520689.5011,-7
1604520689.5031,-7
1604520689.5051,-9
1604520689.5071,-7
1604520689.5091,-9
1604520689.5111,-12
1604520689.5130,-12
1604520689.5151,-12
1604520689.5171,-9
1604520689.5191,-7
1604520689.5211,-4
1604520689.5231,4
1604520689.5237,16
1604520689.5251,19
1604520689.5271,7
1604520689.5291,-2
1604520689.5311,-9
1604520689.5331,-21
1604520689.5351,-36
1604520689.5371,-41
1604520689.5391,-38
1604520689.5411,-33
1604520689.5431,-33
1604520689.5451,-31
1604520689.5471,-33
1604520689.5491,-33
1604520689.5511,4
1604520689.5533,123
1604520689.5537,259
1604520689.5551,181
1604520689.9613,-53
1604520689.9622,-79
1604520689.9647,4
1604520689.9672,-50
1604520689.9693,-92
1604520689.9712,-50
1604520689.9733,-62
1604520689.9753,-89
1604520689.9773,-72
1604520689.9792,-60
1604520689.9813,-70
1604520689.9832,-67
1604520689.9838,-60
1604520689.9853,-58
1604520689.9872,-55
1604520689.9892,-50
1604520689.9912,-53
1604520689.9932,-53
1604520689.9953,-48
1604520689.9972,-43
1604520689.9992,-43
1604520690.0012,-41
1604520690.0032,-38
1604520690.0052,-33
1604520690.0072,-29
1604520690.0092,-26
1604520690.0112,-29
1604520690.0132,-29
1604520690.0138,-29
1604520690.0152,-29
1604520690.0172,-31
1604520690.0192,-36
1604520690.0212,-36
1604520690.0231,-38
1604520690.0252,-46
1604520690.0271,-50
1604520690.0291,-50
1604520690.0312,-55
1604520690.0331,-58
1604520690.0351,-55
1604520690.0371,-46
1604520690.0392,-38
1604520690.0412,-38
1604520690.0431,-41
1604520690.0437,-38
1604520690.0452,-31
1604520690.0472,-26
1604520690.0492,-24
1604520690.0513,-19
1604520690.0531,-16
1604520690.0552,-14
1604520690.0572,-9
1604520690.0592,-4
1604520690.0611,-4
1604520690.0632,-4
1604520690.0652,-2
1604520690.0672,0
1604520690.0692,-2
1604520690.0712,-7
1604520690.0732,-4
1604520690.0737,-2
1604520690.0752,-4
1604520690.0772,-7
1604520690.0792,-4
1604520690.0812,-4
1604520690.0831,-4
1604520690.0852,-4
1604520690.0872,-7
1604520690.0892,-12
1604520690.0911,-14
1604520690.0932,-19
1604520690.0952,-16
1604520690.0971,-12
1604520690.5613,-12
1604520690.5621,-7
1604520690.5639,-2
1604520690.5662,-4
1604520690.5682,-4
1604520690.5702,12
1604520690.5722,19
1604520690.5742,4
1604520690.5761,-2
1604520690.5781,-4
1604520690.5801,-12
1604520690.5821,-21
1604520690.5841,-24
1604520690.5861,-19
1604520690.5881,-16
1604520690.5902,-16
1604520690.5922,-19
1604520690.5942,-19
1604520690.5947,-19
1604520690.5961,4
1604520690.5982,104
1604520690.6002,261
1604520690.6021,251
1604520690.6042,2
1604520690.6061,-94
1604520690.6081,14
1604520690.6103,-7
1604520690.6122,-72
1604520690.6141,-36
1604520690.6161,-19
1604520690.6181,-41
1604520690.6201,-33
1604520690.6222,-24
1604520690.6304,-29
1604520690.6321,-26
1604520690.6341,-19
1604520690.6361,-19
1604520690.6381,-16
1604520690.6401,-12
1604520690.6421,-14
1604520690.6441,-14
1604520690.6461,-9
1604520690.6481,-7
1604520690.6501,-7
1604520690.6521,-4
1604520690.6541,0
1604520690.6561,2
1604520690.6581,4
1604520690.6587,7
1604520690.6600,12
1604520690.6621,12
1604520690.6641,9
1604520690.6661,9
1604520690.6681,9
1604520690.6701,4
1604520690.6721,0
1604520690.6741,0
1604520690.6761,-2
1604520690.6781,-7
1604520690.6801,-9
1604520690.6821,-9
1604520690.6841,-7
1604520690.6861,-9
1604520690.6881,-16
1604520690.6887,-16
1604520690.6901,-7
1604520690.6921,-4
1604520690.6941,-4
1604520690.6961,0
1604520690.6981,7
1604520690.7001,9
1604520690.7021,14
1604520690.7041,19
1604520691.1311,24
1604520691.1317,24
1604520691.1346,24
1604520691.1381,29
1604520691.1421,31
1604520691.1492,31
1604520691.1880,31
1604520691.1917,31
1604520691.1994,24
1604520691.2018,14
1604520691.2038,12
1604520691.2254,14
1604520691.2293,12
1604520691.2372,12
1604520691.2396,14
1604520691.2415,14
1604520691.2689,14
1604520691.2729,14
1604520691.2823,14
1604520691.2848,14
1604520691.2869,12
1604520691.3073,12
1604520691.3117,12
1604520691.3190,14
1604520691.3210,14
1604520691.3235,14
1604520691.3416,14
1604520691.3452,16
1604520691.3527,14
1604520691.3573,12
1604520691.3640,19
1604520691.3675,24
1604520691.3752,21
1604520691.3800,26
1604520691.3853,46
1604520691.3890,48
1604520691.4177,36
1604520691.4211,29
1604520691.4281,24
1604520691.4324,12
1604520691.4381,0
1604520691.4415,-2
1604520691.4451,0
1604520691.4526,2
1604520691.4570,0
1604520691.4629,0
1604520691.4758,2
1604520691.4793,9
1604520691.4871,48
1604520691.4917,152
1604520691.4982,268
1604520691.5117,200
1604520691.5136,-2
1604520691.5191,-36
1604520691.5250,16
1604520691.5343,-36
1604520691.5455,-65
1604520691.5489,-31
1604520691.5585,-31
1604520691.5621,-46
1604520691.5697,-36
1604520691.5939,-29
1604520691.5974,-33
1604520691.6056,-31
1604520691.6082,-26
1604520691.6292,-26
1604520691.6327,-26
1604520691.6415,-24
1604520691.6431,-24
1604520691.6449,-24
1604520691.6701,-21
1604520691.6740,-21
1604520691.6815,-19
1604520691.6842,-14
1604520691.6864,-12
1604520691.7010,-12
1604520691.7047,-9
1604520691.7132,-2
1604520691.7147,0
1604520691.7183,-2
1604520691.7417,-4
1604520691.7452,-7
1604520691.7534,-14
1604520691.7583,-26
1604520691.7648,-31
1604520691.7776,-29
1604520691.7811,-31
1604520691.7882,-33
1604520691.7926,-31
1604520691.7986,-31
1604520691.8144,-31
1604520691.8179,-31
1604520691.8259,-29
1604520691.8288,-24
1604520691.8323,-21
1604520691.8435,-16
1604520691.8468,-9
1604520691.8548,-9
1604520691.8598,-9
1604520691.8666,-2
1604520691.8876,2
1604520691.8910,4
1604520691.8942,4
1604520691.9001,7
1604520691.9090,12
1604520691.9202,14
1604520691.9238,14
1604520691.9334,16
1604520691.9367,19
1604520691.9463,21
1604520691.9497,19
1604520691.9574,16
1604520691.9623,19
1604520691.9687,14
1604520691.9721,9
1604520691.9921,9
1604520691.9939,12
1604520691.9993,12
1604520692.0035,14
1604520692.0079,14
1604520692.0260,12
1604520692.0294,7
1604520692.0371,0
1604520692.0415,0
1604520692.0475,7
1604520692.0509,7
1604520692.0588,2
1604520692.0633,4
1604520692.0695,7
1604520692.0726,4
1604520692.0761,4
1604520692.0845,9
1604520692.0870,12
1604520692.0978,9
1604520692.1013,7
1604520692.1083,9
1604520692.1126,12
1604520692.1195,16
1604520692.1230,14
1604520692.1412,14
1604520692.1446,24
1604520692.1523,38
1604520692.1568,38
1604520692.1636,26
1604520692.1670,19
1604520692.1748,14
1604520692.2411,2
1604520692.2416,-7
1604520692.2455,-12
1604520692.2517,-14
1604520692.2592,-14
1604520692.2625,-14
1604520692.2735,-16
1604520692.2769,-24
1604520692.2845,-19
1604520692.2889,38
1604520692.2959,164
1604520692.2994,254
1604520692.3071,135
1604520692.3120,-43
1604520692.3192,-31
1604520692.3228,2
1604520692.3530,-55
1604520692.3563,-55
1604520692.3634,-29
1604520692.3678,-43
1604520692.3745,-46
1604520692.3780,-31
1604520692.3854,-29
1604520692.3900,-36
1604520692.3966,-33
1604520692.3999,-29
1604520692.4185,-29
1604520692.4220,-31
1604520692.4298,-29
1604520692.4344,-26
1604520692.4404,-26
1604520692.4530,-31
1604520692.4548,-31
1604520692.4599,-29
1604520692.4646,-24
1604520692.4691,-21
1604520692.5139,-16
1604520692.5166,-14
1604520692.5187,-12
1604520692.5218,-12
1604520692.5247,-12
1604520692.5732,-19
1604520692.5753,-26
1604520692.5770,-29
1604520692.5803,-26
1604520692.5886,-31
1604520692.5921,-36
1604520692.5976,-36
1604520692.6016,-36
1604520692.6088,-36
1604520692.6090,-36
1604520692.6280,-31
1604520692.6314,-26
1604520692.6384,-29
1604520692.6430,-29
1604520692.6595,-21
1604520692.6635,-16
1604520692.6709,-14
1604520692.6756,-12
1604520692.6822,-9
1604520692.6935,-9
1604520692.6969,-9
1604520692.7051,-4
1604520692.7104,-4
1604520692.7156,-4
1604520692.7286,-2
1604520692.7320,-2
1604520692.7390,-2
1604520692.7432,-2
1604520692.7492,-2
1604520692.7603,-2
1604520692.7639,0
1604520692.7712,0
1604520692.7929,-4
1604520692.7933,-7
1604520692.7961,-7
1604520692.8045,-4
1604520692.8087,-7
1604520692.8106,-9
1604520692.8157,-9
1604520692.8215,-7
1604520692.8285,-14
1604520692.8327,-26
1604520692.8406,-24
1604520692.8442,-19
1604520692.8516,-24
1604520692.8560,-26
1604520692.8625,-21
1604520692.8739,-24
1604520692.8773,-26
1604520692.8853,-21
1604520692.8900,-19
1604520692.8969,-21
1604520692.9198,-21
1604520692.9216,-21
1604520692.9271,-24
1604520692.9328,-26
1604520692.9398,-21
1604520692.9631,-14
1604520692.9664,-7
1604520692.9738,4
1604520692.9782,0
1604520692.9849,-12
1604520692.9962,-19
1604520692.9996,-21
1604520693.0073,-31
1604520693.0120,-43
1604520693.0291,-55
1604520693.0325,-60
1604520693.0407,-58
1604520693.0433,-58
1604520693.0516,-53
1604520693.0552,-48
1604520693.0588,-36
1604520693.0658,16
1604520693.0702,159
1604520693.0763,256
1604520693.0872,94
1604520693.0905,-111
1604520693.0982,-65
1604520693.1028,-12
1604520693.1096,-82
1604520693.1210,-79
1604520693.1243,-43
1604520693.1325,-60
1604520693.1375,-67
1604520693.1430,-55
1604520693.1562,-55
1604520693.1598,-60
1604520693.1667,-60
1604520693.1710,-55
1604520693.1755,-48
1604520693.1877,-48
1604520693.1913,-53
1604520693.1988,-50
1604520693.2035,-48
1604520693.2099,-46
1604520693.2219,-41
1604520693.2261,-41
1604520693.2548,-43
1604520693.2856,-38
1604520693.3081,-33
1604520693.3129,-31
1604520693.3524,-29
1604520693.4122,-29
1604520693.4157,-29
1604520693.4248,-29
1604520693.4359,-31
1604520693.4646,-36
1604520693.4875,-43
1604520693.5025,-48
1604520693.5059,-53
1604520693.5087,-65
1604520693.5153,-67
1604520693.5251,-62
1604520693.5286,-62
1604520693.5361,-65
1604520693.5407,-58
1604520693.5473,-50
1604520693.5507,-53
1604520693.5692,-55
1604520693.5727,-50
1604520693.5809,-41
1604520693.5835,-38
1604520693.5942,-33
1604520693.5975,-26
1604520693.6047,-21
1604520693.6091,-19
1604520693.6158,-16
1604520693.6191,-14
1604520693.6373,-12
1604520693.6406,-9
1604520693.6484,-9
1604520693.6529,-14
1604520693.6592,-16
1604520693.6813,-16
1604520693.6847,-14
1604520693.6928,-14
1604520693.6979,-14
1604520693.7052,-14
1604520693.7085,-16
1604520693.7157,-14
1604520693.7200,-9
1604520693.7267,-9
1604520693.7301,-12
1604520693.7483,-7
1604520693.7517,-7
1604520693.7594,-9
1604520693.7639,-9
1604520693.7704,-7
1604520693.7739,-2
1604520693.7818,-2
1604520693.7865,-2
1604520693.7934,-2
1604520693.8146,-2
1604520693.8164,-2
1604520693.8214,0
1604520693.8277,0
1604520693.8372,9
1604520693.8406,26
1604520693.8477,29
1604520693.8521,19
1604520693.8587,12
1604520693.8622,4
1604520693.8806,-2
1604520693.8840,-14
1604520693.8918,-21
1604520693.8963,-19
1604520693.9017,-16
1604520693.9148,-19
1604520693.9182,-19
1604520693.9222,-19
1604520693.9295,-9
1604520693.9393,33
1604520693.9428,157
1604520693.9457,297
1604520693.9517,213
1604520693.9615,-36
1604520693.9650,-62
1604520693.9891,29
1604520693.9894,-19
1604520693.9955,-55
1604520694.0271,-29
1604520694.0293,-38
1604520694.0315,-50
1604520694.0338,-36
1604520694.0377,-31
1604520694.0547,-36
1604520694.0560,-31
1604520694.0580,-24
1604520694.0600,-24
1604520694.0620,-24
1604520694.0640,-19
1604520694.0660,-16
1604520694.0680,-19
1604520694.0700,-14
1604520694.0720,-9
1604520694.0740,-7
1604520694.0760,-9
1604520694.0780,-9
1604520694.0800,-7
1604520694.0806,0
1604520694.0820,0
1604520694.0840,2
1604520694.0860,4
1604520694.0880,4
1604520694.0900,2
1604520694.0920,2
1604520694.0940,0
1604520694.0960,-4
1604520694.0980,-7
1604520694.1000,-7
1604520694.1020,-7
1604520694.1040,-9
1604520694.1060,-9
1604520694.1080,-14
1604520694.1100,-19
1604520694.1106,-21
1604520694.1120,-16
1604520694.1140,-12
1604520694.1160,-7
1604520694.1180,-4
1604520694.1200,0
1604520694.1220,4
1604520694.1240,7
1604520694.1261,9
1604520694.1281,14
1604520694.1301,19
1604520694.1320,21
1604520694.1340,21
1604520694.1360,24
1604520694.1380,24
1604520694.1400,24
1604520694.1406,21
1604520694.1420,21
1604520694.1440,19
1604520694.1460,19
1604520694.1480,19
1604520694.1500,21
1604520694.1521,19
1604520694.1540,16
1604520694.1560,16
1604520694.1580,16
1604520694.1600,19
1604520694.1620,16
1604520694.1640,16
1604520694.1660,19
1604520694.1680,19
1604520694.1686,14
1604520694.1700,12
1604520694.1720,14
1604520694.1740,12
1604520694.4906,9
1604520694.4913,9
1604520694.4937,9
1604520694.4963,9
1604520694.4983,7
1604520694.5003,9
1604520694.5024,14
1604520694.5044,16
1604520694.5063,16
1604520694.5083,19
1604520694.5103,19
1604520694.5123,9
1604520694.5130,-2
1604520694.5144,-12
1604520694.5163,-24
1604520694.5183,-33
1604520694.5203,-36
1604520694.5223,-29
1604520694.5243,-24
1604520694.5263,-24
1604520694.5283,-24
1604520694.5303,-21
1604520694.5323,-4
1604520694.5343,60
1604520694.5363,193
1604520694.5385,263
1604520694.5403,113
1604520694.5423,-48
1604520694.5429,-12
1604520694.5444,7
1604520694.5463,-46
1604520694.5483,-41
1604520694.5503,-21
1604520694.5523,-31
1604520694.5543,-29
1604520694.5563,-21
1604520694.5583,-26
1604520694.5603,-24
1604520694.5623,-19
1604520694.5643,-19
1604520694.5663,-16
1604520694.5683,-14
1604520694.5703,-14
1604520694.5723,-16
1604520694.5729,-14
1604520694.5744,-9
1604520694.5763,-9
1604520694.5783,-12
1604520694.5803,-9
1604520694.5823,-4
1604520694.5843,-2
1604520694.5863,-2
1604520694.5883,0
1604520694.5903,4
1604520694.5922,7
1604520694.5943,4
1604520694.5963,0
1604520694.5983,-4
1604520694.6003,-4
1604520694.6023,-9
1604520694.6029,-14
1604520694.6044,-19
1604520694.6063,-19
1604520694.6084,-19
1604520694.6103,-19
1604520694.6123,-19
1604520694.6144,-16
1604520694.6163,-14
1604520694.6183,-14
1604520694.6203,-12
1604520694.6223,-7
1604520694.6244,-4
1604520694.6263,0
1604520695.0313,2
1604520695.0321,0
1604520695.0346,2
1604520695.0374,7
1604520695.0392,9
1604520695.0412,4
1604520695.0433,2
1604520695.0452,4
1604520695.0472,4
1604520695.0492,0
1604520695.0511,-7
1604520695.0531,-4
1604520695.0552,-2
1604520695.0572,-7
1604520695.0592,-4
1604520695.0598,0
1604520695.0611,0
1604520695.0632,-2
1604520695.0652,-2
1604520695.0672,-4
1604520695.0692,-9
1604520695.0712,-7
1604520695.0732,-4
1604520695.0752,-7
1604520695.0772,-4
1604520695.0791,-4
1604520695.0812,-4
1604520695.0832,-7
1604520695.0851,-9
1604520695.0872,-9
1604520695.0891,-7
1604520695.0897,-7
1604520695.0912,-9
1604520695.0932,-7
1604520695.0952,0
1604520695.0971,2
1604520695.0991,2
1604520695.1011,9
1604520695.1032,21
1604520695.1051,21
1604520695.1071,9
1604520695.1091,-2
1604520695.1111,-7
1604520695.1131,-16
1604520695.1152,-29
1604520695.1171,-36
1604520695.1191,-31
1604520695.1198,-26
1604520695.1211,-29
1604520695.1231,-29
1604520695.1251,-26
1604520695.1271,-19
1604520695.1291,21
1604520695.1312,133
1604520695.1333,246
1604520695.1351,159
1604520695.1371,-33
1604520695.1391,-43
1604520695.1411,2
1604520695.1431,-53
1604520695.1452,-70
1604520695.1471,-41
1604520695.1491,-46
1604520695.1497,-50
1604520695.1511,-41
1604520695.1531,-41
1604520695.1551,-46
1604520695.1571,-41
1604520695.1591,-41
1604520695.1611,-41
1604520695.1631,-38
1604520695.1652,-46
1604520695.1671,-53
1604520695.6012,-50
1604520695.6020,-46
1604520695.6045,-48
1604520695.6070,-46
1604520695.6090,-36
1604520695.6096,-36
1604520695.6110,-48
1604520695.6131,-53
1604520695.6151,-46
1604520695.6172,-38
1604520695.6191,-46
1604520695.6212,-48
1604520695.6231,-46
1604520695.6250,-48
1604520695.6270,-53
1604520695.6290,-58
1604520695.6310,-58
1604520695.6330,-58
1604520695.6350,-58
1604520695.6370,-58
1604520695.6390,-55
1604520695.6396,-53
1604520695.6410,-53
1604520695.6430,-55
1604520695.6451,-55
1604520695.6470,-53
1604520695.6490,-46
1604520695.6510,-38
1604520695.6530,-38
1604520695.6550,-33
1604520695.6570,-31
1604520695.6590,-29
1604520695.6612,-24
1604520695.6630,-24
1604520695.6650,-21
1604520695.6670,-16
1604520695.6690,-16
1604520695.6696,-16
1604520695.6710,-19
1604520695.6730,-16
1604520695.6750,-12
1604520695.6770,-9
1604520695.6790,-19
1604520695.6810,-24
1604520695.6831,-21
1604520695.6850,-21
1604520695.6870,-24
1604520695.6890,-24
1604520695.6909,-24
1604520695.6929,-24
1604520695.6950,-19
1604520695.6970,-16
1604520695.6990,-16
1604520695.6995,-19
1604520695.7010,-21
1604520695.7030,-21
1604520695.7049,-19
1604520695.7070,-16
1604520695.7089,-16
1604520695.7110,-9
1604520695.7129,0
1604520695.7150,12
1604520695.7170,16
1604520695.7190,7
1604520695.7209,-12
1604520695.7230,-26
1604520695.7250,-33
1604520695.7269,-38
1604520695.7290,-48
1604520695.7295,-50
1604520695.7310,-43
1604520695.7330,-43
1604520695.7349,-46
1604520696.1409,-46
1604520696.1417,-46
1604520696.1441,-38
1604520696.1467,29
1604520696.1487,184
1604520696.1507,256
1604520696.1528,48
1604520696.1547,-154
1604520696.1567,-79
1604520696.1588,-31
1604520696.1596,-106
1604520696.1607,-96
1604520696.1630,-62
1604520696.1648,-79
1604520696.1667,-79
1604520696.1687,-65
1604520696.1707,-70
1604520696.1727,-70
1604520696.1747,-60
1604520696.1767,-60
1604520696.1786,-58
1604520696.1807,-55
1604520696.1827,-55
1604520696.1847,-55
1604520696.1867,-53
1604520696.1887,-48
1604520696.1893,-46
1604520696.1907,-43
1604520696.1927,-41
1604520696.1947,-38
1604520696.1967,-33
1604520696.1987,-29
1604520696.2007,-26
1604520696.2027,-29
1604520696.2047,-29
1604520696.2067,-33
1604520696.2087,-31
1604520696.2107,-33
1604520696.2127,-38
1604520696.2147,-43
1604520696.2166,-43
1604520696.2186,-43
1604520696.2192,-43
1604520696.2206,-48
1604520696.2226,-48
1604520696.2247,-46
1604520696.2267,-48
1604520696.2286,-48
1604520696.2307,-38
1604520696.2326,-31
1604520696.2347,-26
1604520696.2367,-21
1604520696.2386,-14
1604520696.2406,-12
1604520696.2426,-9
1604520696.2446,-4
1604520696.2466,2
1604520696.2486,0
1604520696.2493,-4
1604520696.2507,-2
1604520696.2526,4
1604520696.2547,7
1604520696.2566,7
1604520696.2586,7
1604520696.2606,7
1604520696.2626,4
1604520696.2647,0
1604520696.2666,0
1604520696.2686,2
1604520696.2706,2
1604520696.2728,2
1604520696.2747,2
1604520696.2766,4
1604520696.7106,4
1604520696.7114,4
1604520696.7138,9
1604520696.7164,16
1604520696.7184,12
1604520696.7204,9
1604520696.7226,26
1604520696.7245,38
1604520696.7265,26
1604520696.7284,14
1604520696.7305,14
1604520696.7325,9
1604520696.7345,-2
1604520696.7364,-12
1604520696.7385,-7
1604520696.7404,-2
1604520696.7410,-2
1604520696.7424,-2
1604520696.7445,2
1604520696.7464,4
1604520696.7484,16
1604520696.7504,84
1604520696.7524,232
1604520696.7544,295
1604520696.7564,99
1604520696.7584,-70
1604520696.7604,7
1604520696.7624,31
1604520696.7644,-41
1604520696.7664,-26
1604520696.7685,2
1604520696.7704,-19
1604520696.7709,-21
1604520696.7724,-9
1604520696.7744,-14
1604520696.7764,-16
1604520696.7784,-9
1604520696.7804,-7
1604520696.7823,-7
1604520696.7846,-7
1604520696.7864,-7
1604520696.7884,-7
1604520696.7904,-2
1604520696.7923,0
1604520696.7944,0
1604520696.7964,2
1604520696.7983,4
1604520696.8004,7
1604520696.8010,9
1604520696.8024,12
1604520696.8044,9
1604520696.8064,7
1604520696.8084,7
1604520696.8103,9
1604520696.8123,9
1604520696.8144,4
1604520696.8164,2
1604520696.8183,-2
1604520696.8203,-4
1604520696.8224,-4
1604520696.8244,-7
1604520696.8264,-7
1604520696.8283,-4
1604520696.8303,-7
1604520696.8309,-12
1604520696.8324,-9
1604520696.8344,-2
1604520696.8363,0
1604520696.8384,4
1604520696.8404,9
1604520696.8424,14
1604520696.8444,16
1604520696.8464,19
1604520697.3113,24
1604520697.3122,29
1604520697.3142,29
1604520697.3161,29
1604520697.3167,31
1604520697.3181,31
1604520697.3201,19
1604520697.3221,14
1604520697.3241,19
1604520697.3261,21
1604520697.3281,16
1604520697.3301,16
1604520697.3321,21
1604520697.3342,19
1604520697.3361,14
1604520697.3380,12
1604520697.3401,12
1604520697.3423,14
1604520697.3441,9
1604520697.3461,9
1604520697.3466,12
1604520697.3481,14
1604520697.3501,12
1604520697.3520,12
1604520697.3541,14
1604520697.3560,16
1604520697.3580,16
1604520697.3600,19
1604520697.3620,24
1604520697.3640,38
1604520697.3660,53
1604520697.3680,53
1604520697.3700,41
1604520697.3721,33
1604520697.3740,29
1604520697.3760,21
1604520697.3766,12
1604520697.3780,7
1604520697.3800,9
1604520697.3820,12
1604520697.3840,14
1604520697.3860,14
1604520697.3879,12
1604520697.3900,12
1604520697.3920,48
1604520697.3940,154
1604520697.3960,280
1604520697.3980,217
1604520697.4000,4
1604520697.4021,-31
1604520697.4040,33
1604520697.4060,-14
1604520697.4066,-43
1604520697.4080,-12
1604520697.4100,-14
1604520697.4120,-26
1604520697.4140,-16
1604520697.4160,-16
1604520697.4180,-21
1604520697.4200,-14
1604520697.4220,-16
1604520697.4240,-24
1604520697.4260,-21
1604520697.4280,-19
1604520697.4300,-24
1604520697.4320,-24
1604520697.4340,-19
1604520697.4360,-16
1604520697.4368,-16
1604520697.4380,-14
1604520697.4400,-12
1604520697.4420,-7
1604520697.4440,-4
1604520697.8811,-2
1604520697.8818,0
1604520697.8844,2
1604520697.8869,0
1604520697.8889,0
1604520697.8909,-2
1604520697.8930,-7
1604520697.8950,-14
1604520697.8969,-16
1604520697.8975,-16
1604520697.8989,-19
1604520697.9009,-29
1604520697.9029,-36
1604520697.9049,-33
1604520697.9069,-33
1604520697.9090,-31
1604520697.9108,-26
1604520697.9128,-21
1604520697.9149,-19
1604520697.9169,-14
1604520697.9189,-9
1604520697.9209,-7
1604520697.9228,-2
1604520697.9249,0
1604520697.9268,4
1604520697.9274,7
1604520697.9289,7
1604520697.9308,9
1604520697.9328,12
1604520697.9348,16
1604520697.9368,16
1604520697.9388,14
1604520697.9408,14
1604520697.9429,16
1604520697.9448,14
1604520697.9468,9
1604520697.9489,7
1604520697.9508,9
1604520697.9529,4
1604520697.9548,2
1604520697.9554,4
1604520697.9568,7
1604520697.9589,4
1604520697.9608,4
1604520697.9628,4
1604520697.9649,4
1604520697.9670,4
1604520697.9689,7
1604520697.9709,7
1604520697.9728,7
1604520697.9749,7
1604520697.9768,4
1604520697.9788,9
1604520697.9808,12
1604520697.9829,14
1604520697.9848,14
1604520697.9854,16
1604520697.9868,33
1604520697.9889,46
1604520697.9909,38
1604520697.9928,29
1604520697.9948,26
1604520697.9968,19
1604520697.9988,4
1604520698.0008,0
1604520698.0028,0
1604520698.0049,0
1604520698.0068,0
1604520698.0088,2
1604520698.0108,4
1604520698.0128,4
1604520698.0149,19
1604520698.0154,84
1604520698.4213,215
1604520698.4223,271
1604520698.4248,108
1604520698.4274,-43
1604520698.4294,0
1604520698.4314,9
1604520698.4335,-48
1604520698.4354,-36
1604520698.4374,-21
1604520698.4394,-48
1604520698.4414,-46
1604520698.4434,-36
1604520698.4454,-53
1604520698.4473,-67
1604520698.4480,-60
1604520698.4494,-53
1604520698.4514,-62
1604520698.4533,-60
1604520698.4553,-58
1604520698.4573,-60
1604520698.4594,-60
1604520698.4613,-58
1604520698.4633,-55
1604520698.4654,-50
1604520698.4675,-48
1604520698.4694,-48
1604520698.4713,-41
1604520698.4733,-38
1604520698.4754,-43
1604520698.4773,-46
1604520698.4779,-43
1604520698.4793,-48
1604520698.4813,-50
1604520698.4833,-50
1604520698.4853,-50
1604520698.4873,-53
1604520698.4893,-50
1604520698.4913,-50
1604520698.4933,-53
1604520698.4954,-50
1604520698.4974,-48
1604520698.4993,-46
1604520698.5013,-43
1604520698.5033,-43
1604520698.5055,-41
1604520698.5074,-31
1604520698.5080,-24
1604520698.5093,-24
1604520698.5113,-21
1604520698.5133,-16
1604520698.5154,-14
1604520698.5173,-12
1604520698.5193,-9
1604520698.5212,-4
1604520698.5233,0
1604520698.5254,0
1604520698.5273,0
1604520698.5293,2
1604520698.5313,0
1604520698.5333,-4
1604520698.5353,-4
1604520698.5373,-4
1604520698.5379,-7
1604520698.5393,-9
1604520698.5413,-9
1604520698.5433,-7
1604520698.5453,-12
1604520698.5474,-14
1604520698.5493,-12
1604520698.5513,-12
1604520698.5533,-12
1604520698.5553,-12
1604520698.5573,-12
1604520698.9613,-14
1604520698.9621,-14
1604520698.9628,-14
1604520698.9637,-12
1604520698.9658,-9
1604520698.9678,-12
1604520698.9697,-12
1604520698.9718,-4
1604520698.9738,-2
1604520698.9758,4
1604520698.9777,9
1604520698.9798,2
1604520698.9817,-7
1604520698.9837,-12
1604520698.9858,-16
1604520698.9878,-24
1604520698.9897,-31
1604520698.9917,-38
1604520698.9924,-38
1604520698.9937,-36
1604520698.9957,-33
1604520698.9964,-38
1604520698.9977,-36
1604520698.9997,-24
1604520699.0017,26
1604520699.0037,159
1604520699.0057,278
1604520699.0078,138
1604520699.0097,-96
1604520699.0117,-70
1604520699.0137,4
1604520699.0157,-60
1604520699.0177,-65
1604520699.0183,-31
1604520699.0197,-53
1604520699.0217,-60
1604520699.0237,-43
1604520699.0257,-43
1604520699.0276,-46
1604520699.0297,-36
1604520699.0317,-36
1604520699.0336,-38
1604520699.0356,-38
1604520699.0377,-33
1604520699.0397,-36
1604520699.0417,-46
1604520699.0437,-46
1604520699.0457,-38
1604520699.0476,-41
1604520699.0483,-43
1604520699.0497,-36
1604520699.0517,-29
1604520699.0537,-29
1604520699.0558,-31
1604520699.0577,-29
1604520699.0597,-29
1604520699.0617,-33
1604520699.0637,-38
1604520699.0657,-36
1604520699.0677,-38
1604520699.0696,-46
1604520699.0716,-46
1604520699.0736,-41
1604520699.0757,-41
1604520699.0777,-48
1604520699.0783,-46
1604520699.0797,-41
1604520699.0817,-43
1604520699.0836,-46
1604520699.0857,-38
1604520699.0876,-29
1604520699.0896,-26
1604520699.0916,-24
1604520699.5012,-19
1604520699.5020,-12
1604520699.5045,-7
1604520699.5071,-4
1604520699.5091,0
1604520699.5111,4
1604520699.5132,2
1604520699.5138,-2
1604520699.5151,0
1604520699.5171,4
1604520699.5191,7
1604520699.5211,4
1604520699.5231,-2
1604520699.5251,-7
1604520699.5271,-12
1604520699.5290,-12
1604520699.5310,-7
1604520699.5331,-7
1604520699.5350,-9
1604520699.5371,-7
1604520699.5391,-2
1604520699.5411,0
1604520699.5431,0
1604520699.5436,0
1604520699.5451,2
1604520699.5470,4
1604520699.5491,7
1604520699.5510,7
1604520699.5530,9
1604520699.5550,12
1604520699.5570,12
1604520699.5592,24
1604520699.5610,41
1604520699.5630,50
1604520699.5650,41
1604520699.5670,31
1604520699.5690,29
1604520699.5710,21
1604520699.5730,9
1604520699.5736,2
1604520699.5750,7
1604520699.5770,12
1604520699.5790,9
1604520699.5810,9
1604520699.5830,9
1604520699.5850,7
1604520699.5870,21
1604520699.5890,99
1604520699.5910,254
1604520699.5930,312
1604520699.5950,104
1604520699.5970,-58
1604520699.5990,24
1604520699.6010,41
1604520699.6030,-31
1604520699.6036,-12
1604520699.6050,9
1604520699.6070,-12
1604520699.6090,-9
1604520699.6110,4
1604520699.6130,0
1604520699.6150,-4
1604520699.6170,2
1604520699.6190,7
1604520699.6211,4
1604520699.6230,0
1604520699.6250,0
1604520699.6271,0
1604520699.6290,-2
1604520699.6310,-4
1604520699.6330,-7
1604520699.6336,-2
1604520699.6350,0
1604520700.0713,0
1604520700.0724,4
1604520700.0749,9
1604520700.0774,2
1604520700.0794,-7
1604520700.0815,-14
1604520700.0835,-14
1604520700.0854,-19
1604520700.0875,-21
1604520700.0897,-24
1604520700.0915,-26
1604520700.0921,-26
1604520700.0934,-26
1604520700.0955,-26
1604520700.0975,-24
1604520700.0994,-26
1604520700.1014,-26
1604520700.1034,-24
1604520700.1054,-19
1604520700.1074,-16
1604520700.1094,-14
1604520700.1114,-12
1604520700.1134,-7
1604520700.1154,-2
1604520700.1174,2
1604520700.1194,7
1604520700.1213,12
1604520700.1219,14
1604520700.1234,16
1604520700.1254,19
1604520700.1273,24
1604520700.1294,21
1604520700.1314,19
1604520700.1334,19
1604520700.1354,19
1604520700.1374,16
1604520700.1393,14
1604520700.1413,16
1604520700.1433,19
1604520700.1454,16
1604520700.1473,12
1604520700.1493,14
1604520700.1514,16
1604520700.1520,14
1604520700.1533,14
1604520700.1553,16
1604520700.1573,14
1604520700.1593,12
1604520700.1613,12
1604520700.1633,12
1604520700.1653,12
1604520700.1673,12
1604520700.1693,12
1604520700.1713,12
1604520700.1734,14
1604520700.1753,12
1604520700.1773,16
1604520700.1794,16
1604520700.1813,19
1604520700.1819,24
1604520700.1835,41
1604520700.1854,50
1604520700.1874,43
1604520700.1893,31
1604520700.1913,26
1604520700.1933,21
1604520700.1954,12
1604520700.1973,0
1604520700.1993,-2
1604520700.2014,0
1604520700.2033,-2
1604520700.2054,-4
1604520700.2073,-4
1604520700.6713,-7
1604520700.6724,7
1604520700.6741,77
1604520700.6765,215
1604520700.6785,266
1604520700.6805,89
1604520700.6825,-62
1604520700.6845,-9
1604520700.6865,0
1604520700.6885,-62
1604520700.6905,-46
1604520700.6925,-24
1604520700.6945,-46
1604520700.6965,-46
1604520700.6985,-36
1604520700.7005,-41
1604520700.7026,-43
1604520700.7045,-38
1604520700.7051,-36
1604520700.7065,-36
1604520700.7085,-33
1604520700.7105,-33
1604520700.7125,-33
1604520700.7144,-33
1604520700.7165,-31
1604520700.7185,-29
1604520700.7205,-29
1604520700.7225,-29
1604520700.7246,-26
1604520700.7264,-21
1604520700.7285,-19
1604520700.7305,-14
1604520700.7325,-12
1604520700.7345,-14
1604520700.7351,-12
1604520700.7365,-12
1604520700.7384,-14
1604520700.7404,-19
1604520700.7426,-21
1604520700.7445,-21
1604520700.7464,-21
1604520700.7484,-24
1604520700.7504,-24
1604520700.7524,-24
1604520700.7544,-24
1604520700.7564,-21
1604520700.7584,-16
1604520700.7604,-14
1604520700.7624,-12
1604520700.7644,-9
1604520700.7650,-4
1604520700.7664,-2
1604520700.7684,0
1604520700.7704,2
1604520700.7724,7
1604520700.7744,9
1604520700.7764,9
1604520700.7784,9
1604520700.7804,12
1604520700.7824,12
1604520700.7845,12
1604520700.7864,14
1604520700.7884,14
1604520700.7904,12
1604520700.7924,7
1604520700.7944,2
1604520700.7950,4
1604520700.7964,7
1604520700.7984,4
1604520700.8004,2
1604520700.8024,4
1604520700.8044,7
1604520700.8064,7
1604520701.2410,7
1604520701.2422,9
1604520701.2447,4
