Time,ECG
1604582366.0132,1927
1604582366.0156,4340
1604582366.0182,4629
1604582366.0208,5022
1604582366.0230,5987
1604582366.0250,6375
1604582366.0271,6610
1604582366.0290,7088
1604582366.0306,7416
1604582366.0327,7605
1604582366.0346,7874
1604582366.0366,8131
1604582366.0388,8298
1604582366.0409,8466
1604582366.0429,8660
1604582366.0449,8822
1604582366.0469,8943
1604582366.0490,9074
1604582366.0506,9205
1604582366.0526,9307
1604582366.0546,9404
1604582366.0566,9501
1604582366.0586,9569
1604582366.0606,9630
1604582366.0626,9688
1604582366.0646,9722
1604582366.0666,9751
1604582366.0686,9768
1604582366.0705,9768
1604582366.0725,9780
1604582366.0745,9816
1604582366.0765,9858
1604582366.0785,9911
1604582366.0805,9969
1604582366.0825,10020
1604582366.0845,10059
1604582366.0865,10086
1604582366.0886,10124
1604582366.0906,10156
1604582366.0926,10120
1604582366.0945,10086
1604582366.0965,10100
1604582366.0986,10110
1604582366.1006,10093
1604582366.1025,10086
1604582366.1045,10083
1604582366.1065,10069
1604582366.1086,10044
1604582366.1106,10025
1604582366.1125,10006
1604582366.1159,9979
1604582366.1166,9947
1604582366.1185,9918
1604582366.1205,9892
1604582366.1224,9846
1604582366.1244,9797
1604582366.1265,9768
1604582366.1285,9734
1604582366.1304,9678
1604582366.1325,9625
1604582366.1345,9586
1604582366.1364,9550
1604582366.1385,9506
1604582366.1404,9443
1604582366.1424,9380
1604582366.1444,9334
1604582366.1464,9280
1604582366.1485,9220
1604582366.1504,9164
1604582366.1524,9116
1604582366.1544,9050
1604582366.1564,8982
1604582366.1585,8926
1604582366.5809,8873
1604582366.5817,8808
1604582366.5842,8735
1604582366.5868,8672
1604582366.5888,8616
1604582366.5907,8551
1604582366.5929,8480
1604582366.5947,8422
1604582366.5968,8371
1604582366.5988,8279
1604582366.6008,8172
1604582366.6027,8114
1604582366.6048,8056
1604582366.6067,7968
1604582366.6087,7913
1604582366.6107,7893
1604582366.6127,7847
1604582366.6147,7765
1604582366.6167,7680
1604582366.6187,7593
1604582366.6207,7498
1604582366.6227,7406
1604582366.6247,7340
1604582366.6267,7282
1604582366.6288,7212
1604582366.6307,7134
1604582366.6327,7061
1604582366.6347,6964
1604582366.6368,6819
1604582366.6388,6831
1604582366.6407,7294
1604582366.6427,8049
1604582366.6449,8757
1604582366.6467,9069
1604582366.6487,7990
1604582366.6507,6067
1604582366.6527,5660
1604582366.6547,6259
1604582366.6568,6089
1604582366.6587,5783
1604582366.6607,5897
1604582366.6627,5866
1604582366.6647,5708
1604582366.6667,5701
1604582366.6687,5672
1604582366.6706,5565
1604582366.6727,5514
1604582366.6747,5488
1604582366.6766,5420
1604582366.6787,5359
1604582366.6806,5318
1604582366.6827,5269
1604582366.6847,5211
1604582366.6866,5160
1604582366.6887,5117
1604582366.6907,5066
1604582366.6927,5012
1604582366.6947,4959
1604582366.6967,4903
1604582366.6987,4840
1604582366.7007,4762
1604582366.7026,4680
1604582366.7047,4598
1604582366.7067,4503
1604582366.7087,4401
1604582366.7107,4311
1604582366.7127,4241
1604582366.7146,4183
1604582366.7166,4146
1604582366.7187,4127
1604582366.7206,4115
1604582366.7226,4091
1604582366.7247,4057
1604582367.1212,4023
1604582367.1220,3977
1604582367.1245,3921
1604582367.1271,3868
1604582367.1291,3817
1604582367.1311,3768
1604582367.1334,3722
1604582367.1351,3676
1604582367.1371,3632
1604582367.1391,3586
1604582367.1410,3530
1604582367.1430,3475
1604582367.1452,3438
1604582367.1470,3395
1604582367.1491,3341
1604582367.1510,3298
1604582367.1530,3259
1604582367.1550,3218
1604582367.1570,3174
1604582367.1590,3123
1604582367.1610,3075
1604582367.1630,3036
1604582367.1650,2997
1604582367.1670,2956
1604582367.1690,2907
1604582367.1710,2859
1604582367.1730,2820
1604582367.1750,2788
1604582367.1770,2754
1604582367.1790,2718
1604582367.1810,2679
1604582367.1830,2645
1604582367.1850,2609
1604582367.1870,2570
1604582367.1890,2536
1604582367.1910,2505
1604582367.1930,2471
1604582367.1950,2434
1604582367.1970,2403
1604582367.1990,2371
1604582367.2010,2342
1604582367.2030,2313
1604582367.2050,2282
1604582367.2070,2252
1604582367.2090,2223
1604582367.2110,2189
1604582367.2130,2163
1604582367.2150,2136
1604582367.2171,2107
1604582367.2191,2078
1604582367.2210,2056
1604582367.2230,2020
1604582367.2250,1969
1604582367.2270,1940
1604582367.2290,1942
1604582367.2310,1954
1604582367.2330,1952
1604582367.2351,1927
1604582367.2370,1894
1604582367.2389,1843
1604582367.2410,1784
1604582367.2430,1750
1604582367.2450,1733
1604582367.2470,1714
1604582367.2490,1685
1604582367.2510,1666
1604582367.2530,1644
1604582367.2550,1583
1604582367.2570,1474
1604582367.2590,1498
1604582367.2610,1957
1604582367.2630,2781
1604582367.2650,3640
1604582367.7210,4168
1604582367.7219,3283
1604582367.7239,1275
1604582367.7259,652
1604582367.7279,1316
1604582367.7299,1287
1604582367.7319,974
1604582367.7339,1110
1604582367.7358,1164
1604582367.7378,1057
1604582367.7398,1086
1604582367.7418,1125
1604582367.7438,1084
1604582367.7458,1079
1604582367.7478,1101
1604582367.7497,1091
1604582367.7518,1079
1604582367.7537,1079
1604582367.7557,1071
1604582367.7578,1064
1604582367.7597,1069
1604582367.7617,1081
1604582367.7637,1079
1604582367.7658,1067
1604582367.7677,1057
1604582367.7697,1054
1604582367.7717,1040
1604582367.7737,1016
1604582367.7757,989
1604582367.7778,955
1604582367.7797,909
1604582367.7817,853
1604582367.7838,809
1604582367.7857,773
1604582367.7877,751
1604582367.7899,751
1604582367.7917,776
1604582367.7937,807
1604582367.7957,831
1604582367.7978,846
1604582367.7998,853
1604582367.8017,846
1604582367.8037,834
1604582367.8057,829
1604582367.8078,824
1604582367.8097,814
1604582367.8117,805
1604582367.8137,793
1604582367.8157,788
1604582367.8177,783
1604582367.8197,776
1604582367.8217,768
1604582367.8237,761
1604582367.8258,751
1604582367.8277,739
1604582367.8298,734
1604582367.8318,729
1604582367.8337,717
1604582367.8357,705
1604582367.8377,693
1604582367.8398,683
1604582367.8418,676
1604582367.8437,671
1604582367.8457,662
1604582367.8477,645
1604582367.8498,632
1604582367.8517,628
1604582367.8537,620
1604582367.8557,618
1604582367.8578,618
1604582367.8597,613
1604582367.8618,601
1604582367.8637,591
1604582368.2309,586
1604582368.2316,579
1604582368.2341,569
1604582368.2367,567
1604582368.2387,562
1604582368.2407,550
1604582368.2427,545
1604582368.2447,548
1604582368.2467,543
1604582368.2487,523
1604582368.2506,506
1604582368.2526,497
1604582368.2547,482
1604582368.2568,480
1604582368.2587,511
1604582368.2606,540
1604582368.2626,533
1604582368.2646,516
1604582368.2666,502
1604582368.2686,468
1604582368.2706,429
1604582368.2726,421
1604582368.2746,426
1604582368.2766,419
1604582368.2787,414
1604582368.2806,417
1604582368.2827,412
1604582368.2846,371
1604582368.2866,300
1604582368.2887,414
1604582368.2906,982
1604582368.2926,1828
1604582368.2946,2614
1604582368.2967,2873
1604582368.2986,1651
1604582368.3006,-128
1604582368.3026,-242
1604582368.3046,385
1604582368.3066,191
1604582368.3086,7
1604582368.3106,203
1604582368.3126,206
1604582368.3146,121
1604582368.3166,184
1604582368.3187,223
1604582368.3207,201
1604582368.3227,218
1604582368.3246,240
1604582368.3266,237
1604582368.3286,242
1604582368.3306,257
1604582368.3326,266
1604582368.3346,274
1604582368.3367,286
1604582368.3387,300
1604582368.3406,307
1604582368.3426,315
1604582368.3447,322
1604582368.3466,324
1604582368.3486,317
1604582368.3506,305
1604582368.3526,281
1604582368.3546,249
1604582368.3566,215
1604582368.3588,177
1604582368.3607,143
1604582368.3626,116
1604582368.3646,109
1604582368.3666,130
1604582368.3687,172
1604582368.3706,203
1604582368.3726,225
1604582368.3746,244
1604582368.8009,257
1604582368.8018,254
1604582368.8028,247
1604582368.8048,249
1604582368.8068,249
1604582368.8087,237
1604582368.8108,227
1604582368.8128,230
1604582368.8147,227
1604582368.8167,218
1604582368.8187,220
1604582368.8208,225
1604582368.8227,225
1604582368.8247,223
1604582368.8267,220
1604582368.8287,220
1604582368.8307,218
1604582368.8326,210
1604582368.8346,206
1604582368.8367,203
1604582368.8388,203
1604582368.8407,201
1604582368.8427,196
1604582368.8447,191
1604582368.8467,184
1604582368.8487,179
1604582368.8507,181
1604582368.8527,181
1604582368.8547,179
1604582368.8566,177
1604582368.8587,179
1604582368.8608,179
1604582368.8627,177
1604582368.8647,177
1604582368.8667,181
1604582368.8687,174
1604582368.8708,160
1604582368.8727,155
1604582368.8747,164
1604582368.8768,191
1604582368.8787,220
1604582368.8807,227
1604582368.8829,227
1604582368.8847,218
1604582368.8867,184
1604582368.8888,150
1604582368.8906,145
1604582368.8927,152
1604582368.8947,152
1604582368.8967,150
1604582368.8987,150
1604582368.9007,147
1604582368.9027,116
1604582368.9047,48
1604582368.9067,135
1604582368.9087,645
1604582368.9107,1481
1604582368.9127,2313
1604582368.9147,2701
1604582368.9167,1670
1604582368.9187,-167
1604582368.9207,-533
1604582368.9227,97
1604582368.9247,2
1604582368.9267,-237
1604582368.9287,-65
1604582368.9307,-14
1604582368.9327,-99
1604582368.9347,-58
1604582368.9367,-9
1604582368.9387,-24
1604582368.9407,-9
1604582368.9427,14
1604582369.4010,19
1604582369.4017,31
1604582369.4032,48
1604582369.4051,53
1604582369.4072,67
1604582369.4091,87
1604582369.4111,94
1604582369.4131,97
1604582369.4151,104
1604582369.4171,109
1604582369.4191,113
1604582369.4211,113
1604582369.4230,104
1604582369.4250,82
1604582369.4271,50
1604582369.4291,12
1604582369.4310,-21
1604582369.4330,-48
1604582369.4350,-70
1604582369.4370,-67
1604582369.4393,-36
1604582369.4411,0
1604582369.4430,38
1604582369.4450,77
1604582369.4470,92
1604582369.4491,92
1604582369.4510,94
1604582369.4531,104
1604582369.4550,111
1604582369.4570,118
1604582369.4590,123
1604582369.4610,123
1604582369.4631,118
1604582369.4650,118
1604582369.4670,118
1604582369.4691,123
1604582369.4710,128
1604582369.4730,128
1604582369.4750,123
1604582369.4770,126
1604582369.4791,126
1604582369.4810,118
1604582369.4830,118
1604582369.4850,121
1604582369.4870,118
1604582369.4890,116
1604582369.4910,109
1604582369.4929,101
1604582369.4950,104
1604582369.4970,106
1604582369.4991,101
1604582369.5010,101
1604582369.5030,99
1604582369.5050,94
1604582369.5070,101
1604582369.5090,106
1604582369.5111,97
1604582369.5130,87
1604582369.5150,92
1604582369.5170,109
1604582369.5190,133
1604582369.5210,152
1604582369.5230,147
1604582369.5250,138
1604582369.5270,128
1604582369.5291,94
1604582369.5310,60
1604582369.5330,60
1604582369.5350,70
1604582369.5370,70
1604582369.5390,72
1604582369.5412,75
1604582369.5430,65
1604582369.9408,26
1604582369.9417,0
1604582369.9442,242
1604582369.9470,926
1604582369.9489,1770
1604582369.9508,2432
1604582369.9529,2332
1604582369.9548,809
1604582369.9568,-647
1604582369.9587,-383
1604582369.9607,92
1604582369.9628,-213
1604582369.9647,-278
1604582369.9667,-89
1604582369.9688,-130
1604582369.9707,-174
1604582369.9727,-99
1604582369.9747,-80
1604582369.9768,-92
1604582369.9788,-63
1604582369.9807,-41
1604582369.9827,-33
1604582369.9847,-21
1604582369.9867,-14
1604582369.9888,0
1604582369.9907,19
1604582369.9927,26
1604582369.9948,33
1604582369.9967,53
1604582369.9987,70
1604582370.0007,77
1604582370.0027,72
1604582370.0047,60
1604582370.0067,41
1604582370.0087,9
1604582370.0107,-26
1604582370.0128,-60
1604582370.0147,-99
1604582370.0167,-133
1604582370.0187,-143
1604582370.0208,-118
1604582370.0227,-72
1604582370.0247,-31
1604582370.0267,0
1604582370.0288,26
1604582370.0307,43
1604582370.0327,46
1604582370.0347,53
1604582370.0367,58
1604582370.0390,58
1604582370.0408,63
1604582370.0426,72
1604582370.0448,75
1604582370.0467,72
1604582370.0487,63
1604582370.0507,60
1604582370.0527,65
1604582370.0547,70
1604582370.0567,67
1604582370.0587,65
1604582370.0608,67
1604582370.0628,65
1604582370.0647,58
1604582370.0667,55
1604582370.0687,55
1604582370.0708,50
1604582370.0727,53
1604582370.0747,50
1604582370.0767,50
1604582370.0788,50
1604582370.0807,48
1604582370.0827,48
1604582370.0847,50
1604582370.5097,41
1604582370.5106,31
1604582370.5123,31
1604582370.5142,31
1604582370.5163,38
1604582370.5183,65
1604582370.5202,97
1604582370.5222,109
1604582370.5242,97
1604582370.5262,77
1604582370.5283,50
1604582370.5302,29
1604582370.5322,21
1604582370.5342,26
1604582370.5362,24
1604582370.5383,16
1604582370.5402,12
1604582370.5422,9
1604582370.5442,-16
1604582370.5463,-77
1604582370.5482,24
1604582370.5502,562
1604582370.5523,1406
1604582370.5543,2187
1604582370.5562,2522
1604582370.5583,1467
1604582370.5601,-400
1604582370.5625,-729
1604582370.5642,-31
1604582370.5662,-126
1604582370.5683,-368
1604582370.5702,-179
1604582370.5722,-135
1604582370.5741,-223
1604582370.5762,-164
1604582370.5783,-116
1604582370.5789,-140
1604582370.5813,-126
1604582370.5832,-92
1604582370.5852,-87
1604582370.5872,-77
1604582370.5892,-60
1604582370.5912,-46
1604582370.5932,-36
1604582370.5953,-24
1604582370.5972,-16
1604582370.5992,-12
1604582370.6012,-9
1604582370.6032,-4
1604582370.6052,-2
1604582370.6072,-4
1604582370.6092,-19
1604582370.6099,-46
1604582370.6113,-75
1604582370.6132,-109
1604582370.6152,-147
1604582370.6172,-177
1604582370.6192,-196
1604582370.6212,-191
1604582370.6232,-155
1604582370.6252,-111
1604582370.6272,-72
1604582370.6292,-38
1604582370.6312,-19
1604582370.6332,-12
1604582370.6352,-4
1604582370.6372,4
1604582370.6379,7
1604582370.6402,9
1604582370.6422,12
1604582370.6443,14
1604582370.6461,16
1604582370.6482,16
1604582371.0508,19
1604582371.0517,19
1604582371.0539,19
1604582371.0557,19
1604582371.0577,16
1604582371.0598,4
1604582371.0617,-14
1604582371.0637,-19
1604582371.0657,-12
1604582371.0677,-16
1604582371.0683,-29
1604582371.0696,-29
1604582371.0716,-26
1604582371.0736,-29
1604582371.0756,-29
1604582371.0777,-24
1604582371.0796,-21
1604582371.0816,-24
1604582371.0836,-24
1604582371.0856,-21
1604582371.0877,-26
1604582371.0896,-31
1604582371.0916,-24
1604582371.0935,4
1604582371.0957,38
1604582371.0976,58
1604582371.0983,63
1604582371.0996,60
1604582371.1016,46
1604582371.1036,12
1604582371.1056,-12
1604582371.1076,-4
1604582371.1096,4
1604582371.1117,2
1604582371.1136,-4
1604582371.1156,-4
1604582371.1177,-19
1604582371.1196,-89
1604582371.1216,-121
1604582371.1236,181
1604582371.1256,928
1604582371.1277,1818
1604582371.1283,2573
1604582371.1296,2308
1604582371.1316,460
1604582371.1336,-846
1604582371.1356,-332
1604582371.1376,14
1604582371.1396,-358
1604582371.1416,-334
1604582371.1436,-152
1604582371.1457,-232
1604582371.1477,-257
1604582371.1496,-174
1604582371.1517,-169
1604582371.1536,-179
1604582371.1557,-145
1604582371.1578,-126
1604582371.1583,-118
1604582371.1596,-99
1604582371.1617,-87
1604582371.1636,-77
1604582371.1656,-55
1604582371.1677,-33
1604582371.1696,-21
1604582371.1716,-12
1604582371.1736,-2
1604582371.1756,2
1604582371.1777,-2
1604582371.1797,-12
1604582371.1816,-26
1604582371.1836,-50
1604582371.1856,-84
1604582371.5909,-118
1604582371.5919,-150
1604582371.5943,-172
1604582371.5971,-172
1604582371.5989,-147
1604582371.6009,-111
1604582371.6029,-75
1604582371.6049,-48
1604582371.6069,-26
1604582371.6088,-4
1604582371.6109,7
1604582371.6129,4
1604582371.6148,7
1604582371.6168,14
1604582371.6177,16
1604582371.6199,24
1604582371.6218,26
1604582371.6238,24
1604582371.6258,26
1604582371.6280,31
1604582371.6299,31
1604582371.6318,29
1604582371.6340,24
1604582371.6359,21
1604582371.6378,26
1604582371.6398,36
1604582371.6418,36
1604582371.6439,29
1604582371.6460,24
1604582371.6479,26
1604582371.6485,26
1604582371.6499,19
1604582371.6518,14
1604582371.6538,14
1604582371.6560,12
1604582371.6579,7
1604582371.6600,12
1604582371.6619,26
1604582371.6638,33
1604582371.6659,31
1604582371.6679,24
1604582371.6698,12
1604582371.6718,12
1604582371.6738,31
1604582371.6758,63
1604582371.6766,92
1604582371.6779,101
1604582371.6798,99
1604582371.6818,92
1604582371.6838,65
1604582371.6858,36
1604582371.6879,29
1604582371.6899,38
1604582371.6918,36
1604582371.6939,31
1604582371.6959,31
1604582371.6979,33
1604582371.6998,12
1604582371.7018,-53
1604582371.7038,29
1604582371.7058,548
1604582371.7065,1394
1604582371.7089,2223
1604582371.7109,2655
1604582371.7129,1651
1604582371.7148,-303
1604582371.7168,-737
1604582371.7189,-24
1604582371.7209,-94
1604582371.7229,-368
1604582371.7248,-184
1604582371.7269,-126
1604582371.7289,-220
1604582372.1614,-174
1604582372.1624,-121
1604582372.1649,-140
1604582372.1660,-128
1604582372.1675,-106
1604582372.1694,-111
1604582372.1715,-99
1604582372.1735,-75
1604582372.1754,-58
1604582372.1776,-41
1604582372.1795,-26
1604582372.1813,-19
1604582372.1835,-12
1604582372.1854,0
1604582372.1874,7
1604582372.1894,2
1604582372.1915,-7
1604582372.1934,-21
1604582372.1954,-53
1604582372.1973,-94
1604582372.1993,-126
1604582372.2013,-160
1604582372.2034,-196
1604582372.2054,-215
1604582372.2073,-210
1604582372.2093,-179
1604582372.2115,-123
1604582372.2133,-75
1604582372.2153,-48
1604582372.2173,-31
1604582372.2194,-12
1604582372.2213,-4
1604582372.2233,-2
1604582372.2253,9
1604582372.2274,12
1604582372.2294,7
1604582372.2313,12
1604582372.2334,19
1604582372.2353,24
1604582372.2374,26
1604582372.2393,24
1604582372.2413,26
1604582372.2433,31
1604582372.2454,24
1604582372.2473,24
1604582372.2494,26
1604582372.2514,16
1604582372.2534,14
1604582372.2553,26
1604582372.2573,29
1604582372.2593,24
1604582372.2615,19
1604582372.2633,16
1604582372.2654,19
1604582372.2674,24
1604582372.2694,24
1604582372.2714,26
1604582372.2733,24
1604582372.2753,16
1604582372.2775,16
1604582372.2794,26
1604582372.2813,31
1604582372.2833,26
1604582372.2855,21
1604582372.2874,24
1604582372.2893,38
1604582372.2914,67
1604582372.2991,99
1604582372.3003,109
1604582372.3023,92
1604582372.3044,72
1604582372.3063,48
1604582372.3083,29
1604582372.7609,29
1604582372.7618,33
1604582372.7643,29
1604582372.7669,29
1604582372.7689,36
1604582372.7710,16
1604582372.7730,-46
1604582372.7749,-89
1604582372.7768,140
1604582372.7790,812
1604582372.7809,1673
1604582372.7829,2413
1604582372.7849,2451
1604582372.7869,923
1604582372.7888,-744
1604582372.7908,-540
1604582372.7928,38
1604582372.7950,-269
1604582372.7969,-366
1604582372.7989,-138
1604582372.8008,-179
1604582372.8030,-247
1604582372.8048,-164
1604582372.8068,-138
1604582372.8088,-157
1604582372.8109,-123
1604582372.8129,-99
1604582372.8148,-99
1604582372.8168,-82
1604582372.8189,-60
1604582372.8208,-46
1604582372.8228,-31
1604582372.8248,-16
1604582372.8268,-7
1604582372.8289,2
1604582372.8308,12
1604582372.8328,14
1604582372.8348,9
1604582372.8368,-4
1604582372.8388,-29
1604582372.8408,-60
1604582372.8430,-97
1604582372.8449,-140
1604582372.8468,-181
1604582372.8488,-213
1604582372.8508,-225
1604582372.8528,-201
1604582372.8548,-157
1604582372.8568,-111
1604582372.8588,-65
1604582372.8609,-33
1604582372.8629,-21
1604582372.8648,-12
1604582372.8668,-7
1604582372.8688,-2
1604582372.8708,-2
1604582372.8728,-7
1604582372.8748,-9
1604582372.8768,-2
1604582372.8789,0
1604582372.8808,-2
1604582372.8828,-2
1604582372.8848,0
1604582372.8868,0
1604582372.8888,0
1604582372.8908,0
1604582372.8928,0
1604582372.8949,-2
1604582372.8968,-7
1604582372.8988,-12
1604582372.9008,-12
1604582372.9028,-12
1604582372.9048,-16
1604582373.3306,-19
1604582373.3315,-24
1604582373.3340,-29
1604582373.3365,-29
1604582373.3385,-21
1604582373.3405,-21
1604582373.3427,-24
1604582373.3447,-26
1604582373.3466,-26
1604582373.3486,-31
1604582373.3505,-48
1604582373.3525,-55
1604582373.3545,-46
1604582373.3565,-43
1604582373.3585,-46
1604582373.3605,-41
1604582373.3626,-36
1604582373.3645,-38
1604582373.3666,-33
1604582373.3687,-31
1604582373.3705,-36
1604582373.3725,-41
1604582373.3745,-36
1604582373.3765,-12
1604582373.3786,26
1604582373.3805,50
1604582373.3825,55
1604582373.3845,46
1604582373.3865,21
1604582373.3885,-9
1604582373.3905,-19
1604582373.3925,-14
1604582373.3946,-12
1604582373.3965,-16
1604582373.3985,-16
1604582373.4004,-12
1604582373.4025,-36
1604582373.4044,-116
1604582373.4064,-99
1604582373.4085,329
1604582373.4105,1156
1604582373.4126,2080
1604582373.4144,2786
1604582373.4164,2121
1604582373.4185,7
1604582373.4204,-902
1604582373.4224,-177
1604582373.4244,-60
1604582373.4264,-426
1604582373.4286,-288
1604582373.4305,-157
1604582373.4325,-261
1604582373.4344,-237
1604582373.4365,-162
1604582373.4385,-179
1604582373.4404,-177
1604582373.4425,-140
1604582373.4446,-130
1604582373.4465,-123
1604582373.4485,-99
1604582373.4504,-84
1604582373.4524,-75
1604582373.4545,-58
1604582373.4564,-41
1604582373.4584,-31
1604582373.4605,-24
1604582373.4626,-9
1604582373.4644,-4
1604582373.4664,-9
1604582373.4685,-19
1604582373.4707,-33
1604582373.4725,-60
1604582373.4746,-97
1604582373.8707,-133
1604582373.8715,-164
1604582373.8740,-196
1604582373.8767,-208
1604582373.8786,-189
1604582373.8806,-145
1604582373.8827,-104
1604582373.8846,-77
1604582373.8866,-58
1604582373.8885,-36
1604582373.8905,-24
1604582373.8925,-31
1604582373.8947,-41
1604582373.8966,-41
1604582373.8986,-36
1604582373.9005,-41
1604582373.9025,-41
1604582373.9045,-33
1604582373.9065,-33
1604582373.9085,-36
1604582373.9105,-33
1604582373.9126,-26
1604582373.9145,-26
1604582373.9165,-31
1604582373.9186,-36
1604582373.9205,-31
1604582373.9225,-29
1604582373.9245,-31
1604582373.9265,-31
1604582373.9286,-31
1604582373.9305,-31
1604582373.9325,-33
1604582373.9345,-31
1604582373.9365,-26
1604582373.9385,-29
1604582373.9405,-29
1604582373.9425,-26
1604582373.9446,-26
1604582373.9466,-24
1604582373.9487,-21
1604582373.9506,-21
1604582373.9525,-19
1604582373.9545,-14
1604582373.9565,-12
1604582373.9585,-9
1604582373.9606,-7
1604582373.9626,-7
1604582373.9645,-2
1604582373.9667,0
1604582373.9685,2
1604582373.9705,2
1604582373.9725,4
1604582373.9745,9
1604582373.9766,14
1604582373.9786,12
1604582373.9805,7
1604582373.9825,0
1604582373.9845,-9
1604582373.9865,-7
1604582373.9885,16
1604582373.9905,55
1604582373.9925,80
1604582373.9946,87
1604582373.9965,84
1604582373.9987,63
1604582374.0005,24
1604582374.0025,7
1604582374.0045,16
1604582374.0065,19
1604582374.0085,9
1604582374.0106,7
1604582374.0126,7
1604582374.0145,-9
1604582374.4406,-75
1604582374.4415,-87
1604582374.4440,269
1604582374.4467,1054
1604582374.4486,1964
1604582374.4506,2716
1604582374.4527,2330
1604582374.4546,361
1604582374.4566,-863
1604582374.4585,-291
1604582374.4606,-12
1604582374.4626,-380
1604582374.4645,-320
1604582374.4665,-155
1604582374.4686,-242
1604582374.4705,-252
1604582374.4725,-174
1604582374.4745,-174
1604582374.4766,-181
1604582374.4786,-145
1604582374.4805,-126
1604582374.4825,-116
1604582374.4845,-94
1604582374.4865,-84
1604582374.4885,-80
1604582374.4905,-63
1604582374.4927,-43
1604582374.4947,-33
1604582374.4966,-24
1604582374.4986,-12
1604582374.5005,-4
1604582374.5025,-2
1604582374.5045,-7
1604582374.5065,-19
1604582374.5085,-43
1604582374.5105,-75
1604582374.5126,-109
1604582374.5145,-145
1604582374.5165,-177
1604582374.5185,-191
1604582374.5205,-177
1604582374.5225,-143
1604582374.5245,-109
1604582374.5265,-75
1604582374.5286,-41
1604582374.5305,-16
1604582374.5325,-12
1604582374.5345,-16
1604582374.5365,-16
1604582374.5385,-21
1604582374.5405,-24
1604582374.5425,-21
1604582374.5446,-14
1604582374.5465,-16
1604582374.5485,-14
1604582374.5505,-9
1604582374.5525,-7
1604582374.5545,0
1604582374.5565,4
1604582374.5585,0
1604582374.5606,-4
1604582374.5625,-7
1604582374.5645,-7
1604582374.5665,-2
1604582374.5685,-2
1604582374.5705,-4
1604582374.5725,-4
1604582374.5745,-4
1604582374.5765,-2
1604582374.5786,0
1604582374.5805,-4
1604582374.5825,-2
1604582374.5846,4
1604582374.9806,4
1604582374.9815,9
1604582374.9840,7
1604582374.9866,4
1604582374.9888,14
1604582374.9906,16
1604582374.9927,9
1604582374.9947,9
1604582374.9965,19
1604582374.9986,16
1604582375.0005,0
1604582375.0025,-7
1604582375.0045,2
1604582375.0065,12
1604582375.0085,12
1604582375.0107,12
1604582375.0126,14
1604582375.0145,14
1604582375.0165,16
1604582375.0186,21
1604582375.0205,31
1604582375.0225,31
1604582375.0245,19
1604582375.0265,9
1604582375.0286,19
1604582375.0306,50
1604582375.0325,87
1604582375.0345,104
1604582375.0365,99
1604582375.0385,87
1604582375.0405,58
1604582375.0425,33
1604582375.0446,31
1604582375.0465,38
1604582375.0485,41
1604582375.0505,46
1604582375.0525,46
1604582375.0545,33
1604582375.0567,-4
1604582375.0585,-65
1604582375.0606,70
1604582375.0626,659
1604582375.0645,1527
1604582375.0665,2330
1604582375.0685,2653
1604582375.0705,1486
1604582375.0725,-455
1604582375.0746,-739
1604582375.0766,-26
1604582375.0786,-157
1604582375.0805,-383
1604582375.0825,-169
1604582375.0845,-138
1604582375.0865,-242
1604582375.0885,-194
1604582375.0907,-143
1604582375.0925,-160
1604582375.0946,-140
1604582375.0965,-106
1604582375.0985,-106
1604582375.1006,-101
1604582375.1025,-80
1604582375.1045,-60
1604582375.1066,-53
1604582375.1086,-41
1604582375.1106,-26
1604582375.1126,-16
1604582375.1145,-4
1604582375.1165,7
1604582375.1186,9
1604582375.1205,0
1604582375.1225,-14
1604582375.1245,-33
1604582375.5206,-60
1604582375.5215,-94
1604582375.5229,-130
1604582375.5250,-169
1604582375.5270,-196
1604582375.5289,-203
1604582375.5310,-196
1604582375.5328,-167
1604582375.5348,-121
1604582375.5369,-84
1604582375.5389,-60
1604582375.5409,-38
1604582375.5428,-24
1604582375.5449,-24
1604582375.5469,-26
1604582375.5489,-24
1604582375.5509,-16
1604582375.5529,-12
1604582375.5548,-9
1604582375.5568,-4
1604582375.5589,-2
1604582375.5609,-2
1604582375.5628,4
1604582375.5648,9
1604582375.5668,14
1604582375.5688,14
1604582375.5709,14
1604582375.5729,12
1604582375.5748,7
1604582375.5768,2
1604582375.5789,-2
1604582375.5809,-2
1604582375.5828,-2
1604582375.5851,-4
1604582375.5869,-4
1604582375.5888,-2
1604582375.5908,-7
1604582375.5929,-9
1604582375.5948,-7
1604582375.5968,-4
1604582375.5989,-2
1604582375.6009,0
1604582375.6029,0
1604582375.6049,0
1604582375.6069,2
1604582375.6088,4
1604582375.6109,-2
1604582375.6128,-4
1604582375.6148,0
1604582375.6169,4
1604582375.6188,2
1604582375.6209,4
1604582375.6228,7
1604582375.6248,4
1604582375.6268,4
1604582375.6289,9
1604582375.6308,14
1604582375.6328,14
1604582375.6349,9
1604582375.6369,9
1604582375.6389,9
1604582375.6409,4
1604582375.6429,0
1604582375.6449,2
1604582375.6468,2
1604582375.6489,-9
1604582375.6508,-14
1604582375.6529,-2
1604582375.6548,29
1604582375.6568,58
1604582375.6589,70
1604582375.6609,70
1604582375.6628,58
1604582376.1506,26
1604582376.1515,0
1604582376.1539,-2
1604582376.1566,-4
1604582376.1586,-19
1604582376.1606,-29
1604582376.1628,-21
1604582376.1646,-26
1604582376.1666,-65
1604582376.1686,-147
1604582376.1705,-84
1604582376.1727,421
1604582376.1747,1287
1604582376.1766,2199
1604582376.1785,2803
1604582376.1805,1908
1604582376.1825,-235
1604582376.1844,-902
1604582376.1865,-128
1604582376.1885,-128
1604582376.1905,-470
1604582376.1924,-286
1604582376.1946,-186
1604582376.1965,-295
1604582376.1985,-259
1604582376.2004,-189
1604582376.2024,-203
1604582376.2044,-198
1604582376.2064,-162
1604582376.2085,-152
1604582376.2105,-143
1604582376.2125,-123
1604582376.2144,-109
1604582376.2164,-92
1604582376.2185,-72
1604582376.2205,-58
1604582376.2225,-46
1604582376.2245,-31
1604582376.2265,-21
1604582376.2286,-21
1604582376.2304,-21
1604582376.2325,-19
1604582376.2345,-26
1604582376.2365,-50
1604582376.2384,-77
1604582376.2404,-106
1604582376.2425,-138
1604582376.2445,-169
1604582376.2464,-181
1604582376.2485,-172
1604582376.2505,-147
1604582376.2524,-116
1604582376.2544,-84
1604582376.2565,-60
1604582376.2585,-46
1604582376.2605,-33
1604582376.2625,-31
1604582376.2645,-38
1604582376.2665,-41
1604582376.2685,-38
1604582376.2705,-36
1604582376.2725,-33
1604582376.2747,-31
1604582376.2765,-29
1604582376.2785,-21
1604582376.2806,-12
1604582376.2825,-9
1604582376.2844,-9
1604582376.2864,-7
1604582376.2884,-2
1604582376.2905,-2
1604582376.2924,-4
1604582376.2944,-2
1604582376.6903,-2
1604582376.6911,-7
1604582376.6934,-9
1604582376.6961,-9
1604582376.6981,-9
1604582376.7000,-12
1604582376.7021,-14
1604582376.7041,-16
1604582376.7060,-21
1604582376.7080,-29
1604582376.7100,-38
1604582376.7121,-41
1604582376.7140,-38
1604582376.7161,-50
1604582376.7181,-60
1604582376.7200,-53
1604582376.7220,-43
1604582376.7241,-43
1604582376.7260,-43
1604582376.7281,-38
1604582376.7300,-36
1604582376.7321,-38
1604582376.7340,-38
1604582376.7361,-36
1604582376.7381,-33
1604582376.7401,-41
1604582376.7421,-41
1604582376.7441,-33
1604582376.7461,-31
1604582376.7481,-33
1604582376.7500,-31
1604582376.7521,-31
1604582376.7540,-36
1604582376.7561,-41
1604582376.7580,-33
1604582376.7601,-26
1604582376.7620,-36
1604582376.7641,-48
1604582376.7660,-48
1604582376.7681,-26
1604582376.7703,12
1604582376.7721,38
1604582376.7740,46
1604582376.7761,38
1604582376.7781,14
1604582376.7800,-14
1604582376.7821,-29
1604582376.7840,-24
1604582376.7861,-19
1604582376.7882,-19
1604582376.7901,-16
1604582376.7920,-12
1604582376.7940,-21
1604582376.7960,-72
1604582376.7981,-140
1604582376.8000,36
1604582376.8020,676
1604582376.8040,1578
1604582376.8047,2483
1604582376.8060,2737
1604582376.8080,1222
1604582376.8100,-686
1604582376.8120,-630
1604582376.8140,19
1604582376.8160,-269
1604582376.8181,-421
1604582376.8200,-189
1604582376.8220,-206
1604582376.8240,-286
1604582376.8260,-206
1604582376.8281,-169
1604582376.8300,-194
1604582376.8320,-167
1604582377.2304,-138
1604582377.2313,-138
1604582377.2338,-128
1604582377.2364,-106
1604582377.2383,-89
1604582377.2403,-75
1604582377.2424,-65
1604582377.2443,-55
1604582377.2463,-36
1604582377.2483,-24
1604582377.2503,-24
1604582377.2523,-26
1604582377.2543,-19
1604582377.2563,-21
1604582377.2583,-41
1604582377.2590,-58
1604582377.2613,-77
1604582377.2633,-109
1604582377.2654,-143
1604582377.2675,-167
1604582377.2693,-169
1604582377.2713,-155
1604582377.2733,-130
1604582377.2753,-106
1604582377.2773,-80
1604582377.2794,-65
1604582377.2813,-58
1604582377.2833,-53
1604582377.2853,-53
1604582377.2873,-60
1604582377.2893,-60
1604582377.2900,-63
1604582377.2913,-63
1604582377.2933,-63
1604582377.2953,-58
1604582377.2973,-50
1604582377.2993,-41
1604582377.3013,-36
1604582377.3033,-36
1604582377.3053,-29
1604582377.3075,-21
1604582377.3093,-19
1604582377.3113,-24
1604582377.3133,-29
1604582377.3153,-29
1604582377.3173,-29
1604582377.3180,-36
1604582377.3203,-43
1604582377.3223,-41
1604582377.3243,-36
1604582377.3264,-36
1604582377.3283,-36
1604582377.3303,-33
1604582377.3323,-36
1604582377.3343,-33
1604582377.3363,-29
1604582377.3383,-31
1604582377.3403,-33
1604582377.3423,-31
1604582377.3443,-21
1604582377.3463,-19
1604582377.3483,-21
1604582377.3490,-21
1604582377.3513,-16
1604582377.3533,-14
1604582377.3552,-14
1604582377.3573,-14
1604582377.3593,-14
1604582377.3613,-9
1604582377.3634,-4
1604582377.3653,-4
1604582377.3673,-7
1604582377.3693,-4
1604582377.8006,0
1604582377.8016,0
1604582377.8032,0
1604582377.8056,4
1604582377.8076,7
1604582377.8095,4
1604582377.8116,4
1604582377.8136,-2
1604582377.8157,-12
1604582377.8176,-9
1604582377.8197,-4
1604582377.8215,-14
1604582377.8235,-21
1604582377.8256,-9
1604582377.8276,26
1604582377.8295,58
1604582377.8315,70
1604582377.8335,63
1604582377.8342,38
1604582377.8365,4
1604582377.8385,-12
1604582377.8405,-4
1604582377.8425,0
1604582377.8445,-4
1604582377.8465,-7
1604582377.8485,-7
1604582377.8505,-12
1604582377.8525,-46
1604582377.8545,-113
1604582377.8565,0
1604582377.8585,574
1604582377.8605,1457
1604582377.8625,2313
1604582377.8645,2711
1604582377.8652,1561
1604582377.8675,-443
1604582377.8695,-771
1604582377.8715,-48
1604582377.8735,-177
1604582377.8755,-421
1604582377.8775,-218
1604582377.8795,-184
1604582377.8815,-278
1604582377.8835,-218
1604582377.8855,-164
1604582377.8875,-181
1604582377.8895,-164
1604582377.8917,-135
1604582377.8935,-135
1604582377.8955,-126
1604582377.8962,-104
1604582377.8975,-89
1604582377.8995,-80
1604582377.9015,-65
1604582377.9035,-48
1604582377.9055,-36
1604582377.9075,-31
1604582377.9096,-29
1604582377.9115,-19
1604582377.9135,-9
1604582377.9155,-12
1604582377.9176,-29
1604582377.9195,-53
1604582377.9215,-77
1604582377.9235,-106
1604582377.9255,-145
1604582377.9262,-181
1604582377.9285,-203
1604582377.9305,-196
1604582377.9325,-169
1604582377.9345,-138
1604582377.9365,-113
1604582377.9385,-92
1604582378.3403,-70
1604582378.3412,-63
1604582378.3436,-67
1604582378.3462,-70
1604582378.3484,-67
1604582378.3502,-67
1604582378.3522,-65
1604582378.3529,-60
1604582378.3552,-63
1604582378.3572,-72
1604582378.3591,-75
1604582378.3611,-60
1604582378.3631,-50
1604582378.3651,-55
1604582378.3672,-58
1604582378.3691,-50
1604582378.3711,-43
1604582378.3731,-41
1604582378.3751,-36
1604582378.3773,-36
1604582378.3791,-48
1604582378.3811,-53
1604582378.3818,-46
1604582378.3842,-41
1604582378.3861,-43
1604582378.3883,-36
1604582378.3902,-33
1604582378.3921,-33
1604582378.3941,-33
1604582378.3961,-31
1604582378.3982,-31
1604582378.4001,-29
1604582378.4021,-31
1604582378.4041,-31
1604582378.4062,-29
1604582378.4082,-21
1604582378.4101,-16
1604582378.4121,-14
1604582378.4141,-14
1604582378.4161,-12
1604582378.4182,-7
1604582378.4201,-7
1604582378.4221,-9
1604582378.4241,-9
1604582378.4261,-4
1604582378.4282,0
1604582378.4302,2
1604582378.4321,-7
1604582378.4341,-7
1604582378.4361,-2
1604582378.4382,-2
1604582378.4401,-4
1604582378.4421,0
1604582378.4441,7
1604582378.4461,4
1604582378.4482,-2
1604582378.4501,2
1604582378.4521,7
1604582378.4541,0
1604582378.4562,-12
1604582378.4582,-9
1604582378.4601,12
1604582378.4622,48
1604582378.4641,72
1604582378.4661,70
1604582378.4682,63
1604582378.4701,46
1604582378.4721,14
1604582378.4741,-4
1604582378.4761,4
1604582378.4781,9
1604582378.4801,4
1604582378.4821,4
1604582378.8805,12
1604582378.8814,-2
1604582378.8839,-70
1604582378.8868,-121
1604582378.8885,140
1604582378.8904,858
1604582378.8924,1736
1604582378.8944,2483
1604582378.8964,2461
1604582378.8985,805
1604582378.9004,-856
1604582378.9024,-565
1604582378.9044,-9
1604582378.9064,-349
1604582378.9084,-417
1604582378.9104,-196
1604582378.9124,-254
1604582378.9144,-310
1604582378.9164,-218
1604582378.9185,-196
1604582378.9204,-218
1604582378.9224,-189
1604582378.9244,-167
1604582378.9264,-164
1604582378.9284,-147
1604582378.9304,-130
1604582378.9324,-121
1604582378.9344,-104
1604582378.9364,-87
1604582378.9384,-75
1604582378.9404,-60
1604582378.9424,-46
1604582378.9444,-33
1604582378.9464,-29
1604582378.9484,-26
1604582378.9504,-26
1604582378.9524,-38
1604582378.9544,-63
1604582378.9564,-92
1604582378.9584,-128
1604582378.9604,-164
1604582378.9624,-191
1604582378.9644,-198
1604582378.9664,-186
1604582378.9684,-164
1604582378.9704,-138
1604582378.9724,-111
1604582378.9744,-89
1604582378.9764,-72
1604582378.9785,-65
1604582378.9804,-65
1604582378.9824,-65
1604582378.9844,-67
1604582378.9864,-67
1604582378.9886,-60
1604582378.9904,-55
1604582378.9924,-50
1604582378.9944,-48
1604582378.9964,-46
1604582378.9984,-41
1604582379.0004,-36
1604582379.0024,-33
1604582379.0044,-29
1604582379.0064,-24
1604582379.0084,-26
1604582379.0104,-29
1604582379.0124,-29
1604582379.0144,-31
1604582379.0164,-41
1604582379.0185,-46
1604582379.0204,-46
1604582379.0224,-50
1604582379.0244,-55
1604582379.5086,-55
1604582379.5095,-53
1604582379.5110,-53
1604582379.5130,-63
1604582379.5150,-70
1604582379.5170,-63
1604582379.5190,-55
1604582379.5210,-58
1604582379.5230,-55
1604582379.5251,-50
1604582379.5271,-50
1604582379.5290,-48
1604582379.5310,-46
1604582379.5330,-41
1604582379.5350,-38
1604582379.5370,-41
1604582379.5389,-38
1604582379.5409,-31
1604582379.5429,-29
1604582379.5450,-29
1604582379.5469,-26
1604582379.5489,-24
1604582379.5509,-24
1604582379.5529,-21
1604582379.5549,-19
1604582379.5569,-14
1604582379.5589,-14
1604582379.5609,-16
1604582379.5629,-14
1604582379.5649,-12
1604582379.5669,-16
1604582379.5689,-14
1604582379.5712,-9
1604582379.5730,-12
1604582379.5749,-16
1604582379.5769,-24
1604582379.5789,-29
1604582379.5809,-19
1604582379.5829,9
1604582379.5849,38
1604582379.5869,55
1604582379.5889,60
1604582379.5909,46
1604582379.5929,12
1604582379.5949,-16
1604582379.5969,-21
1604582379.5989,-16
1604582379.6010,-14
1604582379.6029,-16
1604582379.6049,-19
1604582379.6069,-19
1604582379.6089,-38
1604582379.6109,-116
1604582379.6129,-116
1604582379.6149,274
1604582379.6169,1086
1604582379.6189,2020
1604582379.6210,2798
1604582379.6229,2330
1604582379.6249,242
1604582379.6270,-940
1604582379.6289,-307
1604582379.6309,-75
1604582379.6329,-465
1604582379.6349,-371
1604582379.6369,-208
1604582379.6389,-312
1604582379.6409,-307
1604582379.6429,-223
1604582379.6449,-235
1604582379.6470,-237
1604582379.6489,-196
1604582379.6509,-181
1604582380.0505,-179
1604582380.0517,-157
1604582380.0542,-143
1604582380.0568,-130
1604582380.0587,-111
1604582380.0607,-94
1604582380.0628,-82
1604582380.0647,-70
1604582380.0667,-67
1604582380.0687,-65
1604582380.0710,-48
1604582380.0727,-41
1604582380.0748,-53
1604582380.0767,-65
1604582380.0787,-77
1604582380.0807,-99
1604582380.0827,-126
1604582380.0847,-152
1604582380.0867,-172
1604582380.0887,-181
1604582380.0908,-177
1604582380.0927,-155
1604582380.0947,-130
1604582380.0967,-111
1604582380.0987,-99
1604582380.1007,-87
1604582380.1027,-77
1604582380.1047,-80
1604582380.1067,-82
1604582380.1087,-80
1604582380.1107,-82
1604582380.1128,-87
1604582380.1147,-84
1604582380.1166,-75
1604582380.1186,-67
1604582380.1207,-65
1604582380.1227,-60
1604582380.1247,-55
1604582380.1266,-48
1604582380.1286,-46
1604582380.1307,-46
1604582380.1328,-41
1604582380.1347,-36
1604582380.1366,-38
1604582380.1387,-41
1604582380.1406,-38
1604582380.1426,-36
1604582380.1446,-43
1604582380.1467,-46
1604582380.1486,-43
1604582380.1506,-48
1604582380.1526,-50
1604582380.1547,-48
1604582380.1566,-53
1604582380.1587,-63
1604582380.1606,-60
1604582380.1626,-58
1604582380.1646,-55
1604582380.1666,-50
1604582380.1686,-46
1604582380.1706,-43
1604582380.1728,-46
1604582380.1747,-50
1604582380.1767,-50
1604582380.1787,-38
1604582380.1807,-33
1604582380.1826,-38
1604582380.1846,-41
1604582380.1867,-38
1604582380.1887,-33
1604582380.1906,-31
1604582380.1926,-29
1604582380.1947,-29
1604582380.5908,-31
1604582380.5917,-33
1604582380.5942,-29
1604582380.5967,-26
1604582380.5987,-26
1604582380.6007,-24
1604582380.6028,-21
1604582380.6047,-21
1604582380.6067,-26
1604582380.6087,-38
1604582380.6108,-48
1604582380.6127,-46
1604582380.6147,-50
1604582380.6167,-63
1604582380.6187,-63
1604582380.6206,-46
1604582380.6226,-36
1604582380.6247,-46
1604582380.6267,-60
1604582380.6287,-55
1604582380.6306,-24
1604582380.6327,19
1604582380.6347,29
1604582380.6366,16
1604582380.6387,14
1604582380.6406,0
1604582380.6426,-43
1604582380.6446,-63
1604582380.6466,-50
1604582380.6487,-48
1604582380.6506,-53
1604582380.6526,-50
1604582380.6546,-50
1604582380.6566,-58
1604582380.6586,-82
1604582380.6606,-145
1604582380.6626,-80
1604582380.6646,419
1604582380.6666,1280
1604582380.6689,2168
1604582380.6707,2711
1604582380.6726,1821
1604582380.6747,-240
1604582380.6766,-897
1604582380.6787,-179
1604582380.6806,-172
1604582380.6826,-487
1604582380.6846,-315
1604582380.6867,-232
1604582380.6886,-341
1604582380.6906,-298
1604582380.6926,-225
1604582380.6946,-242
1604582380.6966,-237
1604582380.6986,-208
1604582380.7006,-203
1604582380.7026,-194
1604582380.7046,-169
1604582380.7066,-147
1604582380.7086,-135
1604582380.7107,-123
1604582380.7126,-106
1604582380.7146,-84
1604582380.7166,-72
1604582380.7187,-67
1604582380.7206,-58
1604582380.7226,-48
1604582380.7247,-46
1604582380.7266,-48
1604582380.7287,-65
1604582380.7307,-80
1604582380.7326,-101
1604582380.7347,-140
1604582381.1608,-177
1604582381.1617,-196
1604582381.1641,-208
1604582381.1668,-206
1604582381.1688,-179
1604582381.1707,-150
1604582381.1729,-135
1604582381.1748,-130
1604582381.1768,-118
1604582381.1787,-109
1604582381.1807,-109
1604582381.1827,-109
1604582381.1847,-111
1604582381.1868,-111
1604582381.1887,-106
1604582381.1907,-97
1604582381.1927,-92
1604582381.1949,-84
1604582381.1968,-82
1604582381.1987,-80
1604582381.2007,-72
1604582381.2027,-70
1604582381.2047,-67
1604582381.2067,-58
1604582381.2087,-53
1604582381.2107,-60
1604582381.2127,-65
1604582381.2147,-58
1604582381.2167,-48
1604582381.2187,-55
1604582381.2207,-70
1604582381.2227,-65
1604582381.2247,-53
1604582381.2266,-58
1604582381.2287,-63
1604582381.2307,-60
1604582381.2327,-60
1604582381.2347,-60
1604582381.2366,-65
1604582381.2386,-72
1604582381.2407,-72
1604582381.2426,-63
1604582381.2447,-58
1604582381.2466,-63
1604582381.2487,-58
1604582381.2506,-53
1604582381.2527,-58
1604582381.2546,-55
1604582381.2567,-46
1604582381.2587,-43
1604582381.2607,-43
1604582381.2627,-41
1604582381.2646,-46
1604582381.2666,-50
1604582381.2687,-50
1604582381.2706,-48
1604582381.2726,-43
1604582381.2747,-38
1604582381.2766,-38
1604582381.2787,-33
1604582381.2807,-31
1604582381.2826,-36
1604582381.2846,-38
1604582381.2867,-33
1604582381.2886,-24
1604582381.2906,-31
1604582381.2927,-43
1604582381.2946,-48
1604582381.2968,-48
1604582381.2987,-50
1604582381.3007,-60
1604582381.3026,-60
1604582381.3047,-36
1604582381.7004,4
1604582381.7012,21
1604582381.7036,16
1604582381.7062,9
1604582381.7083,-7
1604582381.7102,-36
1604582381.7123,-50
1604582381.7142,-53
1604582381.7162,-60
1604582381.7183,-63
1604582381.7202,-53
1604582381.7222,-53
1604582381.7242,-58
1604582381.7262,-89
1604582381.7283,-150
1604582381.7302,-26
1604582381.7322,555
1604582381.7341,1430
1604582381.7362,2262
1604582381.7382,2628
1604582381.7401,1479
1604582381.7422,-504
1604582381.7442,-824
1604582381.7462,-94
1604582381.7482,-220
1604582381.7502,-465
1604582381.7522,-257
1604582381.7542,-225
1604582381.7562,-322
1604582381.7581,-257
1604582381.7602,-201
1604582381.7622,-227
1604582381.7642,-218
1604582381.7662,-186
1604582381.7682,-177
1604582381.7701,-172
1604582381.7722,-150
1604582381.7742,-130
1604582381.7761,-116
1604582381.7782,-104
1604582381.7801,-89
1604582381.7822,-72
1604582381.7842,-55
1604582381.7863,-43
1604582381.7881,-31
1604582381.7901,-26
1604582381.7923,-26
1604582381.7943,-33
1604582381.7962,-48
1604582381.7982,-70
1604582381.8002,-97
1604582381.8021,-130
1604582381.8041,-164
1604582381.8061,-191
1604582381.8082,-201
1604582381.8101,-189
1604582381.8122,-164
1604582381.8142,-138
1604582381.8162,-116
1604582381.8182,-104
1604582381.8202,-94
1604582381.8221,-87
1604582381.8242,-84
1604582381.8261,-82
1604582381.8282,-80
1604582381.8301,-77
1604582381.8322,-77
1604582381.8341,-70
1604582381.8361,-65
1604582381.8382,-63
1604582381.8401,-60
1604582381.8421,-55
1604582381.8442,-46
1604582382.2704,-41
1604582382.2714,-46
1604582382.2738,-43
1604582382.2764,-38
1604582382.2784,-46
1604582382.2804,-60
1604582382.2825,-60
1604582382.2844,-58
1604582382.2864,-58
1604582382.2883,-63
1604582382.2904,-65
1604582382.2924,-65
1604582382.2944,-65
1604582382.2964,-65
1604582382.2984,-63
1604582382.3003,-58
1604582382.3023,-58
1604582382.3044,-60
1604582382.3064,-60
1604582382.3083,-58
1604582382.3103,-58
1604582382.3123,-58
1604582382.3143,-53
1604582382.3163,-53
1604582382.3185,-58
1604582382.3204,-63
1604582382.3223,-65
1604582382.3243,-60
1604582382.3263,-58
1604582382.3284,-58
1604582382.3303,-53
1604582382.3323,-53
1604582382.3343,-50
1604582382.3363,-48
1604582382.3384,-48
1604582382.3403,-50
1604582382.3423,-48
1604582382.3443,-43
1604582382.3463,-43
1604582382.3484,-46
1604582382.3503,-50
1604582382.3523,-53
1604582382.3544,-50
1604582382.3563,-48
1604582382.3583,-50
1604582382.3603,-48
1604582382.3623,-46
1604582382.3643,-46
1604582382.3663,-50
1604582382.3684,-50
1604582382.3704,-48
1604582382.3723,-50
1604582382.3744,-58
1604582382.3763,-67
1604582382.3784,-63
1604582382.3803,-29
1604582382.3824,9
1604582382.3843,19
1604582382.3863,12
1604582382.3883,14
1604582382.3904,9
1604582382.3923,-24
1604582382.3944,-48
1604582382.3964,-48
1604582382.3984,-43
1604582382.4003,-43
1604582382.4024,-41
1604582382.4044,-43
1604582382.4063,-46
1604582382.4083,-60
1604582382.4103,-130
1604582382.4123,-157
1604582382.4143,186
1604582382.8701,970
1604582382.8710,1891
1604582382.8736,2706
1604582382.8761,2456
1604582382.8781,489
1604582382.8800,-931
1604582382.8821,-414
1604582382.8840,-53
1604582382.8860,-446
1604582382.8879,-419
1604582382.8900,-225
1604582382.8920,-307
1604582382.8940,-327
1604582382.8959,-240
1604582382.8980,-237
1604582382.8999,-247
1604582382.9019,-208
1604582382.9039,-194
1604582382.9059,-196
1604582382.9080,-172
1604582382.9099,-150
1604582382.9119,-143
1604582382.9140,-126
1604582382.9159,-99
1604582382.9179,-84
1604582382.9200,-72
1604582382.9219,-58
1604582382.9239,-46
1604582382.9259,-33
1604582382.9280,-29
1604582382.9299,-31
1604582382.9319,-36
1604582382.9339,-48
1604582382.9359,-72
1604582382.9379,-99
1604582382.9399,-123
1604582382.9419,-147
1604582382.9439,-169
1604582382.9460,-174
1604582382.9480,-157
1604582382.9499,-135
1604582382.9519,-118
1604582382.9540,-99
1604582382.9559,-77
1604582382.9580,-70
1604582382.9599,-67
1604582382.9619,-65
1604582382.9639,-63
1604582382.9660,-65
1604582382.9680,-65
1604582382.9699,-60
1604582382.9719,-60
1604582382.9739,-60
1604582382.9761,-58
1604582382.9780,-48
1604582382.9799,-43
1604582382.9819,-43
1604582382.9839,-43
1604582382.9859,-38
1604582382.9879,-33
1604582382.9901,-36
1604582382.9919,-33
1604582382.9940,-31
1604582382.9960,-31
1604582382.9981,-33
1604582383.0000,-38
1604582383.0020,-38
1604582383.0040,-33
1604582383.0060,-36
1604582383.0081,-43
1604582383.0100,-43
1604582383.0120,-43
1604582383.0140,-48
1604582383.4104,-53
1604582383.4113,-53
1604582383.4137,-53
1604582383.4164,-53
1604582383.4184,-53
1604582383.4204,-48
1604582383.4225,-46
1604582383.4244,-48
1604582383.4264,-48
1604582383.4284,-50
1604582383.4303,-63
1604582383.4323,-77
1604582383.4343,-80
1604582383.4363,-75
1604582383.4383,-77
1604582383.4390,-84
1604582383.4413,-87
1604582383.4433,-80
1604582383.4453,-75
1604582383.4473,-77
1604582383.4493,-80
1604582383.4513,-77
1604582383.4533,-72
1604582383.4553,-70
1604582383.4573,-65
1604582383.4594,-63
1604582383.4613,-63
1604582383.4633,-60
1604582383.4653,-58
1604582383.4673,-55
1604582383.4693,-55
1604582383.4701,-55
1604582383.4713,-58
1604582383.4733,-60
1604582383.4753,-58
1604582383.4773,-50
1604582383.4793,-43
1604582383.4812,-48
1604582383.4833,-65
1604582383.4853,-55
1604582383.4873,-14
1604582383.4893,19
1604582383.4913,16
1604582383.4933,7
1604582383.4953,9
1604582383.4973,-2
1604582383.4993,-38
1604582383.5000,-58
1604582383.5013,-53
1604582383.5033,-50
1604582383.5053,-53
1604582383.5073,-55
1604582383.5093,-53
1604582383.5113,-53
1604582383.5132,-84
1604582383.5153,-162
1604582383.5173,-135
1604582383.5194,300
1604582383.5213,1122
1604582383.5233,2010
1604582383.5253,2667
1604582383.5273,2063
1604582383.5293,41
1604582383.5300,-940
1604582383.5313,-291
1604582383.5332,-133
1604582383.5353,-487
1604582383.5373,-373
1604582383.5393,-237
1604582383.5413,-339
1604582383.5433,-327
1604582383.5453,-249
1604582383.5473,-261
1604582383.9801,-266
1604582383.9811,-232
1604582383.9835,-223
1604582383.9862,-218
1604582383.9868,-194
1604582383.9882,-177
1604582383.9901,-164
1604582383.9923,-155
1604582383.9942,-147
1604582383.9964,-138
1604582383.9981,-121
1604582384.0001,-106
1604582384.0021,-97
1604582384.0041,-77
1604582384.0061,-65
1604582384.0082,-67
1604582384.0100,-67
1604582384.0120,-77
1604582384.0140,-109
1604582384.0160,-147
1604582384.0167,-179
1604582384.0180,-201
1604582384.0200,-223
1604582384.0220,-235
1604582384.0240,-223
1604582384.0260,-198
1604582384.0280,-167
1604582384.0300,-138
1604582384.0320,-128
1604582384.0340,-126
1604582384.0361,-123
1604582384.0380,-130
1604582384.0401,-135
1604582384.0420,-123
1604582384.0441,-118
1604582384.0460,-126
1604582384.0467,-121
1604582384.0480,-109
1604582384.0500,-101
1604582384.0521,-104
1604582384.0540,-104
1604582384.0560,-99
1604582384.0581,-97
1604582384.0600,-94
1604582384.0620,-92
1604582384.0640,-94
1604582384.0660,-101
1604582384.0681,-101
1604582384.0700,-104
1604582384.0720,-106
1604582384.0740,-101
1604582384.0760,-104
1604582384.0767,-111
1604582384.0780,-111
1604582384.0800,-111
1604582384.0820,-121
1604582384.0840,-121
1604582384.0860,-111
1604582384.0880,-106
1604582384.0900,-116
1604582384.0922,-126
1604582384.0940,-126
1604582384.0960,-126
1604582384.0981,-138
1604582384.1000,-138
1604582384.1020,-128
1604582384.1040,-133
1604582384.1060,-138
1604582384.1067,-140
1604582384.1081,-143
1604582384.1100,-140
1604582384.1120,-133
1604582384.1140,-130
1604582384.5201,-133
1604582384.5208,-133
1604582384.5225,-126
1604582384.5245,-121
1604582384.5265,-128
1604582384.5284,-130
1604582384.5305,-123
1604582384.5325,-113
1604582384.5331,-118
1604582384.5345,-133
1604582384.5365,-135
1604582384.5384,-128
1604582384.5404,-126
1604582384.5424,-121
1604582384.5444,-116
1604582384.5464,-116
1604582384.5484,-111
1604582384.5504,-99
1604582384.5524,-104
1604582384.5545,-113
1604582384.5564,-94
1604582384.5584,-53
1604582384.5604,-24
1604582384.5611,-33
1604582384.5624,-41
1604582384.5644,-36
1604582384.5664,-53
1604582384.5684,-80
1604582384.5704,-97
1604582384.5724,-135
1604582384.5744,-184
1604582384.5764,-186
1604582384.5784,-172
1604582384.5804,-177
1604582384.5824,-174
1604582384.5844,-194
1604582384.5864,-259
1604582384.5885,-126
1604582384.5906,489
1604582384.5911,1387
1604582384.5924,2194
1604582384.5945,2522
1604582384.5964,1365
1604582384.5984,-606
1604582384.6004,-914
1604582384.6024,-179
1604582384.6044,-300
1604582384.6064,-543
1604582384.6084,-327
1604582384.6104,-283
1604582384.6124,-373
1604582384.6144,-312
1604582384.6164,-259
1604582384.6184,-274
1604582384.6204,-249
1604582384.6224,-215
1604582384.6244,-213
1604582384.6264,-203
1604582384.6286,-181
1604582384.6304,-167
1604582384.6324,-157
1604582384.6344,-147
1604582384.6364,-126
1604582384.6384,-106
1604582384.6404,-99
1604582384.6424,-92
1604582384.6444,-77
1604582384.6464,-67
1604582384.6484,-67
1604582384.6504,-72
1604582384.6524,-82
1604582384.6544,-99
1604582384.6564,-130
1604582385.0907,-169
1604582385.0916,-203
1604582385.0940,-232
1604582385.0967,-252
1604582385.0987,-247
1604582385.1007,-225
1604582385.1028,-201
1604582385.1047,-184
1604582385.1067,-162
1604582385.1086,-140
1604582385.1106,-135
1604582385.1126,-135
1604582385.1146,-126
1604582385.1166,-118
1604582385.1186,-116
1604582385.1206,-111
1604582385.1228,-109
1604582385.1246,-109
1604582385.1266,-99
1604582385.1286,-89
1604582385.1306,-87
1604582385.1326,-87
1604582385.1346,-87
1604582385.1366,-84
1604582385.1386,-80
1604582385.1406,-77
1604582385.1426,-80
1604582385.1446,-82
1604582385.1466,-82
1604582385.1486,-87
1604582385.1506,-89
1604582385.1526,-87
1604582385.1546,-87
1604582385.1566,-89
1604582385.1586,-92
1604582385.1606,-89
1604582385.1626,-94
1604582385.1646,-104
1604582385.1666,-104
1604582385.1687,-101
1604582385.1706,-104
1604582385.1726,-106
1604582385.1746,-104
1604582385.1766,-101
1604582385.1786,-99
1604582385.1806,-97
1604582385.1825,-94
1604582385.1845,-94
1604582385.1866,-89
1604582385.1886,-87
1604582385.1906,-87
1604582385.1926,-84
1604582385.1946,-89
1604582385.1965,-97
1604582385.1986,-92
1604582385.2006,-82
1604582385.2026,-82
1604582385.2045,-84
1604582385.2066,-77
1604582385.2086,-75
1604582385.2106,-75
1604582385.2126,-72
1604582385.2146,-70
1604582385.2166,-65
1604582385.2186,-60
1604582385.2206,-65
1604582385.2226,-63
1604582385.2247,-55
1604582385.2266,-60
1604582385.2285,-75
1604582385.2306,-70
1604582385.2326,-41
1604582385.2346,-9
1604582385.6300,4
1604582385.6307,2
1604582385.6332,4
1604582385.6358,0
1604582385.6378,-36
1604582385.6398,-60
1604582385.6420,-58
1604582385.6438,-58
1604582385.6458,-72
1604582385.6479,-75
1604582385.6498,-67
1604582385.6518,-70
1604582385.6538,-94
1604582385.6558,-164
1604582385.6578,-172
1604582385.6598,194
1604582385.6617,991
1604582385.6638,1911
1604582385.6658,2689
1604582385.6678,2352
1604582385.6698,344
1604582385.6718,-984
1604582385.6738,-400
1604582385.6758,-75
1604582385.6778,-472
1604582385.6797,-417
1604582385.6817,-230
1604582385.6838,-329
1604582385.6858,-346
1604582385.6878,-257
1604582385.6897,-254
1604582385.6917,-264
1604582385.6937,-227
1604582385.6957,-208
1604582385.6978,-206
1604582385.6998,-186
1604582385.7018,-167
1604582385.7037,-155
1604582385.7057,-140
1604582385.7078,-123
1604582385.7098,-106
1604582385.7118,-89
1604582385.7137,-72
1604582385.7157,-65
1604582385.7178,-58
1604582385.7199,-58
1604582385.7218,-63
1604582385.7237,-70
1604582385.7257,-84
1604582385.7278,-106
1604582385.7297,-135
1604582385.7317,-164
1604582385.7337,-191
1604582385.7357,-213
1604582385.7378,-223
1604582385.7397,-208
1604582385.7417,-179
1604582385.7437,-157
1604582385.7457,-143
1604582385.7478,-128
1604582385.7498,-121
1604582385.7517,-118
1604582385.7538,-116
1604582385.7557,-116
1604582385.7578,-113
1604582385.7597,-109
1604582385.7617,-109
1604582385.7637,-106
1604582385.7657,-101
1604582385.7678,-97
1604582385.7697,-97
1604582385.7717,-92
1604582385.7737,-87
1604582386.2607,-87
1604582386.2615,-89
1604582386.2640,-84
1604582386.2666,-82
1604582386.2686,-87
1604582386.2706,-99
1604582386.2727,-104
1604582386.2746,-101
1604582386.2767,-109
1604582386.2786,-116
1604582386.2807,-111
1604582386.2827,-106
1604582386.2847,-111
1604582386.2866,-111
1604582386.2886,-101
1604582386.2906,-99
1604582386.2926,-101
1604582386.2946,-101
1604582386.2966,-106
1604582386.2986,-113
1604582386.3006,-113
1604582386.3026,-111
1604582386.3047,-113
1604582386.3068,-111
1604582386.3087,-113
1604582386.3106,-116
1604582386.3125,-111
1604582386.3146,-106
1604582386.3166,-101
1604582386.3186,-101
1604582386.3205,-104
1604582386.3225,-106
1604582386.3245,-111
1604582386.3265,-111
1604582386.3286,-101
1604582386.3305,-99
1604582386.3326,-106
1604582386.3345,-111
1604582386.3365,-116
1604582386.3385,-121
1604582386.3405,-121
1604582386.3425,-111
1604582386.3445,-111
1604582386.3465,-113
1604582386.3486,-113
1604582386.3505,-111
1604582386.3525,-118
1604582386.3545,-126
1604582386.3566,-113
1604582386.3585,-80
1604582386.3605,-53
1604582386.3625,-55
1604582386.3645,-65
1604582386.3665,-63
1604582386.3685,-72
1604582386.3705,-109
1604582386.3725,-126
1604582386.3745,-121
1604582386.3765,-121
1604582386.3786,-116
1604582386.3806,-106
1604582386.3825,-106
1604582386.3845,-111
1604582386.3865,-140
1604582386.3885,-213
1604582386.3905,-150
1604582386.3926,351
1604582386.3945,1212
1604582386.3965,2088
1604582386.3986,2677
1604582386.4005,1930
1604582386.4025,-140
1604582386.4045,-974
1604582386.7705,-254
1604582386.7714,-169
1604582386.7737,-523
1604582386.7762,-373
1604582386.7782,-254
1604582386.7802,-361
1604582386.7823,-337
1604582386.7842,-271
1604582386.7863,-283
1604582386.7882,-271
1604582386.7902,-235
1604582386.7923,-223
1604582386.7942,-206
1604582386.7962,-194
1604582386.7983,-198
1604582386.8002,-186
1604582386.8022,-155
1604582386.8042,-140
1604582386.8062,-128
1604582386.8082,-111
1604582386.8102,-94
1604582386.8122,-82
1604582386.8142,-75
1604582386.8162,-60
1604582386.8183,-50
1604582386.8202,-63
1604582386.8222,-87
1604582386.8242,-109
1604582386.8262,-138
1604582386.8282,-179
1604582386.8302,-213
1604582386.8322,-237
1604582386.8342,-247
1604582386.8363,-225
1604582386.8382,-191
1604582386.8402,-174
1604582386.8422,-157
1604582386.8442,-133
1604582386.8462,-126
1604582386.8482,-130
1604582386.8502,-123
1604582386.8522,-116
1604582386.8542,-118
1604582386.8562,-126
1604582386.8582,-130
1604582386.8602,-130
1604582386.8622,-123
1604582386.8642,-101
1604582386.8662,-94
1604582386.8682,-104
1604582386.8702,-101
1604582386.8722,-89
1604582386.8744,-84
1604582386.8762,-77
1604582386.8782,-70
1604582386.8802,-72
1604582386.8822,-77
1604582386.8842,-80
1604582386.8862,-82
1604582386.8882,-82
1604582386.8902,-82
1604582386.8922,-84
1604582386.8942,-92
1604582386.8962,-94
1604582386.8982,-97
1604582386.9002,-97
1604582386.9022,-87
1604582386.9042,-84
1604582386.9062,-94
1604582386.9082,-92
1604582386.9102,-77
1604582386.9122,-82
1604582386.9142,-99
1604582387.3402,-99
1604582387.3411,-97
1604582387.3436,-99
1604582387.3462,-94
1604582387.3483,-87
1604582387.3502,-89
1604582387.3522,-99
1604582387.3542,-106
1604582387.3562,-104
1604582387.3582,-92
1604582387.3602,-92
1604582387.3621,-97
1604582387.3642,-94
1604582387.3662,-92
1604582387.3682,-87
1604582387.3701,-84
1604582387.3721,-87
1604582387.3741,-82
1604582387.3761,-72
1604582387.3781,-72
1604582387.3801,-70
1604582387.3821,-67
1604582387.3841,-70
1604582387.3861,-67
1604582387.3881,-36
1604582387.3901,2
1604582387.3921,-2
1604582387.3941,-24
1604582387.3961,-16
1604582387.3981,-19
1604582387.4003,-55
1604582387.4022,-75
1604582387.4041,-63
1604582387.4061,-65
1604582387.4081,-75
1604582387.4102,-65
1604582387.4121,-58
1604582387.4141,-70
1604582387.4161,-104
1604582387.4182,-174
1604582387.4201,-77
1604582387.4221,477
1604582387.4241,1355
1604582387.4261,2197
1604582387.4281,2633
1604582387.4301,1634
1604582387.4322,-385
1604582387.4341,-902
1604582387.4361,-162
1604582387.4382,-201
1604582387.4401,-494
1604582387.4421,-300
1604582387.4441,-227
1604582387.4461,-332
1604582387.4481,-286
1604582387.4501,-220
1604582387.4521,-235
1604582387.4541,-225
1604582387.4561,-196
1604582387.4582,-189
1604582387.4601,-174
1604582387.4621,-155
1604582387.4641,-143
1604582387.4662,-126
1604582387.4682,-111
1604582387.4701,-104
1604582387.4721,-87
1604582387.4741,-65
1604582387.4761,-53
1604582387.4782,-43
1604582387.4801,-31
1604582387.4821,-21
1604582387.4841,-24
1604582387.8803,-41
1604582387.8812,-63
1604582387.8838,-84
1604582387.8863,-111
1604582387.8883,-150
1604582387.8903,-184
1604582387.8923,-198
1604582387.8999,-196
1604582387.9014,-191
1604582387.9033,-174
1604582387.9053,-143
1604582387.9073,-118
1604582387.9092,-113
1604582387.9112,-109
1604582387.9133,-99
1604582387.9153,-97
1604582387.9173,-99
1604582387.9192,-101
1604582387.9213,-97
1604582387.9232,-92
1604582387.9252,-87
1604582387.9272,-84
1604582387.9293,-80
1604582387.9311,-77
1604582387.9332,-75
1604582387.9352,-72
1604582387.9371,-65
1604582387.9392,-63
1604582387.9412,-65
1604582387.9432,-60
1604582387.9452,-60
1604582387.9472,-65
1604582387.9492,-65
1604582387.9512,-60
1604582387.9532,-60
1604582387.9552,-67
1604582387.9572,-72
1604582387.9592,-67
1604582387.9612,-63
1604582387.9633,-65
1604582387.9652,-72
1604582387.9673,-72
1604582387.9692,-70
1604582387.9712,-70
1604582387.9732,-70
1604582387.9752,-70
1604582387.9773,-67
1604582387.9792,-65
1604582387.9812,-65
1604582387.9832,-63
1604582387.9852,-58
1604582387.9871,-55
1604582387.9892,-53
1604582387.9912,-53
1604582387.9932,-58
1604582387.9952,-60
1604582387.9972,-63
1604582387.9992,-65
1604582388.0013,-65
1604582388.0034,-67
1604582388.0053,-67
1604582388.0072,-65
1604582388.0092,-63
1604582388.0112,-65
1604582388.0132,-63
1604582388.0152,-60
1604582388.0172,-63
1604582388.0192,-65
1604582388.0212,-58
1604582388.0232,-48
1604582388.0252,-53
1604582388.0273,-70
1604582388.0292,-70
1604582388.4802,-33
1604582388.4811,7
1604582388.4835,12
1604582388.4863,2
1604582388.4882,2
1604582388.4903,-14
1604582388.4923,-60
1604582388.4943,-84
1604582388.4962,-75
1604582388.4983,-77
1604582388.5002,-87
1604582388.5022,-80
1604582388.5042,-72
1604582388.5062,-77
1604582388.5082,-97
1604582388.5102,-167
1604582388.5123,-184
1604582388.5142,177
1604582388.5162,979
1604582388.5182,1923
1604582388.5201,2742
1604582388.5221,2425
1604582388.5241,388
1604582388.5261,-977
1604582388.5282,-400
1604582388.5301,-67
1604582388.5321,-468
1604582388.5341,-414
1604582388.5361,-227
1604582388.5381,-322
1604582388.5402,-332
1604582388.5421,-240
1604582388.5441,-244
1604582388.5462,-257
1604582388.5482,-215
1604582388.5501,-201
1604582388.5522,-198
1604582388.5543,-174
1604582388.5562,-155
1604582388.5582,-143
1604582388.5601,-128
1604582388.5621,-109
1604582388.5642,-89
1604582388.5661,-72
1604582388.5682,-60
1604582388.5701,-48
1604582388.5721,-38
1604582388.5741,-38
1604582388.5761,-41
1604582388.5782,-43
1604582388.5802,-53
1604582388.5822,-75
1604582388.5842,-104
1604582388.5862,-130
1604582388.5882,-155
1604582388.5901,-172
1604582388.5921,-179
1604582388.5941,-164
1604582388.5961,-140
1604582388.5982,-123
1604582388.6002,-106
1604582388.6021,-89
1604582388.6041,-77
1604582388.6061,-75
1604582388.6082,-77
1604582388.6101,-77
1604582388.6122,-75
1604582388.6141,-75
1604582388.6162,-77
1604582388.6181,-75
1604582388.6202,-70
1604582388.6222,-70
1604582388.6242,-70
1604582388.9904,-67
1604582388.9911,-70
1604582388.9935,-77
1604582388.9962,-77
1604582388.9983,-75
1604582389.0001,-75
1604582389.0023,-80
1604582389.0041,-80
1604582389.0062,-77
1604582389.0082,-87
1604582389.0101,-106
1604582389.0122,-116
1604582389.0141,-111
1604582389.0161,-104
1604582389.0182,-104
1604582389.0203,-109
1604582389.0222,-106
1604582389.0241,-104
1604582389.0261,-101
1604582389.0281,-97
1604582389.0301,-92
1604582389.0321,-94
1604582389.0341,-97
1604582389.0361,-92
1604582389.0382,-87
1604582389.0401,-87
1604582389.0421,-84
1604582389.0441,-82
1604582389.0461,-80
1604582389.0482,-77
1604582389.0502,-77
1604582389.0521,-75
1604582389.0541,-70
1604582389.0561,-67
1604582389.0582,-70
1604582389.0601,-65
1604582389.0621,-60
1604582389.0641,-58
1604582389.0661,-63
1604582389.0681,-65
1604582389.0701,-65
1604582389.0721,-67
1604582389.0741,-70
1604582389.0761,-70
1604582389.0782,-67
1604582389.0801,-67
1604582389.0821,-70
1604582389.0841,-67
1604582389.0861,-63
1604582389.0881,-65
1604582389.0902,-67
1604582389.0921,-63
1604582389.0941,-55
1604582389.0961,-60
1604582389.0981,-72
1604582389.1001,-75
1604582389.1021,-41
1604582389.1041,4
1604582389.1062,14
1604582389.1082,0
1604582389.1101,7
1604582389.1121,2
1604582389.1141,-31
1604582389.1161,-60
1604582389.1181,-60
1604582389.1188,-55
1604582389.1203,-58
1604582389.1222,-65
1604582389.1241,-70
1604582389.1261,-72
1604582389.1282,-84
1604582389.1301,-143
1604582389.1321,-196
1604582389.5904,31
1604582389.5913,722
1604582389.5938,1617
1604582389.5964,2451
1604582389.5983,2558
1604582389.6003,962
1604582389.6010,-800
1604582389.6033,-635
1604582389.6053,-65
1604582389.6073,-375
1604582389.6093,-472
1604582389.6113,-254
1604582389.6133,-291
1604582389.6153,-349
1604582389.6175,-264
1604582389.6193,-242
1604582389.6213,-259
1604582389.6232,-227
1604582389.6252,-201
1604582389.6273,-198
1604582389.6292,-179
1604582389.6313,-152
1604582389.6320,-138
1604582389.6343,-126
1604582389.6362,-111
1604582389.6383,-94
1604582389.6402,-77
1604582389.6423,-63
1604582389.6443,-55
1604582389.6462,-50
1604582389.6483,-41
1604582389.6503,-33
1604582389.6523,-38
1604582389.6543,-55
1604582389.6563,-75
1604582389.6583,-97
1604582389.6603,-121
1604582389.6623,-145
1604582389.6630,-172
1604582389.6652,-189
1604582389.6673,-179
1604582389.6692,-145
1604582389.6713,-113
1604582389.6733,-94
1604582389.6755,-77
1604582389.6774,-65
1604582389.6793,-58
1604582389.6812,-53
1604582389.6833,-53
1604582389.6853,-53
1604582389.6873,-53
1604582389.6893,-58
1604582389.6913,-53
1604582389.6933,-48
1604582389.6939,-48
1604582389.6953,-38
1604582389.6973,-33
1604582389.6993,-38
1604582389.7013,-41
1604582389.7033,-41
1604582389.7053,-48
1604582389.7073,-50
1604582389.7093,-53
1604582389.7113,-58
1604582389.7134,-53
1604582389.7153,-48
1604582389.7173,-48
1604582389.7193,-50
1604582389.7213,-53
1604582389.7233,-58
1604582389.7239,-63
1604582389.7252,-58
1604582389.7273,-50
1604582390.1606,-53
1604582390.1616,-53
1604582390.1640,-50
1604582390.1666,-48
1604582390.1686,-46
1604582390.1706,-46
1604582390.1726,-50
1604582390.1746,-55
1604582390.1766,-55
1604582390.1786,-65
1604582390.1806,-70
1604582390.1826,-63
1604582390.1833,-55
1604582390.1857,-60
1604582390.1876,-60
1604582390.1895,-50
1604582390.1915,-48
1604582390.1935,-50
1604582390.1955,-50
1604582390.1976,-50
1604582390.1995,-53
1604582390.2015,-53
1604582390.2037,-48
1604582390.2056,-50
1604582390.2076,-55
1604582390.2095,-55
1604582390.2115,-58
1604582390.2135,-58
1604582390.2142,-48
1604582390.2165,-41
1604582390.2185,-38
1604582390.2205,-33
1604582390.2226,-38
1604582390.2245,-53
1604582390.2265,-48
1604582390.2285,-14
1604582390.2305,24
1604582390.2325,33
1604582390.2345,24
1604582390.2365,26
1604582390.2385,24
1604582390.2405,-9
1604582390.2425,-36
1604582390.2445,-36
1604582390.2452,-33
1604582390.2475,-33
1604582390.2495,-36
1604582390.2515,-38
1604582390.2535,-36
1604582390.2555,-48
1604582390.2576,-113
1604582390.2595,-123
1604582390.2616,240
1604582390.2635,1037
1604582390.2655,1918
1604582390.2676,2582
1604582390.2695,2228
1604582390.2715,356
1604582390.2735,-943
1604582390.2742,-402
1604582390.2765,-48
1604582390.2785,-421
1604582390.2805,-380
1604582390.2826,-194
1604582390.2845,-278
1604582390.2865,-295
1604582390.2885,-208
1604582390.2905,-208
1604582390.2925,-215
1604582390.2945,-177
1604582390.2965,-160
1604582390.2985,-152
1604582390.3005,-130
1604582390.7002,-113
1604582390.7011,-101
1604582390.7035,-87
1604582390.7061,-72
1604582390.7081,-50
1604582390.7101,-29
1604582390.7121,-14
1604582390.7141,-9
1604582390.7161,-2
1604582390.7181,4
1604582390.7201,-2
1604582390.7220,-19
1604582390.7241,-33
1604582390.7260,-53
1604582390.7281,-89
1604582390.7288,-121
1604582390.7310,-145
1604582390.7332,-179
1604582390.7351,-194
1604582390.7370,-174
1604582390.7390,-152
1604582390.7410,-135
1604582390.7431,-109
1604582390.7450,-87
1604582390.7471,-80
1604582390.7491,-77
1604582390.7510,-77
1604582390.7530,-75
1604582390.7550,-70
1604582390.7571,-65
1604582390.7590,-63
1604582390.7597,-58
1604582390.7610,-55
1604582390.7630,-53
1604582390.7650,-46
1604582390.7671,-38
1604582390.7690,-33
1604582390.7710,-33
1604582390.7730,-29
1604582390.7750,-26
1604582390.7770,-24
1604582390.7790,-24
1604582390.7811,-26
1604582390.7830,-33
1604582390.7850,-53
1604582390.7871,-63
1604582390.7891,-55
1604582390.7911,-55
1604582390.7931,-60
1604582390.7950,-60
1604582390.7971,-53
1604582390.7992,-53
1604582390.8011,-60
1604582390.8030,-63
1604582390.8050,-53
1604582390.8071,-46
1604582390.8090,-55
1604582390.8110,-60
1604582390.8130,-55
1604582390.8150,-60
1604582390.8171,-63
1604582390.8190,-63
1604582390.8210,-60
1604582390.8230,-58
1604582390.8250,-55
1604582390.8271,-53
1604582390.8290,-53
1604582390.8310,-53
1604582390.8331,-53
1604582390.8350,-53
1604582390.8371,-48
1604582390.8390,-46
1604582390.8410,-50
1604582391.2701,-53
1604582391.2710,-55
1604582391.2735,-60
1604582391.2761,-65
1604582391.2782,-55
1604582391.2801,-50
1604582391.2822,-65
1604582391.2841,-89
1604582391.2861,-82
1604582391.2881,-36
1604582391.2900,0
1604582391.2920,-9
1604582391.2940,-21
1604582391.2960,-14
1604582391.2981,-29
1604582391.3000,-65
1604582391.3020,-77
1604582391.3040,-67
1604582391.3060,-70
1604582391.3082,-70
1604582391.3100,-63
1604582391.3120,-55
1604582391.3140,-63
1604582391.3161,-99
1604582391.3180,-167
1604582391.3200,-67
1604582391.3220,480
1604582391.3240,1350
1604582391.3260,2214
1604582391.3282,2696
1604582391.3301,1709
1604582391.3320,-356
1604582391.3340,-899
1604582391.3360,-147
1604582391.3381,-184
1604582391.3399,-487
1604582391.3420,-305
1604582391.3440,-237
1604582391.3460,-344
1604582391.3480,-291
1604582391.3500,-225
1604582391.3520,-247
1604582391.3540,-235
1604582391.3560,-196
1604582391.3580,-186
1604582391.3600,-174
1604582391.3620,-152
1604582391.3640,-143
1604582391.3660,-135
1604582391.3680,-123
1604582391.3700,-111
1604582391.3720,-97
1604582391.3740,-77
1604582391.3760,-63
1604582391.3780,-53
1604582391.3800,-38
1604582391.3820,-31
1604582391.3840,-33
1604582391.3860,-43
1604582391.3881,-58
1604582391.3900,-80
1604582391.3920,-106
1604582391.3940,-135
1604582391.3960,-162
1604582391.3980,-174
1604582391.4000,-172
1604582391.4020,-160
1604582391.4040,-140
1604582391.4060,-116
1604582391.4080,-101
1604582391.4100,-94
1604582391.4120,-84
1604582391.4140,-82
1604582391.8099,-87
1604582391.8106,-87
1604582391.8131,-77
1604582391.8157,-75
1604582391.8178,-75
1604582391.8197,-72
1604582391.8217,-65
1604582391.8240,-60
1604582391.8257,-65
1604582391.8277,-72
1604582391.8297,-67
1604582391.8317,-60
1604582391.8337,-60
1604582391.8357,-60
1604582391.8377,-58
1604582391.8396,-53
1604582391.8417,-58
1604582391.8437,-60
1604582391.8457,-55
1604582391.8477,-55
1604582391.8497,-60
1604582391.8517,-63
1604582391.8536,-63
1604582391.8557,-60
1604582391.8577,-63
1604582391.8597,-65
1604582391.8616,-67
1604582391.8637,-67
1604582391.8656,-65
1604582391.8677,-65
1604582391.8696,-72
1604582391.8716,-77
1604582391.8736,-72
1604582391.8756,-67
1604582391.8777,-70
1604582391.8796,-72
1604582391.8817,-72
1604582391.8837,-67
1604582391.8856,-63
1604582391.8877,-60
1604582391.8896,-58
1604582391.8917,-58
1604582391.8937,-53
1604582391.8956,-53
1604582391.8977,-48
1604582391.8996,-48
1604582391.9016,-46
1604582391.9036,-46
1604582391.9057,-48
1604582391.9078,-48
1604582391.9096,-46
1604582391.9116,-48
1604582391.9136,-53
1604582391.9156,-53
1604582391.9177,-43
1604582391.9196,-46
1604582391.9216,-63
1604582391.9236,-72
1604582391.9258,-48
1604582391.9277,-7
1604582391.9296,12
1604582391.9316,4
1604582391.9336,4
1604582391.9356,7
1604582391.9377,-21
1604582391.9396,-55
1604582391.9417,-60
1604582391.9436,-50
1604582391.9456,-48
1604582391.9477,-48
1604582391.9496,-46
1604582391.9516,-46
1604582391.9537,-55
1604582392.4101,-106
1604582392.4110,-172
1604582392.4135,12
1604582392.4161,671
1604582392.4182,1583
1604582392.4201,2480
1604582392.4221,2750
1604582392.4241,1261
1604582392.4261,-696
1604582392.4281,-708
1604582392.4300,-50
1604582392.4320,-322
1604582392.4340,-489
1604582392.4361,-264
1604582392.4381,-276
1604582392.4400,-354
1604582392.4420,-281
1604582392.4440,-249
1604582392.4460,-269
1604582392.4481,-240
1604582392.4501,-210
1604582392.4520,-213
1604582392.4540,-208
1604582392.4560,-194
1604582392.4580,-179
1604582392.4600,-162
1604582392.4621,-138
1604582392.4640,-121
1604582392.4660,-106
1604582392.4681,-94
1604582392.4687,-82
1604582392.4701,-67
1604582392.4720,-60
1604582392.4740,-60
1604582392.4760,-63
1604582392.4781,-65
1604582392.4802,-80
1604582392.4821,-104
1604582392.4840,-130
1604582392.4860,-155
1604582392.4880,-181
1604582392.4900,-196
1604582392.4920,-189
1604582392.4940,-167
1604582392.4960,-143
1604582392.4981,-123
1604582392.4987,-111
1604582392.5000,-101
1604582392.5020,-97
1604582392.5040,-99
1604582392.5060,-94
1604582392.5080,-87
1604582392.5100,-99
1604582392.5120,-106
1604582392.5140,-97
1604582392.5160,-84
1604582392.5180,-84
1604582392.5200,-87
1604582392.5220,-80
1604582392.5240,-72
1604582392.5260,-67
1604582392.5281,-60
1604582392.5287,-50
1604582392.5300,-50
1604582392.5320,-55
1604582392.5340,-58
1604582392.5360,-53
1604582392.5380,-50
1604582392.5400,-53
1604582392.5420,-55
1604582392.5440,-53
1604582392.5460,-53
1604582392.5480,-55
1604582392.9800,-53
1604582392.9806,-53
1604582392.9836,-53
1604582392.9859,-58
1604582392.9876,-60
1604582392.9895,-53
1604582392.9915,-41
1604582392.9935,-48
1604582392.9956,-60
1604582392.9976,-58
1604582392.9982,-63
1604582392.9995,-80
1604582393.0015,-77
1604582393.0035,-67
1604582393.0058,-75
1604582393.0076,-80
1604582393.0095,-75
1604582393.0115,-75
1604582393.0135,-75
1604582393.0155,-67
1604582393.0176,-67
1604582393.0195,-72
1604582393.0215,-67
1604582393.0236,-60
1604582393.0255,-60
1604582393.0276,-58
1604582393.0283,-58
1604582393.0296,-65
1604582393.0315,-67
1604582393.0335,-58
1604582393.0355,-55
1604582393.0376,-63
1604582393.0395,-58
1604582393.0415,-58
1604582393.0435,-67
1604582393.0455,-60
1604582393.0476,-29
1604582393.0496,2
1604582393.0515,9
1604582393.0535,4
1604582393.0555,2
1604582393.0576,-4
1604582393.0582,-33
1604582393.0595,-58
1604582393.0615,-58
1604582393.0636,-53
1604582393.0655,-55
1604582393.0676,-50
1604582393.0695,-48
1604582393.0715,-50
1604582393.0735,-60
1604582393.0755,-111
1604582393.0776,-152
1604582393.0795,111
1604582393.0815,846
1604582393.0835,1753
1604582393.0855,2529
1604582393.0876,2536
1604582393.0882,882
1604582393.0895,-848
1604582393.0915,-603
1604582393.0935,-31
1604582393.0956,-371
1604582393.0976,-448
1604582393.0995,-210
1604582393.1017,-259
1604582393.1036,-329
1604582393.1056,-247
1604582393.1075,-215
1604582393.1095,-230
1604582393.1115,-208
1604582393.1135,-186
1604582393.1155,-181
1604582393.5199,-162
1604582393.5206,-138
1604582393.5219,-126
1604582393.5239,-116
1604582393.5259,-99
1604582393.5279,-77
1604582393.5299,-60
1604582393.5319,-60
1604582393.5339,-53
1604582393.5359,-31
1604582393.5380,-16
1604582393.5398,-14
1604582393.5419,-26
1604582393.5439,-46
1604582393.5446,-65
1604582393.5470,-87
1604582393.5489,-111
1604582393.5509,-135
1604582393.5529,-157
1604582393.5549,-177
1604582393.5570,-177
1604582393.5589,-150
1604582393.5609,-126
1604582393.5629,-101
1604582393.5649,-77
1604582393.5669,-70
1604582393.5689,-75
1604582393.5709,-77
1604582393.5729,-75
1604582393.5749,-75
1604582393.5756,-72
1604582393.5769,-75
1604582393.5789,-72
1604582393.5809,-63
1604582393.5829,-55
1604582393.5850,-50
1604582393.5869,-46
1604582393.5889,-43
1604582393.5909,-38
1604582393.5929,-36
1604582393.5949,-36
1604582393.5969,-38
1604582393.5989,-31
1604582393.6011,-29
1604582393.6029,-36
1604582393.6049,-38
1604582393.6055,-33
1604582393.6069,-38
1604582393.6088,-46
1604582393.6109,-46
1604582393.6129,-48
1604582393.6148,-50
1604582393.6169,-53
1604582393.6188,-53
1604582393.6209,-53
1604582393.6229,-58
1604582393.6249,-58
1604582393.6269,-53
1604582393.6289,-55
1604582393.6309,-60
1604582393.6329,-58
1604582393.6349,-53
1604582393.6356,-60
1604582393.6369,-67
1604582393.6389,-63
1604582393.6410,-55
1604582393.6429,-55
1604582393.6449,-58
1604582393.6470,-53
1604582393.6489,-50
1604582393.6509,-53
1604582393.6529,-53
1604582393.6548,-53
1604582394.0605,-63
1604582394.0614,-70
1604582394.0638,-67
1604582394.0665,-70
1604582394.0671,-72
1604582394.0694,-67
1604582394.0715,-67
1604582394.0734,-67
1604582394.0754,-65
1604582394.0775,-75
1604582394.0794,-92
1604582394.0814,-84
1604582394.0834,-50
1604582394.0854,-12
1604582394.0875,0
1604582394.0894,-9
1604582394.0914,-12
1604582394.0934,-16
1604582394.0954,-43
1604582394.0975,-70
1604582394.0981,-70
1604582394.0996,-63
1604582394.1014,-65
1604582394.1034,-63
1604582394.1054,-63
1604582394.1074,-67
1604582394.1094,-77
1604582394.1114,-128
1604582394.1134,-179
1604582394.1154,48
1604582394.1174,744
1604582394.1194,1644
1604582394.1215,2463
1604582394.1234,2611
1604582394.1253,1071
1604582394.1275,-790
1604582394.1281,-688
1604582394.1293,-46
1604582394.1314,-344
1604582394.1334,-475
1604582394.1354,-244
1604582394.1374,-269
1604582394.1394,-339
1604582394.1414,-254
1604582394.1434,-227
1604582394.1454,-247
1604582394.1474,-215
1604582394.1494,-189
1604582394.1514,-191
1604582394.1534,-174
1604582394.1554,-150
1604582394.1574,-135
1604582394.1581,-123
1604582394.1594,-109
1604582394.1614,-99
1604582394.1634,-89
1604582394.1654,-72
1604582394.1674,-55
1604582394.1694,-41
1604582394.1714,-31
1604582394.1734,-29
1604582394.1754,-33
1604582394.1774,-41
1604582394.1793,-55
1604582394.1814,-84
1604582394.1834,-123
1604582394.1853,-160
1604582394.1874,-184
1604582394.1881,-196
1604582394.1894,-194
1604582394.1914,-172
1604582394.1934,-150
1604582394.1956,-138
1604582394.6305,-123
1604582394.6314,-111
1604582394.6338,-111
1604582394.6364,-118
1604582394.6384,-118
1604582394.6404,-121
1604582394.6424,-133
1604582394.6444,-135
1604582394.6451,-123
1604582394.6475,-121
1604582394.6494,-121
1604582394.6514,-111
1604582394.6535,-109
1604582394.6554,-111
1604582394.6575,-111
1604582394.6594,-104
1604582394.6614,-99
1604582394.6634,-97
1604582394.6654,-97
1604582394.6674,-97
1604582394.6694,-94
1604582394.6714,-94
1604582394.6734,-97
1604582394.6754,-99
1604582394.6761,-101
1604582394.6774,-101
1604582394.6794,-101
1604582394.6814,-99
1604582394.6835,-97
1604582394.6854,-99
1604582394.6874,-101
1604582394.6894,-97
1604582394.6914,-94
1604582394.6934,-94
1604582394.6954,-92
1604582394.6974,-89
1604582394.6994,-87
1604582394.7013,-87
1604582394.7033,-87
1604582394.7054,-82
1604582394.7061,-80
1604582394.7074,-82
1604582394.7093,-87
1604582394.7114,-84
1604582394.7134,-84
1604582394.7154,-89
1604582394.7174,-84
1604582394.7195,-80
1604582394.7214,-84
1604582394.7234,-84
1604582394.7256,-80
1604582394.7275,-80
1604582394.7294,-77
1604582394.7314,-80
1604582394.7333,-80
1604582394.7353,-80
1604582394.7360,-80
1604582394.7374,-89
1604582394.7393,-94
1604582394.7414,-94
1604582394.7434,-101
1604582394.7454,-116
1604582394.7474,-111
1604582394.7494,-77
1604582394.7514,-36
1604582394.7534,-33
1604582394.7554,-43
1604582394.7574,-36
1604582394.7594,-41
1604582394.7614,-77
1604582394.7634,-104
1604582394.7653,-99
1604582394.7660,-97
1604582395.1703,-99
1604582395.1710,-97
1604582395.1733,-92
1604582395.1760,-92
1604582395.1780,-109
1604582395.1800,-181
1604582395.1822,-227
1604582395.1841,53
1604582395.1860,802
1604582395.1881,1736
1604582395.1900,2607
1604582395.1920,2565
1604582395.1941,729
1604582395.1960,-936
1604582395.1968,-572
1604582395.1980,-80
1604582395.1999,-451
1604582395.2020,-489
1604582395.2040,-271
1604582395.2060,-337
1604582395.2080,-378
1604582395.2100,-283
1604582395.2120,-271
1604582395.2139,-293
1604582395.2160,-259
1604582395.2180,-235
1604582395.2200,-230
1604582395.2220,-206
1604582395.2241,-184
1604582395.2260,-174
1604582395.2268,-160
1604582395.2280,-140
1604582395.2300,-128
1604582395.2319,-113
1604582395.2339,-101
1604582395.2360,-94
1604582395.2380,-87
1604582395.2400,-77
1604582395.2420,-72
1604582395.2440,-75
1604582395.2460,-84
1604582395.2480,-101
1604582395.2500,-126
1604582395.2520,-147
1604582395.2540,-174
1604582395.2560,-201
1604582395.2567,-220
1604582395.2580,-210
1604582395.2600,-184
1604582395.2620,-164
1604582395.2639,-157
1604582395.2660,-143
1604582395.2680,-123
1604582395.2700,-121
1604582395.2720,-130
1604582395.2739,-133
1604582395.2760,-123
1604582395.2780,-118
1604582395.2800,-118
1604582395.2820,-121
1604582395.2840,-118
1604582395.2860,-111
1604582395.2867,-104
1604582395.2880,-104
1604582395.2900,-104
1604582395.2919,-97
1604582395.2940,-89
1604582395.2960,-89
1604582395.2980,-92
1604582395.3000,-92
1604582395.3019,-84
1604582395.3040,-80
1604582395.3060,-80
1604582395.7401,-84
1604582395.7410,-84
1604582395.7434,-82
1604582395.7445,-80
1604582395.7461,-89
1604582395.7481,-101
1604582395.7503,-97
1604582395.7521,-87
1604582395.7541,-87
1604582395.7560,-82
1604582395.7581,-75
1604582395.7600,-77
1604582395.7620,-87
1604582395.7640,-82
1604582395.7660,-67
1604582395.7680,-63
1604582395.7700,-67
1604582395.7720,-65
1604582395.7740,-60
1604582395.7747,-63
1604582395.7760,-63
1604582395.7779,-58
1604582395.7802,-60
1604582395.7820,-63
1604582395.7841,-60
1604582395.7860,-58
1604582395.7880,-58
1604582395.7900,-60
1604582395.7920,-65
1604582395.7940,-65
1604582395.7960,-55
1604582395.7981,-58
1604582395.8000,-60
1604582395.8020,-55
1604582395.8027,-55
1604582395.8039,-60
1604582395.8060,-55
1604582395.8080,-46
1604582395.8100,-55
1604582395.8120,-75
1604582395.8140,-65
1604582395.8160,-19
1604582395.8179,7
1604582395.8200,-14
1604582395.8220,-21
1604582395.8240,-2
1604582395.8260,-16
1604582395.8281,-55
1604582395.8300,-72
1604582395.8320,-65
1604582395.8327,-58
1604582395.8340,-55
1604582395.8360,-58
1604582395.8380,-53
1604582395.8400,-53
1604582395.8420,-92
1604582395.8440,-157
1604582395.8462,-63
1604582395.8481,465
1604582395.8500,1331
1604582395.8520,2187
1604582395.8540,2682
1604582395.8560,1797
1604582395.8580,-249
1604582395.8600,-933
1604582395.8620,-196
1604582395.8627,-162
1604582395.8640,-492
1604582395.8660,-320
1604582395.8680,-213
1604582395.8700,-320
1604582395.8720,-293
1604582395.8739,-223
1604582396.3400,-232
1604582396.3410,-225
1604582396.3433,-191
1604582396.3460,-179
1604582396.3481,-164
1604582396.3500,-150
1604582396.3522,-143
1604582396.3540,-123
1604582396.3547,-99
1604582396.3560,-92
1604582396.3580,-80
1604582396.3600,-55
1604582396.3620,-38
1604582396.3640,-31
1604582396.3660,-19
1604582396.3680,-7
1604582396.3699,-9
1604582396.3720,-19
1604582396.3739,-36
1604582396.3760,-63
1604582396.3780,-99
1604582396.3799,-138
1604582396.3819,-172
1604582396.3839,-191
1604582396.3846,-198
1604582396.3859,-189
1604582396.3879,-169
1604582396.3899,-145
1604582396.3919,-126
1604582396.3939,-111
1604582396.3959,-99
1604582396.3980,-94
1604582396.3999,-94
1604582396.4019,-92
1604582396.4039,-87
1604582396.4061,-89
1604582396.4080,-97
1604582396.4099,-94
1604582396.4120,-84
1604582396.4139,-80
1604582396.4146,-75
1604582396.4159,-70
1604582396.4179,-65
1604582396.4199,-55
1604582396.4219,-53
1604582396.4240,-55
1604582396.4260,-55
1604582396.4280,-50
1604582396.4299,-50
1604582396.4319,-55
1604582396.4339,-63
1604582396.4360,-67
1604582396.4380,-65
1604582396.4399,-65
1604582396.4419,-65
1604582396.4439,-63
1604582396.4446,-65
1604582396.4459,-67
1604582396.4480,-63
1604582396.4499,-60
1604582396.4519,-63
1604582396.4539,-63
1604582396.4559,-55
1604582396.4580,-53
1604582396.4600,-53
1604582396.4619,-48
1604582396.4639,-43
1604582396.4659,-48
1604582396.4680,-50
1604582396.4699,-48
1604582396.4720,-46
1604582396.4739,-46
1604582396.4746,-46
1604582396.8798,-41
1604582396.8805,-36
1604582396.8829,-36
1604582396.8855,-38
1604582396.8876,-36
1604582396.8896,-29
1604582396.8916,-31
1604582396.8936,-33
1604582396.8956,-33
1604582396.8976,-38
1604582396.8995,-63
1604582396.9015,-84
1604582396.9022,-63
1604582396.9048,-16
1604582396.9065,0
1604582396.9086,-9
1604582396.9105,-9
1604582396.9125,-4
1604582396.9145,-31
1604582396.9165,-72
1604582396.9185,-80
1604582396.9205,-67
1604582396.9225,-67
1604582396.9245,-67
1604582396.9266,-60
1604582396.9285,-58
1604582396.9305,-72
1604582396.9325,-123
1604582396.9332,-186
1604582396.9345,19
1604582396.9365,700
1604582396.9385,1610
1604582396.9405,2473
1604582396.9425,2684
1604582396.9445,1137
1604582396.9465,-773
1604582396.9485,-691
1604582396.9505,-41
1604582396.9525,-346
1604582396.9545,-492
1604582396.9565,-254
1604582396.9585,-286
1604582396.9605,-363
1604582396.9625,-274
1604582396.9632,-240
1604582396.9645,-266
1604582396.9665,-232
1604582396.9685,-198
1604582396.9697,-194
1604582396.9715,-184
1604582396.9735,-164
1604582396.9756,-152
1604582396.9775,-133
1604582396.9795,-113
1604582396.9815,-99
1604582396.9835,-84
1604582396.9856,-65
1604582396.9876,-53
1604582396.9895,-43
1604582396.9901,-33
1604582396.9915,-31
1604582396.9935,-36
1604582396.9955,-48
1604582396.9975,-63
1604582396.9997,-82
1604582397.0016,-113
1604582397.0035,-143
1604582397.0055,-169
1604582397.0076,-184
1604582397.0095,-181
1604582397.0115,-160
1604582397.0135,-133
1604582397.0155,-111
1604582397.4500,-99
1604582397.4509,-89
1604582397.4526,-80
1604582397.4550,-75
1604582397.4570,-75
1604582397.4590,-72
1604582397.4610,-72
1604582397.4630,-80
1604582397.4650,-87
1604582397.4670,-82
1604582397.4690,-77
1604582397.4709,-77
1604582397.4730,-77
1604582397.4750,-75
1604582397.4770,-70
1604582397.4789,-67
1604582397.4809,-67
1604582397.4830,-65
1604582397.4835,-63
1604582397.4850,-63
1604582397.4870,-65
1604582397.4889,-65
1604582397.4909,-72
1604582397.4929,-75
1604582397.4949,-72
1604582397.4970,-70
1604582397.4989,-70
1604582397.5009,-70
1604582397.5029,-70
1604582397.5049,-70
1604582397.5069,-70
1604582397.5089,-70
1604582397.5109,-70
1604582397.5129,-67
1604582397.5135,-65
1604582397.5149,-65
1604582397.5169,-65
1604582397.5189,-58
1604582397.5209,-58
1604582397.5229,-55
1604582397.5249,-50
1604582397.5269,-48
1604582397.5291,-46
1604582397.5310,-48
1604582397.5329,-50
1604582397.5349,-46
1604582397.5370,-43
1604582397.5389,-46
1604582397.5409,-43
1604582397.5429,-41
1604582397.5435,-43
1604582397.5449,-46
1604582397.5469,-38
1604582397.5489,-26
1604582397.5509,-29
1604582397.5529,-48
1604582397.5549,-48
1604582397.5569,-12
1604582397.5589,29
1604582397.5609,41
1604582397.5629,31
1604582397.5649,24
1604582397.5669,19
1604582397.5689,-9
1604582397.5709,-48
1604582397.5729,-58
1604582397.5735,-48
1604582397.5749,-53
1604582397.5769,-53
1604582397.5789,-48
1604582397.5809,-48
1604582397.5829,-60
1604582397.5849,-118
1604582398.0200,-150
1604582398.0209,147
1604582398.0233,887
1604582398.0259,1772
1604582398.0280,2548
1604582398.0299,2427
1604582398.0305,647
1604582398.0320,-860
1604582398.0339,-468
1604582398.0359,-33
1604582398.0380,-397
1604582398.0399,-417
1604582398.0420,-218
1604582398.0439,-288
1604582398.0459,-327
1604582398.0479,-242
1604582398.0499,-227
1604582398.0519,-240
1604582398.0539,-201
1604582398.0559,-179
1604582398.0582,-179
1604582398.0600,-162
1604582398.0605,-138
1604582398.0619,-128
1604582398.0639,-118
1604582398.0659,-101
1604582398.0678,-84
1604582398.0699,-67
1604582398.0719,-58
1604582398.0739,-46
1604582398.0759,-31
1604582398.0779,-24
1604582398.0800,-26
1604582398.0819,-33
1604582398.0839,-48
1604582398.0859,-72
1604582398.0879,-101
1604582398.0899,-130
1604582398.0905,-157
1604582398.0919,-179
1604582398.0939,-186
1604582398.0958,-177
1604582398.0979,-152
1604582398.0998,-121
1604582398.1019,-94
1604582398.1039,-75
1604582398.1058,-63
1604582398.1079,-55
1604582398.1099,-50
1604582398.1118,-46
1604582398.1139,-41
1604582398.1159,-41
1604582398.1179,-41
1604582398.1200,-31
1604582398.1219,-36
1604582398.1239,-46
1604582398.1259,-41
1604582398.1279,-26
1604582398.1299,-21
1604582398.1318,-26
1604582398.1339,-29
1604582398.1359,-19
1604582398.1379,-9
1604582398.1399,-9
1604582398.1418,-16
1604582398.1439,-16
1604582398.1459,-21
1604582398.1479,-26
1604582398.1500,-21
1604582398.1504,-14
1604582398.1519,-16
1604582398.1541,-16
1604582398.1559,-14
1604582398.5601,-14
1604582398.5608,-19
1604582398.5619,-24
1604582398.5639,-21
1604582398.5659,-19
1604582398.5680,-24
1604582398.5699,-31
1604582398.5719,-36
1604582398.5739,-26
1604582398.5745,-21
1604582398.5759,-36
1604582398.5780,-46
1604582398.5799,-36
1604582398.5819,-26
1604582398.5839,-31
1604582398.5860,-33
1604582398.5879,-31
1604582398.5899,-26
1604582398.5920,-21
1604582398.5938,-19
1604582398.5959,-19
1604582398.5979,-19
1604582398.5999,-21
1604582398.6019,-21
1604582398.6039,-26
1604582398.6045,-33
1604582398.6059,-26
1604582398.6079,2
1604582398.6099,31
1604582398.6118,41
1604582398.6138,36
1604582398.6160,38
1604582398.6178,38
1604582398.6199,9
1604582398.6219,-26
1604582398.6239,-33
1604582398.6259,-26
1604582398.6279,-24
1604582398.6299,-33
1604582398.6319,-33
1604582398.6339,-31
1604582398.6345,-58
1604582398.6359,-126
1604582398.6379,-48
1604582398.6399,465
1604582398.6419,1321
1604582398.6439,2143
1604582398.6459,2616
1604582398.6479,1797
1604582398.6501,-189
1604582398.6519,-906
1604582398.6539,-198
1604582398.6558,-145
1604582398.6579,-477
1604582398.6599,-315
1604582398.6619,-203
1604582398.6639,-312
1604582398.6645,-281
1604582398.6658,-203
1604582398.6679,-223
1604582398.6699,-223
1604582398.6719,-179
1604582398.6739,-162
1604582398.6759,-157
1604582398.6779,-140
1604582398.6799,-118
1604582398.6819,-101
1604582398.6839,-84
1604582398.6858,-72
1604582398.6879,-50
1604582398.6898,-33
1604582398.6919,-31
1604582398.6939,-33
1604582399.0999,-26
1604582399.1008,-19
1604582399.1033,-19
1604582399.1060,-36
1604582399.1079,-58
1604582399.1099,-82
1604582399.1120,-116
1604582399.1140,-164
1604582399.1159,-208
1604582399.1179,-223
1604582399.1199,-215
1604582399.1218,-196
1604582399.1239,-164
1604582399.1258,-128
1604582399.1279,-104
1604582399.1285,-97
1604582399.1299,-89
1604582399.1319,-75
1604582399.1338,-70
1604582399.1359,-77
1604582399.1379,-70
1604582399.1399,-53
1604582399.1419,-55
1604582399.1439,-63
1604582399.1458,-53
1604582399.1481,-43
1604582399.1498,-38
1604582399.1521,-38
1604582399.1539,-33
1604582399.1558,-19
1604582399.1579,-12
1604582399.1584,-12
1604582399.1598,-4
1604582399.1618,-2
1604582399.1638,-12
1604582399.1658,-19
1604582399.1678,-14
1604582399.1699,-16
1604582399.1718,-26
1604582399.1738,-31
1604582399.1758,-24
1604582399.1779,-26
1604582399.1799,-29
1604582399.1819,-24
1604582399.1838,-19
1604582399.1858,-26
1604582399.1879,-29
1604582399.1884,-21
1604582399.1898,-16
1604582399.1918,-24
1604582399.1938,-24
1604582399.1958,-19
1604582399.1978,-24
1604582399.1998,-31
1604582399.2018,-31
1604582399.2038,-21
1604582399.2058,-19
1604582399.2078,-21
1604582399.2098,-24
1604582399.2118,-21
1604582399.2138,-19
1604582399.2158,-19
1604582399.2178,-16
1604582399.2184,-19
1604582399.2198,-31
1604582399.2218,-38
1604582399.2238,-31
1604582399.2258,-9
1604582399.2278,21
1604582399.2298,36
1604582399.2318,29
1604582399.2338,21
1604582399.2358,9
1604582399.7004,-19
1604582399.7014,-38
1604582399.7038,-36
1604582399.7051,-36
1604582399.7065,-48
1604582399.7087,-55
1604582399.7105,-50
1604582399.7126,-60
1604582399.7144,-121
1604582399.7164,-164
1604582399.7184,94
1604582399.7205,812
1604582399.7224,1690
1604582399.7244,2434
1604582399.7264,2449
1604582399.7284,848
1604582399.7304,-863
1604582399.7324,-637
1604582399.7344,-50
1604582399.7350,-368
1604582399.7364,-463
1604582399.7384,-242
1604582399.7404,-278
1604582399.7424,-337
1604582399.7444,-257
1604582399.7463,-232
1604582399.7484,-247
1604582399.7505,-218
1604582399.7524,-198
1604582399.7544,-194
1604582399.7564,-172
1604582399.7583,-150
1604582399.7604,-140
1604582399.7624,-126
1604582399.7644,-104
1604582399.7649,-89
1604582399.7664,-72
1604582399.7683,-53
1604582399.7703,-41
1604582399.7724,-36
1604582399.7744,-26
1604582399.7764,-19
1604582399.7783,-26
1604582399.7804,-41
1604582399.7823,-63
1604582399.7845,-94
1604582399.7864,-126
1604582399.7883,-155
1604582399.7904,-177
1604582399.7924,-181
1604582399.7944,-174
1604582399.7949,-157
1604582399.7964,-133
1604582399.7983,-106
1604582399.8003,-87
1604582399.8024,-77
1604582399.8045,-72
1604582399.8064,-75
1604582399.8084,-82
1604582399.8104,-82
1604582399.8124,-77
1604582399.8143,-77
1604582399.8163,-75
1604582399.8184,-70
1604582399.8204,-67
1604582399.8224,-63
1604582399.8244,-60
1604582399.8249,-58
1604582399.8264,-53
1604582399.8284,-46
1604582399.8303,-46
1604582399.8324,-48
1604582399.8343,-46
1604582400.3003,-43
1604582400.3013,-48
1604582400.3030,-50
1604582400.3050,-50
1604582400.3070,-50
1604582400.3089,-53
1604582400.3110,-55
1604582400.3130,-55
1604582400.3150,-58
1604582400.3156,-67
1604582400.3171,-75
1604582400.3190,-70
1604582400.3209,-65
1604582400.3230,-65
1604582400.3250,-67
1604582400.3269,-60
1604582400.3289,-53
1604582400.3309,-53
1604582400.3329,-53
1604582400.3349,-55
1604582400.3369,-60
1604582400.3389,-58
1604582400.3409,-50
1604582400.3429,-46
1604582400.3449,-43
1604582400.3455,-41
1604582400.3470,-43
1604582400.3489,-41
1604582400.3509,-36
1604582400.3530,-36
1604582400.3550,-33
1604582400.3569,-29
1604582400.3589,-26
1604582400.3609,-31
1604582400.3631,-38
1604582400.3649,-41
1604582400.3670,-29
1604582400.3688,7
1604582400.3709,38
1604582400.3729,43
1604582400.3749,43
1604582400.3754,36
1604582400.3770,7
1604582400.3789,-19
1604582400.3809,-26
1604582400.3829,-19
1604582400.3848,-16
1604582400.3869,-19
1604582400.3889,-21
1604582400.3909,-33
1604582400.3928,-70
1604582400.3949,-150
1604582400.3969,-116
1604582400.3989,339
1604582400.4009,1181
1604582400.4029,2095
1604582400.4049,2767
1604582400.4055,2075
1604582400.4069,-26
1604582400.4089,-928
1604582400.4109,-225
1604582400.4128,-118
1604582400.4149,-480
1604582400.4168,-344
1604582400.4189,-225
1604582400.4208,-334
1604582400.4229,-310
1604582400.4249,-240
1604582400.4269,-261
1604582400.4289,-257
1604582400.4308,-213
1604582400.4328,-203
1604582400.4349,-201
1604582400.8101,-179
1604582400.8112,-162
1604582400.8135,-150
1604582400.8162,-133
1604582400.8182,-113
1604582400.8202,-97
1604582400.8222,-82
1604582400.8242,-70
1604582400.8262,-60
1604582400.8282,-50
1604582400.8302,-50
1604582400.8322,-53
1604582400.8345,-58
1604582400.8363,-72
1604582400.8369,-104
1604582400.8382,-143
1604582400.8402,-169
1604582400.8422,-189
1604582400.8442,-210
1604582400.8463,-218
1604582400.8482,-194
1604582400.8501,-162
1604582400.8522,-140
1604582400.8542,-123
1604582400.8562,-104
1604582400.8582,-94
1604582400.8602,-92
1604582400.8622,-92
1604582400.8642,-87
1604582400.8662,-84
1604582400.8667,-87
1604582400.8682,-89
1604582400.8701,-82
1604582400.8721,-75
1604582400.8741,-70
1604582400.8761,-67
1604582400.8782,-67
1604582400.8801,-65
1604582400.8822,-63
1604582400.8842,-58
1604582400.8861,-55
1604582400.8881,-53
1604582400.8901,-55
1604582400.8921,-65
1604582400.8941,-67
1604582400.8961,-65
1604582400.8967,-65
1604582400.8981,-63
1604582400.9001,-60
1604582400.9021,-63
1604582400.9041,-67
1604582400.9061,-67
1604582400.9081,-63
1604582400.9101,-60
1604582400.9121,-63
1604582400.9141,-63
1604582400.9161,-58
1604582400.9182,-55
1604582400.9201,-55
1604582400.9221,-53
1604582400.9241,-50
1604582400.9261,-50
1604582400.9268,-48
1604582400.9283,-43
1604582400.9302,-43
1604582400.9321,-46
1604582400.9341,-38
1604582400.9361,-38
1604582400.9381,-41
1604582400.9401,-38
1604582400.9421,-36
1604582400.9441,-33
1604582400.9461,-33
1604582401.3502,-38
1604582401.3515,-43
1604582401.3529,-53
1604582401.3547,-60
1604582401.3556,-46
1604582401.3568,-12
1604582401.3588,19
1604582401.3607,24
1604582401.3628,9
1604582401.3648,-7
1604582401.3667,-33
1604582401.3687,-60
1604582401.3708,-65
1604582401.3728,-55
1604582401.3748,-53
1604582401.3768,-55
1604582401.3788,-53
1604582401.3808,-53
1604582401.3828,-87
1604582401.3848,-157
1604582401.3855,-63
1604582401.3869,470
1604582401.3887,1326
1604582401.3908,2182
1604582401.3928,2653
1604582401.3948,1634
1604582401.3968,-371
1604582401.3987,-834
1604582401.4007,-126
1604582401.4028,-201
1604582401.4047,-485
1604582401.4068,-300
1604582401.4088,-237
1604582401.4107,-337
1604582401.4127,-295
1604582401.4147,-240
1604582401.4153,-266
1604582401.4166,-259
1604582401.4187,-220
1604582401.4207,-208
1604582401.4227,-203
1604582401.4249,-186
1604582401.4267,-172
1604582401.4286,-160
1604582401.4307,-147
1604582401.4327,-133
1604582401.4348,-118
1604582401.4367,-106
1604582401.4387,-94
1604582401.4407,-77
1604582401.4427,-67
1604582401.4447,-67
1604582401.4453,-67
1604582401.4467,-75
1604582401.4487,-99
1604582401.4507,-126
1604582401.4527,-150
1604582401.4547,-177
1604582401.4567,-208
1604582401.4588,-223
1604582401.4607,-215
1604582401.4627,-189
1604582401.4647,-162
1604582401.4667,-138
1604582401.4688,-116
1604582401.4707,-101
1604582401.4727,-99
1604582401.4747,-97
1604582401.4752,-89
1604582401.4767,-89
1604582401.4786,-92
1604582401.4807,-92
1604582401.4826,-87
1604582401.9196,-84
1604582401.9201,-80
1604582401.9241,-72
1604582401.9260,-63
1604582401.9282,-67
1604582401.9297,-84
1604582401.9310,-89
1604582401.9331,-72
1604582401.9350,-65
1604582401.9370,-70
1604582401.9390,-70
1604582401.9410,-65
1604582401.9430,-63
1604582401.9450,-63
1604582401.9471,-63
1604582401.9490,-63
1604582401.9510,-70
1604582401.9530,-70
1604582401.9551,-60
1604582401.9572,-55
1604582401.9590,-60
1604582401.9672,-63
1604582401.9690,-63
1604582401.9710,-63
1604582401.9730,-60
1604582401.9750,-60
1604582401.9771,-58
1604582401.9790,-55
1604582401.9810,-53
1604582401.9830,-58
1604582401.9850,-63
1604582401.9871,-60
1604582401.9890,-58
1604582401.9910,-58
1604582401.9930,-53
1604582401.9950,-48
1604582401.9956,-50
1604582401.9969,-48
1604582401.9990,-38
1604582402.0010,-38
1604582402.0030,-50
1604582402.0051,-50
1604582402.0070,-36
1604582402.0090,-36
1604582402.0110,-50
1604582402.0130,-48
1604582402.0150,-31
1604582402.0171,-2
1604582402.0190,19
1604582402.0210,21
1604582402.0230,24
1604582402.0250,12
1604582402.0256,-24
1604582402.0270,-46
1604582402.0290,-38
1604582402.0310,-31
1604582402.0330,-33
1604582402.0350,-38
1604582402.0370,-38
1604582402.0390,-48
1604582402.0410,-87
1604582402.0430,-133
1604582402.0450,63
1604582402.0470,722
1604582402.0490,1603
1604582402.0510,2364
1604582402.0530,2553
1604582402.0550,1207
1604582402.0556,-649
1604582402.0571,-720
1604582402.0592,-67
1604582402.0611,-303
1604582402.0630,-480
1604582402.4598,-259
1604582402.4605,-266
1604582402.4629,-346
1604582402.4655,-264
1604582402.4676,-225
1604582402.4695,-261
1604582402.4717,-244
1604582402.4736,-215
1604582402.4756,-210
1604582402.4776,-196
1604582402.4783,-172
1604582402.4806,-160
1604582402.4828,-147
1604582402.4846,-126
1604582402.4865,-111
1604582402.4886,-106
1604582402.4905,-99
1604582402.4925,-87
1604582402.4946,-70
1604582402.4966,-60
1604582402.4986,-60
1604582402.5005,-67
1604582402.5025,-92
1604582402.5045,-121
1604582402.5066,-135
1604582402.5085,-162
1604582402.5092,-206
1604582402.5105,-240
1604582402.5125,-247
1604582402.5145,-230
1604582402.5166,-198
1604582402.5185,-174
1604582402.5205,-150
1604582402.5225,-128
1604582402.5245,-111
1604582402.5266,-99
1604582402.5285,-97
1604582402.5305,-99
1604582402.5325,-94
1604582402.5345,-87
1604582402.5366,-84
1604582402.5385,-84
1604582402.5392,-77
1604582402.5405,-65
1604582402.5425,-65
1604582402.5445,-65
1604582402.5466,-60
1604582402.5485,-58
1604582402.5507,-60
1604582402.5526,-53
1604582402.5545,-46
1604582402.5566,-50
1604582402.5585,-55
1604582402.5605,-53
1604582402.5625,-46
1604582402.5645,-43
1604582402.5666,-50
1604582402.5685,-58
1604582402.5692,-58
1604582402.5705,-50
1604582402.5725,-46
1604582402.5745,-46
1604582402.5766,-53
1604582402.5785,-50
1604582402.5805,-41
1604582402.5825,-38
1604582402.5845,-43
1604582402.5866,-41
1604582402.5885,-41
1604582402.5905,-41
1604582402.5925,-38
1604582402.5945,-33
1604582402.5966,-33
1604582403.0602,-33
1604582403.0610,-26
1604582403.0634,-21
1604582403.0661,-33
1604582403.0681,-46
1604582403.0701,-41
1604582403.0720,-38
1604582403.0741,-46
1604582403.0762,-53
1604582403.0780,-50
1604582403.0800,-41
1604582403.0820,-33
1604582403.0841,-14
1604582403.0860,12
1604582403.0868,16
1604582403.0890,2
1604582403.0910,-2
1604582403.0930,-16
1604582403.0951,-50
1604582403.0971,-63
1604582403.0990,-53
1604582403.1010,-50
1604582403.1030,-50
1604582403.1051,-50
1604582403.1070,-53
1604582403.1090,-77
1604582403.1112,-140
1604582403.1130,-97
1604582403.1150,373
1604582403.1171,1227
1604582403.1176,2085
1604582403.1190,2636
1604582403.1210,1942
1604582403.1230,-43
1604582403.1250,-936
1604582403.1270,-259
1604582403.1290,-113
1604582403.1309,-455
1604582403.1330,-332
1604582403.1350,-213
1604582403.1370,-310
1604582403.1390,-288
1604582403.1410,-218
1604582403.1430,-237
1604582403.1450,-235
1604582403.1470,-196
1604582403.1476,-186
1604582403.1490,-181
1604582403.1510,-157
1604582403.1530,-138
1604582403.1551,-130
1604582403.1570,-121
1604582403.1590,-101
1604582403.1610,-84
1604582403.1630,-72
1604582403.1636,-60
1604582403.1650,-46
1604582403.1670,-41
1604582403.1690,-43
1604582403.1710,-48
1604582403.1730,-58
1604582403.1736,-80
1604582403.1749,-106
1604582403.1770,-138
1604582403.1790,-174
1604582403.1810,-208
1604582403.1830,-225
1604582403.1850,-223
1604582403.1870,-206
1604582403.1889,-179
1604582403.1909,-155
1604582403.1930,-138
1604582403.1949,-126
1604582403.6304,-116
1604582403.6313,-116
1604582403.6330,-118
1604582403.6354,-113
1604582403.6376,-111
1604582403.6394,-109
1604582403.6414,-106
1604582403.6434,-111
1604582403.6454,-126
1604582403.6474,-126
1604582403.6494,-116
1604582403.6514,-109
1604582403.6533,-106
1604582403.6554,-104
1604582403.6574,-99
1604582403.6593,-94
1604582403.6614,-94
1604582403.6634,-94
1604582403.6639,-92
1604582403.6653,-92
1604582403.6673,-94
1604582403.6693,-94
1604582403.6713,-92
1604582403.6733,-92
1604582403.6753,-92
1604582403.6773,-89
1604582403.6793,-89
1604582403.6813,-89
1604582403.6833,-89
1604582403.6853,-89
1604582403.6873,-87
1604582403.6893,-87
1604582403.6913,-89
1604582403.6933,-84
1604582403.6939,-77
1604582403.6954,-75
1604582403.6974,-75
1604582403.6993,-75
1604582403.7013,-72
1604582403.7033,-70
1604582403.7053,-67
1604582403.7073,-70
1604582403.7093,-67
1604582403.7113,-65
1604582403.7133,-63
1604582403.7153,-60
1604582403.7173,-55
1604582403.7193,-58
1604582403.7213,-58
1604582403.7233,-60
1604582403.7239,-70
1604582403.7253,-72
1604582403.7273,-53
1604582403.7294,-19
1604582403.7313,7
1604582403.7334,12
1604582403.7353,9
1604582403.7373,4
1604582403.7394,-24
1604582403.7413,-55
1604582403.7433,-58
1604582403.7453,-55
1604582403.7473,-60
1604582403.7493,-63
1604582403.7513,-58
1604582403.7533,-58
1604582403.7539,-89
1604582403.7553,-169
1604582403.7573,-111
1604582403.7593,395
1604582403.7613,1263
1604582403.7633,2187
1604582403.7653,2822
1604582404.1699,1961
1604582404.1708,-201
1604582404.1732,-936
1604582404.1759,-191
1604582404.1779,-174
1604582404.1800,-514
1604582404.1820,-341
1604582404.1839,-242
1604582404.1845,-351
1604582404.1859,-322
1604582404.1879,-264
1604582404.1898,-281
1604582404.1919,-271
1604582404.1938,-237
1604582404.1958,-230
1604582404.1979,-218
1604582404.1998,-196
1604582404.2018,-179
1604582404.2039,-169
1604582404.2058,-155
1604582404.2078,-145
1604582404.2098,-135
1604582404.2118,-118
1604582404.2138,-101
1604582404.2144,-89
1604582404.2158,-82
1604582404.2178,-77
1604582404.2198,-80
1604582404.2219,-89
1604582404.2238,-106
1604582404.2258,-126
1604582404.2279,-152
1604582404.2298,-181
1604582404.2320,-208
1604582404.2339,-218
1604582404.2358,-213
1604582404.2378,-196
1604582404.2398,-177
1604582404.2418,-152
1604582404.2438,-126
1604582404.2444,-106
1604582404.2458,-99
1604582404.2478,-94
1604582404.2498,-92
1604582404.2518,-89
1604582404.2538,-89
1604582404.2559,-87
1604582404.2578,-84
1604582404.2598,-82
1604582404.2618,-80
1604582404.2638,-72
1604582404.2658,-67
1604582404.2678,-65
1604582404.2698,-67
1604582404.2719,-65
1604582404.2738,-60
1604582404.2744,-60
1604582404.2758,-63
1604582404.2778,-55
1604582404.2798,-53
1604582404.2818,-55
1604582404.2838,-58
1604582404.2858,-58
1604582404.2878,-55
1604582404.2898,-60
1604582404.2918,-67
1604582404.2938,-72
1604582404.2958,-70
1604582404.2978,-67
1604582404.2998,-65
1604582404.3018,-60
1604582404.3038,-60
1604582404.3044,-60
1604582404.7400,-58
1604582404.7406,-55
1604582404.7424,-55
1604582404.7445,-55
1604582404.7465,-50
1604582404.7485,-50
1604582404.7505,-55
1604582404.7525,-65
1604582404.7545,-65
1604582404.7565,-58
1604582404.7585,-53
1604582404.7606,-55
1604582404.7611,-60
1604582404.7625,-58
1604582404.7645,-53
1604582404.7664,-50
1604582404.7684,-55
1604582404.7704,-63
1604582404.7725,-70
1604582404.7745,-53
1604582404.7766,-9
1604582404.7784,19
1604582404.7804,19
1604582404.7824,16
1604582404.7844,9
1604582404.7865,-21
1604582404.7884,-48
1604582404.7904,-48
1604582404.7910,-38
1604582404.7924,-36
1604582404.7944,-43
1604582404.7964,-46
1604582404.7984,-43
1604582404.8004,-72
1604582404.8024,-143
1604582404.8044,-70
1604582404.8065,436
1604582404.8084,1287
1604582404.8104,2160
1604582404.8124,2694
1604582404.8144,1787
1604582404.8164,-244
1604582404.8184,-851
1604582404.8204,-150
1604582404.8210,-172
1604582404.8224,-475
1604582404.8244,-305
1604582404.8264,-223
1604582404.8284,-324
1604582404.8304,-288
1604582404.8324,-227
1604582404.8344,-247
1604582404.8365,-235
1604582404.8384,-196
1604582404.8404,-189
1604582404.8424,-181
1604582404.8444,-157
1604582404.8465,-147
1604582404.8484,-145
1604582404.8504,-130
1604582404.8510,-111
1604582404.8524,-101
1604582404.8546,-89
1604582404.8565,-67
1604582404.8584,-53
1604582404.8604,-53
1604582404.8624,-55
1604582404.8644,-53
1604582404.8665,-60
1604582404.8684,-84
1604582404.8704,-113
1604582404.8724,-140
1604582404.8744,-172
1604582405.2797,-201
1604582405.2804,-215
1604582405.2820,-213
1604582405.2845,-196
1604582405.2864,-164
1604582405.2885,-138
1604582405.2904,-118
1604582405.2924,-111
1604582405.2944,-111
1604582405.2965,-111
1604582405.2984,-104
1604582405.3004,-101
1604582405.3024,-101
1604582405.3045,-99
1604582405.3065,-92
1604582405.3084,-87
1604582405.3104,-82
1604582405.3124,-82
1604582405.3130,-80
1604582405.3144,-70
1604582405.3165,-65
1604582405.3184,-58
1604582405.3204,-53
1604582405.3224,-53
1604582405.3244,-53
1604582405.3265,-46
1604582405.3284,-43
1604582405.3303,-43
1604582405.3323,-43
1604582405.3344,-46
1604582405.3364,-46
1604582405.3383,-43
1604582405.3404,-41
1604582405.3423,-41
1604582405.3429,-46
1604582405.3444,-50
1604582405.3464,-46
1604582405.3484,-38
1604582405.3504,-36
1604582405.3523,-38
1604582405.3545,-36
1604582405.3565,-33
1604582405.3583,-31
1604582405.3604,-29
1604582405.3625,-31
1604582405.3644,-24
1604582405.3665,-21
1604582405.3684,-24
1604582405.3703,-19
1604582405.3724,-14
1604582405.3729,-24
1604582405.3744,-31
1604582405.3764,-29
1604582405.3784,-21
1604582405.3804,-21
1604582405.3823,-24
1604582405.3844,-19
1604582405.3864,-12
1604582405.3884,-16
1604582405.3904,-31
1604582405.3923,-33
1604582405.3944,-9
1604582405.3964,29
1604582405.3984,50
1604582405.4003,50
1604582405.4024,43
1604582405.4029,31
1604582405.4044,2
1604582405.4065,-16
1604582405.4084,-19
1604582405.4104,-19
1604582405.4124,-19
1604582405.4144,-16
1604582405.8499,-14
1604582405.8507,-16
1604582405.8532,-58
1604582405.8558,-118
1604582405.8578,58
1604582405.8584,700
1604582405.8598,1573
1604582405.8619,2349
1604582405.8638,2577
1604582405.8658,1268
1604582405.8679,-625
1604582405.8698,-744
1604582405.8718,-58
1604582405.8738,-257
1604582405.8758,-446
1604582405.8778,-227
1604582405.8798,-225
1604582405.8818,-312
1604582405.8840,-242
1604582405.8858,-196
1604582405.8877,-218
1604582405.8883,-206
1604582405.8897,-177
1604582405.8917,-167
1604582405.8937,-155
1604582405.8957,-138
1604582405.8977,-121
1604582405.8997,-101
1604582405.9017,-94
1604582405.9037,-84
1604582405.9057,-63
1604582405.9078,-43
1604582405.9097,-38
1604582405.9117,-29
1604582405.9137,-12
1604582405.9157,-9
1604582405.9177,-26
1604582405.9183,-46
1604582405.9197,-65
1604582405.9217,-94
1604582405.9237,-133
1604582405.9257,-167
1604582405.9277,-201
1604582405.9297,-225
1604582405.9317,-220
1604582405.9337,-186
1604582405.9357,-152
1604582405.9377,-128
1604582405.9397,-111
1604582405.9417,-101
1604582405.9437,-84
1604582405.9457,-77
1604582405.9477,-84
1604582405.9483,-80
1604582405.9497,-70
1604582405.9517,-70
1604582405.9537,-72
1604582405.9557,-65
1604582405.9577,-60
1604582405.9597,-63
1604582405.9617,-60
1604582405.9637,-55
1604582405.9657,-48
1604582405.9678,-46
1604582405.9697,-48
1604582405.9717,-46
1604582405.9737,-41
1604582405.9757,-41
1604582405.9777,-48
1604582405.9784,-53
1604582405.9797,-50
1604582405.9817,-48
1604582405.9837,-50
1604582406.4499,-53
1604582406.4507,-48
1604582406.4531,-50
1604582406.4558,-58
1604582406.4578,-53
1604582406.4598,-50
1604582406.4619,-58
1604582406.4638,-60
1604582406.4658,-58
1604582406.4678,-60
1604582406.4698,-60
1604582406.4719,-55
1604582406.4725,-48
1604582406.4738,-48
1604582406.4758,-53
1604582406.4778,-48
1604582406.4797,-43
1604582406.4817,-50
1604582406.4838,-55
1604582406.4857,-46
1604582406.4877,-41
1604582406.4897,-43
1604582406.4917,-41
1604582406.4937,-33
1604582406.4958,-33
1604582406.4977,-38
1604582406.4996,-38
1604582406.5017,-33
1604582406.5023,-14
1604582406.5037,14
1604582406.5057,33
1604582406.5079,36
1604582406.5097,29
1604582406.5117,7
1604582406.5137,-26
1604582406.5157,-41
1604582406.5177,-41
1604582406.5197,-41
1604582406.5217,-43
1604582406.5237,-43
1604582406.5257,-41
1604582406.5277,-53
1604582406.5297,-111
1604582406.5317,-138
1604582406.5323,169
1604582406.5337,923
1604582406.5357,1816
1604582406.5378,2553
1604582406.5397,2410
1604582406.5417,637
1604582406.5437,-902
1604582406.5457,-499
1604582406.5478,-24
1604582406.5497,-385
1604582406.5517,-412
1604582406.5537,-203
1604582406.5557,-271
1604582406.5577,-315
1604582406.5597,-227
1604582406.5617,-215
1604582406.5623,-230
1604582406.5637,-198
1604582406.5656,-181
1604582406.5677,-179
1604582406.5697,-160
1604582406.5717,-143
1604582406.5737,-133
1604582406.5757,-111
1604582406.5777,-94
1604582406.5797,-87
1604582406.5817,-72
1604582406.5837,-53
1604582406.5857,-41
1604582406.9901,-36
1604582406.9909,-31
1604582406.9934,-26
1604582406.9960,-36
1604582406.9980,-60
1604582407.0000,-82
1604582407.0020,-109
1604582407.0040,-147
1604582407.0060,-184
1604582407.0080,-206
1604582407.0099,-213
1604582407.0120,-213
1604582407.0139,-198
1604582407.0160,-167
1604582407.0179,-145
1604582407.0199,-130
1604582407.0220,-116
1604582407.0225,-109
1604582407.0239,-106
1604582407.0259,-109
1604582407.0279,-109
1604582407.0299,-101
1604582407.0319,-94
1604582407.0340,-94
1604582407.0359,-89
1604582407.0381,-84
1604582407.0400,-84
1604582407.0419,-82
1604582407.0439,-82
1604582407.0459,-87
1604582407.0480,-82
1604582407.0499,-77
1604582407.0519,-80
1604582407.0525,-75
1604582407.0539,-72
1604582407.0559,-72
1604582407.0579,-70
1604582407.0599,-70
1604582407.0619,-72
1604582407.0639,-75
1604582407.0659,-80
1604582407.0679,-87
1604582407.0699,-89
1604582407.0719,-92
1604582407.0739,-92
1604582407.0759,-89
1604582407.0779,-92
1604582407.0799,-89
1604582407.0819,-84
1604582407.0825,-82
1604582407.0839,-84
1604582407.0859,-82
1604582407.0879,-75
1604582407.0899,-70
1604582407.0919,-70
1604582407.0939,-67
1604582407.0959,-65
1604582407.0979,-65
1604582407.0999,-65
1604582407.1019,-60
1604582407.1039,-58
1604582407.1059,-58
1604582407.1079,-58
1604582407.1099,-53
1604582407.1119,-48
1604582407.1125,-43
1604582407.1140,-48
1604582407.1159,-55
1604582407.1180,-65
1604582407.1199,-55
1604582407.1219,-19
1604582407.1239,16
1604582407.1259,12
1604582407.5594,0
1604582407.5600,4
1604582407.5624,-14
1604582407.5653,-55
1604582407.5670,-65
1604582407.5676,-58
1604582407.5690,-55
1604582407.5711,-60
1604582407.5730,-65
1604582407.5750,-70
1604582407.5770,-84
1604582407.5790,-145
1604582407.5810,-184
1604582407.5830,104
1604582407.5850,853
1604582407.5871,1772
1604582407.5890,2602
1604582407.5910,2514
1604582407.5930,688
1604582407.5950,-894
1604582407.5971,-514
1604582407.5976,-60
1604582407.5990,-429
1604582407.6010,-453
1604582407.6030,-249
1604582407.6050,-320
1604582407.6071,-354
1604582407.6090,-266
1604582407.6110,-257
1604582407.6130,-271
1604582407.6150,-237
1604582407.6171,-225
1604582407.6190,-227
1604582407.6210,-206
1604582407.6230,-184
1604582407.6250,-174
1604582407.6270,-157
1604582407.6276,-140
1604582407.6290,-130
1604582407.6310,-116
1604582407.6330,-101
1604582407.6350,-87
1604582407.6370,-80
1604582407.6390,-77
1604582407.6409,-72
1604582407.6430,-72
1604582407.6450,-87
1604582407.6470,-111
1604582407.6490,-140
1604582407.6510,-174
1604582407.6530,-201
1604582407.6550,-223
1604582407.6570,-232
1604582407.6576,-215
1604582407.6591,-186
1604582407.6610,-164
1604582407.6630,-145
1604582407.6650,-121
1604582407.6671,-99
1604582407.6690,-97
1604582407.6710,-99
1604582407.6730,-94
1604582407.6750,-94
1604582407.6770,-99
1604582407.6790,-101
1604582407.6810,-97
1604582407.6829,-94
1604582407.6850,-92
1604582407.6870,-82
1604582407.6876,-77
1604582407.6890,-80
1604582407.6910,-77
1604582407.6930,-72
1604582408.1003,-70
1604582408.1011,-72
1604582408.1035,-72
1604582408.1061,-67
1604582408.1081,-63
1604582408.1101,-70
1604582408.1121,-77
1604582408.1141,-75
1604582408.1161,-67
1604582408.1181,-72
1604582408.1201,-92
1604582408.1221,-92
1604582408.1227,-87
1604582408.1241,-94
1604582408.1261,-92
1604582408.1281,-84
1604582408.1301,-89
1604582408.1321,-89
1604582408.1341,-80
1604582408.1361,-77
1604582408.1381,-75
1604582408.1401,-70
1604582408.1421,-67
1604582408.1441,-63
1604582408.1460,-60
1604582408.1481,-65
1604582408.1500,-65
1604582408.1521,-55
1604582408.1527,-50
1604582408.1541,-50
1604582408.1561,-46
1604582408.1581,-41
1604582408.1602,-43
1604582408.1621,-46
1604582408.1640,-41
1604582408.1660,-41
1604582408.1681,-36
1604582408.1701,-29
1604582408.1721,-33
1604582408.1741,-43
1604582408.1760,-33
1604582408.1781,4
1604582408.1801,43
1604582408.1821,46
1604582408.1827,31
1604582408.1841,33
1604582408.1861,19
1604582408.1881,-21
1604582408.1901,-41
1604582408.1920,-36
1604582408.1941,-26
1604582408.1960,-24
1604582408.1980,-24
1604582408.2001,-24
1604582408.2021,-31
1604582408.2040,-80
1604582408.2061,-118
1604582408.2080,138
1604582408.2101,851
1604582408.2120,1731
1604582408.2127,2495
1604582408.2141,2563
1604582408.2161,987
1604582408.2181,-778
1604582408.2201,-611
1604582408.2220,-21
1604582408.2240,-334
1604582408.2261,-438
1604582408.2281,-218
1604582408.2301,-259
1604582408.2320,-324
1604582408.2341,-244
1604582408.2361,-225
1604582408.6699,-240
1604582408.6707,-206
1604582408.6732,-179
1604582408.6758,-177
1604582408.6778,-162
1604582408.6798,-147
1604582408.6819,-145
1604582408.6838,-143
1604582408.6858,-126
1604582408.6877,-99
1604582408.6899,-87
1604582408.6918,-84
1604582408.6938,-72
1604582408.6957,-65
1604582408.6978,-65
1604582408.6998,-60
1604582408.7003,-60
1604582408.7018,-70
1604582408.7038,-92
1604582408.7058,-116
1604582408.7077,-145
1604582408.7098,-181
1604582408.7118,-218
1604582408.7137,-232
1604582408.7157,-223
1604582408.7178,-201
1604582408.7197,-172
1604582408.7217,-138
1604582408.7238,-116
1604582408.7257,-97
1604582408.7278,-82
1604582408.7297,-80
1604582408.7303,-82
1604582408.7317,-82
1604582408.7337,-84
1604582408.7357,-77
1604582408.7377,-72
1604582408.7397,-75
1604582408.7417,-75
1604582408.7437,-72
1604582408.7457,-65
1604582408.7477,-55
1604582408.7497,-50
1604582408.7517,-50
1604582408.7537,-48
1604582408.7557,-48
1604582408.7577,-55
1604582408.7597,-60
1604582408.7603,-55
1604582408.7617,-48
1604582408.7638,-50
1604582408.7657,-58
1604582408.7678,-58
1604582408.7697,-58
1604582408.7717,-60
1604582408.7737,-55
1604582408.7757,-48
1604582408.7777,-46
1604582408.7797,-48
1604582408.7817,-43
1604582408.7837,-43
1604582408.7858,-46
1604582408.7877,-43
1604582408.7897,-38
1604582408.7904,-31
1604582408.7917,-31
1604582408.7937,-36
1604582408.7957,-33
1604582408.7977,-29
1604582408.7997,-29
1604582408.8017,-33
1604582408.8038,-33
1604582408.8058,-38
1604582409.2096,-41
1604582409.2102,-38
1604582409.2126,-33
1604582409.2153,-33
1604582409.2173,-38
1604582409.2193,-43
1604582409.2199,-38
1604582409.2223,-31
1604582409.2243,-41
1604582409.2263,-60
1604582409.2283,-60
1604582409.2303,-46
1604582409.2322,-12
1604582409.2343,24
1604582409.2363,24
1604582409.2383,9
1604582409.2403,9
1604582409.2422,0
1604582409.2443,-36
1604582409.2463,-53
1604582409.2482,-43
1604582409.2503,-38
1604582409.2508,-41
1604582409.2523,-43
1604582409.2543,-43
1604582409.2562,-46
1604582409.2582,-87
1604582409.2602,-147
1604582409.2622,24
1604582409.2642,664
1604582409.2662,1549
1604582409.2682,2349
1604582409.2702,2604
1604582409.2722,1292
1604582409.2742,-623
1604582409.2762,-749
1604582409.2782,-67
1604582409.2802,-283
1604582409.2808,-482
1604582409.2824,-261
1604582409.2842,-254
1604582409.2862,-339
1604582409.2882,-266
1604582409.2902,-225
1604582409.2922,-244
1604582409.2942,-223
1604582409.2964,-196
1604582409.2982,-196
1604582409.3002,-179
1604582409.3022,-150
1604582409.3042,-138
1604582409.3062,-128
1604582409.3082,-113
1604582409.3089,-104
1604582409.3102,-92
1604582409.3122,-77
1604582409.3142,-63
1604582409.3162,-53
1604582409.3182,-50
1604582409.3202,-46
1604582409.3209,-46
1604582409.3232,-58
1604582409.3252,-82
1604582409.3273,-111
1604582409.3294,-150
1604582409.3313,-186
1604582409.3332,-213
1604582409.3352,-230
1604582409.3359,-232
1604582409.3373,-218
1604582409.3392,-186
1604582409.3412,-152
1604582409.3432,-126
1604582409.8098,-106
1604582409.8106,-97
1604582409.8130,-94
1604582409.8157,-92
1604582409.8177,-89
1604582409.8197,-94
1604582409.8218,-101
1604582409.8237,-94
1604582409.8257,-84
1604582409.8263,-84
1604582409.8276,-87
1604582409.8296,-80
1604582409.8316,-72
1604582409.8336,-72
1604582409.8356,-72
1604582409.8377,-67
1604582409.8396,-65
1604582409.8418,-67
1604582409.8436,-67
1604582409.8456,-65
1604582409.8476,-67
1604582409.8496,-75
1604582409.8516,-77
1604582409.8536,-77
1604582409.8556,-80
1604582409.8562,-77
1604582409.8576,-77
1604582409.8596,-87
1604582409.8616,-94
1604582409.8636,-92
1604582409.8656,-84
1604582409.8676,-82
1604582409.8696,-84
1604582409.8716,-87
1604582409.8736,-84
1604582409.8756,-80
1604582409.8776,-82
1604582409.8796,-82
1604582409.8816,-77
1604582409.8836,-80
1604582409.8856,-84
1604582409.8862,-82
1604582409.8876,-75
1604582409.8896,-70
1604582409.8916,-77
1604582409.8937,-80
1604582409.8956,-75
1604582409.8977,-72
1604582409.8996,-72
1604582409.9016,-70
1604582409.9036,-70
1604582409.9056,-70
1604582409.9076,-67
1604582409.9096,-63
1604582409.9116,-58
1604582409.9136,-63
1604582409.9156,-80
1604582409.9161,-89
1604582409.9176,-70
1604582409.9196,-33
1604582409.9216,-12
1604582409.9236,-16
1604582409.9255,-21
1604582409.9276,-21
1604582409.9296,-46
1604582409.9316,-82
1604582409.9336,-89
1604582409.9356,-84
1604582409.9378,-87
1604582409.9396,-84
1604582409.9415,-75
1604582409.9436,-75
1604582409.9456,-89
1604582410.3496,-152
1604582410.3503,-191
1604582410.3527,97
1604582410.3554,846
1604582410.3574,1765
1604582410.3594,2599
1604582410.3614,2519
1604582410.3634,693
1604582410.3654,-904
1604582410.3674,-526
1604582410.3693,-72
1604582410.3714,-453
1604582410.3734,-480
1604582410.3754,-276
1604582410.3774,-351
1604582410.3780,-378
1604582410.3794,-278
1604582410.3814,-271
1604582410.3834,-298
1604582410.3854,-269
1604582410.3874,-249
1604582410.3894,-247
1604582410.3913,-232
1604582410.3933,-210
1604582410.3954,-194
1604582410.3974,-181
1604582410.3994,-167
1604582410.4013,-145
1604582410.4033,-123
1604582410.4054,-113
1604582410.4074,-104
1604582410.4079,-92
1604582410.4094,-87
1604582410.4114,-87
1604582410.4133,-87
1604582410.4153,-92
1604582410.4174,-113
1604582410.4193,-140
1604582410.4214,-164
1604582410.4233,-189
1604582410.4253,-220
1604582410.4274,-249
1604582410.4293,-244
1604582410.4313,-210
1604582410.4333,-177
1604582410.4353,-150
1604582410.4375,-126
1604582410.4379,-106
1604582410.4394,-94
1604582410.4413,-89
1604582410.4433,-94
1604582410.4453,-101
1604582410.4473,-106
1604582410.4493,-109
1604582410.4513,-106
1604582410.4533,-99
1604582410.4553,-99
1604582410.4573,-97
1604582410.4593,-87
1604582410.4613,-77
1604582410.4633,-80
1604582410.4653,-89
1604582410.4674,-89
1604582410.4679,-80
1604582410.4693,-72
1604582410.4713,-77
1604582410.4733,-80
1604582410.4753,-75
1604582410.4774,-70
1604582410.4793,-72
1604582410.4813,-75
1604582410.4833,-72
1604582410.4853,-65
1604582410.9197,-65
1604582410.9205,-72
1604582410.9223,-72
1604582410.9230,-65
1604582410.9244,-55
1604582410.9264,-53
1604582410.9283,-65
1604582410.9303,-75
1604582410.9323,-72
1604582410.9343,-67
1604582410.9364,-63
1604582410.9383,-67
1604582410.9403,-65
1604582410.9423,-60
1604582410.9443,-58
1604582410.9464,-55
1604582410.9482,-58
1604582410.9504,-58
1604582410.9523,-50
1604582410.9528,-46
1604582410.9543,-41
1604582410.9563,-38
1604582410.9583,-43
1604582410.9603,-48
1604582410.9624,-48
1604582410.9643,-43
1604582410.9663,-36
1604582410.9683,-38
1604582410.9702,-46
1604582410.9722,-43
1604582410.9743,-31
1604582410.9763,-9
1604582410.9783,14
1604582410.9802,21
1604582410.9823,19
1604582410.9828,26
1604582410.9843,9
1604582410.9863,-29
1604582410.9882,-38
1604582410.9902,-29
1604582410.9923,-36
1604582410.9942,-46
1604582410.9963,-43
1604582410.9982,-48
1604582411.0003,-70
1604582411.0022,-133
1604582411.0043,-109
1604582411.0063,307
1604582411.0082,1130
1604582411.0102,1995
1604582411.0122,2616
1604582411.0128,2131
1604582411.0142,198
1604582411.0164,-960
1604582411.0182,-358
1604582411.0203,-84
1604582411.0222,-453
1604582411.0242,-371
1604582411.0263,-213
1604582411.0283,-312
1604582411.0303,-307
1604582411.0323,-225
1604582411.0342,-247
1604582411.0363,-257
1604582411.0382,-213
1604582411.0403,-189
1604582411.0422,-181
1604582411.0428,-167
1604582411.0442,-157
1604582411.0463,-147
1604582411.0482,-126
1604582411.0502,-104
1604582411.0523,-92
1604582411.4600,-82
1604582411.4607,-70
1604582411.4633,-55
1604582411.4658,-38
1604582411.4678,-29
1604582411.4698,-38
1604582411.4718,-53
1604582411.4738,-55
1604582411.4744,-84
1604582411.4759,-138
1604582411.4777,-174
1604582411.4797,-194
1604582411.4817,-227
1604582411.4838,-249
1604582411.4857,-237
1604582411.4878,-208
1604582411.4897,-179
1604582411.4917,-147
1604582411.4937,-118
1604582411.4957,-99
1604582411.4978,-92
1604582411.4997,-87
1604582411.5017,-77
1604582411.5037,-72
1604582411.5043,-72
1604582411.5057,-70
1604582411.5077,-65
1604582411.5097,-65
