Time,ECG
1607015434.4146,440
1607015434.4172,2019
1607015434.4198,4077
1607015434.4224,5212
1607015434.4242,5912
1607015434.4262,7054
1607015434.4283,8132
1607015434.4302,8648
1607015434.4325,8594
1607015434.4347,8294
1607015434.4372,8471
1607015434.4400,9129
1607015434.4422,9563
1607015434.4436,9735
1607015434.4453,9965
1607015434.4472,10178
1607015434.4492,10313
1607015434.4513,10458
1607015434.4532,10606
1607015434.4552,10718
1607015434.4572,10817
1607015434.4592,10935
1607015434.4612,11027
1607015434.4634,11069
1607015434.4653,11134
1607015434.4672,11209
1607015434.4692,11187
1607015434.4712,11199
1607015434.4731,11328
1607015434.4751,11313
1607015434.4772,11204
1607015434.4791,11311
1607015434.4811,11444
1607015434.4831,11349
1607015434.4852,11202
1607015434.4871,11236
1607015434.4891,11357
1607015434.4912,11296
1607015434.4931,11211
1607015434.4951,11286
1607015434.4971,11325
1607015434.4992,11277
1607015434.5011,11282
1607015434.5031,11303
1607015434.5052,11277
1607015434.5071,11238
1607015434.5091,11197
1607015434.5111,11161
1607015434.5131,11132
1607015434.5152,11107
1607015434.5174,11093
1607015434.5192,11073
1607015434.5211,11030
1607015434.5231,11032
1607015434.5251,11066
1607015434.5271,10996
1607015434.5291,10887
1607015434.5311,10860
1607015434.5332,10814
1607015434.5351,10744
1607015434.5372,10710
1607015434.5391,10672
1607015434.5412,10594
1607015434.5432,10512
1607015434.5451,10427
1607015434.5471,10316
1607015434.5491,10233
1607015434.5511,10204
1607015434.5531,10168
1607015434.5551,10100
1607015434.5570,10003
1607015434.5591,9902
1607015434.5611,9810
1607015434.9529,9749
1607015434.9541,9708
1607015434.9566,9611
1607015434.9592,9492
1607015434.9612,9415
1607015434.9632,9342
1607015434.9653,9253
1607015434.9672,9170
1607015434.9692,9115
1607015434.9712,9064
1607015434.9733,8984
1607015434.9752,8897
1607015434.9772,8810
1607015434.9792,8703
1607015434.9812,8614
1607015434.9833,8529
1607015434.9852,8466
1607015434.9872,8432
1607015434.9892,8347
1607015434.9912,8246
1607015434.9932,8188
1607015434.9953,8103
1607015434.9972,7984
1607015434.9992,7921
1607015435.0017,7897
1607015435.0032,7798
1607015435.0052,7674
1607015435.0072,7623
1607015435.0094,7585
1607015435.0112,7495
1607015435.0131,7410
1607015435.0152,7364
1607015435.0171,7328
1607015435.0191,7251
1607015435.0212,7142
1607015435.0232,7057
1607015435.0251,7038
1607015435.0272,7001
1607015435.0291,6943
1607015435.0311,6854
1607015435.0332,6672
1607015435.0351,6587
1607015435.0371,6611
1607015435.0391,6507
1607015435.0411,6374
1607015435.0432,6367
1607015435.0452,6326
1607015435.0472,6219
1607015435.0491,6195
1607015435.0511,6222
1607015435.0532,6389
1607015435.0551,6682
1607015435.0571,6592
1607015435.0591,5938
1607015435.0611,5367
1607015435.0631,5348
1607015435.0651,5486
1607015435.0672,5493
1607015435.0692,5478
1607015435.0711,5457
1607015435.0732,5413
1607015435.0751,5360
1607015435.0771,5302
1607015435.0792,5251
1607015435.0811,5200
1607015435.0832,5144
1607015435.0852,5093
1607015435.0871,5052
1607015435.0891,5006
1607015435.0912,4946
1607015435.0931,4897
1607015435.0951,4861
1607015435.0971,4813
1607015435.5229,4759
1607015435.5239,4728
1607015435.5264,4660
1607015435.5290,4566
1607015435.5310,4541
1607015435.5330,4539
1607015435.5353,4503
1607015435.5370,4416
1607015435.5389,4326
1607015435.5409,4326
1607015435.5429,4319
1607015435.5450,4258
1607015435.5471,4227
1607015435.5490,4202
1607015435.5510,4169
1607015435.5530,4137
1607015435.5550,4101
1607015435.5571,4045
1607015435.5590,3980
1607015435.5609,3905
1607015435.5629,3825
1607015435.5649,3757
1607015435.5669,3692
1607015435.5689,3602
1607015435.5710,3483
1607015435.5729,3358
1607015435.5749,3239
1607015435.5769,3142
1607015435.5790,3067
1607015435.5810,3011
1607015435.5829,2970
1607015435.5849,2936
1607015435.5869,2898
1607015435.5889,2859
1607015435.5909,2827
1607015435.5929,2801
1607015435.5949,2772
1607015435.5969,2740
1607015435.5989,2709
1607015435.6009,2687
1607015435.6029,2665
1607015435.6049,2638
1607015435.6069,2607
1607015435.6089,2578
1607015435.6108,2544
1607015435.6129,2520
1607015435.6149,2503
1607015435.6170,2479
1607015435.6189,2450
1607015435.6209,2423
1607015435.6229,2404
1607015435.6249,2384
1607015435.6269,2358
1607015435.6289,2336
1607015435.6310,2314
1607015435.6329,2287
1607015435.6349,2263
1607015435.6370,2241
1607015435.6389,2220
1607015435.6409,2193
1607015435.6429,2174
1607015435.6449,2159
1607015435.6468,2137
1607015435.6489,2108
1607015435.6509,2086
1607015435.6530,2065
1607015435.6549,2043
1607015435.6569,2024
1607015435.6589,2011
1607015435.6609,2004
1607015435.6629,1999
1607015435.6649,1982
1607015435.6669,1958
1607015436.0623,1946
1607015436.0633,1915
1607015436.0650,1864
1607015436.0670,1832
1607015436.0690,1818
1607015436.0710,1796
1607015436.0730,1779
1607015436.0750,1769
1607015436.0770,1748
1607015436.0789,1699
1607015436.0809,1714
1607015436.0829,1944
1607015436.0849,2333
1607015436.0869,2508
1607015436.0889,2108
1607015436.0909,1319
1607015436.0929,941
1607015436.0949,1229
1607015436.0969,1481
1607015436.0989,1459
1607015436.1009,1493
1607015436.1029,1542
1607015436.1049,1505
1607015436.1069,1486
1607015436.1089,1491
1607015436.1110,1467
1607015436.1129,1450
1607015436.1149,1447
1607015436.1169,1430
1607015436.1189,1413
1607015436.1209,1404
1607015436.1229,1394
1607015436.1249,1382
1607015436.1269,1375
1607015436.1289,1367
1607015436.1311,1355
1607015436.1330,1346
1607015436.1349,1338
1607015436.1369,1336
1607015436.1389,1331
1607015436.1409,1326
1607015436.1429,1326
1607015436.1449,1326
1607015436.1469,1326
1607015436.1489,1326
1607015436.1509,1329
1607015436.1530,1331
1607015436.1549,1331
1607015436.1569,1331
1607015436.1590,1329
1607015436.1610,1321
1607015436.1630,1297
1607015436.1649,1256
1607015436.1669,1210
1607015436.1689,1162
1607015436.1709,1111
1607015436.1729,1065
1607015436.1750,1036
1607015436.1833,1014
1607015436.1849,995
1607015436.1869,978
1607015436.1889,968
1607015436.1909,968
1607015436.1930,966
1607015436.1949,956
1607015436.1969,958
1607015436.1989,958
1607015436.2009,944
1607015436.2029,936
1607015436.2049,939
1607015436.2069,936
1607015436.2089,927
1607015436.2109,922
1607015436.6929,915
1607015436.6941,903
1607015436.6966,888
1607015436.6992,878
1607015436.7012,866
1607015436.7033,849
1607015436.7054,830
1607015436.7073,820
1607015436.7092,815
1607015436.7112,803
1607015436.7131,789
1607015436.7151,779
1607015436.7171,774
1607015436.7194,772
1607015436.7212,767
1607015436.7231,760
1607015436.7251,750
1607015436.7272,736
1607015436.7292,728
1607015436.7312,726
1607015436.7331,721
1607015436.7351,716
1607015436.7371,711
1607015436.7391,709
1607015436.7412,709
1607015436.7431,709
1607015436.7451,716
1607015436.7471,731
1607015436.7491,731
1607015436.7511,709
1607015436.7531,714
1607015436.7551,716
1607015436.7571,677
1607015436.7591,644
1607015436.7611,641
1607015436.7632,639
1607015436.7651,631
1607015436.7671,634
1607015436.7691,634
1607015436.7711,617
1607015436.7731,588
1607015436.7751,658
1607015436.7771,990
1607015436.7791,1409
1607015436.7811,1413
1607015436.7831,760
1607015436.7851,-12
1607015436.7871,-41
1607015436.7891,411
1607015436.7911,520
1607015436.7931,447
1607015436.7951,520
1607015436.7971,542
1607015436.7991,493
1607015436.8011,508
1607015436.8031,525
1607015436.8051,508
1607015436.8071,503
1607015436.8091,513
1607015436.8111,510
1607015436.8131,508
1607015436.8151,508
1607015436.8171,508
1607015436.8191,508
1607015436.8213,508
1607015436.8231,510
1607015436.8251,510
1607015436.8271,513
1607015436.8291,518
1607015436.8311,525
1607015436.8332,532
1607015436.8351,542
1607015436.8371,552
1607015437.1724,566
1607015437.1732,583
1607015437.1756,600
1607015437.1782,612
1607015437.1803,624
1607015437.1823,636
1607015437.1843,644
1607015437.1863,639
1607015437.1882,622
1607015437.1903,588
1607015437.1923,537
1607015437.1942,489
1607015437.1962,445
1607015437.1982,404
1607015437.2002,368
1607015437.2023,341
1607015437.2042,329
1607015437.2062,326
1607015437.2082,324
1607015437.2102,324
1607015437.2122,331
1607015437.2142,334
1607015437.2162,334
1607015437.2182,338
1607015437.2202,346
1607015437.2222,351
1607015437.2242,355
1607015437.2262,358
1607015437.2283,360
1607015437.2303,363
1607015437.2324,363
1607015437.2342,365
1607015437.2362,363
1607015437.2382,355
1607015437.2402,348
1607015437.2423,346
1607015437.2442,343
1607015437.2462,341
1607015437.2482,336
1607015437.2502,331
1607015437.2523,331
1607015437.2542,329
1607015437.2565,322
1607015437.2583,319
1607015437.2602,322
1607015437.2622,319
1607015437.2642,312
1607015437.2662,307
1607015437.2682,307
1607015437.2702,307
1607015437.2723,305
1607015437.2742,305
1607015437.2762,302
1607015437.2782,300
1607015437.2802,300
1607015437.2823,305
1607015437.2842,312
1607015437.2862,322
1607015437.2882,338
1607015437.2902,341
1607015437.2923,331
1607015437.2942,338
1607015437.2962,334
1607015437.2982,295
1607015437.3002,276
1607015437.3023,278
1607015437.3042,278
1607015437.3062,278
1607015437.3084,283
1607015437.3103,280
1607015437.3123,261
1607015437.3142,234
1607015437.3162,314
1607015437.7729,668
1607015437.7739,1099
1607015437.7764,1101
1607015437.7790,440
1607015437.7811,-334
1607015437.7829,-365
1607015437.7850,82
1607015437.7870,193
1607015437.7890,135
1607015437.7909,220
1607015437.7929,251
1607015437.7949,210
1607015437.7969,227
1607015437.7991,249
1607015437.8010,237
1607015437.8030,234
1607015437.8049,244
1607015437.8069,244
1607015437.8089,246
1607015437.8109,249
1607015437.8131,249
1607015437.8150,251
1607015437.8169,254
1607015437.8189,256
1607015437.8209,261
1607015437.8229,271
1607015437.8249,278
1607015437.8269,283
1607015437.8289,290
1607015437.8309,302
1607015437.8329,314
1607015437.8349,326
1607015437.8369,346
1607015437.8389,358
1607015437.8409,368
1607015437.8430,384
1607015437.8450,404
1607015437.8469,416
1607015437.8489,414
1607015437.8509,399
1607015437.8529,372
1607015437.8550,331
1607015437.8569,288
1607015437.8589,244
1607015437.8609,205
1607015437.8630,176
1607015437.8649,157
1607015437.8669,147
1607015437.8689,145
1607015437.8709,147
1607015437.8730,147
1607015437.8749,147
1607015437.8769,152
1607015437.8789,157
1607015437.8809,162
1607015437.8830,169
1607015437.8849,174
1607015437.8869,176
1607015437.8889,181
1607015437.8909,181
1607015437.8929,184
1607015437.8949,186
1607015437.8969,184
1607015437.8988,181
1607015437.9009,181
1607015437.9029,179
1607015437.9049,174
1607015437.9069,167
1607015437.9089,164
1607015437.9109,157
1607015437.9129,154
1607015437.9151,157
1607015437.9169,157
1607015438.3429,157
1607015438.3442,157
1607015438.3466,154
1607015438.3493,157
1607015438.3513,159
1607015438.3532,159
1607015438.3552,162
1607015438.3573,164
1607015438.3592,162
1607015438.3612,152
1607015438.3632,152
1607015438.3651,157
1607015438.3672,159
1607015438.3692,159
1607015438.3711,159
1607015438.3731,162
1607015438.3751,164
1607015438.3771,167
1607015438.3791,169
1607015438.3811,171
1607015438.3831,169
1607015438.3851,167
1607015438.3871,169
1607015438.3891,174
1607015438.3912,171
1607015438.3931,169
1607015438.3951,171
1607015438.3971,179
1607015438.3991,181
1607015438.4011,191
1607015438.4031,213
1607015438.4052,220
1607015438.4071,210
1607015438.4091,215
1607015438.4111,215
1607015438.4131,181
1607015438.4151,162
1607015438.4171,169
1607015438.4191,174
1607015438.4211,174
1607015438.4232,176
1607015438.4251,176
1607015438.4271,154
1607015438.4291,147
1607015438.4311,326
1607015438.4332,755
1607015438.4351,1062
1607015438.4372,798
1607015438.4392,4
1607015438.4414,-510
1607015438.4432,-227
1607015438.4451,133
1607015438.4471,96
1607015438.4491,89
1607015438.4511,176
1607015438.4531,162
1607015438.4551,140
1607015438.4571,164
1607015438.4591,171
1607015438.4611,162
1607015438.4634,169
1607015438.4651,171
1607015438.4671,164
1607015438.4691,167
1607015438.4711,174
1607015438.4732,179
1607015438.4751,181
1607015438.4771,188
1607015438.4791,191
1607015438.4811,198
1607015438.4831,208
1607015438.4851,213
1607015438.4871,222
1607015438.9117,232
1607015438.9130,244
1607015438.9155,256
1607015438.9181,273
1607015438.9201,292
1607015438.9222,309
1607015438.9242,326
1607015438.9261,341
1607015438.9280,358
1607015438.9300,368
1607015438.9321,363
1607015438.9340,346
1607015438.9360,317
1607015438.9380,278
1607015438.9401,230
1607015438.9420,186
1607015438.9440,150
1607015438.9460,121
1607015438.9480,101
1607015438.9500,92
1607015438.9520,89
1607015438.9540,87
1607015438.9547,89
1607015438.9570,94
1607015438.9590,99
1607015438.9610,104
1607015438.9630,106
1607015438.9651,113
1607015438.9670,121
1607015438.9690,125
1607015438.9709,123
1607015438.9730,123
1607015438.9750,128
1607015438.9770,130
1607015438.9790,128
1607015438.9810,128
1607015438.9830,128
1607015438.9850,123
1607015438.9858,121
1607015438.9880,118
1607015438.9900,118
1607015438.9920,116
1607015438.9940,113
1607015438.9959,113
1607015438.9980,116
1607015439.0000,116
1607015439.0020,116
1607015439.0040,113
1607015439.0060,111
1607015439.0080,111
1607015439.0100,111
1607015439.0120,116
1607015439.0140,118
1607015439.0160,116
1607015439.0167,113
1607015439.0190,111
1607015439.0210,113
1607015439.0230,113
1607015439.0250,116
1607015439.0270,118
1607015439.0289,121
1607015439.0310,118
1607015439.0330,121
1607015439.0350,125
1607015439.0369,128
1607015439.0390,128
1607015439.0410,128
1607015439.0430,128
1607015439.0450,130
1607015439.0470,130
1607015439.0477,130
1607015439.0500,133
1607015439.0520,133
1607015439.4526,133
1607015439.4536,135
1607015439.4560,140
1607015439.4587,138
1607015439.4606,140
1607015439.4629,140
1607015439.4647,140
1607015439.4666,130
1607015439.4686,121
1607015439.4706,125
1607015439.4726,130
1607015439.4733,125
1607015439.4755,128
1607015439.4775,135
1607015439.4795,150
1607015439.4816,169
1607015439.4835,169
1607015439.4855,162
1607015439.4875,167
1607015439.4895,152
1607015439.4916,121
1607015439.4935,116
1607015439.4955,121
1607015439.4975,121
1607015439.4995,125
1607015439.5016,130
1607015439.5036,116
1607015439.5042,92
1607015439.5065,174
1607015439.5086,508
1607015439.5106,915
1607015439.5126,922
1607015439.5145,312
1607015439.5166,-423
1607015439.5186,-472
1607015439.5205,-48
1607015439.5226,75
1607015439.5245,19
1607015439.5265,94
1607015439.5286,121
1607015439.5305,84
1607015439.5325,99
1607015439.5332,121
1607015439.5355,111
1607015439.5375,111
1607015439.5395,125
1607015439.5416,125
1607015439.5435,118
1607015439.5455,121
1607015439.5475,125
1607015439.5495,128
1607015439.5516,135
1607015439.5535,145
1607015439.5555,150
1607015439.5575,150
1607015439.5595,157
1607015439.5618,167
1607015439.5636,176
1607015439.5642,186
1607015439.5655,198
1607015439.5675,217
1607015439.5695,237
1607015439.5715,251
1607015439.5735,271
1607015439.5755,288
1607015439.5775,300
1607015439.5795,309
1607015439.5815,319
1607015439.5835,324
1607015439.5855,312
1607015439.5875,278
1607015439.5895,237
1607015439.5916,193
1607015439.9924,154
1607015439.9934,118
1607015439.9958,92
1607015439.9985,75
1607015440.0005,67
1607015440.0024,62
1607015440.0044,58
1607015440.0064,60
1607015440.0084,60
1607015440.0104,55
1607015440.0124,60
1607015440.0144,67
1607015440.0164,77
1607015440.0184,87
1607015440.0204,87
1607015440.0224,87
1607015440.0243,89
1607015440.0251,92
1607015440.0275,92
1607015440.0294,92
1607015440.0314,89
1607015440.0334,89
1607015440.0353,92
1607015440.0373,89
1607015440.0394,82
1607015440.0413,77
1607015440.0434,79
1607015440.0454,84
1607015440.0473,82
1607015440.0494,79
1607015440.0514,79
1607015440.0533,75
1607015440.0553,77
1607015440.0561,89
1607015440.0585,92
1607015440.0604,82
1607015440.0624,79
1607015440.0644,87
1607015440.0663,87
1607015440.0683,82
1607015440.0703,84
1607015440.0724,82
1607015440.0744,77
1607015440.0763,75
1607015440.0783,77
1607015440.0804,77
1607015440.0824,82
1607015440.0843,82
1607015440.0865,79
1607015440.0871,79
1607015440.0883,87
1607015440.0903,87
1607015440.0924,84
1607015440.0943,87
1607015440.0963,89
1607015440.0984,87
1607015440.1003,87
1607015440.1024,89
1607015440.1044,92
1607015440.1063,89
1607015440.1083,92
1607015440.1104,96
1607015440.1124,92
1607015440.1144,84
1607015440.1163,87
1607015440.1171,92
1607015440.1193,89
1607015440.1214,87
1607015440.1234,89
1607015440.1253,94
1607015440.1273,99
1607015440.1294,108
1607015440.1313,128
1607015440.5323,138
1607015440.5333,128
1607015440.5357,118
1607015440.5385,108
1607015440.5403,89
1607015440.5424,79
1607015440.5443,75
1607015440.5462,72
1607015440.5482,79
1607015440.5503,84
1607015440.5523,72
1607015440.5542,70
1607015440.5565,213
1607015440.5583,605
1607015440.5602,961
1607015440.5622,801
1607015440.5642,72
1607015440.5662,-547
1607015440.5682,-438
1607015440.5703,-67
1607015440.5722,-4
1607015440.5742,-2
1607015440.5762,79
1607015440.5782,87
1607015440.5802,62
1607015440.5823,82
1607015440.5842,94
1607015440.5862,89
1607015440.5882,92
1607015440.5902,99
1607015440.5923,99
1607015440.5942,106
1607015440.5962,108
1607015440.5982,106
1607015440.6002,108
1607015440.6022,118
1607015440.6042,123
1607015440.6062,125
1607015440.6082,133
1607015440.6102,142
1607015440.6122,150
1607015440.6142,159
1607015440.6162,171
1607015440.6182,186
1607015440.6202,198
1607015440.6224,213
1607015440.6242,227
1607015440.6263,242
1607015440.6283,259
1607015440.6303,268
1607015440.6323,283
1607015440.6342,290
1607015440.6362,288
1607015440.6382,268
1607015440.6402,239
1607015440.6422,205
1607015440.6442,167
1607015440.6462,130
1607015440.6482,99
1607015440.6502,77
1607015440.6522,62
1607015440.6542,55
1607015440.6562,55
1607015440.6584,55
1607015440.6603,55
1607015440.6622,58
1607015440.6642,65
1607015440.6662,70
1607015440.6682,75
1607015440.6702,77
1607015440.6722,79
1607015440.6742,82
1607015440.6762,87
1607015441.1325,89
1607015441.1334,89
1607015441.1359,84
1607015441.1386,75
1607015441.1405,67
1607015441.1426,70
1607015441.1446,70
1607015441.1465,65
1607015441.1485,62
1607015441.1505,62
1607015441.1525,62
1607015441.1545,60
1607015441.1565,58
1607015441.1585,53
1607015441.1606,50
1607015441.1625,55
1607015441.1644,60
1607015441.1665,67
1607015441.1685,67
1607015441.1704,65
1607015441.1725,67
1607015441.1744,67
1607015441.1764,62
1607015441.1784,62
1607015441.1805,65
1607015441.1824,65
1607015441.1844,60
1607015441.1864,58
1607015441.1884,62
1607015441.1904,65
1607015441.1925,67
1607015441.1944,70
1607015441.1964,72
1607015441.1984,72
1607015441.2004,75
1607015441.2025,75
1607015441.2044,77
1607015441.2064,79
1607015441.2084,82
1607015441.2104,79
1607015441.2125,79
1607015441.2146,82
1607015441.2165,82
1607015441.2184,82
1607015441.2205,82
1607015441.2224,79
1607015441.2244,82
1607015441.2264,84
1607015441.2284,84
1607015441.2304,87
1607015441.2324,87
1607015441.2344,87
1607015441.2364,89
1607015441.2385,96
1607015441.2405,101
1607015441.2425,104
1607015441.2444,123
1607015441.2464,142
1607015441.2484,130
1607015441.2504,123
1607015441.2524,133
1607015441.2544,113
1607015441.2564,87
1607015441.2584,82
1607015441.2604,84
1607015441.2624,87
1607015441.2644,92
1607015441.2664,94
1607015441.2684,72
1607015441.2705,48
1607015441.2724,174
1607015441.2744,556
1607015441.2764,920
1607015441.7024,808
1607015441.7030,123
1607015441.7043,-525
1607015441.7063,-435
1607015441.7083,-24
1607015441.7103,29
1607015441.7124,-12
1607015441.7142,67
1607015441.7163,72
1607015441.7183,36
1607015441.7203,58
1607015441.7223,72
1607015441.7243,60
1607015441.7263,67
1607015441.7283,77
1607015441.7304,77
1607015441.7323,79
1607015441.7343,87
1607015441.7363,92
1607015441.7385,87
1607015441.7403,84
1607015441.7424,92
1607015441.7443,104
1607015441.7463,108
1607015441.7483,113
1607015441.7504,125
1607015441.7523,140
1607015441.7543,147
1607015441.7563,162
1607015441.7583,181
1607015441.7604,200
1607015441.7623,220
1607015441.7644,237
1607015441.7663,251
1607015441.7683,266
1607015441.7703,280
1607015441.7723,290
1607015441.7743,288
1607015441.7762,266
1607015441.7783,230
1607015441.7803,191
1607015441.7824,152
1607015441.7843,111
1607015441.7863,72
1607015441.7883,46
1607015441.7903,33
1607015441.7923,26
1607015441.7943,19
1607015441.7963,19
1607015441.7983,19
1607015441.8003,19
1607015441.8023,24
1607015441.8043,33
1607015441.8064,43
1607015441.8083,46
1607015441.8103,46
1607015441.8123,50
1607015441.8143,60
1607015441.8163,65
1607015441.8183,62
1607015441.8203,60
1607015441.8223,60
1607015441.8243,58
1607015441.8264,58
1607015441.8283,58
1607015441.8303,58
1607015441.8323,50
1607015441.8343,46
1607015441.8363,43
1607015441.8384,43
1607015441.8405,41
1607015441.8424,38
1607015441.8443,41
1607015442.2725,43
1607015442.2734,41
1607015442.2759,38
1607015442.2786,41
1607015442.2805,46
1607015442.2827,46
1607015442.2846,46
1607015442.2866,46
1607015442.2886,48
1607015442.2906,43
1607015442.2925,36
1607015442.2945,38
1607015442.2965,38
1607015442.2984,31
1607015442.3005,33
1607015442.3025,41
1607015442.3044,46
1607015442.3064,48
1607015442.3084,46
1607015442.3104,48
1607015442.3124,50
1607015442.3144,55
1607015442.3164,58
1607015442.3184,55
1607015442.3204,53
1607015442.3224,55
1607015442.3244,55
1607015442.3265,58
1607015442.3284,55
1607015442.3304,58
1607015442.3324,62
1607015442.3344,65
1607015442.3364,62
1607015442.3384,65
1607015442.3404,67
1607015442.3424,70
1607015442.3444,72
1607015442.3464,72
1607015442.3485,75
1607015442.3504,79
1607015442.3525,84
1607015442.3544,101
1607015442.3564,118
1607015442.3584,116
1607015442.3604,116
1607015442.3624,121
1607015442.3644,96
1607015442.3664,70
1607015442.3691,72
1607015442.3705,77
1607015442.3725,77
1607015442.3744,82
1607015442.3764,79
1607015442.3784,62
1607015442.3804,50
1607015442.3825,188
1607015442.3844,585
1607015442.3864,953
1607015442.3884,811
1607015442.3904,84
1607015442.3924,-556
1607015442.3944,-443
1607015442.3964,-48
1607015442.3984,2
1607015442.4004,-21
1607015442.4025,65
1607015442.4044,72
1607015442.4064,43
1607015442.4084,70
1607015442.4104,84
1607015442.4124,75
1607015442.4144,79
1607015442.4164,87
1607015442.8427,84
1607015442.8437,87
1607015442.8462,92
1607015442.8488,94
1607015442.8507,94
1607015442.8527,92
1607015442.8548,92
1607015442.8567,94
1607015442.8587,104
1607015442.8607,113
1607015442.8627,116
1607015442.8647,116
1607015442.8667,128
1607015442.8687,145
1607015442.8707,159
1607015442.8727,176
1607015442.8746,196
1607015442.8767,208
1607015442.8786,222
1607015442.8807,237
1607015442.8827,251
1607015442.8846,259
1607015442.8866,256
1607015442.8886,239
1607015442.8906,208
1607015442.8927,169
1607015442.8948,128
1607015442.8967,89
1607015442.8987,58
1607015442.9007,36
1607015442.9026,16
1607015442.9046,4
1607015442.9066,4
1607015442.9086,4
1607015442.9106,4
1607015442.9127,7
1607015442.9147,12
1607015442.9167,19
1607015442.9186,24
1607015442.9206,31
1607015442.9226,36
1607015442.9246,38
1607015442.9266,41
1607015442.9286,46
1607015442.9306,50
1607015442.9327,53
1607015442.9347,48
1607015442.9367,48
1607015442.9386,50
1607015442.9407,46
1607015442.9428,38
1607015442.9446,36
1607015442.9466,36
1607015442.9486,31
1607015442.9506,29
1607015442.9527,29
1607015442.9547,29
1607015442.9566,29
1607015442.9586,29
1607015442.9606,29
1607015442.9627,29
1607015442.9646,31
1607015442.9666,33
1607015442.9686,33
1607015442.9706,36
1607015442.9727,36
1607015442.9748,38
1607015442.9766,38
1607015442.9786,38
1607015442.9806,38
1607015442.9827,36
1607015442.9847,36
1607015442.9867,38
1607015443.3528,38
1607015443.3539,43
1607015443.3564,46
1607015443.3591,46
1607015443.3612,48
1607015443.3630,48
1607015443.3650,50
1607015443.3670,53
1607015443.3689,53
1607015443.3709,50
1607015443.3730,53
1607015443.3749,50
1607015443.3769,43
1607015443.3789,48
1607015443.3809,50
1607015443.3829,50
1607015443.3849,50
1607015443.3869,55
1607015443.3889,55
1607015443.3908,58
1607015443.3929,58
1607015443.3949,60
1607015443.3969,62
1607015443.3989,65
1607015443.4009,70
1607015443.4029,77
1607015443.4049,96
1607015443.4069,108
1607015443.4089,101
1607015443.4109,101
1607015443.4129,108
1607015443.4149,82
1607015443.4169,53
1607015443.4189,55
1607015443.4209,58
1607015443.4229,55
1607015443.4249,60
1607015443.4269,65
1607015443.4289,48
1607015443.4309,33
1607015443.4329,169
1607015443.4350,552
1607015443.4369,898
1607015443.4389,752
1607015443.4408,41
1607015443.4429,-571
1607015443.4449,-426
1607015443.4469,-31
1607015443.4489,0
1607015443.4509,-26
1607015443.4530,60
1607015443.4548,65
1607015443.4569,36
1607015443.4589,60
1607015443.4609,72
1607015443.4632,60
1607015443.4650,67
1607015443.4669,77
1607015443.4689,72
1607015443.4709,72
1607015443.4730,79
1607015443.4749,84
1607015443.4769,84
1607015443.4789,84
1607015443.4809,89
1607015443.4829,94
1607015443.4849,99
1607015443.4869,106
1607015443.4889,118
1607015443.4909,128
1607015443.4929,138
1607015443.4949,152
1607015443.4970,164
1607015443.9529,179
1607015443.9542,196
1607015443.9566,215
1607015443.9592,230
1607015443.9612,242
1607015443.9632,246
1607015443.9653,249
1607015443.9672,251
1607015443.9692,234
1607015443.9711,200
1607015443.9731,159
1607015443.9752,118
1607015443.9771,79
1607015443.9791,43
1607015443.9812,19
1607015443.9831,4
1607015443.9851,-2
1607015443.9873,-4
1607015443.9891,-2
1607015443.9911,0
1607015443.9932,2
1607015443.9951,4
1607015443.9971,9
1607015443.9991,16
1607015444.0011,21
1607015444.0031,29
1607015444.0051,33
1607015444.0071,36
1607015444.0091,38
1607015444.0111,38
1607015444.0131,46
1607015444.0151,46
1607015444.0171,38
1607015444.0193,36
1607015444.0212,36
1607015444.0231,31
1607015444.0251,26
1607015444.0270,21
1607015444.0291,21
1607015444.0311,24
1607015444.0330,26
1607015444.0351,24
1607015444.0372,26
1607015444.0391,26
1607015444.0412,26
1607015444.0431,26
1607015444.0451,26
1607015444.0471,29
1607015444.0491,26
1607015444.0511,29
1607015444.0532,31
1607015444.0551,31
1607015444.0571,33
1607015444.0591,38
1607015444.0611,41
1607015444.0631,33
1607015444.0651,29
1607015444.0671,31
1607015444.0691,36
1607015444.0711,41
1607015444.0731,41
1607015444.0751,41
1607015444.0771,43
1607015444.0791,41
1607015444.0811,38
1607015444.0831,46
1607015444.0851,53
1607015444.0871,48
1607015444.0891,48
1607015444.0911,55
1607015444.0931,55
1607015444.0951,53
1607015444.0971,55
1607015444.5525,55
1607015444.5535,55
1607015444.5560,58
1607015444.5586,58
1607015444.5606,60
1607015444.5626,60
1607015444.5646,55
1607015444.5665,53
1607015444.5685,60
1607015444.5706,65
1607015444.5726,70
1607015444.5748,89
1607015444.5766,92
1607015444.5785,87
1607015444.5805,92
1607015444.5825,77
1607015444.5845,46
1607015444.5865,41
1607015444.5885,48
1607015444.5906,46
1607015444.5925,48
1607015444.5945,53
1607015444.5965,46
1607015444.5984,26
1607015444.6005,96
1607015444.6026,411
1607015444.6045,823
1607015444.6065,883
1607015444.6085,336
1607015444.6105,-426
1607015444.6125,-581
1607015444.6145,-179
1607015444.6165,2
1607015444.6185,-48
1607015444.6206,14
1607015444.6226,65
1607015444.6245,33
1607015444.6265,41
1607015444.6285,65
1607015444.6305,58
1607015444.6325,55
1607015444.6345,62
1607015444.6366,65
1607015444.6386,65
1607015444.6405,70
1607015444.6426,75
1607015444.6445,77
1607015444.6465,77
1607015444.6486,77
1607015444.6505,79
1607015444.6525,89
1607015444.6545,96
1607015444.6565,101
1607015444.6585,111
1607015444.6605,123
1607015444.6625,135
1607015444.6645,150
1607015444.6665,169
1607015444.6686,188
1607015444.6706,203
1607015444.6725,220
1607015444.6745,239
1607015444.6767,254
1607015444.6785,263
1607015444.6805,263
1607015444.6826,251
1607015444.6845,227
1607015444.6865,191
1607015444.6886,145
1607015444.6905,99
1607015444.6926,60
1607015444.6945,31
1607015444.6965,9
1607015445.0627,-2
1607015445.0635,-7
1607015445.0644,-9
1607015445.0667,-9
1607015445.0688,-7
1607015445.0708,-2
1607015445.0728,2
1607015445.0747,4
1607015445.0768,7
1607015445.0787,14
1607015445.0807,19
1607015445.0827,19
1607015445.0847,19
1607015445.0867,26
1607015445.0887,24
1607015445.0907,14
1607015445.0927,12
1607015445.0947,14
1607015445.0967,14
1607015445.0987,9
1607015445.1007,7
1607015445.1027,7
1607015445.1047,4
1607015445.1067,2
1607015445.1087,4
1607015445.1107,4
1607015445.1127,2
1607015445.1147,2
1607015445.1167,9
1607015445.1187,16
1607015445.1207,14
1607015445.1228,14
1607015445.1248,16
1607015445.1268,19
1607015445.1287,21
1607015445.1307,24
1607015445.1328,21
1607015445.1347,24
1607015445.1367,26
1607015445.1386,29
1607015445.1409,31
1607015445.1427,29
1607015445.1447,26
1607015445.1467,29
1607015445.1487,31
1607015445.1507,29
1607015445.1528,29
1607015445.1547,29
1607015445.1567,33
1607015445.1587,38
1607015445.1609,38
1607015445.1627,38
1607015445.1647,43
1607015445.1667,48
1607015445.1687,48
1607015445.1707,48
1607015445.1727,48
1607015445.1747,53
1607015445.1766,53
1607015445.1788,50
1607015445.1807,55
1607015445.1815,58
1607015445.1837,55
1607015445.1857,58
1607015445.1877,62
1607015445.1898,67
1607015445.1918,72
1607015445.1937,82
1607015445.1957,101
1607015445.1977,106
1607015445.1997,99
1607015445.2018,111
1607015445.2037,104
1607015445.6622,67
1607015445.6633,53
1607015445.6657,60
1607015445.6684,62
1607015445.6691,60
1607015445.6714,62
1607015445.6733,58
1607015445.6753,33
1607015445.6773,62
1607015445.6793,322
1607015445.6813,760
1607015445.6832,932
1607015445.6852,476
1607015445.6873,-317
1607015445.6893,-610
1607015445.6913,-239
1607015445.6932,4
1607015445.6952,-43
1607015445.6977,4
1607015445.6981,67
1607015445.7003,36
1607015445.7023,36
1607015445.7042,67
1607015445.7062,62
1607015445.7083,55
1607015445.7103,65
1607015445.7123,72
1607015445.7142,72
1607015445.7162,77
1607015445.7182,82
1607015445.7202,87
1607015445.7223,87
1607015445.7242,92
1607015445.7262,94
1607015445.7283,96
1607015445.7290,101
1607015445.7313,111
1607015445.7333,116
1607015445.7353,125
1607015445.7372,138
1607015445.7392,154
1607015445.7414,171
1607015445.7433,188
1607015445.7453,205
1607015445.7473,222
1607015445.7493,239
1607015445.7513,254
1607015445.7532,266
1607015445.7553,268
1607015445.7572,256
1607015445.7593,232
1607015445.7600,196
1607015445.7623,152
1607015445.7642,111
1607015445.7663,72
1607015445.7683,38
1607015445.7703,19
1607015445.7723,9
1607015445.7742,2
1607015445.7762,-2
1607015445.7783,-2
1607015445.7802,2
1607015445.7823,4
1607015445.7842,9
1607015445.7862,12
1607015445.7882,16
1607015445.7902,24
1607015445.7909,24
1607015445.7934,26
1607015445.7955,29
1607015445.7973,31
1607015445.7992,33
1607015445.8013,36
1607015446.1727,36
1607015446.1737,36
1607015446.1762,36
1607015446.1788,33
1607015446.1808,31
1607015446.1827,26
1607015446.1847,21
1607015446.1867,16
1607015446.1874,16
1607015446.1888,14
1607015446.1907,7
1607015446.1927,7
1607015446.1947,9
1607015446.1967,4
1607015446.1987,-2
1607015446.2007,-2
1607015446.2027,2
1607015446.2047,2
1607015446.2067,2
1607015446.2087,7
1607015446.2107,12
1607015446.2127,12
1607015446.2147,12
1607015446.2167,16
1607015446.2174,19
1607015446.2197,19
1607015446.2216,16
1607015446.2237,14
1607015446.2257,12
1607015446.2277,12
1607015446.2297,14
1607015446.2317,19
1607015446.2337,24
1607015446.2357,24
1607015446.2377,24
1607015446.2397,29
1607015446.2417,31
1607015446.2437,31
1607015446.2457,33
1607015446.2476,38
1607015446.2484,38
1607015446.2507,41
1607015446.2528,41
1607015446.2547,43
1607015446.2567,46
1607015446.2587,46
1607015446.2607,48
1607015446.2629,50
1607015446.2648,53
1607015446.2667,58
1607015446.2687,67
1607015446.2707,89
1607015446.2727,96
1607015446.2747,89
1607015446.2767,96
1607015446.2787,94
1607015446.2795,62
1607015446.2818,41
1607015446.2837,46
1607015446.2857,48
1607015446.2877,43
1607015446.2897,48
1607015446.2917,50
1607015446.2937,26
1607015446.2957,31
1607015446.2977,237
1607015446.2997,658
1607015446.3017,922
1607015446.3039,607
1607015446.3057,-179
1607015446.3077,-622
1607015446.3084,-322
1607015446.3107,-9
1607015446.7121,-38
1607015446.7129,-19
1607015446.7149,58
1607015446.7169,33
1607015446.7189,21
1607015446.7209,50
1607015446.7230,46
1607015446.7249,33
1607015446.7269,41
1607015446.7289,50
1607015446.7309,50
1607015446.7329,50
1607015446.7349,55
1607015446.7356,60
1607015446.7379,65
1607015446.7398,70
1607015446.7419,75
1607015446.7438,82
1607015446.7458,89
1607015446.7478,92
1607015446.7498,94
1607015446.7519,104
1607015446.7539,118
1607015446.7558,133
1607015446.7579,147
1607015446.7601,167
1607015446.7619,186
1607015446.7639,203
1607015446.7658,220
1607015446.7665,234
1607015446.7688,246
1607015446.7708,254
1607015446.7729,246
1607015446.7748,222
1607015446.7768,186
1607015446.7789,142
1607015446.7808,101
1607015446.7828,62
1607015446.7848,31
1607015446.7869,12
1607015446.7889,2
1607015446.7908,-7
1607015446.7929,-14
1607015446.7948,-14
1607015446.7968,-9
1607015446.7975,-4
1607015446.7998,-4
1607015446.8018,0
1607015446.8039,7
1607015446.8058,12
1607015446.8078,14
1607015446.8098,16
1607015446.8119,19
1607015446.8140,24
1607015446.8159,26
1607015446.8178,31
1607015446.8198,33
1607015446.8218,33
1607015446.8238,33
1607015446.8258,31
1607015446.8278,29
1607015446.8298,29
1607015446.8318,21
1607015446.8338,19
1607015446.8358,19
1607015446.8378,16
1607015446.8398,12
1607015446.8418,16
1607015446.8438,19
1607015446.8458,19
1607015446.8478,19
1607015446.8498,19
1607015446.8518,21
1607015447.2827,24
1607015447.2836,24
1607015447.2861,26
1607015447.2891,26
1607015447.2909,16
1607015447.2927,12
1607015447.2948,19
1607015447.2967,24
1607015447.2987,21
1607015447.3007,19
1607015447.3027,24
1607015447.3047,24
1607015447.3068,24
1607015447.3087,24
1607015447.3107,24
1607015447.3128,26
1607015447.3147,29
1607015447.3167,29
1607015447.3187,33
1607015447.3207,41
1607015447.3227,41
1607015447.3247,41
1607015447.3267,41
1607015447.3287,41
1607015447.3307,41
1607015447.3327,43
1607015447.3346,48
1607015447.3366,48
1607015447.3387,48
1607015447.3406,50
1607015447.3427,58
1607015447.3446,62
1607015447.3466,67
1607015447.3486,79
1607015447.3506,96
1607015447.3527,99
1607015447.3546,89
1607015447.3566,99
1607015447.3586,87
1607015447.3606,55
1607015447.3626,46
1607015447.3646,53
1607015447.3666,48
1607015447.3686,48
1607015447.3706,55
1607015447.3727,48
1607015447.3747,21
1607015447.3767,43
1607015447.3786,285
1607015447.3806,721
1607015447.3827,939
1607015447.3847,544
1607015447.3867,-256
1607015447.3886,-624
1607015447.3908,-285
1607015447.3927,0
1607015447.3946,-36
1607015447.3966,-9
1607015447.3986,60
1607015447.4006,36
1607015447.4027,31
1607015447.4046,60
1607015447.4066,58
1607015447.4087,46
1607015447.4106,58
1607015447.4127,67
1607015447.4146,65
1607015447.4166,67
1607015447.4186,72
1607015447.4206,77
1607015447.4226,82
1607015447.4246,87
1607015447.4266,92
1607015447.8827,94
1607015447.8840,104
1607015447.8860,111
1607015447.8879,116
1607015447.8899,121
1607015447.8919,123
1607015447.8939,128
1607015447.8959,150
1607015447.8979,179
1607015447.8999,196
1607015447.9019,208
1607015447.9039,230
1607015447.9059,246
1607015447.9079,256
1607015447.9098,259
1607015447.9119,254
1607015447.9145,232
1607015447.9161,191
1607015447.9179,147
1607015447.9202,101
1607015447.9219,58
1607015447.9239,24
1607015447.9258,4
1607015447.9278,-4
1607015447.9303,-14
1607015447.9319,-21
1607015447.9339,-21
1607015447.9359,-19
1607015447.9379,-16
1607015447.9399,-12
1607015447.9420,-4
1607015447.9440,0
1607015447.9461,2
1607015447.9479,4
1607015447.9502,12
1607015447.9521,19
1607015447.9540,19
1607015447.9559,19
1607015447.9579,24
1607015447.9599,26
1607015447.9620,24
1607015447.9638,24
1607015447.9658,21
1607015447.9679,19
1607015447.9698,16
1607015447.9718,14
1607015447.9738,14
1607015447.9761,12
1607015447.9778,14
1607015447.9798,9
1607015447.9819,7
1607015447.9839,7
1607015447.9858,7
1607015447.9878,4
1607015447.9898,9
1607015447.9920,12
1607015447.9939,12
1607015447.9958,9
1607015447.9978,9
1607015447.9997,12
1607015448.0018,16
1607015448.0038,16
1607015448.0058,14
1607015448.0078,12
1607015448.0100,12
1607015448.0118,14
1607015448.0138,16
1607015448.0158,14
1607015448.0178,14
1607015448.0198,16
1607015448.0218,14
1607015448.0238,14
1607015448.0260,16
1607015448.4225,16
1607015448.4234,14
1607015448.4258,16
1607015448.4277,21
1607015448.4294,21
1607015448.4315,24
1607015448.4334,33
1607015448.4354,38
1607015448.4374,48
1607015448.4394,67
1607015448.4417,65
1607015448.4435,55
1607015448.4454,67
1607015448.4474,55
1607015448.4494,16
1607015448.4515,9
1607015448.4534,19
1607015448.4554,21
1607015448.4574,26
1607015448.4595,31
1607015448.4615,26
1607015448.4634,2
1607015448.4654,26
1607015448.4674,266
1607015448.4695,711
1607015448.4715,936
1607015448.4734,537
1607015448.4754,-273
1607015448.4774,-656
1607015448.4794,-336
1607015448.4816,-53
1607015448.4834,-72
1607015448.4854,-31
1607015448.4875,36
1607015448.4894,12
1607015448.4914,7
1607015448.4934,36
1607015448.4954,36
1607015448.4973,31
1607015448.4994,43
1607015448.5014,46
1607015448.5033,46
1607015448.5053,50
1607015448.5073,55
1607015448.5093,60
1607015448.5114,65
1607015448.5134,70
1607015448.5153,77
1607015448.5174,82
1607015448.5193,87
1607015448.5214,94
1607015448.5234,104
1607015448.5253,116
1607015448.5274,128
1607015448.5293,140
1607015448.5314,157
1607015448.5334,171
1607015448.5353,186
1607015448.5373,203
1607015448.5394,220
1607015448.5414,237
1607015448.5435,246
1607015448.5455,242
1607015448.5473,227
1607015448.5493,203
1607015448.5514,167
1607015448.5533,125
1607015448.5554,84
1607015448.5574,46
1607015448.5593,16
1607015448.5614,0
1607015448.5634,-9
1607015448.5653,-14
1607015449.0522,-14
1607015449.0534,-14
1607015449.0558,-9
1607015449.0585,-9
1607015449.0605,-9
1607015449.0625,-2
1607015449.0645,4
1607015449.0665,2
1607015449.0685,2
1607015449.0704,9
1607015449.0725,14
1607015449.0746,14
1607015449.0764,14
1607015449.0784,19
1607015449.0805,19
1607015449.0824,16
1607015449.0844,19
1607015449.0864,19
1607015449.0884,16
1607015449.0904,14
1607015449.0924,14
1607015449.0943,14
1607015449.0963,16
1607015449.0983,16
1607015449.1004,14
1607015449.1024,14
1607015449.1043,19
1607015449.1063,19
1607015449.1083,19
1607015449.1104,21
1607015449.1124,21
1607015449.1143,19
1607015449.1163,21
1607015449.1183,24
1607015449.1204,21
1607015449.1224,21
1607015449.1244,24
1607015449.1264,24
1607015449.1283,24
1607015449.1305,26
1607015449.1325,29
1607015449.1343,31
1607015449.1364,31
1607015449.1383,31
1607015449.1403,33
1607015449.1423,38
1607015449.1443,38
1607015449.1463,36
1607015449.1483,33
1607015449.1503,36
1607015449.1524,38
1607015449.1544,38
1607015449.1564,38
1607015449.1584,43
1607015449.1604,41
1607015449.1624,33
1607015449.1644,33
1607015449.1663,38
1607015449.1683,41
1607015449.1703,41
1607015449.1723,41
1607015449.1743,43
1607015449.1764,43
1607015449.1783,43
1607015449.1803,50
1607015449.1824,55
1607015449.1843,58
1607015449.1863,75
1607015449.1883,94
1607015449.1903,87
1607015449.1924,84
1607015449.1943,94
1607015449.1963,72
1607015449.5321,41
1607015449.5330,38
1607015449.5355,46
1607015449.5381,46
1607015449.5402,48
1607015449.5421,48
1607015449.5440,33
1607015449.5461,9
1607015449.5480,84
1607015449.5500,418
1607015449.5520,835
1607015449.5541,854
1607015449.5560,242
1607015449.5580,-506
1607015449.5600,-564
1607015449.5622,-140
1607015449.5640,-26
1607015449.5662,-96
1607015449.5681,-19
1607015449.5700,21
1607015449.5720,-14
1607015449.5740,0
1607015449.5760,26
1607015449.5780,16
1607015449.5800,16
1607015449.5820,29
1607015449.5840,33
1607015449.5860,36
1607015449.5881,41
1607015449.5900,46
1607015449.5920,50
1607015449.5939,55
1607015449.5959,60
1607015449.5979,65
1607015449.5999,72
1607015449.6020,79
1607015449.6040,87
1607015449.6059,94
1607015449.6079,106
1607015449.6100,116
1607015449.6120,130
1607015449.6139,150
1607015449.6160,169
1607015449.6179,188
1607015449.6199,203
1607015449.6220,220
1607015449.6240,237
1607015449.6260,244
1607015449.6280,239
1607015449.6299,225
1607015449.6320,196
1607015449.6339,157
1607015449.6359,111
1607015449.6379,67
1607015449.6401,31
1607015449.6421,4
1607015449.6440,-12
1607015449.6460,-21
1607015449.6480,-24
1607015449.6499,-29
1607015449.6520,-29
1607015449.6540,-24
1607015449.6559,-19
1607015449.6579,-14
1607015449.6599,-7
1607015449.6619,0
1607015449.6640,4
1607015449.6659,4
1607015449.6681,12
1607015449.6701,19
1607015449.6720,19
1607015449.6739,16
1607015449.6760,19
1607015450.1018,21
1607015450.1025,21
1607015450.1050,19
1607015450.1075,16
1607015450.1095,14
1607015450.1117,9
1607015450.1136,0
1607015450.1155,-4
1607015450.1176,-2
1607015450.1196,0
1607015450.1216,-2
1607015450.1237,-4
1607015450.1256,0
1607015450.1275,2
1607015450.1295,0
1607015450.1315,0
1607015450.1335,0
1607015450.1356,0
1607015450.1375,2
1607015450.1395,4
1607015450.1416,4
1607015450.1435,7
1607015450.1455,9
1607015450.1475,9
1607015450.1495,9
1607015450.1516,12
1607015450.1535,16
1607015450.1555,19
1607015450.1575,19
1607015450.1595,16
1607015450.1615,19
1607015450.1636,21
1607015450.1655,26
1607015450.1675,26
1607015450.1695,26
1607015450.1715,29
1607015450.1735,31
1607015450.1755,31
1607015450.1775,33
1607015450.1795,36
1607015450.1815,31
1607015450.1835,26
1607015450.1855,29
1607015450.1876,36
1607015450.1895,36
1607015450.1916,33
1607015450.1937,33
1607015450.1956,33
1607015450.1975,36
1607015450.1995,38
1607015450.2016,41
1607015450.2035,43
1607015450.2055,46
1607015450.2077,43
1607015450.2095,46
1607015450.2115,50
1607015450.2135,50
1607015450.2155,53
1607015450.2175,58
1607015450.2195,62
1607015450.2215,77
1607015450.2235,92
1607015450.2256,84
1607015450.2275,84
1607015450.2295,96
1607015450.2316,75
1607015450.2335,41
1607015450.2355,41
1607015450.2375,50
1607015450.2395,48
1607015450.2416,46
1607015450.2435,48
1607015450.2455,41
1607015450.6425,19
1607015450.6434,67
1607015450.6459,353
1607015450.6476,774
1607015450.6495,898
1607015450.6515,416
1607015450.6534,-363
1607015450.6555,-612
1607015450.6574,-232
1607015450.6594,-12
1607015450.6615,-70
1607015450.6634,-21
1607015450.6654,43
1607015450.6674,9
1607015450.6694,9
1607015450.6714,38
1607015450.6734,33
1607015450.6753,31
1607015450.6774,41
1607015450.6794,41
1607015450.6815,41
1607015450.6834,43
1607015450.6854,48
1607015450.6874,50
1607015450.6895,53
1607015450.6915,58
1607015450.6934,65
1607015450.6953,75
1607015450.6974,77
1607015450.6993,82
1607015450.7014,96
1607015450.7034,113
1607015450.7054,125
1607015450.7074,133
1607015450.7093,147
1607015450.7115,162
1607015450.7134,181
1607015450.7154,203
1607015450.7174,217
1607015450.7194,234
1607015450.7214,254
1607015450.7233,259
1607015450.7254,242
1607015450.7274,215
1607015450.7294,179
1607015450.7315,135
1607015450.7334,87
1607015450.7353,46
1607015450.7374,16
1607015450.7394,-4
1607015450.7414,-24
1607015450.7434,-31
1607015450.7454,-33
1607015450.7474,-38
1607015450.7493,-38
1607015450.7514,-33
1607015450.7533,-29
1607015450.7554,-24
1607015450.7574,-19
1607015450.7594,-12
1607015450.7613,-7
1607015450.7635,-2
1607015450.7654,4
1607015450.7674,7
1607015450.7694,9
1607015450.7714,14
1607015450.7734,16
1607015450.7754,14
1607015450.7774,14
1607015450.7794,12
1607015450.7814,7
1607015450.7834,4
1607015450.7854,4
1607015451.2423,0
1607015451.2432,-2
1607015451.2459,-2
1607015451.2484,-2
1607015451.2503,-7
1607015451.2522,-14
1607015451.2542,-12
1607015451.2563,-4
1607015451.2582,-4
1607015451.2602,-7
1607015451.2622,-2
1607015451.2642,0
1607015451.2662,-2
1607015451.2682,0
1607015451.2702,7
1607015451.2723,4
1607015451.2742,4
1607015451.2762,7
1607015451.2782,9
1607015451.2802,12
1607015451.2822,12
1607015451.2842,9
1607015451.2862,14
1607015451.2882,16
1607015451.2902,19
1607015451.2922,16
1607015451.2943,12
1607015451.2962,12
1607015451.2982,16
1607015451.3002,19
1607015451.3022,21
1607015451.3042,24
1607015451.3062,26
1607015451.3082,29
1607015451.3102,31
1607015451.3122,33
1607015451.3142,33
1607015451.3162,38
1607015451.3182,38
1607015451.3202,36
1607015451.3222,38
1607015451.3242,46
1607015451.3262,48
1607015451.3282,48
1607015451.3301,53
1607015451.3322,62
1607015451.3342,84
1607015451.3362,89
1607015451.3382,79
1607015451.3402,89
1607015451.3422,87
1607015451.3442,48
1607015451.3461,33
1607015451.3484,41
1607015451.3503,41
1607015451.3523,38
1607015451.3542,43
1607015451.3562,43
1607015451.3582,24
1607015451.3602,16
1607015451.3622,169
1607015451.3642,578
1607015451.3661,929
1607015451.3683,750
1607015451.3702,4
1607015451.3722,-598
1607015451.3742,-440
1607015451.3762,-65
1607015451.3782,-41
1607015451.3802,-53
1607015451.3822,33
1607015451.3842,31
1607015451.3862,9
1607015451.7825,38
1607015451.7835,46
1607015451.7859,33
1607015451.7886,41
1607015451.7905,46
1607015451.7926,43
1607015451.7946,50
1607015451.7965,55
1607015451.7985,58
1607015451.8005,55
1607015451.8025,53
1607015451.8044,55
1607015451.8127,67
1607015451.8144,70
1607015451.8164,75
1607015451.8184,84
1607015451.8204,96
1607015451.8224,108
1607015451.8244,123
1607015451.8264,133
1607015451.8285,145
1607015451.8304,164
1607015451.8324,184
1607015451.8344,203
1607015451.8364,217
1607015451.8385,227
1607015451.8406,232
1607015451.8424,230
1607015451.8443,213
1607015451.8464,176
1607015451.8484,135
1607015451.8505,92
1607015451.8525,48
1607015451.8544,12
1607015451.8564,-12
1607015451.8585,-29
1607015451.8604,-38
1607015451.8625,-41
1607015451.8644,-41
1607015451.8664,-41
1607015451.8684,-38
1607015451.8705,-36
1607015451.8725,-26
1607015451.8732,-21
1607015451.8754,-19
1607015451.8774,-14
1607015451.8794,-9
1607015451.8815,-4
1607015451.8836,-2
1607015451.8854,0
1607015451.8875,7
1607015451.8895,9
1607015451.8916,7
1607015451.8935,4
1607015451.8954,7
1607015451.8975,4
1607015451.8994,0
1607015451.9015,0
1607015451.9034,2
1607015451.9042,2
1607015451.9065,0
1607015451.9085,-2
1607015451.9104,0
1607015451.9124,0
1607015451.9144,0
1607015451.9164,0
1607015451.9184,0
1607015451.9205,-2
1607015451.9224,-2
1607015451.9245,0
1607015451.9264,2
1607015451.9284,2
1607015451.9304,4
1607015452.3521,4
1607015452.3531,4
1607015452.3556,7
1607015452.3582,9
1607015452.3602,12
1607015452.3621,14
1607015452.3641,12
1607015452.3661,4
1607015452.3681,4
1607015452.3703,9
1607015452.3722,12
1607015452.3741,12
1607015452.3761,9
1607015452.3781,9
1607015452.3801,12
1607015452.3808,14
1607015452.3831,16
1607015452.3851,19
1607015452.3872,19
1607015452.3891,16
1607015452.3911,21
1607015452.3931,24
1607015452.3951,26
1607015452.3971,26
1607015452.3991,29
1607015452.4011,26
1607015452.4030,26
1607015452.4051,29
1607015452.4071,29
1607015452.4091,31
1607015452.4111,31
1607015452.4118,31
1607015452.4141,33
1607015452.4161,36
1607015452.4181,36
1607015452.4201,38
1607015452.4221,41
1607015452.4241,43
1607015452.4261,48
1607015452.4281,67
1607015452.4301,79
1607015452.4321,70
1607015452.4341,75
1607015452.4361,82
1607015452.4381,55
1607015452.4401,26
1607015452.4421,26
1607015452.4428,31
1607015452.4451,29
1607015452.4471,33
1607015452.4491,36
1607015452.4511,24
1607015452.4531,7
1607015452.4551,94
1607015452.4571,435
1607015452.4591,830
1607015452.4611,813
1607015452.4631,193
1607015452.4651,-515
1607015452.4671,-539
1607015452.4692,-125
1607015452.4712,-21
1607015452.4730,-72
1607015452.4738,4
1607015452.4761,33
1607015452.4781,-2
1607015452.4801,14
1607015452.4821,33
1607015452.4841,26
1607015452.4861,29
1607015452.4881,41
1607015452.4901,41
1607015452.4921,41
1607015452.8926,43
1607015452.8936,48
1607015452.8969,50
1607015452.8978,53
1607015452.8997,53
1607015452.9017,58
1607015452.9036,65
1607015452.9056,67
1607015452.9076,70
1607015452.9096,77
1607015452.9116,87
1607015452.9136,96
1607015452.9156,108
1607015452.9176,125
1607015452.9196,145
1607015452.9216,164
1607015452.9236,181
1607015452.9256,196
1607015452.9276,205
1607015452.9283,220
1607015452.9306,225
1607015452.9326,213
1607015452.9345,188
1607015452.9365,150
1607015452.9386,101
1607015452.9406,58
1607015452.9427,24
1607015452.9446,-7
1607015452.9466,-26
1607015452.9486,-38
1607015452.9506,-46
1607015452.9526,-53
1607015452.9546,-53
1607015452.9566,-48
1607015452.9586,-46
1607015452.9593,-43
1607015452.9606,-38
1607015452.9626,-33
1607015452.9647,-26
1607015452.9667,-16
1607015452.9685,-9
1607015452.9706,-9
1607015452.9727,-9
1607015452.9746,-7
1607015452.9766,0
1607015452.9786,0
1607015452.9805,-2
1607015452.9826,-4
1607015452.9845,-9
1607015452.9865,-9
1607015452.9886,-9
1607015452.9892,-12
1607015452.9906,-14
1607015452.9926,-14
1607015452.9946,-14
1607015452.9966,-14
1607015452.9986,-14
1607015453.0006,-12
1607015453.0026,-9
1607015453.0046,-9
1607015453.0066,-7
1607015453.0086,-4
1607015453.0106,-4
1607015453.0126,-4
1607015453.0146,0
1607015453.0166,0
1607015453.0186,0
1607015453.0192,2
1607015453.0216,7
1607015453.0236,4
1607015453.0257,0
1607015453.0276,-2
1607015453.0296,2
1607015453.4620,4
1607015453.4629,4
1607015453.4654,2
1607015453.4680,7
1607015453.4700,9
1607015453.4721,-2
1607015453.4741,-7
1607015453.4747,0
1607015453.4770,7
1607015453.4790,2
1607015453.4810,2
1607015453.4830,0
1607015453.4849,0
1607015453.4869,7
1607015453.4889,12
1607015453.4910,9
1607015453.4931,9
1607015453.4950,14
1607015453.4969,24
1607015453.4989,26
1607015453.5009,21
1607015453.5029,16
1607015453.5049,19
1607015453.5056,26
1607015453.5079,29
1607015453.5100,26
1607015453.5120,41
1607015453.5139,62
1607015453.5159,62
1607015453.5179,60
1607015453.5199,72
1607015453.5220,62
1607015453.5239,29
1607015453.5260,14
1607015453.5279,19
1607015453.5299,19
1607015453.5319,21
1607015453.5339,29
1607015453.5359,29
1607015453.5380,14
1607015453.5399,50
1607015453.5419,312
1607015453.5439,748
1607015453.5459,917
1607015453.5479,472
1607015453.5499,-319
1607015453.5519,-648
1607015453.5539,-314
1607015453.5559,-55
1607015453.5579,-77
1607015453.5599,-29
1607015453.5620,38
1607015453.5639,9
1607015453.5659,2
1607015453.5679,31
1607015453.5699,31
1607015453.5720,26
1607015453.5739,36
1607015453.5759,38
1607015453.5779,36
1607015453.5799,38
1607015453.5820,43
1607015453.5839,43
1607015453.5859,43
1607015453.5879,48
1607015453.5899,53
1607015453.5919,58
1607015453.5941,65
1607015453.5959,72
1607015453.5979,84
1607015453.5999,94
1607015453.6020,104
1607015453.6039,113
1607015454.0022,130
1607015454.0031,150
1607015454.0056,169
1607015454.0082,184
1607015454.0102,198
1607015454.0122,215
1607015454.0144,220
1607015454.0162,220
1607015454.0182,217
1607015454.0202,203
1607015454.0222,164
1607015454.0242,123
1607015454.0262,84
1607015454.0282,43
1607015454.0302,9
1607015454.0322,-14
1607015454.0341,-29
1607015454.0361,-33
1607015454.0382,-36
1607015454.0402,-36
1607015454.0421,-31
1607015454.0441,-29
1607015454.0461,-26
1607015454.0481,-24
1607015454.0501,-16
1607015454.0522,-14
1607015454.0541,-12
1607015454.0561,-9
1607015454.0581,-2
1607015454.0601,2
1607015454.0621,2
1607015454.0641,2
1607015454.0661,4
1607015454.0682,4
1607015454.0701,4
1607015454.0721,4
1607015454.0741,4
1607015454.0761,4
1607015454.0781,2
1607015454.0801,2
1607015454.0821,2
1607015454.0841,2
1607015454.0861,2
1607015454.0881,2
1607015454.0901,4
1607015454.0923,2
1607015454.0942,4
1607015454.0961,7
1607015454.0981,7
1607015454.1001,7
1607015454.1021,7
1607015454.1041,12
1607015454.1061,14
1607015454.1081,14
1607015454.1101,12
1607015454.1121,12
1607015454.1141,12
1607015454.1161,12
1607015454.1181,14
1607015454.1201,14
1607015454.1222,19
1607015454.1241,19
1607015454.1261,19
1607015454.1281,19
1607015454.1301,19
1607015454.1321,19
1607015454.1341,24
1607015454.1361,24
1607015454.1381,24
1607015454.1401,26
1607015454.1421,26
1607015454.1441,26
1607015454.1461,31
1607015454.6024,33
1607015454.6035,33
1607015454.6060,33
1607015454.6086,29
1607015454.6106,21
1607015454.6126,24
1607015454.6146,29
1607015454.6166,29
1607015454.6186,26
1607015454.6206,29
1607015454.6227,36
1607015454.6247,41
1607015454.6267,46
1607015454.6286,65
1607015454.6306,77
1607015454.6326,65
1607015454.6346,70
1607015454.6366,79
1607015454.6386,53
1607015454.6406,26
1607015454.6425,26
1607015454.6445,29
1607015454.6465,26
1607015454.6487,26
1607015454.6506,31
1607015454.6526,19
1607015454.6546,-4
1607015454.6566,84
1607015454.6586,433
1607015454.6606,832
1607015454.6625,813
1607015454.6645,196
1607015454.6666,-513
1607015454.6686,-537
1607015454.6706,-118
1607015454.6725,-12
1607015454.6746,-67
1607015454.6766,12
1607015454.6786,38
1607015454.6806,2
1607015454.6826,21
1607015454.6846,43
1607015454.6866,36
1607015454.6886,38
1607015454.6906,48
1607015454.6926,48
1607015454.6945,48
1607015454.6965,53
1607015454.6986,53
1607015454.7005,53
1607015454.7026,55
1607015454.7045,55
1607015454.7065,62
1607015454.7085,75
1607015454.7106,79
1607015454.7125,84
1607015454.7145,94
1607015454.7165,106
1607015454.7185,116
1607015454.7205,133
1607015454.7226,154
1607015454.7246,171
1607015454.7265,186
1607015454.7286,203
1607015454.7306,217
1607015454.7325,232
1607015454.7346,242
1607015454.7365,244
1607015454.7385,230
1607015454.7405,200
1607015454.7425,159
1607015454.7445,116
1607015454.7465,75
1607015455.1725,33
1607015455.1735,4
1607015455.1758,-14
1607015455.1784,-24
1607015455.1804,-31
1607015455.1824,-33
1607015455.1845,-29
1607015455.1864,-26
1607015455.1884,-31
1607015455.1904,-36
1607015455.1924,-31
1607015455.1944,-24
1607015455.1964,-19
1607015455.1984,-16
1607015455.2004,-14
1607015455.2023,-7
1607015455.2044,-2
1607015455.2063,0
1607015455.2083,4
1607015455.2104,4
1607015455.2124,4
1607015455.2143,4
1607015455.2163,4
1607015455.2183,2
1607015455.2203,2
1607015455.2224,0
1607015455.2243,0
1607015455.2263,2
1607015455.2284,0
1607015455.2303,0
1607015455.2323,2
1607015455.2343,2
1607015455.2363,2
1607015455.2383,7
1607015455.2403,9
1607015455.2423,7
1607015455.2443,7
1607015455.2463,7
1607015455.2483,9
1607015455.2503,12
1607015455.2523,12
1607015455.2544,7
1607015455.2563,7
1607015455.2583,12
1607015455.2603,9
1607015455.2623,4
1607015455.2643,7
1607015455.2663,12
1607015455.2683,12
1607015455.2703,14
1607015455.2723,19
1607015455.2743,16
1607015455.2764,14
1607015455.2783,19
1607015455.2803,26
1607015455.2824,21
1607015455.2843,19
1607015455.2863,24
1607015455.2883,29
1607015455.2903,33
1607015455.2923,31
1607015455.2943,31
1607015455.2963,33
1607015455.2983,33
1607015455.3003,31
1607015455.3024,33
1607015455.3043,36
1607015455.3063,31
1607015455.3083,31
1607015455.3103,36
1607015455.3123,38
1607015455.3143,36
1607015455.3163,43
1607015455.7121,50
1607015455.7130,50
1607015455.7155,62
1607015455.7182,82
1607015455.7201,72
1607015455.7222,65
1607015455.7243,77
1607015455.7261,65
1607015455.7282,33
1607015455.7301,24
1607015455.7322,24
1607015455.7341,21
1607015455.7361,24
1607015455.7381,24
1607015455.7401,19
1607015455.7420,2
1607015455.7440,50
1607015455.7461,329
1607015455.7481,757
1607015455.7500,890
1607015455.7521,418
1607015455.7541,-363
1607015455.7561,-631
1607015455.7580,-256
1607015455.7600,-21
1607015455.7620,-72
1607015455.7640,-26
1607015455.7660,41
1607015455.7680,14
1607015455.7700,12
1607015455.7722,33
1607015455.7741,29
1607015455.7760,29
1607015455.7780,33
1607015455.7800,31
1607015455.7820,36
1607015455.7841,43
1607015455.7861,41
1607015455.7880,36
1607015455.7900,43
1607015455.7920,53
1607015455.7940,60
1607015455.7961,67
1607015455.7981,72
1607015455.8000,79
1607015455.8021,87
1607015455.8041,99
1607015455.8060,113
1607015455.8080,128
1607015455.8100,142
1607015455.8121,164
1607015455.8141,188
1607015455.8160,210
1607015455.8180,230
1607015455.8200,244
1607015455.8221,251
1607015455.8241,251
1607015455.8260,246
1607015455.8281,225
1607015455.8301,184
1607015455.8320,140
1607015455.8340,96
1607015455.8360,53
1607015455.8380,14
1607015455.8400,-12
1607015455.8420,-24
1607015455.8441,-33
1607015455.8460,-38
1607015455.8481,-38
1607015455.8501,-38
1607015455.8520,-36
1607015455.8540,-33
1607015455.8560,-29
1607015456.2826,-21
1607015456.2835,-12
1607015456.2856,-12
1607015456.2874,-12
1607015456.2894,-9
1607015456.2915,-7
1607015456.2934,-12
1607015456.2953,-14
1607015456.2976,-12
1607015456.2994,-7
1607015456.3015,-9
1607015456.3033,-14
1607015456.3054,-14
1607015456.3074,-12
1607015456.3093,-16
1607015456.3114,-14
1607015456.3133,-9
1607015456.3153,-12
1607015456.3173,-14
1607015456.3193,-14
1607015456.3213,-9
1607015456.3233,-7
1607015456.3253,-7
1607015456.3274,-4
1607015456.3293,-2
1607015456.3313,-2
1607015456.3333,-7
1607015456.3353,-7
1607015456.3373,-7
1607015456.3393,-7
1607015456.3414,-4
1607015456.3433,0
1607015456.3453,2
1607015456.3473,4
1607015456.3493,7
1607015456.3513,9
1607015456.3533,9
1607015456.3553,12
1607015456.3573,14
1607015456.3593,14
1607015456.3613,19
1607015456.3633,21
1607015456.3653,21
1607015456.3673,21
1607015456.3693,26
1607015456.3714,29
1607015456.3733,29
1607015456.3753,31
1607015456.3773,33
1607015456.3793,31
1607015456.3813,33
1607015456.3834,36
1607015456.3853,38
1607015456.3873,41
1607015456.3893,43
1607015456.3914,50
1607015456.3933,67
1607015456.3953,82
1607015456.3973,82
1607015456.3994,79
1607015456.4014,84
1607015456.4033,67
1607015456.4053,36
1607015456.4073,31
1607015456.4093,36
1607015456.4114,33
1607015456.4133,36
1607015456.4153,41
1607015456.4173,38
1607015456.4193,19
1607015456.4213,36
1607015456.4235,266
1607015456.4253,706
1607015456.8225,936
1607015456.8234,556
1607015456.8259,-242
1607015456.8285,-631
1607015456.8306,-312
1607015456.8325,-26
1607015456.8346,-58
1607015456.8366,-24
1607015456.8385,38
1607015456.8405,4
1607015456.8425,2
1607015456.8445,36
1607015456.8464,26
1607015456.8484,19
1607015456.8504,36
1607015456.8525,43
1607015456.8544,38
1607015456.8564,41
1607015456.8585,43
1607015456.8605,41
1607015456.8625,38
1607015456.8644,46
1607015456.8665,53
1607015456.8684,55
1607015456.8705,60
1607015456.8724,70
1607015456.8745,79
1607015456.8765,87
1607015456.8785,101
1607015456.8804,111
1607015456.8824,125
1607015456.8844,142
1607015456.8865,162
1607015456.8885,179
1607015456.8904,196
1607015456.8925,205
1607015456.8944,220
1607015456.8966,230
1607015456.8985,227
1607015456.9004,205
1607015456.9025,171
1607015456.9045,130
1607015456.9065,87
1607015456.9085,43
1607015456.9105,9
1607015456.9127,-12
1607015456.9146,-24
1607015456.9165,-36
1607015456.9185,-41
1607015456.9204,-38
1607015456.9225,-38
1607015456.9245,-41
1607015456.9264,-36
1607015456.9285,-31
1607015456.9305,-24
1607015456.9325,-19
1607015456.9345,-14
1607015456.9365,-9
1607015456.9385,-4
1607015456.9404,-2
1607015456.9425,0
1607015456.9445,4
1607015456.9464,7
1607015456.9484,4
1607015456.9504,2
1607015456.9525,-2
1607015456.9545,-4
1607015456.9565,-7
1607015456.9585,-7
1607015456.9605,-9
1607015456.9625,-9
1607015456.9644,-12
1607015456.9665,-9
1607015457.3927,-9
1607015457.3938,-9
1607015457.3963,-9
1607015457.3989,-7
1607015457.4009,-7
1607015457.4029,-12
1607015457.4049,-16
1607015457.4069,-14
1607015457.4089,-7
1607015457.4109,-9
1607015457.4128,-12
1607015457.4148,-14
1607015457.4168,-12
1607015457.4188,-9
1607015457.4208,-9
1607015457.4229,-7
1607015457.4248,-4
1607015457.4267,-2
1607015457.4288,2
1607015457.4308,4
1607015457.4328,4
1607015457.4348,2
1607015457.4368,4
1607015457.4388,7
1607015457.4407,7
1607015457.4427,7
1607015457.4448,14
1607015457.4468,19
1607015457.4488,16
1607015457.4508,14
1607015457.4529,16
1607015457.4548,16
1607015457.4568,16
1607015457.4588,14
1607015457.4608,16
1607015457.4628,21
1607015457.4648,24
1607015457.4667,29
1607015457.4688,31
1607015457.4707,31
1607015457.4728,29
1607015457.4747,24
1607015457.4768,24
1607015457.4788,29
1607015457.4808,38
1607015457.4828,58
1607015457.4848,67
1607015457.4867,60
1607015457.4888,65
1607015457.4908,62
1607015457.4928,33
1607015457.4947,19
1607015457.4968,24
1607015457.4988,21
1607015457.5008,19
1607015457.5028,26
1607015457.5048,24
1607015457.5068,2
1607015457.5088,-4
1607015457.5108,140
1607015457.5128,532
1607015457.5147,878
1607015457.5168,731
1607015457.5188,24
1607015457.5208,-600
1607015457.5228,-476
1607015457.5249,-79
1607015457.5268,-41
1607015457.5288,-72
1607015457.5307,12
1607015457.5328,14
1607015457.5348,-14
1607015457.5367,14
1607015457.9624,29
1607015457.9635,16
1607015457.9660,19
1607015457.9687,21
1607015457.9706,19
1607015457.9726,24
1607015457.9747,24
1607015457.9766,19
1607015457.9786,21
1607015457.9806,29
1607015457.9825,33
1607015457.9846,43
1607015457.9865,55
1607015457.9885,58
1607015457.9905,62
1607015457.9927,72
1607015457.9945,87
1607015457.9965,106
1607015457.9985,123
1607015458.0005,138
1607015458.0025,157
1607015458.0045,176
1607015458.0065,196
1607015458.0085,217
1607015458.0105,234
1607015458.0125,244
1607015458.0145,244
1607015458.0165,230
1607015458.0185,198
1607015458.0205,157
1607015458.0225,108
1607015458.0246,60
1607015458.0265,21
1607015458.0285,-12
1607015458.0305,-36
1607015458.0325,-48
1607015458.0345,-48
1607015458.0365,-50
1607015458.0385,-53
1607015458.0405,-48
1607015458.0425,-41
1607015458.0445,-33
1607015458.0465,-31
1607015458.0485,-24
1607015458.0507,-21
1607015458.0526,-21
1607015458.0545,-19
1607015458.0565,-9
1607015458.0585,-4
1607015458.0605,-2
1607015458.0626,0
1607015458.0645,-2
1607015458.0665,-4
1607015458.0685,-7
1607015458.0705,-9
1607015458.0725,-7
1607015458.0745,-9
1607015458.0765,-16
1607015458.0785,-19
1607015458.0805,-14
1607015458.0825,-16
1607015458.0845,-21
1607015458.0865,-19
1607015458.0885,-16
1607015458.0905,-16
1607015458.0925,-16
1607015458.0945,-14
1607015458.0965,-12
1607015458.0985,-12
1607015458.1006,-16
1607015458.1025,-16
1607015458.1045,-12
1607015458.1065,-12
1607015458.5324,-14
1607015458.5340,-12
1607015458.5364,-9
1607015458.5390,-9
1607015458.5410,-4
1607015458.5430,0
1607015458.5451,-2
1607015458.5470,-2
1607015458.5490,-7
1607015458.5510,-9
1607015458.5529,-4
1607015458.5548,-2
1607015458.5569,-4
1607015458.5589,-2
1607015458.5609,4
1607015458.5630,4
1607015458.5649,7
1607015458.5669,12
1607015458.5689,16
1607015458.5709,26
1607015458.5716,46
1607015458.5729,58
1607015458.5750,53
1607015458.5769,55
1607015458.5789,62
1607015458.5809,33
1607015458.5829,4
1607015458.5849,7
1607015458.5869,9
1607015458.5889,14
1607015458.5909,24
1607015458.5929,24
1607015458.5948,12
1607015458.5969,-2
1607015458.5989,53
1607015458.6009,348
1607015458.6016,784
1607015458.6040,895
1607015458.6059,372
1607015458.6079,-406
1607015458.6099,-617
1607015458.6119,-249
1607015458.6139,-53
1607015458.6160,-84
1607015458.6179,-16
1607015458.6199,33
1607015458.6219,-2
1607015458.6239,0
1607015458.6259,26
1607015458.6279,24
1607015458.6299,19
1607015458.6306,26
1607015458.6329,31
1607015458.6349,29
1607015458.6369,33
1607015458.6389,36
1607015458.6409,31
1607015458.6429,36
1607015458.6449,46
1607015458.6469,50
1607015458.6489,58
1607015458.6509,62
1607015458.6529,60
1607015458.6549,65
1607015458.6569,82
1607015458.6589,96
1607015458.6609,108
1607015458.6616,125
1607015458.6639,145
1607015458.6659,159
1607015458.6679,179
1607015458.6699,196
1607015458.6719,210
1607015459.1023,217
1607015459.1035,222
1607015459.1060,215
1607015459.1086,196
1607015459.1106,164
1607015459.1125,123
1607015459.1145,84
1607015459.1165,48
1607015459.1173,19
1607015459.1195,-7
1607015459.1214,-19
1607015459.1235,-19
1607015459.1255,-24
1607015459.1276,-26
1607015459.1296,-21
1607015459.1316,-16
1607015459.1335,-16
1607015459.1356,-14
1607015459.1376,-7
1607015459.1395,-2
1607015459.1416,0
1607015459.1436,0
1607015459.1456,7
1607015459.1475,12
1607015459.1482,14
1607015459.1505,16
1607015459.1525,19
1607015459.1545,21
1607015459.1565,21
1607015459.1585,19
1607015459.1605,19
1607015459.1626,19
1607015459.1645,16
1607015459.1665,19
1607015459.1685,19
1607015459.1705,16
1607015459.1725,19
1607015459.1745,16
1607015459.1766,16
1607015459.1785,19
1607015459.1792,16
1607015459.1815,19
1607015459.1835,19
1607015459.1855,19
1607015459.1875,16
1607015459.1895,14
1607015459.1915,12
1607015459.1935,12
1607015459.1955,12
1607015459.1975,16
1607015459.1995,24
1607015459.2017,24
1607015459.2035,24
1607015459.2055,29
1607015459.2075,26
1607015459.2095,19
1607015459.2101,21
1607015459.2115,24
1607015459.2135,26
1607015459.2155,26
1607015459.2175,29
1607015459.2195,31
1607015459.2215,33
1607015459.2235,33
1607015459.2255,33
1607015459.2275,36
1607015459.2295,33
1607015459.2315,29
1607015459.2335,33
1607015459.2355,36
1607015459.2375,38
1607015459.2395,43
1607015459.2402,53
1607015459.6426,67
1607015459.6438,75
1607015459.6462,70
1607015459.6489,72
1607015459.6509,72
1607015459.6528,41
1607015459.6547,16
1607015459.6568,24
1607015459.6588,26
1607015459.6608,19
1607015459.6627,16
1607015459.6647,16
1607015459.6668,4
1607015459.6688,-14
1607015459.6707,77
1607015459.6715,423
1607015459.6737,808
1607015459.6757,779
1607015459.6777,159
1607015459.6797,-515
1607015459.6818,-503
1607015459.6837,-116
1607015459.6857,-36
1607015459.6878,-67
1607015459.6897,14
1607015459.6917,21
1607015459.6937,-12
1607015459.6958,14
1607015459.6977,36
1607015459.6999,26
1607015459.7005,31
1607015459.7017,41
1607015459.7037,43
1607015459.7057,46
1607015459.7077,50
1607015459.7097,53
1607015459.7118,55
1607015459.7137,58
1607015459.7157,60
1607015459.7177,65
1607015459.7197,72
1607015459.7218,79
1607015459.7237,82
1607015459.7258,92
1607015459.7277,106
1607015459.7297,121
1607015459.7304,133
1607015459.7327,142
1607015459.7347,157
1607015459.7367,179
1607015459.7387,193
1607015459.7407,205
1607015459.7427,222
1607015459.7447,237
1607015459.7467,242
1607015459.7487,232
1607015459.7507,205
1607015459.7528,164
1607015459.7547,123
1607015459.7567,82
1607015459.7587,38
1607015459.7607,4
1607015459.7614,-9
1607015459.7637,-19
1607015459.7657,-26
1607015459.7677,-33
1607015459.7697,-31
1607015459.7717,-24
1607015459.7737,-19
1607015459.7757,-21
1607015459.7778,-19
1607015459.7797,-14
1607015459.7818,-14
1607015460.2129,-12
1607015460.2139,-4
1607015460.2155,2
1607015460.2180,7
1607015460.2200,4
1607015460.2219,0
1607015460.2239,2
1607015460.2261,-2
1607015460.2279,-9
1607015460.2300,-9
1607015460.2318,-7
1607015460.2338,-16
1607015460.2359,-21
1607015460.2378,-16
1607015460.2398,-16
1607015460.2418,-16
1607015460.2438,-14
1607015460.2458,-16
1607015460.2478,-19
1607015460.2499,-16
1607015460.2518,-14
1607015460.2538,-14
1607015460.2558,-14
1607015460.2578,-14
1607015460.2598,-14
1607015460.2618,-12
1607015460.2638,-14
1607015460.2659,-9
1607015460.2679,-7
1607015460.2698,-12
1607015460.2718,-14
1607015460.2738,-12
1607015460.2758,-9
1607015460.2778,-4
1607015460.2798,0
1607015460.2818,-2
1607015460.2838,-4
1607015460.2858,-2
1607015460.2879,2
1607015460.2898,4
1607015460.2918,0
1607015460.2938,-2
1607015460.2958,0
1607015460.2978,9
1607015460.2998,14
1607015460.3018,14
1607015460.3038,31
1607015460.3058,53
1607015460.3078,50
1607015460.3098,50
1607015460.3118,55
1607015460.3138,31
1607015460.3158,7
1607015460.3179,4
1607015460.3199,7
1607015460.3218,9
1607015460.3238,16
1607015460.3258,19
1607015460.3279,12
1607015460.3298,-4
1607015460.3318,79
1607015460.3338,418
1607015460.3359,832
1607015460.3378,852
1607015460.3398,251
1607015460.3418,-498
1607015460.3438,-610
1607015460.3458,-217
1607015460.3478,-55
1607015460.3498,-87
1607015460.3518,-16
1607015460.3538,16
1607015460.3558,-16
1607015460.7526,-2
1607015460.7536,24
1607015460.7560,14
1607015460.7587,9
1607015460.7607,16
1607015460.7627,19
1607015460.7648,19
1607015460.7667,24
1607015460.7687,19
1607015460.7707,19
1607015460.7726,29
1607015460.7746,33
1607015460.7766,36
1607015460.7786,46
1607015460.7806,50
1607015460.7827,58
1607015460.7846,67
1607015460.7866,84
1607015460.7887,99
1607015460.7906,113
1607015460.7926,128
1607015460.7946,142
1607015460.7966,159
1607015460.7986,179
1607015460.8007,196
1607015460.8027,215
1607015460.8046,232
1607015460.8066,230
1607015460.8086,213
1607015460.8106,184
1607015460.8127,147
1607015460.8146,108
1607015460.8166,62
1607015460.8186,19
1607015460.8206,-9
1607015460.8226,-29
1607015460.8248,-41
1607015460.8266,-43
1607015460.8286,-41
1607015460.8306,-41
1607015460.8327,-43
1607015460.8346,-41
1607015460.8366,-31
1607015460.8386,-24
1607015460.8406,-21
1607015460.8426,-16
1607015460.8446,-12
1607015460.8466,-9
1607015460.8487,-2
1607015460.8506,7
1607015460.8527,7
1607015460.8546,9
1607015460.8566,9
1607015460.8587,7
1607015460.8607,4
1607015460.8626,2
1607015460.8646,2
1607015460.8666,4
1607015460.8686,2
1607015460.8706,0
1607015460.8726,0
1607015460.8746,0
1607015460.8766,-4
1607015460.8786,-4
1607015460.8806,-7
1607015460.8826,-4
1607015460.8846,0
1607015460.8866,-2
1607015460.8886,0
1607015460.8906,2
1607015460.8926,2
1607015460.8946,2
1607015460.8966,4
1607015461.3529,9
1607015461.3541,12
1607015461.3565,9
1607015461.3591,7
1607015461.3612,14
1607015461.3632,16
1607015461.3652,16
1607015461.3672,29
1607015461.3692,41
1607015461.3712,31
1607015461.3732,36
1607015461.3752,41
1607015461.3773,12
1607015461.3792,-12
1607015461.3814,-12
1607015461.3833,-16
1607015461.3851,-14
1607015461.3871,-4
1607015461.3892,0
1607015461.3912,-2
1607015461.3931,-26
1607015461.3951,-31
1607015461.3971,179
1607015461.3991,636
1607015461.4012,934
1607015461.4032,614
1607015461.4051,-205
1607015461.4071,-685
1607015461.4091,-389
1607015461.4112,-62
1607015461.4131,-89
1607015461.4151,-72
1607015461.4171,7
1607015461.4191,-14
1607015461.4212,-26
1607015461.4232,7
1607015461.4251,12
1607015461.4271,4
1607015461.4293,14
1607015461.4312,19
1607015461.4331,19
1607015461.4351,24
1607015461.4371,26
1607015461.4391,31
1607015461.4411,36
1607015461.4430,38
1607015461.4451,43
1607015461.4471,50
1607015461.4491,58
1607015461.4512,62
1607015461.4530,75
1607015461.4551,89
1607015461.4570,101
1607015461.4591,116
1607015461.4611,133
1607015461.4631,150
1607015461.4651,169
1607015461.4670,188
1607015461.4691,203
1607015461.4711,217
1607015461.4731,227
1607015461.4750,230
1607015461.4770,217
1607015461.4792,188
1607015461.4811,150
1607015461.4833,108
1607015461.4852,70
1607015461.4870,31
1607015461.4891,2
1607015461.4912,-19
1607015461.4931,-31
1607015461.4950,-33
1607015461.4971,-36
1607015461.8926,-36
1607015461.8936,-33
1607015461.8962,-31
1607015461.8987,-29
1607015461.9007,-21
1607015461.9027,-14
1607015461.9047,-7
1607015461.9066,-2
1607015461.9086,0
1607015461.9106,4
1607015461.9126,4
1607015461.9146,0
1607015461.9166,-2
1607015461.9186,2
1607015461.9193,4
1607015461.9206,0
1607015461.9226,-2
1607015461.9246,-7
1607015461.9267,-9
1607015461.9286,-14
1607015461.9306,-14
1607015461.9326,-12
1607015461.9346,-12
1607015461.9366,-14
1607015461.9386,-9
1607015461.9406,-7
1607015461.9427,-12
1607015461.9447,-9
1607015461.9466,-4
1607015461.9486,-2
1607015461.9492,-2
1607015461.9506,0
1607015461.9527,2
1607015461.9546,2
1607015461.9566,4
1607015461.9586,2
1607015461.9606,2
1607015461.9626,2
1607015461.9645,2
1607015461.9666,4
1607015461.9686,7
1607015461.9706,9
1607015461.9726,9
1607015461.9751,14
1607015461.9766,14
1607015461.9786,14
1607015461.9792,14
1607015461.9806,21
1607015461.9826,24
1607015461.9846,21
1607015461.9866,19
1607015461.9886,24
1607015461.9906,26
1607015461.9926,26
1607015461.9945,29
1607015461.9966,33
1607015461.9986,38
1607015462.0006,50
1607015462.0025,65
1607015462.0046,65
1607015462.0067,60
1607015462.0086,62
1607015462.0092,46
1607015462.0106,19
1607015462.0126,12
1607015462.0146,16
1607015462.0166,16
1607015462.0186,16
1607015462.0206,19
1607015462.0225,14
1607015462.0246,-9
1607015462.0268,2
1607015462.0286,230
1607015462.4627,658
1607015462.4636,895
1607015462.4660,544
1607015462.4672,-234
1607015462.4687,-624
1607015462.4707,-302
1607015462.4727,-24
1607015462.4747,-72
1607015462.4767,-58
1607015462.4787,9
1607015462.4807,-16
1607015462.4827,-26
1607015462.4847,4
1607015462.4867,2
1607015462.4887,-4
1607015462.4907,9
1607015462.4926,16
1607015462.4946,16
1607015462.4966,21
1607015462.4973,24
1607015462.4986,24
1607015462.5008,31
1607015462.5027,38
1607015462.5046,43
1607015462.5066,48
1607015462.5086,53
1607015462.5106,58
1607015462.5126,67
1607015462.5146,79
1607015462.5167,89
1607015462.5186,106
1607015462.5206,123
1607015462.5226,138
1607015462.5246,159
1607015462.5266,184
1607015462.5273,198
1607015462.5287,210
1607015462.5306,227
1607015462.5326,237
1607015462.5347,230
1607015462.5366,208
1607015462.5386,174
1607015462.5407,130
1607015462.5427,87
1607015462.5446,48
1607015462.5466,16
1607015462.5486,-2
1607015462.5506,-19
1607015462.5526,-26
1607015462.5547,-29
1607015462.5566,-24
1607015462.5573,-26
1607015462.5586,-24
1607015462.5606,-14
1607015462.5626,-12
1607015462.5646,-9
1607015462.5666,-2
1607015462.5687,2
1607015462.5706,2
1607015462.5726,4
1607015462.5747,12
1607015462.5766,12
1607015462.5786,12
1607015462.5807,12
1607015462.5826,12
1607015462.5846,12
1607015462.5866,7
1607015462.5873,4
1607015462.5886,4
1607015462.5906,4
1607015462.5927,4
1607015462.5947,2
1607015462.5968,0
1607015463.0022,0
1607015463.0032,2
1607015463.0056,0
1607015463.0083,-4
1607015463.0103,-2
1607015463.0122,0
1607015463.0143,-2
1607015463.0162,0
1607015463.0183,4
1607015463.0202,-4
1607015463.0208,-9
1607015463.0222,-2
1607015463.0242,0
1607015463.0262,-2
1607015463.0282,0
1607015463.0302,2
1607015463.0322,2
1607015463.0342,2
1607015463.0362,12
1607015463.0382,33
1607015463.0402,43
1607015463.0422,36
1607015463.0442,46
1607015463.0462,50
1607015463.0482,19
1607015463.0490,-7
1607015463.0513,-4
1607015463.0532,-2
1607015463.0552,0
1607015463.0572,4
1607015463.0592,7
1607015463.0612,2
1607015463.0632,-26
1607015463.0652,-7
1607015463.0671,232
1607015463.0692,665
1607015463.0712,886
1607015463.0732,491
1607015463.0752,-307
1607015463.0772,-644
1607015463.0792,-295
1607015463.0799,-41
1607015463.0812,-89
1607015463.0832,-53
1607015463.0852,9
1607015463.0872,-19
1607015463.0892,-19
1607015463.0913,12
1607015463.0932,7
1607015463.0952,0
1607015463.0973,9
1607015463.0992,14
1607015463.1013,12
1607015463.1032,19
1607015463.1052,24
1607015463.1072,24
1607015463.1092,29
1607015463.1098,36
1607015463.1112,38
1607015463.1131,41
1607015463.1152,48
1607015463.1172,55
1607015463.1192,67
1607015463.1212,79
1607015463.1232,89
1607015463.1251,101
1607015463.1272,121
1607015463.1292,140
1607015463.1312,152
1607015463.1332,167
1607015463.1352,181
1607015463.1372,198
1607015463.1392,208
1607015463.5426,213
1607015463.5435,208
1607015463.5460,181
1607015463.5486,140
1607015463.5508,101
1607015463.5526,62
1607015463.5547,21
1607015463.5566,-14
1607015463.5586,-31
1607015463.5607,-38
1607015463.5626,-43
1607015463.5646,-48
1607015463.5666,-46
1607015463.5672,-38
1607015463.5686,-33
1607015463.5706,-31
1607015463.5725,-24
1607015463.5745,-16
1607015463.5765,-9
1607015463.5785,-4
1607015463.5806,2
1607015463.5825,7
1607015463.5845,4
1607015463.5867,7
1607015463.5885,14
1607015463.5906,16
1607015463.5926,12
1607015463.5945,14
1607015463.5967,14
1607015463.5972,12
1607015463.5987,9
1607015463.6006,9
1607015463.6026,9
1607015463.6046,7
1607015463.6065,4
1607015463.6085,4
1607015463.6105,9
1607015463.6126,14
1607015463.6145,14
1607015463.6166,12
1607015463.6186,9
1607015463.6205,7
1607015463.6225,9
1607015463.6246,12
1607015463.6266,14
1607015463.6272,16
1607015463.6285,14
1607015463.6305,14
1607015463.6326,19
1607015463.6345,24
1607015463.6365,26
1607015463.6385,24
1607015463.6405,19
1607015463.6425,19
1607015463.6445,24
1607015463.6465,26
1607015463.6485,24
1607015463.6506,31
1607015463.6526,33
1607015463.6546,31
1607015463.6565,33
1607015463.6572,41
1607015463.6585,46
1607015463.6605,60
1607015463.6625,67
1607015463.6645,50
1607015463.6666,53
1607015463.6686,62
1607015463.6705,36
1607015463.6725,9
1607015463.6745,14
1607015463.6765,16
1607015463.6785,12
1607015464.1126,12
1607015464.1136,14
1607015464.1153,9
1607015464.1177,-12
1607015464.1197,16
1607015464.1217,283
1607015464.1239,721
1607015464.1258,886
1607015464.1276,433
1607015464.1297,-353
1607015464.1317,-644
1607015464.1337,-288
1607015464.1357,-55
1607015464.1376,-101
1607015464.1396,-48
1607015464.1416,19
1607015464.1436,-21
1607015464.1456,-29
1607015464.1463,7
1607015464.1476,12
1607015464.1496,4
1607015464.1516,9
1607015464.1536,9
1607015464.1556,12
1607015464.1576,19
1607015464.1596,24
1607015464.1616,29
1607015464.1636,31
1607015464.1656,33
1607015464.1676,38
1607015464.1696,43
1607015464.1715,50
1607015464.1737,62
1607015464.1756,70
1607015464.1763,75
1607015464.1776,92
1607015464.1796,113
1607015464.1816,125
1607015464.1836,142
1607015464.1856,164
1607015464.1876,181
1607015464.1896,200
1607015464.1916,222
1607015464.1937,232
1607015464.1956,232
1607015464.1976,227
1607015464.1996,203
1607015464.2016,162
1607015464.2036,121
1607015464.2056,79
1607015464.2062,41
1607015464.2076,9
1607015464.2096,-12
1607015464.2116,-29
1607015464.2136,-38
1607015464.2156,-41
1607015464.2175,-38
1607015464.2197,-41
1607015464.2216,-38
1607015464.2236,-29
1607015464.2256,-21
1607015464.2276,-19
1607015464.2296,-16
1607015464.2316,-12
1607015464.2336,-9
1607015464.2356,-7
1607015464.2362,-2
1607015464.2376,-2
1607015464.2396,0
1607015464.2416,-2
1607015464.2436,-4
1607015464.2456,-7
1607015464.2476,-4
1607015464.7128,-4
1607015464.7141,-7
1607015464.7165,-7
1607015464.7193,-4
1607015464.7213,-9
1607015464.7232,-16
1607015464.7252,-21
1607015464.7272,-16
1607015464.7292,-12
1607015464.7299,-14
1607015464.7313,-12
1607015464.7332,-4
1607015464.7351,-4
1607015464.7371,-7
1607015464.7391,-4
1607015464.7412,0
1607015464.7431,0
1607015464.7451,0
1607015464.7471,4
1607015464.7491,7
1607015464.7512,7
1607015464.7531,4
1607015464.7551,7
1607015464.7571,7
1607015464.7591,4
1607015464.7597,4
1607015464.7611,7
1607015464.7631,7
1607015464.7653,7
1607015464.7671,9
1607015464.7691,12
1607015464.7710,14
1607015464.7731,16
1607015464.7751,24
1607015464.7771,33
1607015464.7793,53
1607015464.7813,62
1607015464.7831,53
1607015464.7850,60
1607015464.7871,65
1607015464.7891,33
1607015464.7899,12
1607015464.7911,16
1607015464.7931,19
1607015464.7951,16
1607015464.7971,16
1607015464.7991,14
1607015464.8012,2
1607015464.8031,-21
1607015464.8051,2
1607015464.8071,246
1607015464.8091,687
1607015464.8110,898
1607015464.8131,489
1607015464.8151,-309
1607015464.8172,-660
1607015464.8178,-324
1607015464.8191,-53
1607015464.8211,-89
1607015464.8231,-53
1607015464.8251,14
1607015464.8271,-7
1607015464.8291,-12
1607015464.8311,12
1607015464.8331,12
1607015464.8351,9
1607015464.8371,16
1607015464.8391,21
1607015464.8411,21
1607015464.8431,24
1607015464.8451,31
1607015464.8471,33
1607015464.8478,33
1607015465.2522,41
1607015465.2532,46
1607015465.2556,50
1607015465.2583,55
1607015465.2603,67
1607015465.2623,77
1607015465.2643,84
1607015465.2663,96
1607015465.2683,108
1607015465.2702,123
1607015465.2722,133
1607015465.2742,147
1607015465.2749,164
1607015465.2764,179
1607015465.2783,188
1607015465.2802,200
1607015465.2823,210
1607015465.2842,205
1607015465.2862,184
1607015465.2882,150
1607015465.2902,111
1607015465.2922,70
1607015465.2943,33
1607015465.2962,4
1607015465.2982,-14
1607015465.3003,-29
1607015465.3022,-33
1607015465.3042,-33
1607015465.3048,-31
1607015465.3062,-29
1607015465.3082,-24
1607015465.3102,-19
1607015465.3122,-16
1607015465.3142,-12
1607015465.3162,-4
1607015465.3182,0
1607015465.3202,4
1607015465.3222,7
1607015465.3242,4
1607015465.3262,2
1607015465.3282,4
1607015465.3301,4
1607015465.3322,4
1607015465.3342,2
1607015465.3348,0
1607015465.3362,-4
1607015465.3381,-7
1607015465.3402,-4
1607015465.3422,-2
1607015465.3442,-4
1607015465.3462,-7
1607015465.3482,-4
1607015465.3502,-4
1607015465.3522,-4
1607015465.3542,-2
1607015465.3562,0
1607015465.3582,-2
1607015465.3602,0
1607015465.3623,2
1607015465.3642,4
1607015465.3648,4
1607015465.3662,4
1607015465.3682,7
1607015465.3702,9
1607015465.3724,9
1607015465.3742,9
1607015465.3763,14
1607015465.3782,16
1607015465.3802,16
1607015465.3822,16
1607015465.3842,19
1607015465.3862,21
1607015465.3882,21
1607015465.8229,19
1607015465.8242,16
1607015465.8265,19
1607015465.8277,21
1607015465.8294,16
1607015465.8313,16
1607015465.8332,16
1607015465.8355,12
1607015465.8372,4
1607015465.8392,7
1607015465.8413,12
1607015465.8432,12
1607015465.8452,14
1607015465.8473,14
1607015465.8492,14
1607015465.8512,16
1607015465.8532,16
1607015465.8552,16
1607015465.8571,21
1607015465.8578,21
1607015465.8592,19
1607015465.8612,19
1607015465.8631,19
1607015465.8651,19
1607015465.8671,19
1607015465.8691,24
1607015465.8712,26
1607015465.8731,36
1607015465.8752,58
1607015465.8771,65
1607015465.8791,46
1607015465.8812,46
1607015465.8831,46
1607015465.8851,19
1607015465.8871,0
1607015465.8878,2
1607015465.8891,2
1607015465.8912,2
1607015465.8933,7
1607015465.8951,7
1607015465.8971,-7
1607015465.8991,-2
1607015465.9013,169
1607015465.9032,547
1607015465.9051,820
1607015465.9071,581
1607015465.9091,-135
1607015465.9112,-607
1607015465.9131,-377
1607015465.9151,-55
1607015465.9172,-60
1607015465.9178,-60
1607015465.9191,14
1607015465.9212,7
1607015465.9231,-9
1607015465.9251,14
1607015465.9271,24
1607015465.9292,16
1607015465.9312,24
1607015465.9331,31
1607015465.9351,31
1607015465.9371,33
1607015465.9391,38
1607015465.9412,43
1607015465.9431,48
1607015465.9451,50
1607015465.9471,50
1607015465.9478,55
1607015465.9491,60
1607015465.9511,62
1607015465.9531,72
1607015465.9551,84
1607015465.9571,96
1607015466.3623,108
1607015466.3633,118
1607015466.3657,133
1607015466.3685,150
1607015466.3704,169
1607015466.3724,188
1607015466.3745,203
1607015466.3764,215
1607015466.3771,217
1607015466.3784,215
1607015466.3804,208
1607015466.3823,188
1607015466.3843,152
1607015466.3864,111
1607015466.3883,70
1607015466.3903,33
1607015466.3924,7
1607015466.3944,-12
1607015466.3963,-19
1607015466.3983,-19
1607015466.4005,-19
1607015466.4023,-21
1607015466.4043,-21
1607015466.4063,-24
1607015466.4071,-24
1607015466.4094,-16
1607015466.4114,-9
1607015466.4133,-7
1607015466.4153,-7
1607015466.4173,-4
1607015466.4193,2
1607015466.4213,4
1607015466.4233,2
1607015466.4253,0
1607015466.4273,2
1607015466.4293,-2
1607015466.4314,-12
1607015466.4333,-14
1607015466.4353,-9
1607015466.4373,-9
1607015466.4380,-12
1607015466.4393,-14
1607015466.4414,-12
1607015466.4433,-12
1607015466.4453,-7
1607015466.4473,-4
1607015466.4494,-7
1607015466.4513,-4
1607015466.4533,-4
1607015466.4553,-4
1607015466.4573,0
1607015466.4593,2
1607015466.4614,-2
1607015466.4633,-4
1607015466.4653,-7
1607015466.4673,-2
1607015466.4756,4
1607015466.4773,2
1607015466.4793,-2
1607015466.4813,-4
1607015466.4833,-4
1607015466.4846,-2
1607015466.4863,-2
1607015466.4883,-4
1607015466.4903,-2
1607015466.4923,-2
1607015466.4943,0
1607015466.4963,2
1607015466.4983,4
1607015466.5004,7
1607015466.5010,7
1607015466.5025,4
1607015466.5044,4
1607015466.9322,9
1607015466.9331,12
1607015466.9355,14
1607015466.9382,19
1607015466.9402,14
1607015466.9423,12
1607015466.9443,24
1607015466.9462,31
1607015466.9482,31
1607015466.9503,29
1607015466.9522,16
1607015466.9542,12
1607015466.9550,19
1607015466.9562,12
1607015466.9582,7
1607015466.9602,14
1607015466.9623,16
1607015466.9642,4
1607015466.9662,-2
1607015466.9682,-7
1607015466.9702,70
1607015466.9721,392
1607015466.9742,796
1607015466.9762,820
1607015466.9782,239
1607015466.9802,-489
1607015466.9822,-602
1607015466.9842,-227
1607015466.9848,-62
1607015466.9861,-84
1607015466.9882,-16
1607015466.9902,19
1607015466.9922,-9
1607015466.9942,4
1607015466.9962,24
1607015466.9981,14
1607015467.0001,12
1607015467.0022,24
1607015467.0041,26
1607015467.0062,29
1607015467.0081,33
1607015467.0101,33
1607015467.0121,33
1607015467.0142,38
1607015467.0150,43
1607015467.0171,48
1607015467.0191,53
1607015467.0211,60
1607015467.0231,67
1607015467.0254,75
1607015467.0272,79
1607015467.0291,89
1607015467.0312,104
1607015467.0332,118
1607015467.0350,130
1607015467.0371,150
1607015467.0391,167
1607015467.0412,176
1607015467.0431,193
1607015467.0452,205
1607015467.0457,208
1607015467.0471,205
1607015467.0491,188
1607015467.0512,157
1607015467.0531,118
1607015467.0552,79
1607015467.0571,46
1607015467.0591,16
1607015467.0611,-2
1607015467.0631,-14
1607015467.0652,-21
1607015467.0671,-26
1607015467.0691,-29
1607015467.4726,-24
1607015467.4735,-16
1607015467.4760,-12
1607015467.4787,-7
1607015467.4807,-4
1607015467.4827,2
1607015467.4847,2
1607015467.4866,-4
1607015467.4886,-4
1607015467.4906,-2
1607015467.4926,-7
1607015467.4946,-9
1607015467.4966,-4
1607015467.4986,-4
1607015467.5006,-4
1607015467.5026,-7
1607015467.5046,-7
1607015467.5052,-9
1607015467.5066,-9
1607015467.5086,-9
1607015467.5107,-7
1607015467.5126,-7
1607015467.5146,-9
1607015467.5166,-9
1607015467.5186,-4
1607015467.5206,-2
1607015467.5226,-4
1607015467.5248,-7
1607015467.5265,-7
1607015467.5286,-4
1607015467.5305,-4
1607015467.5326,-2
1607015467.5345,0
1607015467.5352,0
1607015467.5365,0
1607015467.5385,0
1607015467.5405,2
1607015467.5425,0
1607015467.5445,-2
1607015467.5466,0
1607015467.5485,4
1607015467.5505,4
1607015467.5525,7
1607015467.5545,9
1607015467.5565,7
1607015467.5585,4
1607015467.5605,7
1607015467.5625,12
1607015467.5645,12
1607015467.5652,7
1607015467.5665,12
1607015467.5686,14
1607015467.5706,12
1607015467.5725,12
1607015467.5745,14
1607015467.5765,19
1607015467.5785,19
1607015467.5805,19
1607015467.5825,16
1607015467.5845,21
1607015467.5865,24
1607015467.5885,24
1607015467.5906,26
1607015467.5925,29
1607015467.5945,33
1607015467.5951,41
1607015467.5965,48
1607015467.5985,46
1607015467.6005,41
1607015467.6028,36
1607015467.6045,38
1607015467.6065,36
1607015467.6085,24
1607015468.0722,21
1607015468.0734,24
1607015468.0753,19
1607015468.0774,12
1607015468.0794,-7
1607015468.0816,-12
1607015468.0822,152
1607015468.0834,539
1607015468.0854,835
1607015468.0873,619
1607015468.0894,-96
1607015468.0914,-607
1607015468.0934,-401
1607015468.0954,-60
1607015468.0974,-58
1607015468.0993,-65
1607015468.1015,7
1607015468.1033,4
1607015468.1053,-12
1607015468.1074,12
1607015468.1093,16
1607015468.1113,9
1607015468.1118,19
1607015468.1133,24
1607015468.1153,21
1607015468.1173,26
1607015468.1193,31
1607015468.1213,29
1607015468.1233,31
1607015468.1253,38
1607015468.1273,41
1607015468.1293,43
1607015468.1313,53
1607015468.1333,60
1607015468.1353,65
1607015468.1373,72
1607015468.1394,82
1607015468.1413,96
1607015468.1419,106
1607015468.1433,116
1607015468.1453,135
1607015468.1473,152
1607015468.1493,167
1607015468.1512,179
1607015468.1533,191
1607015468.1553,200
1607015468.1573,205
1607015468.1593,198
1607015468.1612,174
1607015468.1633,138
1607015468.1653,96
1607015468.1673,55
1607015468.1692,19
1607015468.1713,-7
1607015468.1719,-21
1607015468.1732,-33
1607015468.1755,-38
1607015468.1773,-41
1607015468.1793,-38
1607015468.1814,-33
1607015468.1833,-29
1607015468.1852,-24
1607015468.1872,-19
1607015468.1893,-14
1607015468.1913,-12
1607015468.1933,-9
1607015468.1953,-4
1607015468.1973,-7
1607015468.1993,-12
1607015468.2013,-9
1607015468.2018,-7
1607015468.2033,-9
1607015468.2052,-9
1607015468.6429,-7
1607015468.6442,-14
1607015468.6466,-21
1607015468.6493,-19
1607015468.6513,-16
1607015468.6533,-19
1607015468.6553,-21
1607015468.6572,-21
1607015468.6592,-21
1607015468.6613,-29
1607015468.6633,-36
1607015468.6653,-31
1607015468.6661,-24
1607015468.6673,-26
1607015468.6693,-26
1607015468.6712,-24
1607015468.6733,-19
1607015468.6753,-16
1607015468.6773,-16
1607015468.6793,-14
1607015468.6814,-12
1607015468.6833,-14
1607015468.6853,-12
1607015468.6873,-9
1607015468.6893,-9
1607015468.6913,-12
1607015468.6932,-12
1607015468.6952,-7
1607015468.6958,-7
1607015468.6972,-7
1607015468.6993,-2
1607015468.7013,2
1607015468.7032,0
1607015468.7052,-2
1607015468.7074,2
1607015468.7092,4
1607015468.7113,2
1607015468.7132,4
1607015468.7152,9
1607015468.7172,9
1607015468.7192,12
1607015468.7212,14
1607015468.7233,14
1607015468.7252,14
1607015468.7259,14
1607015468.7272,12
1607015468.7293,12
1607015468.7312,16
1607015468.7332,21
1607015468.7352,21
1607015468.7372,21
1607015468.7392,26
1607015468.7412,36
1607015468.7432,46
1607015468.7452,50
1607015468.7472,38
1607015468.7492,19
1607015468.7512,24
1607015468.7532,33
1607015468.7552,19
1607015468.7558,4
1607015468.7572,12
1607015468.7591,21
1607015468.7612,16
1607015468.7632,4
1607015468.7652,0
1607015468.7672,128
1607015468.7692,493
1607015468.7711,842
1607015468.7732,731
1607015468.7752,60
1607015468.7772,-571
1607015468.7792,-503
1607015469.1825,-121
1607015469.1835,-48
1607015469.1859,-70
1607015469.1886,7
1607015469.1906,16
1607015469.1926,-12
1607015469.1947,12
1607015469.1966,24
1607015469.1987,7
1607015469.2006,9
1607015469.2026,21
1607015469.2046,19
1607015469.2068,16
1607015469.2086,24
1607015469.2106,24
1607015469.2126,21
1607015469.2146,29
1607015469.2152,36
1607015469.2167,33
1607015469.2186,41
1607015469.2205,53
1607015469.2226,60
1607015469.2246,67
1607015469.2266,77
1607015469.2286,92
1607015469.2306,106
1607015469.2325,121
1607015469.2345,140
1607015469.2365,159
1607015469.2385,174
1607015469.2405,188
1607015469.2425,203
1607015469.2445,213
1607015469.2452,220
1607015469.2465,215
1607015469.2486,193
1607015469.2505,154
1607015469.2525,111
1607015469.2546,67
1607015469.2565,31
1607015469.2586,2
1607015469.2605,-19
1607015469.2625,-33
1607015469.2645,-41
1607015469.2665,-46
1607015469.2685,-48
1607015469.2705,-46
1607015469.2725,-43
1607015469.2745,-43
1607015469.2751,-36
1607015469.2765,-31
1607015469.2786,-26
1607015469.2807,-21
1607015469.2825,-21
1607015469.2845,-24
1607015469.2865,-21
1607015469.2885,-16
1607015469.2905,-12
1607015469.2925,-12
1607015469.2945,-14
1607015469.2965,-19
1607015469.2985,-21
1607015469.3006,-19
1607015469.3027,-19
1607015469.3045,-21
1607015469.3051,-21
1607015469.3065,-21
1607015469.3086,-26
1607015469.3105,-29
1607015469.3126,-24
1607015469.3145,-21
1607015469.3166,-19
1607015469.3185,-16
1607015469.7226,-16
1607015469.7235,-16
1607015469.7260,-16
1607015469.7286,-16
1607015469.7307,-16
1607015469.7326,-14
1607015469.7347,-14
1607015469.7366,-19
1607015469.7372,-21
1607015469.7386,-19
1607015469.7406,-14
1607015469.7426,-14
1607015469.7446,-16
1607015469.7466,-16
1607015469.7486,-9
1607015469.7506,-4
1607015469.7526,-4
1607015469.7546,-4
1607015469.7566,-4
1607015469.7586,-2
1607015469.7606,0
1607015469.7626,4
1607015469.7646,7
1607015469.7667,9
1607015469.7673,9
1607015469.7686,12
1607015469.7706,14
1607015469.7726,14
1607015469.7746,16
1607015469.7766,19
1607015469.7786,24
1607015469.7806,24
1607015469.7826,26
1607015469.7845,33
1607015469.7865,41
1607015469.7886,43
1607015469.7906,43
1607015469.7926,33
1607015469.7946,29
1607015469.7966,33
1607015469.7971,29
1607015469.7987,16
1607015469.8006,21
1607015469.8026,29
1607015469.8046,31
1607015469.8065,21
1607015469.8086,0
1607015469.8105,53
1607015469.8126,355
1607015469.8146,777
1607015469.8166,859
1607015469.8185,329
1607015469.8205,-416
1607015469.8226,-585
1607015469.8245,-215
1607015469.8265,-43
1607015469.8271,-77
1607015469.8285,-12
1607015469.8305,29
1607015469.8326,-2
1607015469.8346,7
1607015469.8365,31
1607015469.8385,24
1607015469.8405,24
1607015469.8426,33
1607015469.8445,33
1607015469.8465,31
1607015469.8485,36
1607015469.8505,41
1607015469.8526,43
1607015469.8546,43
1607015469.8566,43
1607015469.8572,48
1607015470.3227,53
1607015470.3240,58
1607015470.3264,67
1607015470.3291,79
1607015470.3311,82
1607015470.3331,84
1607015470.3352,94
1607015470.3371,111
1607015470.3391,128
1607015470.3412,142
1607015470.3432,159
1607015470.3451,176
1607015470.3458,188
1607015470.3472,200
1607015470.3492,210
1607015470.3512,205
1607015470.3531,186
1607015470.3551,154
1607015470.3571,118
1607015470.3594,79
1607015470.3612,41
1607015470.3630,7
1607015470.3650,-14
1607015470.3671,-29
1607015470.3691,-36
1607015470.3711,-41
1607015470.3731,-38
1607015470.3752,-33
1607015470.3757,-29
1607015470.3773,-29
1607015470.3790,-26
1607015470.3811,-21
1607015470.3831,-14
1607015470.3850,-12
1607015470.3871,-7
1607015470.3891,-4
1607015470.3911,-2
1607015470.3931,2
1607015470.3951,2
1607015470.3970,0
1607015470.3991,-4
1607015470.4010,-7
1607015470.4031,-7
1607015470.4036,-12
1607015470.4050,-16
1607015470.4070,-19
1607015470.4090,-19
1607015470.4111,-24
1607015470.4130,-21
1607015470.4150,-19
1607015470.4170,-19
1607015470.4190,-16
1607015470.4211,-16
1607015470.4232,-16
1607015470.4250,-12
1607015470.4270,-9
1607015470.4290,-12
1607015470.4311,-9
1607015470.4330,-7
1607015470.4336,-7
1607015470.4350,-9
1607015470.4370,-9
1607015470.4390,-7
1607015470.4411,-4
1607015470.4430,-2
1607015470.4450,0
1607015470.4471,0
1607015470.4490,-2
1607015470.4511,-2
1607015470.4531,2
1607015470.4553,7
1607015470.4570,4
1607015470.4590,4
1607015470.8626,9
1607015470.8636,12
1607015470.8661,12
1607015470.8686,9
1607015470.8707,14
1607015470.8727,14
1607015470.8748,4
1607015470.8767,2
1607015470.8788,9
1607015470.8806,7
1607015470.8827,-2
1607015470.8847,-2
1607015470.8867,2
1607015470.8886,4
1607015470.8907,4
1607015470.8926,7
1607015470.8932,7
1607015470.8946,7
1607015470.8966,12
1607015470.8987,14
1607015470.9007,14
1607015470.9027,14
1607015470.9046,19
1607015470.9067,29
1607015470.9087,33
1607015470.9107,38
1607015470.9127,36
1607015470.9147,26
1607015470.9166,26
1607015470.9186,31
1607015470.9206,21
1607015470.9226,12
1607015470.9232,16
1607015470.9246,19
1607015470.9266,14
1607015470.9286,0
1607015470.9307,-2
1607015470.9326,130
1607015470.9346,493
1607015470.9366,825
1607015470.9386,692
1607015470.9406,21
1607015470.9426,-559
1607015470.9446,-438
1607015470.9467,-72
1607015470.9486,-41
1607015470.9506,-67
1607015470.9526,9
1607015470.9534,16
1607015470.9546,-9
1607015470.9566,14
1607015470.9587,26
1607015470.9606,16
1607015470.9626,16
1607015470.9647,24
1607015470.9666,26
1607015470.9686,31
1607015470.9706,36
1607015470.9726,36
1607015470.9746,38
1607015470.9766,46
1607015470.9785,50
1607015470.9806,53
1607015470.9826,60
1607015470.9832,65
1607015470.9846,70
1607015470.9866,79
1607015470.9887,92
1607015470.9906,104
1607015470.9926,116
1607015470.9946,130
1607015470.9966,147
1607015470.9986,162
1607015471.4325,179
1607015471.4338,196
1607015471.4362,208
1607015471.4388,213
1607015471.4409,215
1607015471.4417,210
1607015471.4429,186
1607015471.4450,145
1607015471.4469,99
1607015471.4489,58
1607015471.4509,24
1607015471.4529,-7
1607015471.4549,-29
1607015471.4569,-38
1607015471.4589,-41
1607015471.4609,-46
1607015471.4628,-46
1607015471.4648,-41
1607015471.4669,-33
1607015471.4688,-26
1607015471.4709,-21
1607015471.4714,-19
1607015471.4728,-12
1607015471.4748,-9
1607015471.4768,-14
1607015471.4789,-12
1607015471.4811,-4
1607015471.4828,-4
1607015471.4848,-2
1607015471.4868,-4
1607015471.4888,-9
1607015471.4908,-12
1607015471.4928,-14
1607015471.4948,-14
1607015471.4968,-16
1607015471.4988,-21
1607015471.5009,-19
1607015471.5014,-12
1607015471.5028,-14
1607015471.5048,-21
1607015471.5068,-16
1607015471.5088,-12
1607015471.5108,-12
1607015471.5128,-12
1607015471.5148,-12
1607015471.5167,-12
1607015471.5188,-14
1607015471.5207,-14
1607015471.5227,-7
1607015471.5249,-4
1607015471.5268,-7
1607015471.5288,-2
1607015471.5308,2
1607015471.5313,2
1607015471.5328,2
1607015471.5347,4
1607015471.5368,4
1607015471.5388,2
1607015471.5408,2
1607015471.5428,7
1607015471.5448,12
1607015471.5468,12
1607015471.5488,7
1607015471.5508,7
1607015471.5528,12
1607015471.5548,14
1607015471.5568,14
1607015471.5588,19
1607015471.5608,24
1607015471.5614,16
1607015471.5628,9
1607015471.5648,16
1607015471.5668,24
1607015472.0023,19
1607015472.0035,14
1607015472.0059,16
1607015472.0087,21
1607015472.0110,21
1607015472.0126,21
1607015472.0148,26
1607015472.0167,33
1607015472.0187,31
1607015472.0207,26
1607015472.0227,26
1607015472.0233,19
1607015472.0247,12
1607015472.0267,16
1607015472.0287,14
1607015472.0307,9
1607015472.0326,14
1607015472.0346,12
1607015472.0366,14
1607015472.0386,9
1607015472.0407,2
1607015472.0426,133
1607015472.0446,525
1607015472.0467,886
1607015472.0486,745
1607015472.0506,50
1607015472.0526,-583
1607015472.0531,-513
1607015472.0546,-133
1607015472.0566,-60
1607015472.0587,-77
1607015472.0606,2
1607015472.0626,12
1607015472.0646,-14
1607015472.0666,9
1607015472.0686,16
1607015472.0706,7
1607015472.0725,14
1607015472.0746,24
1607015472.0766,16
1607015472.0786,21
1607015472.0806,31
1607015472.0826,31
1607015472.0832,33
1607015472.0845,36
1607015472.0866,41
1607015472.0885,46
1607015472.0906,48
1607015472.0926,55
1607015472.0946,72
1607015472.0966,79
1607015472.0987,82
1607015472.1006,96
1607015472.1026,116
1607015472.1046,128
1607015472.1067,142
1607015472.1086,159
1607015472.1106,179
1607015472.1126,193
1607015472.1131,205
1607015472.1146,220
1607015472.1165,225
1607015472.1186,213
1607015472.1206,188
1607015472.1226,159
1607015472.1247,113
1607015472.1266,62
1607015472.1286,21
1607015472.1306,-9
1607015472.1326,-31
1607015472.1346,-43
1607015472.1365,-50
1607015472.1385,-50
1607015472.6023,-50
1607015472.6035,-48
1607015472.6060,-46
1607015472.6087,-36
1607015472.6107,-29
1607015472.6126,-26
1607015472.6147,-26
1607015472.6167,-24
1607015472.6186,-19
1607015472.6206,-26
1607015472.6226,-29
1607015472.6246,-21
1607015472.6267,-19
1607015472.6288,-24
1607015472.6307,-24
1607015472.6327,-19
1607015472.6333,-21
1607015472.6346,-26
1607015472.6367,-29
1607015472.6387,-29
1607015472.6407,-26
1607015472.6427,-26
1607015472.6446,-24
1607015472.6467,-24
1607015472.6487,-24
1607015472.6507,-26
1607015472.6526,-26
1607015472.6546,-21
1607015472.6566,-19
1607015472.6586,-19
1607015472.6606,-16
1607015472.6626,-14
1607015472.6631,-12
1607015472.6648,-7
1607015472.6667,-7
1607015472.6686,-4
1607015472.6706,0
1607015472.6726,0
1607015472.6746,-2
1607015472.6766,0
1607015472.6786,2
1607015472.6806,2
1607015472.6826,7
1607015472.6846,9
1607015472.6866,9
1607015472.6886,12
1607015472.6906,16
1607015472.6925,19
1607015472.6932,14
1607015472.6945,14
1607015472.6965,19
1607015472.6986,21
1607015472.7005,21
1607015472.7025,24
1607015472.7045,29
1607015472.7065,29
1607015472.7085,24
1607015472.7106,24
1607015472.7125,26
1607015472.7145,26
1607015472.7166,29
1607015472.7186,31
1607015472.7205,36
1607015472.7225,41
1607015472.7232,43
1607015472.7245,46
1607015472.7265,48
1607015472.7285,46
1607015472.7305,36
1607015472.7325,38
1607015472.7345,43
1607015472.7365,33
1607015472.7385,26
1607015473.1725,31
1607015473.1734,29
1607015473.1759,21
1607015473.1785,9
1607015473.1792,2
1607015473.1805,142
1607015473.1825,532
1607015473.1846,874
1607015473.1865,711
1607015473.1885,0
1607015473.1906,-598
1607015473.1927,-469
1607015473.1946,-96
1607015473.1965,-62
1607015473.1985,-89
1607015473.2005,-12
1607015473.2025,-9
1607015473.2045,-36
1607015473.2065,-12
1607015473.2085,2
1607015473.2090,-2
1607015473.2105,4
1607015473.2125,12
1607015473.2144,9
1607015473.2165,12
1607015473.2185,19
1607015473.2205,24
1607015473.2224,29
1607015473.2244,33
1607015473.2264,36
1607015473.2286,41
1607015473.2304,48
1607015473.2324,58
1607015473.2345,67
1607015473.2365,75
1607015473.2371,84
1607015473.2385,94
1607015473.2404,111
1607015473.2424,130
1607015473.2444,145
1607015473.2464,167
1607015473.2484,184
1607015473.2506,193
1607015473.2524,208
1607015473.2544,220
1607015473.2564,225
1607015473.2584,213
1607015473.2605,186
1607015473.2625,145
1607015473.2645,99
1607015473.2666,55
1607015473.2670,19
1607015473.2685,-9
1607015473.2705,-29
1607015473.2725,-41
1607015473.2745,-46
1607015473.2764,-46
1607015473.2784,-43
1607015473.2805,-41
1607015473.2824,-38
1607015473.2843,-33
1607015473.2864,-29
1607015473.2886,-21
1607015473.2905,-14
1607015473.2924,-9
1607015473.2944,-9
1607015473.2964,-12
1607015473.2970,-7
1607015473.2984,-2
1607015473.3004,-4
1607015473.3025,-7
1607015473.3044,-7
1607015473.3064,-9
1607015473.6526,-14
1607015473.6535,-14
1607015473.6559,-14
1607015473.6587,-16
1607015473.6607,-19
1607015473.6627,-21
1607015473.6647,-19
1607015473.6667,-19
1607015473.6687,-21
1607015473.6708,-19
1607015473.6713,-14
1607015473.6726,-16
1607015473.6746,-16
1607015473.6766,-12
1607015473.6786,-9
1607015473.6806,-14
1607015473.6826,-19
1607015473.6846,-21
1607015473.6866,-16
1607015473.6886,-12
1607015473.6906,-9
1607015473.6926,-7
1607015473.6946,-4
1607015473.6966,-4
1607015473.6986,-4
1607015473.7006,-2
1607015473.7011,2
1607015473.7026,4
1607015473.7046,2
1607015473.7066,2
1607015473.7086,4
1607015473.7105,7
1607015473.7126,9
1607015473.7146,12
1607015473.7166,12
1607015473.7186,12
1607015473.7206,12
1607015473.7226,16
1607015473.7246,19
1607015473.7266,16
1607015473.7288,12
1607015473.7306,14
1607015473.7311,21
1607015473.7325,16
1607015473.7346,16
1607015473.7366,21
1607015473.7386,24
1607015473.7405,19
1607015473.7426,21
1607015473.7446,26
1607015473.7466,24
1607015473.7486,24
1607015473.7506,29
1607015473.7527,29
1607015473.7546,29
1607015473.7565,26
1607015473.7586,29
1607015473.7606,31
1607015473.7611,29
1607015473.7626,31
1607015473.7646,43
1607015473.7666,60
1607015473.7686,72
1607015473.7706,70
1607015473.7726,58
1607015473.7745,50
1607015473.7766,36
1607015473.7785,14
1607015473.7805,14
1607015473.7825,21
1607015473.7846,19
1607015473.7866,14
1607015473.7885,12
1607015474.2226,-2
1607015474.2239,7
1607015474.2263,210
1607015474.2289,602
1607015474.2310,835
1607015474.2330,522
1607015474.2351,-217
1607015474.2370,-614
1607015474.2390,-324
1607015474.2410,-43
1607015474.2430,-79
1607015474.2450,-60
1607015474.2470,12
1607015474.2490,-9
1607015474.2496,-16
1607015474.2510,12
1607015474.2530,14
1607015474.2550,4
1607015474.2572,16
1607015474.2590,24
1607015474.2610,24
1607015474.2629,26
1607015474.2649,29
1607015474.2669,33
1607015474.2689,38
1607015474.2710,43
1607015474.2729,46
1607015474.2749,50
1607015474.2769,55
1607015474.2790,62
1607015474.2795,67
1607015474.2810,77
1607015474.2829,87
1607015474.2849,99
1607015474.2869,113
1607015474.2889,130
1607015474.2910,147
1607015474.2929,164
1607015474.2949,181
1607015474.2969,196
1607015474.2989,203
1607015474.3010,213
1607015474.3029,220
1607015474.3049,215
1607015474.3069,191
1607015474.3089,150
1607015474.3095,106
1607015474.3109,65
1607015474.3129,26
1607015474.3149,0
1607015474.3169,-21
1607015474.3189,-41
1607015474.3211,-50
1607015474.3229,-50
1607015474.3248,-46
1607015474.3269,-41
1607015474.3288,-38
1607015474.3309,-31
1607015474.3329,-24
1607015474.3349,-26
1607015474.3369,-26
1607015474.3388,-21
1607015474.3394,-16
1607015474.3409,-19
1607015474.3429,-16
1607015474.3451,-14
1607015474.3471,-9
1607015474.3489,-7
1607015474.3509,-12
1607015474.3531,-14
1607015474.3549,-14
1607015474.3569,-16
1607015474.3594,-19
1607015474.8226,-19
1607015474.8238,-19
1607015474.8262,-21
1607015474.8288,-24
1607015474.8297,-19
1607015474.8310,-16
1607015474.8329,-19
1607015474.8350,-24
1607015474.8369,-24
1607015474.8389,-24
1607015474.8410,-19
1607015474.8429,-16
1607015474.8450,-21
1607015474.8469,-24
1607015474.8489,-19
1607015474.8510,-9
1607015474.8529,-7
1607015474.8549,-7
1607015474.8572,-7
1607015474.8590,-7
1607015474.8596,-7
1607015474.8609,-7
1607015474.8628,-2
1607015474.8648,-2
1607015474.8668,-2
1607015474.8688,-4
1607015474.8709,-2
1607015474.8728,2
1607015474.8749,7
1607015474.8769,7
1607015474.8788,7
1607015474.8809,7
1607015474.8828,7
1607015474.8848,7
1607015474.8868,12
1607015474.8888,12
1607015474.8894,9
1607015474.8909,12
1607015474.8928,16
1607015474.8948,19
1607015474.8968,19
1607015474.8988,21
1607015474.9009,24
1607015474.9028,26
1607015474.9048,26
1607015474.9067,29
1607015474.9088,31
1607015474.9110,19
1607015474.9128,14
1607015474.9148,24
1607015474.9168,16
1607015474.9188,7
1607015474.9194,12
1607015474.9209,19
1607015474.9228,14
1607015474.9248,9
1607015474.9268,2
1607015474.9288,87
1607015474.9309,416
1607015474.9328,825
1607015474.9348,840
1607015474.9368,251
1607015474.9388,-481
1607015474.9409,-595
1607015474.9428,-217
1607015474.9448,-65
1607015474.9468,-94
1607015474.9488,-16
1607015474.9493,21
1607015474.9509,-9
1607015474.9528,4
1607015474.9548,24
1607015474.9568,14
1607015475.3625,16
1607015475.3633,26
1607015475.3657,21
1607015475.3685,21
1607015475.3705,24
1607015475.3725,26
1607015475.3745,33
1607015475.3765,43
1607015475.3785,46
1607015475.3791,46
1607015475.3805,46
1607015475.3824,46
1607015475.3844,46
1607015475.3865,55
1607015475.3885,70
1607015475.3904,79
1607015475.3923,89
1607015475.3944,108
1607015475.3964,125
1607015475.3985,140
1607015475.4005,154
1607015475.4024,176
1607015475.4044,196
1607015475.4064,200
1607015475.4084,200
1607015475.4091,196
1607015475.4104,179
1607015475.4125,145
1607015475.4144,106
1607015475.4164,67
1607015475.4184,29
1607015475.4204,-4
1607015475.4224,-26
1607015475.4244,-41
1607015475.4264,-48
1607015475.4283,-53
1607015475.4304,-58
1607015475.4324,-60
1607015475.4344,-55
1607015475.4364,-48
1607015475.4385,-43
1607015475.4389,-36
1607015475.4404,-33
1607015475.4423,-31
1607015475.4443,-29
1607015475.4463,-29
1607015475.4483,-29
1607015475.4504,-24
1607015475.4524,-19
1607015475.4544,-16
1607015475.4564,-19
1607015475.4584,-19
1607015475.4604,-16
1607015475.4624,-16
1607015475.4643,-19
1607015475.4664,-19
1607015475.4684,-16
1607015475.4689,-16
1607015475.4704,-16
1607015475.4724,-14
1607015475.4743,-14
1607015475.4763,-14
1607015475.4783,-12
1607015475.4804,-9
1607015475.4824,-7
1607015475.4844,-7
1607015475.4864,-7
1607015475.4884,-4
1607015475.4903,-4
1607015475.4923,-4
1607015475.4944,-2
1607015475.4964,2
1607015475.4984,2
1607015475.9022,2
1607015475.9034,2
1607015475.9057,4
1607015475.9077,7
1607015475.9095,2
1607015475.9115,0
1607015475.9135,4
1607015475.9155,7
1607015475.9175,0
1607015475.9195,-7
1607015475.9214,-2
1607015475.9234,4
1607015475.9254,2
1607015475.9274,0
1607015475.9294,2
1607015475.9315,7
1607015475.9320,7
1607015475.9334,7
1607015475.9354,7
1607015475.9374,9
1607015475.9394,9
1607015475.9414,9
1607015475.9434,12
1607015475.9454,14
1607015475.9474,16
1607015475.9494,14
1607015475.9514,14
1607015475.9534,21
1607015475.9554,24
1607015475.9574,19
1607015475.9594,19
1607015475.9615,29
1607015475.9621,36
1607015475.9634,38
1607015475.9654,36
1607015475.9674,29
1607015475.9694,29
1607015475.9714,31
1607015475.9734,21
1607015475.9754,14
1607015475.9774,21
1607015475.9793,24
1607015475.9814,21
1607015475.9835,9
1607015475.9854,-2
1607015475.9874,101
1607015475.9894,443
1607015475.9914,813
1607015475.9920,765
1607015475.9934,140
1607015475.9954,-515
1607015475.9974,-493
1607015475.9994,-111
1607015476.0014,-33
1607015476.0036,-75
1607015476.0054,0
1607015476.0074,16
1607015476.0094,-12
1607015476.0114,7
1607015476.0134,26
1607015476.0154,16
1607015476.0173,19
1607015476.0194,29
1607015476.0214,26
1607015476.0220,26
1607015476.0234,33
1607015476.0254,38
1607015476.0274,36
1607015476.0294,36
1607015476.0314,43
1607015476.0334,48
1607015476.0354,50
1607015476.0374,58
1607015476.4725,62
1607015476.4736,72
1607015476.4760,79
1607015476.4787,89
1607015476.4795,104
1607015476.4807,116
1607015476.4827,123
1607015476.4847,133
1607015476.4867,152
1607015476.4887,169
1607015476.4908,181
1607015476.4927,193
1607015476.4948,198
1607015476.4967,193
1607015476.4987,176
1607015476.5007,145
1607015476.5027,104
1607015476.5047,62
1607015476.5067,21
1607015476.5087,-7
1607015476.5092,-26
1607015476.5107,-46
1607015476.5127,-58
1607015476.5147,-58
1607015476.5167,-53
1607015476.5187,-53
1607015476.5208,-50
1607015476.5226,-48
1607015476.5246,-46
1607015476.5266,-41
1607015476.5287,-36
1607015476.5306,-33
1607015476.5328,-29
1607015476.5346,-24
1607015476.5367,-19
1607015476.5388,-16
1607015476.5392,-14
1607015476.5406,-12
1607015476.5426,-12
1607015476.5446,-12
1607015476.5467,-12
1607015476.5487,-14
1607015476.5506,-16
1607015476.5526,-16
1607015476.5546,-19
1607015476.5566,-19
1607015476.5586,-14
1607015476.5606,-12
1607015476.5626,-16
1607015476.5646,-16
1607015476.5666,-12
1607015476.5686,-7
1607015476.5692,-7
1607015476.5707,-7
1607015476.5726,-7
1607015476.5746,-4
1607015476.5766,-2
1607015476.5787,0
1607015476.5807,2
1607015476.5826,0
1607015476.5846,-4
1607015476.5866,-4
1607015476.5886,0
1607015476.5907,-2
1607015476.5926,0
1607015476.5946,4
1607015476.5966,7
1607015476.5986,7
1607015476.5992,9
1607015476.6006,9
1607015476.6026,12
1607015476.6046,14
1607015476.6067,12
1607015477.0122,9
1607015477.0133,14
1607015477.0157,19
1607015477.0185,19
1607015477.0204,16
1607015477.0225,14
1607015477.0246,12
1607015477.0265,9
1607015477.0285,12
1607015477.0305,14
1607015477.0327,12
1607015477.0334,7
1607015477.0345,12
1607015477.0365,14
1607015477.0385,9
1607015477.0405,9
1607015477.0424,14
1607015477.0444,9
1607015477.0464,7
1607015477.0484,7
1607015477.0505,12
1607015477.0524,16
1607015477.0544,16
1607015477.0564,14
1607015477.0584,14
1607015477.0604,16
1607015477.0624,24
1607015477.0629,36
1607015477.0644,48
1607015477.0664,65
1607015477.0684,72
1607015477.0704,60
1607015477.0724,50
1607015477.0744,46
1607015477.0764,26
1607015477.0784,12
1607015477.0804,19
1607015477.0824,26
1607015477.0844,26
1607015477.0863,24
1607015477.0883,16
1607015477.0904,2
1607015477.0923,62
1607015477.0930,353
1607015477.0944,755
1607015477.0964,849
1607015477.0984,353
1607015477.1004,-397
1607015477.1023,-600
1607015477.1044,-222
1607015477.1064,-31
1607015477.1084,-87
1607015477.1103,-26
1607015477.1124,26
1607015477.1144,-7
1607015477.1164,0
1607015477.1184,24
1607015477.1204,12
1607015477.1224,14
1607015477.1229,29
1607015477.1243,26
1607015477.1265,24
1607015477.1284,33
1607015477.1304,38
1607015477.1324,38
1607015477.1343,41
1607015477.1363,46
1607015477.1384,50
1607015477.1404,55
1607015477.1423,62
1607015477.1444,72
1607015477.1464,75
1607015477.1484,79
1607015477.5822,96
1607015477.5834,116
1607015477.5858,133
1607015477.5885,147
1607015477.5905,154
1607015477.5925,162
1607015477.5946,179
1607015477.5965,198
1607015477.5985,210
1607015477.6005,220
1607015477.6025,217
1607015477.6045,200
1607015477.6065,167
1607015477.6085,128
1607015477.6105,89
1607015477.6125,46
1607015477.6132,4
1607015477.6145,-24
1607015477.6165,-41
1607015477.6185,-50
1607015477.6205,-53
1607015477.6224,-53
1607015477.6244,-50
1607015477.6264,-48
1607015477.6284,-48
1607015477.6305,-46
1607015477.6324,-38
1607015477.6345,-38
1607015477.6364,-38
1607015477.6384,-31
1607015477.6404,-26
1607015477.6424,-21
1607015477.6430,-19
1607015477.6444,-14
1607015477.6464,-14
1607015477.6484,-12
1607015477.6504,-12
1607015477.6524,-14
1607015477.6544,-16
1607015477.6566,-19
1607015477.6585,-24
1607015477.6604,-26
1607015477.6624,-29
1607015477.6644,-26
1607015477.6664,-21
1607015477.6684,-19
1607015477.6704,-19
1607015477.6724,-19
1607015477.6730,-19
1607015477.6744,-16
1607015477.6764,-16
1607015477.6783,-16
1607015477.6804,-14
1607015477.6824,-9
1607015477.6844,-7
1607015477.6864,-7
1607015477.6884,-7
1607015477.6904,-4
1607015477.6924,-2
1607015477.6944,0
1607015477.6964,2
1607015477.6984,2
1607015477.7005,4
1607015477.7011,7
1607015477.7024,7
1607015477.7044,4
1607015477.7063,7
1607015477.7084,7
1607015477.7104,9
1607015477.7124,9
1607015477.7144,9
1607015477.7164,9
1607015477.7184,9
1607015478.1824,4
1607015478.1837,4
1607015478.1861,7
1607015478.1872,9
1607015478.1888,9
1607015478.1909,7
1607015478.1928,2
1607015478.1949,9
1607015478.1968,14
1607015478.1988,14
1607015478.2008,19
1607015478.2028,29
1607015478.2048,31
1607015478.2067,33
1607015478.2088,26
1607015478.2109,24
1607015478.2127,29
1607015478.2150,24
1607015478.2168,14
1607015478.2176,16
1607015478.2187,26
1607015478.2208,24
1607015478.2228,19
1607015478.2248,2
1607015478.2268,14
1607015478.2288,215
1607015478.2309,636
1607015478.2327,910
1607015478.2348,607
1607015478.2368,-164
1607015478.2387,-619
1607015478.2408,-358
1607015478.2427,-53
1607015478.2448,-72
1607015478.2468,-55
1607015478.2473,24
1607015478.2487,4
1607015478.2509,-12
1607015478.2527,19
1607015478.2547,24
1607015478.2567,16
1607015478.2587,26
1607015478.2608,31
1607015478.2627,31
1607015478.2647,33
1607015478.2666,36
1607015478.2687,38
1607015478.2706,41
1607015478.2727,46
1607015478.2747,53
1607015478.2768,58
1607015478.2772,62
1607015478.2787,67
1607015478.2807,75
1607015478.2827,87
1607015478.2847,96
1607015478.2867,106
1607015478.2887,121
1607015478.2907,135
1607015478.2927,150
1607015478.2947,167
1607015478.2968,184
1607015478.2987,198
1607015478.3008,210
1607015478.3027,217
1607015478.3047,215
1607015478.3067,196
1607015478.3073,171
1607015478.3089,135
1607015478.3108,94
1607015478.3127,53
1607015478.3147,14
1607015478.3167,-12
1607015478.7521,-26
1607015478.7532,-33
1607015478.7556,-41
1607015478.7574,-43
1607015478.7594,-38
1607015478.7614,-36
1607015478.7633,-33
1607015478.7654,-31
1607015478.7674,-31
1607015478.7693,-29
1607015478.7700,-29
1607015478.7714,-31
1607015478.7732,-26
1607015478.7753,-19
1607015478.7773,-19
1607015478.7793,-16
1607015478.7813,-12
1607015478.7833,-9
1607015478.7853,-12
1607015478.7873,-12
1607015478.7893,-14
1607015478.7913,-14
1607015478.7933,-12
1607015478.7953,-16
1607015478.7973,-21
1607015478.7993,-19
1607015478.7999,-16
1607015478.8013,-19
1607015478.8033,-16
1607015478.8053,-14
1607015478.8073,-12
1607015478.8093,-12
1607015478.8113,-14
1607015478.8133,-12
1607015478.8152,-9
1607015478.8172,-4
1607015478.8193,-4
1607015478.8213,-4
1607015478.8232,-4
1607015478.8253,-2
1607015478.8273,2
1607015478.8293,2
1607015478.8298,0
1607015478.8313,2
1607015478.8332,4
1607015478.8352,2
1607015478.8374,2
1607015478.8393,7
1607015478.8413,12
1607015478.8433,12
1607015478.8453,12
1607015478.8473,12
1607015478.8492,14
1607015478.8513,14
1607015478.8532,14
1607015478.8553,14
1607015478.8572,12
1607015478.8594,12
1607015478.8598,16
1607015478.8613,12
1607015478.8632,9
1607015478.8652,14
1607015478.8673,12
1607015478.8693,14
1607015478.8712,19
1607015478.8733,19
1607015478.8752,19
1607015478.8773,21
1607015478.8793,21
1607015478.8812,24
1607015478.8832,24
1607015478.8853,26
1607015478.8872,31
1607015479.2921,29
1607015479.2931,26
1607015479.2955,29
1607015479.2982,31
1607015479.3002,33
1607015479.3022,41
1607015479.3043,48
1607015479.3062,53
1607015479.3083,65
1607015479.3102,77
1607015479.3122,72
1607015479.3142,55
1607015479.3162,41
1607015479.3182,19
1607015479.3202,0
1607015479.3208,2
1607015479.3222,9
1607015479.3242,12
1607015479.3262,14
1607015479.3282,12
1607015479.3302,-2
1607015479.3322,36
1607015479.3341,280
1607015479.3361,663
1607015479.3384,820
1607015479.3401,428
1607015479.3422,-300
1607015479.3442,-578
1607015479.3462,-249
1607015479.3481,-31
1607015479.3502,-70
1607015479.3508,-31
1607015479.3521,21
1607015479.3541,-4
1607015479.3561,-4
1607015479.3582,21
1607015479.3601,19
1607015479.3621,12
1607015479.3641,21
1607015479.3661,31
1607015479.3681,36
1607015479.3701,36
1607015479.3722,31
1607015479.3741,29
1607015479.3761,36
1607015479.3781,48
1607015479.3801,46
1607015479.3808,38
1607015479.3821,46
1607015479.3841,58
1607015479.3861,65
1607015479.3881,72
1607015479.3901,77
1607015479.3921,89
1607015479.3941,106
1607015479.3961,118
1607015479.3981,135
1607015479.4001,154
1607015479.4022,174
1607015479.4041,188
1607015479.4061,205
1607015479.4081,217
1607015479.4101,222
1607015479.4107,210
1607015479.4121,184
1607015479.4141,150
1607015479.4162,108
1607015479.4182,62
1607015479.4202,21
1607015479.4221,-2
1607015479.4241,-26
1607015479.4261,-46
1607015479.4281,-53
1607015479.8320,-50
1607015479.8330,-46
1607015479.8358,-41
1607015479.8382,-33
1607015479.8401,-33
1607015479.8407,-31
1607015479.8421,-31
1607015479.8434,-29
1607015479.8451,-24
1607015479.8472,-24
1607015479.8491,-24
1607015479.8512,-19
1607015479.8531,-16
1607015479.8551,-16
1607015479.8571,-14
1607015479.8591,-12
1607015479.8611,-9
1607015479.8631,-12
1607015479.8651,-21
1607015479.8671,-26
1607015479.8678,-24
1607015479.8691,-16
1607015479.8711,-16
1607015479.8730,-19
1607015479.8750,-16
1607015479.8770,-14
1607015479.8789,-14
1607015479.8811,-14
1607015479.8830,-9
1607015479.8850,-12
1607015479.8870,-19
1607015479.8890,-9
1607015479.8911,0
1607015479.8930,0
1607015479.8950,-2
1607015479.8970,0
1607015479.8975,0
1607015479.8990,0
1607015479.9010,2
1607015479.9030,-2
1607015479.9051,-4
1607015479.9070,-2
1607015479.9090,2
1607015479.9110,7
1607015479.9130,7
1607015479.9150,7
1607015479.9170,7
1607015479.9191,0
1607015479.9211,-4
1607015479.9230,7
1607015479.9250,12
1607015479.9270,14
1607015479.9276,14
1607015479.9292,12
1607015479.9310,14
1607015479.9330,19
1607015479.9350,24
1607015479.9370,29
1607015479.9390,31
1607015479.9409,31
1607015479.9430,31
1607015479.9450,36
1607015479.9470,46
1607015479.9490,38
1607015479.9511,26
1607015479.9530,29
1607015479.9550,31
1607015479.9570,21
1607015479.9576,21
1607015479.9590,29
1607015479.9611,24
1607015479.9631,21
1607015479.9650,19
1607015480.4021,14
1607015480.4031,140
1607015480.4055,522
1607015480.4072,888
1607015480.4092,769
1607015480.4113,77
1607015480.4132,-583
1607015480.4153,-530
1607015480.4172,-147
1607015480.4179,-70
1607015480.4193,-89
1607015480.4212,-7
1607015480.4232,12
1607015480.4252,-16
1607015480.4272,0
1607015480.4292,16
1607015480.4312,14
1607015480.4332,14
1607015480.4352,19
1607015480.4372,21
1607015480.4392,24
1607015480.4412,29
1607015480.4432,31
1607015480.4452,33
1607015480.4472,33
1607015480.4479,36
1607015480.4492,46
1607015480.4512,53
1607015480.4531,55
1607015480.4551,55
1607015480.4571,62
1607015480.4593,75
1607015480.4612,87
1607015480.4631,101
1607015480.4651,123
1607015480.4672,135
1607015480.4691,145
1607015480.4712,159
1607015480.4731,179
1607015480.4751,196
1607015480.4771,205
1607015480.4777,210
1607015480.4791,203
1607015480.4812,181
1607015480.4831,147
1607015480.4851,101
1607015480.4871,55
1607015480.4891,16
1607015480.4911,-12
1607015480.4932,-31
1607015480.4951,-41
1607015480.4971,-46
1607015480.4991,-48
1607015480.5012,-50
1607015480.5032,-46
1607015480.5051,-41
1607015480.5071,-38
1607015480.5077,-33
1607015480.5091,-26
1607015480.5112,-21
1607015480.5131,-16
1607015480.5151,-14
1607015480.5171,-12
1607015480.5192,-7
1607015480.5212,-2
1607015480.5231,-7
1607015480.5252,-7
1607015480.5271,-7
1607015480.5291,-9
1607015480.5311,-12
1607015480.5331,-12
1607015480.5350,-14
1607015480.5371,-16
1607015480.9421,-16
1607015480.9431,-14
1607015480.9454,-12
1607015480.9472,-16
1607015480.9492,-19
1607015480.9512,-14
1607015480.9532,-14
1607015480.9552,-19
1607015480.9572,-21
1607015480.9595,-19
1607015480.9613,-19
1607015480.9633,-16
1607015480.9652,-12
1607015480.9672,-12
1607015480.9692,-9
1607015480.9712,-7
1607015480.9717,-7
1607015480.9731,-7
1607015480.9751,-2
1607015480.9771,-2
1607015480.9791,-2
1607015480.9812,-2
1607015480.9831,-2
1607015480.9851,0
1607015480.9872,4
1607015480.9891,7
1607015480.9912,9
1607015480.9931,4
1607015480.9951,0
1607015480.9971,-2
1607015480.9991,0
1607015481.0012,2
1607015481.0017,4
1607015481.0031,7
1607015481.0051,7
1607015481.0071,7
1607015481.0092,9
1607015481.0111,9
1607015481.0131,12
1607015481.0151,14
1607015481.0171,12
1607015481.0192,14
1607015481.0211,21
1607015481.0230,21
1607015481.0251,24
1607015481.0271,31
1607015481.0291,36
1607015481.0311,36
1607015481.0316,36
1607015481.0331,31
1607015481.0351,29
1607015481.0370,31
1607015481.0391,19
1607015481.0411,7
1607015481.0431,14
1607015481.0451,21
1607015481.0471,21
1607015481.0491,14
1607015481.0511,-9
1607015481.0531,9
1607015481.0553,242
1607015481.0571,668
1607015481.0591,893
1607015481.0610,537
1607015481.0617,-237
1607015481.0631,-617
1607015481.0651,-295
1607015481.0670,-24
1607015481.0691,-75
1607015481.0711,-50
1607015481.0730,19
1607015481.0751,-4
1607015481.0771,-12
1607015481.6025,16
1607015481.6039,16
1607015481.6062,12
1607015481.6091,21
1607015481.6100,19
1607015481.6120,12
1607015481.6140,14
1607015481.6159,24
1607015481.6179,24
1607015481.6200,24
1607015481.6220,29
1607015481.6240,31
1607015481.6260,36
1607015481.6280,41
1607015481.6300,48
1607015481.6320,53
1607015481.6340,65
1607015481.6360,79
1607015481.6380,92
1607015481.6400,106
1607015481.6406,123
1607015481.6419,135
1607015481.6439,147
1607015481.6459,171
1607015481.6479,188
1607015481.6499,198
1607015481.6519,208
1607015481.6539,210
1607015481.6560,196
1607015481.6579,167
1607015481.6599,128
1607015481.6619,87
1607015481.6639,46
1607015481.6659,9
1607015481.6679,-16
1607015481.6699,-31
1607015481.6705,-41
1607015481.6719,-48
1607015481.6741,-46
1607015481.6760,-43
1607015481.6779,-43
1607015481.6799,-41
1607015481.6819,-33
1607015481.6839,-29
1607015481.6858,-26
1607015481.6879,-19
1607015481.6899,-12
1607015481.6918,-9
1607015481.6939,-9
1607015481.6958,-7
1607015481.6979,-4
1607015481.6985,-4
1607015481.6999,-4
1607015481.7019,-4
1607015481.7039,-7
1607015481.7059,-4
1607015481.7079,-7
1607015481.7099,-12
1607015481.7119,-12
1607015481.7140,-12
1607015481.7159,-14
