Time,ECG
1607179078.0447,6166
1607179078.0473,7070
1607179078.0499,8007
1607179078.0526,8599
1607179078.0547,9104
1607179078.0568,9629
1607179078.0592,10015
1607179078.0612,10310
1607179078.0625,10607
1607179078.0644,10859
1607179078.0664,11053
1607179078.0684,11242
1607179078.0704,11415
1607179078.0724,11549
1607179078.0744,11662
1607179078.0764,11767
1607179078.0784,11856
1607179078.0804,11930
1607179078.0824,11988
1607179078.0844,11990
1607179078.0864,11863
1607179078.0884,11844
1607179078.0905,12412
1607179078.0924,13548
1607179078.0944,14461
1607179078.0964,14003
1607179078.0984,12388
1607179078.1004,11592
1607179078.1023,11992
1607179078.1044,12088
1607179078.1063,11846
1607179078.1083,11928
1607179078.1103,12007
1607179078.1123,11901
1607179078.1143,11872
1607179078.1163,11906
1607179078.1183,11868
1607179078.1203,11822
1607179078.1223,11808
1607179078.1243,11781
1607179078.1263,11738
1607179078.1283,11700
1607179078.1303,11666
1607179078.1323,11638
1607179078.1343,11609
1607179078.1363,11566
1607179078.1383,11527
1607179078.1404,11503
1607179078.1423,11479
1607179078.1442,11443
1607179078.1472,11427
1607179078.1483,11422
1607179078.1502,11405
1607179078.1522,11384
1607179078.1542,11350
1607179078.1562,11293
1607179078.1583,11230
1607179078.1602,11146
1607179078.1622,11026
1607179078.1642,10880
1607179078.1662,10705
1607179078.1682,10521
1607179078.1702,10367
1607179078.1722,10238
1607179078.1742,10106
1607179078.1762,9994
1607179078.1782,9912
1607179078.1802,9835
1607179078.1822,9756
1607179078.1842,9682
1607179078.1862,9612
1607179078.1882,9548
1607179078.1902,9476
1607179078.5529,9404
1607179078.5538,9342
1607179078.5563,9272
1607179078.5589,9188
1607179078.5610,9116
1607179078.5629,9049
1607179078.5650,8977
1607179078.5669,8901
1607179078.5689,8824
1607179078.5710,8747
1607179078.5729,8680
1607179078.5749,8611
1607179078.5769,8524
1607179078.5789,8462
1607179078.5809,8397
1607179078.5829,8285
1607179078.5849,8194
1607179078.5869,8143
1607179078.5889,8064
1607179078.5909,7978
1607179078.5928,7913
1607179078.5948,7851
1607179078.5968,7777
1607179078.5988,7714
1607179078.6009,7662
1607179078.6028,7594
1607179078.6048,7520
1607179078.6068,7441
1607179078.6092,7352
1607179078.6109,7264
1607179078.6129,7189
1607179078.6148,7115
1607179078.6168,7046
1607179078.6188,6979
1607179078.6208,6909
1607179078.6228,6840
1607179078.6249,6775
1607179078.6268,6715
1607179078.6288,6645
1607179078.6309,6576
1607179078.6328,6456
1607179078.6348,6219
1607179078.6368,6133
1607179078.6388,6624
1607179078.6409,7623
1607179078.6428,8402
1607179078.6448,7887
1607179078.6468,6264
1607179078.6489,5440
1607179078.6509,5766
1607179078.6528,5804
1607179078.6548,5533
1607179078.6569,5574
1607179078.6589,5603
1607179078.6609,5473
1607179078.6628,5435
1607179078.6648,5433
1607179078.6668,5363
1607179078.6688,5308
1607179078.6709,5284
1607179078.6728,5239
1607179078.6749,5188
1607179078.6768,5147
1607179078.6788,5107
1607179078.6809,5071
1607179078.6828,5035
1607179078.6848,5001
1607179078.6868,4973
1607179078.6889,4953
1607179078.6909,4929
1607179078.6928,4908
1607179078.6948,4901
1607179078.6968,4898
1607179079.1229,4886
1607179079.1238,4877
1607179079.1263,4862
1607179079.1289,4824
1607179079.1310,4766
1607179079.1329,4702
1607179079.1353,4613
1607179079.1370,4484
1607179079.1389,4316
1607179079.1410,4170
1607179079.1429,4062
1607179079.1449,3961
1607179079.1469,3872
1607179079.1489,3805
1607179079.1509,3755
1607179079.1529,3705
1607179079.1549,3664
1607179079.1569,3628
1607179079.1589,3594
1607179079.1609,3559
1607179079.1629,3520
1607179079.1649,3484
1607179079.1669,3453
1607179079.1689,3417
1607179079.1709,3384
1607179079.1729,3352
1607179079.1749,3316
1607179079.1768,3281
1607179079.1789,3245
1607179079.1809,3211
1607179079.1829,3177
1607179079.1848,3142
1607179079.1869,3106
1607179079.1888,3074
1607179079.1909,3038
1607179079.1928,2995
1607179079.1948,2955
1607179079.1968,2926
1607179079.1988,2899
1607179079.2009,2871
1607179079.2029,2849
1607179079.2048,2830
1607179079.2069,2801
1607179079.2088,2770
1607179079.2109,2736
1607179079.2128,2693
1607179079.2149,2641
1607179079.2168,2602
1607179079.2189,2578
1607179079.2209,2552
1607179079.2228,2521
1607179079.2249,2494
1607179079.2268,2470
1607179079.2288,2446
1607179079.2309,2420
1607179079.2328,2394
1607179079.2349,2372
1607179079.2370,2336
1607179079.2389,2214
1607179079.2409,2017
1607179079.2428,2099
1607179079.2448,2799
1607179079.2468,3887
1607179079.2488,4450
1607179079.2509,3506
1607179079.2528,1924
1607179079.2549,1586
1607179079.2568,2005
1607179079.2588,1902
1607179079.2609,1742
1607179079.2628,1869
1607179079.2648,1874
1607179079.2668,1797
1607179079.6628,1823
1607179079.6640,1838
1607179079.6666,1804
1607179079.6692,1797
1607179079.6711,1802
1607179079.6731,1787
1607179079.6752,1775
1607179079.6771,1778
1607179079.6791,1773
1607179079.6810,1759
1607179079.6830,1754
1607179079.6850,1766
1607179079.6870,1778
1607179079.6890,1785
1607179079.6910,1804
1607179079.6930,1835
1607179079.6950,1862
1607179079.6970,1888
1607179079.6990,1924
1607179079.7010,1950
1607179079.7030,1960
1607179079.7050,1955
1607179079.7070,1934
1607179079.7090,1883
1607179079.7110,1795
1607179079.7130,1675
1607179079.7150,1543
1607179079.7170,1428
1607179079.7189,1337
1607179079.7210,1267
1607179079.7230,1217
1607179079.7250,1183
1607179079.7270,1162
1607179079.7290,1147
1607179079.7310,1138
1607179079.7332,1131
1607179079.7351,1119
1607179079.7370,1114
1607179079.7390,1112
1607179079.7410,1102
1607179079.7430,1100
1607179079.7450,1097
1607179079.7470,1088
1607179079.7490,1078
1607179079.7510,1066
1607179079.7530,1056
1607179079.7550,1047
1607179079.7570,1040
1607179079.7590,1028
1607179079.7610,1011
1607179079.7630,1004
1607179079.7650,1001
1607179079.7670,989
1607179079.7690,973
1607179079.7710,968
1607179079.7730,968
1607179079.7750,958
1607179079.7770,958
1607179079.7790,958
1607179079.7810,949
1607179079.7830,941
1607179079.7850,939
1607179079.7870,917
1607179079.7890,886
1607179079.7910,867
1607179079.7930,865
1607179079.7950,865
1607179079.7970,853
1607179079.7990,846
1607179079.8010,843
1607179079.8030,834
1607179079.8050,819
1607179079.8070,817
1607179080.2628,817
1607179080.2637,814
1607179080.2663,790
1607179080.2688,647
1607179080.2709,462
1607179080.2728,697
1607179080.2749,1634
1607179080.2768,2842
1607179080.2788,3086
1607179080.2808,1581
1607179080.2827,71
1607179080.2847,275
1607179080.2868,745
1607179080.2889,481
1607179080.2908,436
1607179080.2927,630
1607179080.2947,579
1607179080.2967,527
1607179080.2987,596
1607179080.3007,603
1607179080.3027,579
1607179080.3047,603
1607179080.3067,620
1607179080.3087,620
1607179080.3107,630
1607179080.3127,635
1607179080.3148,639
1607179080.3167,656
1607179080.3187,673
1607179080.3207,690
1607179080.3228,716
1607179080.3247,750
1607179080.3267,788
1607179080.3287,834
1607179080.3307,877
1607179080.3327,925
1607179080.3347,975
1607179080.3367,1018
1607179080.3387,1040
1607179080.3407,1042
1607179080.3427,1023
1607179080.3447,970
1607179080.3467,869
1607179080.3487,740
1607179080.3507,608
1607179080.3527,505
1607179080.3547,433
1607179080.3567,378
1607179080.3587,337
1607179080.3607,309
1607179080.3627,299
1607179080.3647,301
1607179080.3667,304
1607179080.3687,306
1607179080.3707,313
1607179080.3727,321
1607179080.3747,325
1607179080.3767,328
1607179080.3787,333
1607179080.3807,337
1607179080.3827,340
1607179080.3847,345
1607179080.3867,352
1607179080.3887,359
1607179080.3908,354
1607179080.3927,349
1607179080.3947,349
1607179080.3967,349
1607179080.3987,352
1607179080.4007,354
1607179080.4027,352
1607179080.4047,345
1607179080.4067,335
1607179080.7726,335
1607179080.7733,337
1607179080.7758,335
1607179080.7783,335
1607179080.7805,352
1607179080.7823,364
1607179080.7844,364
1607179080.7863,364
1607179080.7883,361
1607179080.7903,345
1607179080.7923,318
1607179080.7943,301
1607179080.7963,301
1607179080.7983,306
1607179080.8003,306
1607179080.8023,304
1607179080.8043,306
1607179080.8063,301
1607179080.8083,297
1607179080.8103,297
1607179080.8123,304
1607179080.8142,309
1607179080.8163,294
1607179080.8183,172
1607179080.8203,-26
1607179080.8222,124
1607179080.8243,992
1607179080.8263,2281
1607179080.8283,2863
1607179080.8303,1624
1607179080.8323,-158
1607179080.8343,-309
1607179080.8362,266
1607179080.8383,112
1607179080.8403,-35
1607179080.8423,162
1607179080.8443,174
1607179080.8463,103
1607179080.8483,165
1607179080.8503,198
1607179080.8523,174
1607179080.8542,194
1607179080.8564,222
1607179080.8583,225
1607179080.8603,239
1607179080.8623,266
1607179080.8643,278
1607179080.8662,292
1607179080.8683,316
1607179080.8703,340
1607179080.8723,364
1607179080.8743,395
1607179080.8763,433
1607179080.8783,474
1607179080.8803,520
1607179080.8822,568
1607179080.8842,620
1607179080.8863,666
1607179080.8882,697
1607179080.8903,709
1607179080.8923,702
1607179080.8942,661
1607179080.8962,579
1607179080.8982,464
1607179080.9003,345
1607179080.9022,242
1607179080.9043,167
1607179080.9062,117
1607179080.9083,86
1607179080.9102,64
1607179080.9123,52
1607179080.9142,52
1607179080.9163,57
1607179081.3731,64
1607179081.3740,74
1607179081.3764,81
1607179081.3781,86
1607179081.3800,86
1607179081.3820,86
1607179081.3840,95
1607179081.3860,103
1607179081.3880,103
1607179081.3900,100
1607179081.3920,105
1607179081.3940,112
1607179081.3960,115
1607179081.3980,115
1607179081.4000,119
1607179081.4019,122
1607179081.4039,124
1607179081.4059,127
1607179081.4079,129
1607179081.4099,129
1607179081.4121,129
1607179081.4140,131
1607179081.4159,139
1607179081.4179,141
1607179081.4199,141
1607179081.4219,143
1607179081.4239,143
1607179081.4259,139
1607179081.4279,141
1607179081.4299,148
1607179081.4320,155
1607179081.4339,170
1607179081.4360,184
1607179081.4379,186
1607179081.4399,186
1607179081.4419,189
1607179081.4439,177
1607179081.4459,155
1607179081.4479,148
1607179081.4499,150
1607179081.4520,153
1607179081.4539,158
1607179081.4559,162
1607179081.4579,162
1607179081.4599,160
1607179081.4620,162
1607179081.4640,165
1607179081.4660,167
1607179081.4679,177
1607179081.4700,165
1607179081.4719,43
1607179081.4739,-141
1607179081.4759,43
1607179081.4779,908
1607179081.4799,2121
1607179081.4819,2614
1607179081.4839,1437
1607179081.4859,-191
1607179081.4879,-364
1607179081.4899,110
1607179081.4919,-14
1607179081.4939,-131
1607179081.4959,31
1607179081.4979,38
1607179081.4999,-16
1607179081.5020,40
1607179081.5039,69
1607179081.5059,57
1607179081.5079,76
1607179081.5099,100
1607179081.5120,105
1607179081.5141,119
1607179081.5160,141
1607179081.9428,155
1607179081.9437,165
1607179081.9461,182
1607179081.9488,210
1607179081.9508,239
1607179081.9527,268
1607179081.9547,301
1607179081.9567,342
1607179081.9587,385
1607179081.9607,426
1607179081.9627,469
1607179081.9647,515
1607179081.9667,551
1607179081.9688,568
1607179081.9707,563
1607179081.9727,532
1607179081.9747,464
1607179081.9767,364
1607179081.9787,249
1607179081.9807,153
1607179081.9826,79
1607179081.9846,23
1607179081.9866,-14
1607179081.9886,-28
1607179081.9906,-33
1607179081.9926,-35
1607179081.9947,-33
1607179081.9967,-21
1607179081.9987,-11
1607179082.0008,-7
1607179082.0027,0
1607179082.0046,11
1607179082.0066,16
1607179082.0086,19
1607179082.0107,23
1607179082.0126,28
1607179082.0146,28
1607179082.0166,31
1607179082.0186,35
1607179082.0207,40
1607179082.0226,43
1607179082.0247,43
1607179082.0267,47
1607179082.0287,52
1607179082.0307,55
1607179082.0326,55
1607179082.0346,57
1607179082.0366,62
1607179082.0386,64
1607179082.0408,64
1607179082.0427,67
1607179082.0446,69
1607179082.0466,71
1607179082.0487,74
1607179082.0507,74
1607179082.0526,76
1607179082.0547,79
1607179082.0566,81
1607179082.0586,86
1607179082.0607,88
1607179082.0627,88
1607179082.0646,88
1607179082.0667,91
1607179082.0687,95
1607179082.0707,95
1607179082.0726,95
1607179082.0747,95
1607179082.0766,95
1607179082.0787,93
1607179082.0807,93
1607179082.0826,95
1607179082.0846,103
1607179082.0867,112
1607179082.4826,131
1607179082.4835,143
1607179082.4859,141
1607179082.4886,141
1607179082.4906,146
1607179082.4925,139
1607179082.4945,117
1607179082.4965,103
1607179082.4985,105
1607179082.5005,110
1607179082.5025,107
1607179082.5045,100
1607179082.5065,105
1607179082.5085,105
1607179082.5105,100
1607179082.5124,103
1607179082.5146,112
1607179082.5164,119
1607179082.5184,105
1607179082.5205,-2
1607179082.5224,-170
1607179082.5244,-19
1607179082.5264,771
1607179082.5284,1924
1607179082.5305,2461
1607179082.5324,1442
1607179082.5344,-127
1607179082.5367,-405
1607179082.5385,31
1607179082.5405,-55
1607179082.5424,-184
1607179082.5431,-40
1607179082.5445,-16
1607179082.5464,-64
1607179082.5484,-19
1607179082.5505,11
1607179082.5524,2
1607179082.5544,16
1607179082.5564,38
1607179082.5584,45
1607179082.5605,57
1607179082.5624,76
1607179082.5644,91
1607179082.5664,107
1607179082.5685,127
1607179082.5705,148
1607179082.5724,172
1607179082.5731,201
1607179082.5744,234
1607179082.5764,266
1607179082.5784,304
1607179082.5805,349
1607179082.5824,397
1607179082.5844,438
1607179082.5864,469
1607179082.5884,488
1607179082.5905,496
1607179082.5925,479
1607179082.5944,431
1607179082.5964,354
1607179082.5984,256
1607179082.6005,155
1607179082.6024,81
1607179082.6031,28
1607179082.6044,-14
1607179082.6064,-45
1607179082.6084,-57
1607179082.6105,-57
1607179082.6124,-55
1607179082.6144,-52
1607179082.6164,-43
1607179082.6184,-33
1607179082.6205,-26
1607179083.0229,-21
1607179083.0238,-11
1607179083.0262,-7
1607179083.0279,-4
1607179083.0286,-2
1607179083.0301,0
1607179083.0318,2
1607179083.0338,2
1607179083.0358,0
1607179083.0378,2
1607179083.0398,7
1607179083.0418,9
1607179083.0438,9
1607179083.0458,11
1607179083.0478,14
1607179083.0498,16
1607179083.0518,19
1607179083.0538,21
1607179083.0558,23
1607179083.0578,23
1607179083.0585,28
1607179083.0598,31
1607179083.0618,33
1607179083.0638,31
1607179083.0658,35
1607179083.0678,40
1607179083.0698,45
1607179083.0718,47
1607179083.0738,47
1607179083.0757,50
1607179083.0777,55
1607179083.0798,57
1607179083.0819,62
1607179083.0838,67
1607179083.0858,67
1607179083.0878,69
1607179083.0884,67
1607179083.0898,67
1607179083.0918,69
1607179083.0938,71
1607179083.0958,71
1607179083.0978,76
1607179083.0998,79
1607179083.1018,76
1607179083.1038,76
1607179083.1058,81
1607179083.1077,83
1607179083.1098,81
1607179083.1118,76
1607179083.1138,81
1607179083.1158,88
1607179083.1178,100
1607179083.1184,107
1607179083.1198,107
1607179083.1218,103
1607179083.1237,100
1607179083.1259,93
1607179083.1278,74
1607179083.1298,62
1607179083.1318,64
1607179083.1337,69
1607179083.1358,71
1607179083.1377,71
1607179083.1397,74
1607179083.1418,76
1607179083.1438,76
1607179083.1458,76
1607179083.1478,79
1607179083.1484,83
1607179083.1497,71
1607179083.1518,-31
1607179083.1538,-194
1607179083.1557,-38
1607179083.5926,752
1607179083.5935,1874
1607179083.5959,2367
1607179083.5986,1346
1607179083.6006,-177
1607179083.6025,-428
1607179083.6045,-11
1607179083.6065,-100
1607179083.6085,-213
1607179083.6105,-67
1607179083.6124,-47
1607179083.6132,-98
1607179083.6144,-50
1607179083.6164,-19
1607179083.6184,-23
1607179083.6205,-2
1607179083.6224,19
1607179083.6244,26
1607179083.6264,40
1607179083.6284,64
1607179083.6305,81
1607179083.6324,93
1607179083.6344,112
1607179083.6364,139
1607179083.6384,162
1607179083.6404,191
1607179083.6424,225
1607179083.6431,258
1607179083.6444,294
1607179083.6465,342
1607179083.6484,390
1607179083.6505,433
1607179083.6524,464
1607179083.6544,488
1607179083.6566,505
1607179083.6585,496
1607179083.6605,452
1607179083.6624,381
1607179083.6646,285
1607179083.6664,177
1607179083.6685,83
1607179083.6705,16
1607179083.6711,-28
1607179083.6724,-62
1607179083.6744,-83
1607179083.6764,-93
1607179083.6784,-88
1607179083.6805,-88
1607179083.6824,-88
1607179083.6844,-83
1607179083.6864,-67
1607179083.6884,-52
1607179083.6905,-45
1607179083.6924,-43
1607179083.6944,-38
1607179083.6964,-31
1607179083.6984,-23
1607179083.7004,-19
1607179083.7011,-21
1607179083.7024,-23
1607179083.7044,-14
1607179083.7065,-9
1607179083.7085,-11
1607179083.7105,-7
1607179083.7124,4
1607179083.7144,4
1607179083.7164,-2
1607179083.7184,-7
1607179083.7205,-4
1607179083.7224,0
1607179083.7244,2
1607179083.7264,0
1607179083.7284,-2
1607179084.1329,4
1607179084.1338,11
1607179084.1361,11
1607179084.1388,7
1607179084.1409,4
1607179084.1428,9
1607179084.1449,7
1607179084.1469,2
1607179084.1488,7
1607179084.1507,14
1607179084.1528,14
1607179084.1547,11
1607179084.1569,16
1607179084.1588,23
1607179084.1608,26
1607179084.1627,28
1607179084.1648,31
1607179084.1667,31
1607179084.1688,31
1607179084.1708,33
1607179084.1727,38
1607179084.1747,38
1607179084.1767,35
1607179084.1788,40
1607179084.1808,47
1607179084.1827,50
1607179084.1847,64
1607179084.1867,86
1607179084.1887,98
1607179084.1907,88
1607179084.1927,76
1607179084.1947,86
1607179084.1967,93
1607179084.1987,71
1607179084.2008,52
1607179084.2027,52
1607179084.2047,57
1607179084.2068,57
1607179084.2088,57
1607179084.2108,57
1607179084.2130,57
1607179084.2148,57
1607179084.2168,62
1607179084.2187,69
1607179084.2208,74
1607179084.2227,71
1607179084.2247,28
1607179084.2267,-143
1607179084.2288,-256
1607179084.2308,182
1607179084.2327,1286
1607179084.2347,2389
1607179084.2367,2188
1607179084.2387,440
1607179084.2407,-687
1607179084.2427,-222
1607179084.2447,57
1607179084.2467,-237
1607179084.2487,-162
1607179084.2508,0
1607179084.2527,-76
1607179084.2547,-81
1607179084.2567,-4
1607179084.2590,-14
1607179084.2608,-21
1607179084.2627,14
1607179084.2647,31
1607179084.2667,33
1607179084.2687,52
1607179084.2708,71
1607179084.2727,86
1607179084.2747,110
1607179084.2767,134
1607179084.7328,158
1607179084.7333,186
1607179084.7358,220
1607179084.7384,249
1607179084.7405,289
1607179084.7423,340
1607179084.7444,388
1607179084.7464,433
1607179084.7483,484
1607179084.7504,520
1607179084.7523,536
1607179084.7544,534
1607179084.7564,512
1607179084.7583,452
1607179084.7604,352
1607179084.7624,227
1607179084.7643,115
1607179084.7663,26
1607179084.7684,-40
1607179084.7704,-86
1607179084.7724,-117
1607179084.7744,-136
1607179084.7764,-146
1607179084.7784,-141
1607179084.7804,-134
1607179084.7824,-124
1607179084.7843,-119
1607179084.7864,-107
1607179084.7883,-98
1607179084.7904,-95
1607179084.7924,-93
1607179084.7943,-86
1607179084.7964,-76
1607179084.7984,-67
1607179084.8004,-59
1607179084.8023,-52
1607179084.8044,-43
1607179084.8063,-40
1607179084.8083,-40
1607179084.8104,-33
1607179084.8123,-28
1607179084.8145,-31
1607179084.8164,-35
1607179084.8183,-33
1607179084.8204,-28
1607179084.8223,-31
1607179084.8243,-31
1607179084.8263,-28
1607179084.8284,-23
1607179084.8304,-19
1607179084.8324,-14
1607179084.8344,-11
1607179084.8364,-7
1607179084.8384,-4
1607179084.8404,-2
1607179084.8424,0
1607179084.8443,7
1607179084.8463,9
1607179084.8484,9
1607179084.8504,9
1607179084.8524,14
1607179084.8544,21
1607179084.8564,23
1607179084.8584,23
1607179084.8604,23
1607179084.8623,26
1607179084.8644,28
1607179084.8664,33
1607179084.8683,33
1607179084.8704,35
1607179084.8724,35
1607179084.8744,38
1607179084.8764,43
1607179085.3025,40
1607179085.3034,35
1607179085.3058,38
1607179085.3086,43
1607179085.3105,52
1607179085.3125,71
1607179085.3146,83
1607179085.3165,79
1607179085.3185,69
1607179085.3205,69
1607179085.3224,64
1607179085.3244,50
1607179085.3264,38
1607179085.3284,35
1607179085.3305,43
1607179085.3324,47
1607179085.3344,50
1607179085.3364,52
1607179085.3384,55
1607179085.3407,57
1607179085.3424,62
1607179085.3445,64
1607179085.3464,43
1607179085.3484,-93
1607179085.3504,-266
1607179085.3524,-38
1607179085.3545,881
1607179085.3564,2113
1607179085.3584,2535
1607179085.3604,1243
1607179085.3624,-381
1607179085.3644,-469
1607179085.3664,2
1607179085.3684,-158
1607179085.3704,-256
1607179085.3723,-81
1607179085.3744,-81
1607179085.3764,-134
1607179085.3783,-74
1607179085.3804,-43
1607179085.3823,-59
1607179085.3843,-38
1607179085.3865,-7
1607179085.3884,-4
1607179085.3905,4
1607179085.3923,23
1607179085.3943,38
1607179085.3963,52
1607179085.3984,74
1607179085.4004,98
1607179085.4023,122
1607179085.4043,150
1607179085.4063,184
1607179085.4083,222
1607179085.4104,266
1607179085.4123,311
1607179085.4144,366
1607179085.4163,419
1607179085.4183,462
1607179085.4204,486
1607179085.4224,493
1607179085.4243,484
1607179085.4263,445
1607179085.4283,369
1607179085.4304,261
1607179085.4323,148
1607179085.4344,57
1607179085.4363,-14
1607179085.4383,-69
1607179085.4404,-105
1607179085.4425,-124
1607179085.4445,-131
1607179085.4464,-127
1607179085.8730,-122
1607179085.8738,-117
1607179085.8763,-107
1607179085.8789,-95
1607179085.8809,-86
1607179085.8828,-79
1607179085.8849,-74
1607179085.8869,-69
1607179085.8888,-59
1607179085.8909,-59
1607179085.8928,-64
1607179085.8948,-62
1607179085.8968,-55
1607179085.8988,-50
1607179085.9008,-47
1607179085.9028,-45
1607179085.9048,-40
1607179085.9068,-35
1607179085.9088,-35
1607179085.9108,-31
1607179085.9128,-26
1607179085.9148,-26
1607179085.9168,-31
1607179085.9188,-28
1607179085.9208,-23
1607179085.9228,-21
1607179085.9248,-16
1607179085.9268,-11
1607179085.9288,-9
1607179085.9308,-7
1607179085.9328,-4
1607179085.9348,0
1607179085.9368,2
1607179085.9388,7
1607179085.9408,9
1607179085.9428,11
1607179085.9448,16
1607179085.9468,16
1607179085.9488,19
1607179085.9508,21
1607179085.9528,23
1607179085.9548,26
1607179085.9568,31
1607179085.9588,31
1607179085.9608,31
1607179085.9628,33
1607179085.9648,38
1607179085.9668,40
1607179085.9690,38
1607179085.9708,38
1607179085.9728,40
1607179085.9748,40
1607179085.9768,38
1607179085.9788,43
1607179085.9808,47
1607179085.9828,57
1607179085.9848,74
1607179085.9868,79
1607179085.9888,76
1607179085.9908,81
1607179085.9928,79
1607179085.9948,57
1607179085.9968,43
1607179085.9988,43
1607179086.0012,47
1607179086.0028,52
1607179086.0048,55
1607179086.0068,52
1607179086.0088,55
1607179086.0108,57
1607179086.0128,59
1607179086.0148,67
1607179086.0168,69
1607179086.4130,4
1607179086.4140,-170
1607179086.4154,-208
1607179086.4172,330
1607179086.4192,1449
1607179086.4212,2425
1607179086.4231,2049
1607179086.4252,373
1607179086.4271,-575
1607179086.4290,-191
1607179086.4312,-26
1607179086.4330,-266
1607179086.4350,-189
1607179086.4370,-71
1607179086.4390,-139
1607179086.4410,-134
1607179086.4430,-71
1607179086.4450,-74
1607179086.4470,-79
1607179086.4490,-47
1607179086.4510,-31
1607179086.4530,-23
1607179086.4550,-7
1607179086.4570,11
1607179086.4590,28
1607179086.4610,50
1607179086.4632,74
1607179086.4651,100
1607179086.4670,127
1607179086.4690,158
1607179086.4710,191
1607179086.4730,227
1607179086.4750,273
1607179086.4770,321
1607179086.4790,369
1607179086.4810,414
1607179086.4830,448
1607179086.4850,464
1607179086.4870,464
1607179086.4890,445
1607179086.4910,395
1607179086.4930,309
1607179086.4950,203
1607179086.4970,103
1607179086.4990,23
1607179086.5010,-35
1607179086.5030,-83
1607179086.5050,-112
1607179086.5070,-127
1607179086.5090,-129
1607179086.5110,-127
1607179086.5130,-119
1607179086.5150,-107
1607179086.5170,-100
1607179086.5190,-93
1607179086.5210,-83
1607179086.5230,-76
1607179086.5250,-71
1607179086.5270,-64
1607179086.5290,-59
1607179086.5310,-57
1607179086.5330,-52
1607179086.5350,-47
1607179086.5371,-45
1607179086.5390,-38
1607179086.5410,-35
1607179086.5430,-33
1607179086.5450,-28
1607179086.5470,-26
1607179086.5490,-26
1607179086.5510,-26
1607179086.5530,-19
1607179086.5550,-19
1607179087.0129,-21
1607179087.0138,-19
1607179087.0162,-16
1607179087.0188,-14
1607179087.0211,-14
1607179087.0229,-14
1607179087.0250,-11
1607179087.0269,-9
1607179087.0289,-14
1607179087.0308,-16
1607179087.0328,-9
1607179087.0348,-7
1607179087.0368,-7
1607179087.0388,-2
1607179087.0408,2
1607179087.0428,4
1607179087.0448,4
1607179087.0468,9
1607179087.0488,11
1607179087.0508,16
1607179087.0527,16
1607179087.0547,19
1607179087.0567,21
1607179087.0587,21
1607179087.0608,21
1607179087.0627,26
1607179087.0647,28
1607179087.0667,31
1607179087.0687,31
1607179087.0708,28
1607179087.0727,28
1607179087.0747,33
1607179087.0767,40
1607179087.0787,59
1607179087.0808,76
1607179087.0827,71
1607179087.0847,64
1607179087.0867,69
1607179087.0887,62
1607179087.0908,38
1607179087.0927,28
1607179087.0947,31
1607179087.0967,33
1607179087.0987,33
1607179087.1008,33
1607179087.1027,35
1607179087.1047,40
1607179087.1067,40
1607179087.1088,43
1607179087.1107,50
1607179087.1127,45
1607179087.1147,-33
1607179087.1167,-206
1607179087.1187,-162
1607179087.1208,491
1607179087.1229,1624
1607179087.1248,2401
1607179087.1267,1711
1607179087.1287,55
1607179087.1307,-553
1607179087.1328,-107
1607179087.1348,-69
1607179087.1367,-263
1607179087.1387,-143
1607179087.1408,-74
1607179087.1427,-143
1607179087.1448,-119
1607179087.1467,-71
1607179087.1487,-79
1607179087.1508,-71
1607179087.1527,-47
1607179087.1548,-40
1607179087.1568,-28
1607179087.5226,-4
1607179087.5232,9
1607179087.5257,21
1607179087.5283,38
1607179087.5303,67
1607179087.5322,88
1607179087.5343,115
1607179087.5363,150
1607179087.5382,184
1607179087.5403,215
1607179087.5422,261
1607179087.5442,313
1607179087.5462,361
1607179087.5482,400
1607179087.5502,428
1607179087.5522,448
1607179087.5542,448
1607179087.5562,417
1607179087.5582,359
1607179087.5603,278
1607179087.5622,170
1607179087.5642,62
1607179087.5662,-16
1607179087.5682,-69
1607179087.5703,-115
1607179087.5722,-143
1607179087.5742,-158
1607179087.5762,-165
1607179087.5782,-162
1607179087.5803,-150
1607179087.5822,-136
1607179087.5842,-129
1607179087.5862,-122
1607179087.5884,-112
1607179087.5904,-105
1607179087.5922,-103
1607179087.5942,-93
1607179087.5962,-83
1607179087.5982,-79
1607179087.6003,-74
1607179087.6023,-67
1607179087.6042,-69
1607179087.6062,-64
1607179087.6082,-55
1607179087.6103,-52
1607179087.6122,-55
1607179087.6142,-52
1607179087.6162,-45
1607179087.6182,-35
1607179087.6203,-31
1607179087.6222,-38
1607179087.6242,-45
1607179087.6262,-40
1607179087.6282,-28
1607179087.6303,-21
1607179087.6322,-23
1607179087.6342,-21
1607179087.6362,-14
1607179087.6382,-14
1607179087.6403,-21
1607179087.6422,-21
1607179087.6443,-14
1607179087.6462,-9
1607179087.6482,-11
1607179087.6503,-9
1607179087.6522,-2
1607179087.6542,2
1607179087.6562,-2
1607179087.6582,2
1607179087.6603,11
1607179087.6622,11
1607179087.6642,7
1607179087.6662,7
1607179088.1228,14
1607179088.1237,21
1607179088.1262,31
1607179088.1288,43
1607179088.1308,64
1607179088.1327,74
1607179088.1348,52
1607179088.1368,40
1607179088.1387,47
1607179088.1408,40
1607179088.1427,19
1607179088.1449,14
1607179088.1468,21
1607179088.1487,21
1607179088.1508,16
1607179088.1527,19
1607179088.1548,28
1607179088.1567,33
1607179088.1587,33
1607179088.1607,33
1607179088.1627,38
1607179088.1647,40
1607179088.1667,0
1607179088.1687,-167
1607179088.1707,-294
1607179088.1727,103
1607179088.1747,1191
1607179088.1767,2365
1607179088.1787,2288
1607179088.1807,548
1607179088.1827,-726
1607179088.1847,-316
1607179088.1867,33
1607179088.1887,-254
1607179088.1907,-210
1607179088.1927,-38
1607179088.1947,-110
1607179088.1967,-124
1607179088.1987,-47
1607179088.2007,-47
1607179088.2027,-55
1607179088.2047,-21
1607179088.2067,-9
1607179088.2087,0
1607179088.2107,21
1607179088.2127,23
1607179088.2147,33
1607179088.2167,71
1607179088.2187,100
1607179088.2207,115
1607179088.2227,136
1607179088.2247,172
1607179088.2267,213
1607179088.2287,254
1607179088.2307,301
1607179088.2327,359
1607179088.2347,421
1607179088.2367,474
1607179088.2387,524
1607179088.2407,558
1607179088.2427,565
1607179088.2447,534
1607179088.2468,469
1607179088.2487,381
1607179088.2507,258
1607179088.2527,115
1607179088.2547,7
1607179088.2567,-57
1607179088.2587,-119
1607179088.2607,-160
1607179088.2627,-160
1607179088.2647,-162
1607179088.2667,-186
1607179088.6924,-191
1607179088.6932,-162
1607179088.6957,-148
1607179088.6983,-165
1607179088.7003,-150
1607179088.7023,-105
1607179088.7042,-100
1607179088.7062,-117
1607179088.7082,-112
1607179088.7103,-98
1607179088.7122,-88
1607179088.7142,-91
1607179088.7162,-91
1607179088.7182,-76
1607179088.7203,-64
1607179088.7222,-62
1607179088.7242,-69
1607179088.7262,-81
1607179088.7282,-74
1607179088.7303,-52
1607179088.7322,-47
1607179088.7342,-64
1607179088.7362,-62
1607179088.7382,-43
1607179088.7402,-47
1607179088.7422,-57
1607179088.7442,-47
1607179088.7462,-43
1607179088.7482,-40
1607179088.7502,-26
1607179088.7523,-19
1607179088.7542,-28
1607179088.7562,-33
1607179088.7582,-21
1607179088.7603,-14
1607179088.7622,-14
1607179088.7642,-9
1607179088.7662,-2
1607179088.7682,-2
1607179088.7702,-2
1607179088.7723,-2
1607179088.7743,2
1607179088.7762,11
1607179088.7782,4
1607179088.7802,-11
1607179088.7822,-4
1607179088.7842,14
1607179088.7862,21
1607179088.7883,31
1607179088.7903,43
1607179088.7922,38
1607179088.7942,33
1607179088.7962,38
1607179088.7982,35
1607179088.8064,19
1607179088.8082,7
1607179088.8103,4
1607179088.8122,14
1607179088.8142,19
1607179088.8162,21
1607179088.8182,26
1607179088.8202,28
1607179088.8222,23
1607179088.8242,28
1607179088.8262,35
1607179088.8282,-16
1607179088.8303,-206
1607179088.8322,-285
1607179088.8342,244
1607179088.8349,1445
1607179088.8361,2557
1607179088.8382,2159
1607179088.8402,220
1607179089.2026,-817
1607179089.2033,-227
1607179089.2057,7
1607179089.2083,-311
1607179089.2103,-203
1607179089.2123,-47
1607179089.2144,-136
1607179089.2163,-129
1607179089.2183,-52
1607179089.2203,-69
1607179089.2222,-76
1607179089.2230,-35
1607179089.2253,-28
1607179089.2272,-33
1607179089.2292,-9
1607179089.2313,16
1607179089.2332,23
1607179089.2352,43
1607179089.2374,71
1607179089.2393,95
1607179089.2412,122
1607179089.2432,155
1607179089.2453,194
1607179089.2472,234
1607179089.2492,285
1607179089.2512,340
1607179089.2532,397
1607179089.2540,457
1607179089.2562,498
1607179089.2583,520
1607179089.2603,522
1607179089.2624,498
1607179089.2642,438
1607179089.2662,333
1607179089.2682,201
1607179089.2703,83
1607179089.2722,-11
1607179089.2743,-86
1607179089.2762,-139
1607179089.2782,-165
1607179089.2803,-177
1607179089.2822,-182
1607179089.2842,-182
1607179089.2850,-174
1607179089.2872,-162
1607179089.2892,-153
1607179089.2912,-146
1607179089.2932,-136
1607179089.2952,-124
1607179089.2972,-112
1607179089.2992,-100
1607179089.3013,-93
1607179089.3032,-88
1607179089.3052,-79
1607179089.3073,-74
1607179089.3092,-69
1607179089.3113,-59
1607179089.3132,-52
1607179089.3153,-47
1607179089.3160,-45
1607179089.3182,-45
1607179089.3203,-43
1607179089.3223,-40
1607179089.3243,-40
1607179089.3262,-40
1607179089.3282,-35
1607179089.3303,-38
1607179089.3322,-38
1607179089.3342,-33
1607179089.3364,-28
1607179089.3383,-23
1607179089.3403,-23
1607179089.3422,-21
1607179089.8028,-16
1607179089.8036,-14
1607179089.8061,-11
1607179089.8088,-9
1607179089.8107,-4
1607179089.8127,-4
1607179089.8147,-11
1607179089.8167,-19
1607179089.8186,-16
1607179089.8207,-9
1607179089.8226,-4
1607179089.8246,11
1607179089.8266,35
1607179089.8286,43
1607179089.8306,35
1607179089.8326,40
1607179089.8334,45
1607179089.8356,28
1607179089.8376,9
1607179089.8396,7
1607179089.8416,11
1607179089.8436,14
1607179089.8456,16
1607179089.8476,19
1607179089.8497,21
1607179089.8517,19
1607179089.8536,21
1607179089.8556,28
1607179089.8577,28
1607179089.8596,-57
1607179089.8616,-258
1607179089.8637,-230
1607179089.8644,474
1607179089.8666,1739
1607179089.8686,2667
1607179089.8708,1948
1607179089.8726,33
1607179089.8746,-709
1607179089.8766,-150
1607179089.8786,-67
1607179089.8806,-316
1607179089.8826,-182
1607179089.8846,-83
1607179089.8866,-162
1607179089.8886,-134
1607179089.8906,-71
1607179089.8926,-81
1607179089.8935,-74
1607179089.8957,-43
1607179089.8976,-35
1607179089.8996,-23
1607179089.9017,0
1607179089.9036,14
1607179089.9056,28
1607179089.9076,50
1607179089.9096,74
1607179089.9116,98
1607179089.9136,127
1607179089.9156,158
1607179089.9176,194
1607179089.9196,232
1607179089.9216,280
1607179089.9236,337
1607179089.9243,395
1607179089.9266,440
1607179089.9286,476
1607179089.9306,498
1607179089.9326,493
1607179089.9346,462
1607179089.9366,395
1607179089.9386,287
1607179089.9406,167
1607179089.9426,59
1607179090.3128,-21
1607179090.3138,-81
1607179090.3162,-127
1607179090.3189,-150
1607179090.3208,-160
1607179090.3228,-158
1607179090.3235,-153
1607179090.3259,-146
1607179090.3278,-134
1607179090.3297,-122
1607179090.3318,-112
1607179090.3337,-112
1607179090.3357,-110
1607179090.3377,-105
1607179090.3397,-103
1607179090.3417,-95
1607179090.3437,-88
1607179090.3457,-88
1607179090.3477,-88
1607179090.3498,-83
1607179090.3517,-76
1607179090.3537,-71
1607179090.3544,-67
1607179090.3557,-67
1607179090.3577,-67
1607179090.3599,-62
1607179090.3618,-55
1607179090.3637,-52
1607179090.3657,-52
1607179090.3677,-50
1607179090.3697,-43
1607179090.3717,-35
1607179090.3738,-35
1607179090.3757,-35
1607179090.3778,-31
1607179090.3798,-26
1607179090.3817,-23
1607179090.3837,-19
1607179090.3857,-19
1607179090.3877,-14
1607179090.3897,-9
1607179090.3917,-9
1607179090.3937,-11
1607179090.3957,-11
1607179090.3977,-4
1607179090.3997,2
1607179090.4017,9
1607179090.4037,28
1607179090.4057,45
1607179090.4077,40
1607179090.4097,35
1607179090.4117,40
1607179090.4137,31
1607179090.4157,9
1607179090.4177,2
1607179090.4197,4
1607179090.4217,9
1607179090.4237,11
1607179090.4257,14
1607179090.4277,16
1607179090.4297,21
1607179090.4317,23
1607179090.4337,28
1607179090.4357,35
1607179090.4377,-9
1607179090.4397,-191
1607179090.4417,-287
1607179090.4437,184
1607179090.4457,1306
1607179090.4477,2425
1607179090.4497,2240
1607179090.4517,510
1607179090.4537,-659
1607179090.8826,-278
1607179090.8832,-4
1607179090.8857,-270
1607179090.8885,-222
1607179090.8903,-83
1607179090.8923,-155
1607179090.8944,-160
1607179090.8963,-88
1607179090.8983,-91
1607179090.9004,-95
1607179090.9023,-59
1607179090.9043,-45
1607179090.9063,-40
1607179090.9083,-16
1607179090.9103,0
1607179090.9123,9
1607179090.9143,23
1607179090.9163,50
1607179090.9183,79
1607179090.9203,107
1607179090.9223,139
1607179090.9243,174
1607179090.9263,215
1607179090.9283,263
1607179090.9303,313
1607179090.9322,371
1607179090.9342,428
1607179090.9362,469
1607179090.9382,488
1607179090.9403,491
1607179090.9423,467
1607179090.9442,405
1607179090.9462,304
1607179090.9482,186
1607179090.9503,79
1607179090.9523,-4
1607179090.9543,-69
1607179090.9562,-112
1607179090.9582,-136
1607179090.9603,-150
1607179090.9622,-158
1607179090.9642,-155
1607179090.9663,-146
1607179090.9682,-139
1607179090.9703,-129
1607179090.9722,-122
1607179090.9743,-112
1607179090.9762,-107
1607179090.9783,-103
1607179090.9803,-100
1607179090.9822,-95
1607179090.9842,-93
1607179090.9862,-91
1607179090.9882,-86
1607179090.9904,-81
1607179090.9923,-76
1607179090.9942,-71
1607179090.9962,-69
1607179090.9982,-69
1607179091.0003,-64
1607179091.0023,-59
1607179091.0042,-55
1607179091.0062,-55
1607179091.0082,-55
1607179091.0103,-52
1607179091.0122,-47
1607179091.0144,-47
1607179091.0162,-45
1607179091.0182,-40
1607179091.0203,-38
1607179091.0222,-38
1607179091.0243,-35
1607179091.0263,-35
1607179091.4827,-33
1607179091.4836,-28
1607179091.4861,-21
1607179091.4887,-4
1607179091.4907,19
1607179091.4927,19
1607179091.4948,7
1607179091.4967,7
1607179091.4987,0
1607179091.5007,-26
1607179091.5026,-35
1607179091.5046,-26
1607179091.5066,-19
1607179091.5086,-16
1607179091.5106,-16
1607179091.5126,-14
1607179091.5146,-9
1607179091.5166,-4
1607179091.5186,-2
1607179091.5207,7
1607179091.5226,-16
1607179091.5246,-160
1607179091.5266,-306
1607179091.5286,-2
1607179091.5307,973
1607179091.5326,2149
1607179091.5346,2348
1607179091.5366,896
1607179091.5386,-534
1607179091.5406,-407
1607179091.5426,-11
1607179091.5446,-222
1607179091.5468,-261
1607179091.5486,-98
1607179091.5506,-129
1607179091.5526,-162
1607179091.5546,-93
1607179091.5566,-79
1607179091.5586,-88
1607179091.5606,-62
1607179091.5625,-40
1607179091.5646,-33
1607179091.5666,-16
1607179091.5686,2
1607179091.5706,14
1607179091.5726,31
1607179091.5746,57
1607179091.5766,86
1607179091.5786,110
1607179091.5806,136
1607179091.5826,172
1607179091.5846,215
1607179091.5866,256
1607179091.5886,306
1607179091.5906,359
1607179091.5926,407
1607179091.5946,440
1607179091.5966,457
1607179091.5986,457
1607179091.6007,428
1607179091.6026,366
1607179091.6046,273
1607179091.6066,160
1607179091.6086,57
1607179091.6106,-21
1607179091.6125,-76
1607179091.6146,-117
1607179091.6166,-139
1607179091.6186,-148
1607179091.6206,-150
1607179091.6226,-143
1607179091.6246,-134
1607179091.6266,-127
1607179092.0228,-122
1607179092.0236,-117
1607179092.0261,-107
1607179092.0287,-100
1607179092.0308,-91
1607179092.0327,-83
1607179092.0347,-76
1607179092.0367,-74
1607179092.0387,-71
1607179092.0407,-67
1607179092.0429,-64
1607179092.0447,-69
1607179092.0467,-67
1607179092.0487,-59
1607179092.0507,-59
1607179092.0527,-59
1607179092.0546,-52
1607179092.0567,-52
1607179092.0587,-52
1607179092.0607,-52
1607179092.0628,-52
1607179092.0647,-55
1607179092.0666,-55
1607179092.0686,-50
1607179092.0707,-45
1607179092.0726,-45
1607179092.0746,-50
1607179092.0766,-45
1607179092.0786,-35
1607179092.0807,-28
1607179092.0826,-7
1607179092.0846,16
1607179092.0866,16
1607179092.0886,7
1607179092.0907,9
1607179092.0926,4
1607179092.0946,-11
1607179092.0966,-23
1607179092.0986,-21
1607179092.1007,-14
1607179092.1026,-9
1607179092.1046,-9
1607179092.1066,-7
1607179092.1086,-7
1607179092.1107,-4
1607179092.1126,2
1607179092.1146,11
1607179092.1166,7
1607179092.1186,-76
1607179092.1207,-249
1607179092.1226,-177
1607179092.1246,512
1607179092.1266,1629
1607179092.1286,2286
1607179092.1307,1471
1607179092.1326,-95
1607179092.1346,-524
1607179092.1366,-88
1607179092.1386,-107
1607179092.1407,-266
1607179092.1426,-131
1607179092.1448,-88
1607179092.1467,-148
1607179092.1486,-107
1607179092.1507,-64
1607179092.1526,-74
1607179092.1546,-69
1607179092.1566,-45
1607179092.1586,-33
1607179092.1607,-23
1607179092.1626,-4
1607179092.1646,11
1607179092.1666,28
1607179092.5922,50
1607179092.5931,71
1607179092.5955,98
1607179092.5982,127
1607179092.6003,160
1607179092.6021,196
1607179092.6042,237
1607179092.6061,280
1607179092.6081,318
1607179092.6102,361
1607179092.6121,402
1607179092.6141,426
1607179092.6161,426
1607179092.6181,405
1607179092.6202,357
1607179092.6221,278
1607179092.6241,170
1607179092.6261,71
1607179092.6281,-7
1607179092.6302,-71
1607179092.6321,-117
1607179092.6341,-141
1607179092.6361,-148
1607179092.6381,-150
1607179092.6402,-153
1607179092.6421,-148
1607179092.6441,-136
1607179092.6461,-127
1607179092.6481,-122
1607179092.6501,-112
1607179092.6521,-100
1607179092.6541,-93
1607179092.6561,-88
1607179092.6581,-83
1607179092.6602,-79
1607179092.6621,-76
1607179092.6641,-74
1607179092.6661,-71
1607179092.6681,-69
1607179092.6703,-62
1607179092.6721,-55
1607179092.6741,-55
1607179092.6761,-55
1607179092.6781,-55
1607179092.6801,-52
1607179092.6821,-52
1607179092.6841,-52
1607179092.6861,-50
1607179092.6881,-47
1607179092.6901,-47
1607179092.6921,-47
1607179092.6941,-45
1607179092.6961,-38
1607179092.6981,-31
1607179092.7002,-33
1607179092.7021,-38
1607179092.7041,-35
1607179092.7061,-28
1607179092.7081,-31
1607179092.7101,-38
1607179092.7121,-33
1607179092.7141,-28
1607179092.7161,-16
1607179092.7181,2
1607179092.7201,9
1607179092.7221,-2
1607179092.7241,-4
1607179092.7261,2
1607179092.7281,-14
1607179092.7301,-31
1607179092.7321,-28
1607179092.7341,-21
1607179092.7361,-23
1607179093.1322,-26
1607179093.1329,-26
1607179093.1353,-23
1607179093.1380,-26
1607179093.1401,-21
1607179093.1420,-14
1607179093.1441,-9
1607179093.1460,-14
1607179093.1480,-112
1607179093.1500,-299
1607179093.1520,-191
1607179093.1540,587
1607179093.1560,1768
1607179093.1579,2331
1607179093.1600,1263
1607179093.1619,-369
1607179093.1639,-582
1607179093.1661,-69
1607179093.1680,-177
1607179093.1700,-304
1607179093.1719,-122
1607179093.1739,-110
1607179093.1759,-179
1607179093.1779,-119
1607179093.1799,-83
1607179093.1820,-100
1607179093.1839,-76
1607179093.1859,-43
1607179093.1879,-35
1607179093.1899,-23
1607179093.1919,-4
1607179093.1939,9
1607179093.1959,28
1607179093.1979,50
1607179093.1999,76
1607179093.2019,105
1607179093.2039,136
1607179093.2059,172
1607179093.2079,208
1607179093.2099,258
1607179093.2119,318
1607179093.2139,371
1607179093.2159,426
1607179093.2179,469
1607179093.2199,496
1607179093.2219,505
1607179093.2239,493
1607179093.2259,440
1607179093.2279,340
1607179093.2299,215
1607179093.2319,100
1607179093.2339,4
1607179093.2359,-76
1607179093.2379,-131
1607179093.2399,-160
1607179093.2419,-184
1607179093.2439,-191
1607179093.2459,-184
1607179093.2479,-182
1607179093.2499,-182
1607179093.2519,-172
1607179093.2539,-153
1607179093.2559,-139
1607179093.2579,-139
1607179093.2599,-129
1607179093.2619,-119
1607179093.2640,-115
1607179093.2659,-115
1607179093.2681,-110
1607179093.2700,-95
1607179093.2719,-88
1607179093.2739,-91
1607179093.2759,-88
1607179093.7025,-76
1607179093.7031,-69
1607179093.7056,-71
1607179093.7081,-74
1607179093.7103,-64
1607179093.7121,-67
1607179093.7144,-81
1607179093.7161,-83
1607179093.7181,-74
1607179093.7202,-67
1607179093.7221,-67
1607179093.7241,-64
1607179093.7261,-55
1607179093.7281,-50
1607179093.7302,-55
1607179093.7321,-55
1607179093.7341,-47
1607179093.7361,-47
1607179093.7381,-45
1607179093.7402,-35
1607179093.7421,-38
1607179093.7441,-45
1607179093.7461,-38
1607179093.7481,-23
1607179093.7502,-11
1607179093.7521,4
1607179093.7541,9
1607179093.7561,0
1607179093.7581,-7
1607179093.7602,-11
1607179093.7621,-28
1607179093.7641,-40
1607179093.7661,-33
1607179093.7681,-28
1607179093.7701,-33
1607179093.7721,-31
1607179093.7741,-23
1607179093.7761,-23
1607179093.7781,-23
1607179093.7802,-21
1607179093.7821,-16
1607179093.7841,-4
1607179093.7861,-4
1607179093.7881,-88
1607179093.7901,-299
1607179093.7921,-294
1607179093.7943,412
1607179093.7961,1699
1607179093.7981,2564
1607179093.8002,1684
1607179093.8021,-256
1607179093.8042,-786
1607179093.8061,-105
1607179093.8081,-105
1607179093.8102,-364
1607179093.8121,-170
1607179093.8141,-91
1607179093.8161,-191
1607179093.8181,-146
1607179093.8201,-79
1607179093.8222,-98
1607179093.8241,-88
1607179093.8261,-50
1607179093.8281,-43
1607179093.8302,-35
1607179093.8321,-14
1607179093.8341,2
1607179093.8361,21
1607179093.8381,45
1607179093.8401,69
1607179093.8421,98
1607179093.8441,134
1607179093.8461,172
1607179094.2428,210
1607179094.2435,256
1607179094.2454,311
1607179094.2474,369
1607179094.2493,424
1607179094.2514,474
1607179094.2534,510
1607179094.2554,517
1607179094.2575,500
1607179094.2595,455
1607179094.2614,369
1607179094.2633,239
1607179094.2653,110
1607179094.2674,7
1607179094.2693,-71
1607179094.2713,-131
1607179094.2733,-165
1607179094.2753,-186
1607179094.2773,-201
1607179094.2793,-203
1607179094.2814,-196
1607179094.2833,-186
1607179094.2853,-179
1607179094.2873,-167
1607179094.2895,-158
1607179094.2914,-153
1607179094.2933,-141
1607179094.2953,-127
1607179094.2973,-119
1607179094.2993,-110
1607179094.3014,-103
1607179094.3033,-100
1607179094.3053,-91
1607179094.3073,-79
1607179094.3093,-76
1607179094.3114,-76
1607179094.3133,-69
1607179094.3153,-67
1607179094.3173,-74
1607179094.3193,-74
1607179094.3214,-69
1607179094.3233,-67
1607179094.3253,-64
1607179094.3273,-62
1607179094.3293,-62
1607179094.3314,-57
1607179094.3333,-55
1607179094.3353,-55
1607179094.3373,-52
1607179094.3393,-50
1607179094.3413,-52
1607179094.3433,-47
1607179094.3453,-43
1607179094.3473,-38
1607179094.3493,-33
1607179094.3513,-31
1607179094.3533,-31
1607179094.3553,-28
1607179094.3574,-26
1607179094.3593,-21
1607179094.3614,-21
1607179094.3633,-21
1607179094.3653,-26
1607179094.3673,-31
1607179094.3693,-31
1607179094.3714,-19
1607179094.3733,2
1607179094.3753,23
1607179094.3773,28
1607179094.3793,21
1607179094.3814,21
1607179094.3833,23
1607179094.3853,9
1607179094.8426,-7
1607179094.8435,-9
1607179094.8462,-4
1607179094.8486,-2
1607179094.8506,-4
1607179094.8525,-9
1607179094.8546,-7
1607179094.8565,-2
1607179094.8585,0
1607179094.8606,2
1607179094.8625,9
1607179094.8645,-4
1607179094.8666,-131
1607179094.8685,-323
1607179094.8706,-136
1607179094.8725,776
1607179094.8745,2085
1607179094.8765,2648
1607179094.8785,1390
1607179094.8805,-414
1607179094.8825,-608
1607179094.8845,-45
1607179094.8865,-184
1607179094.8885,-333
1607179094.8905,-141
1607179094.8925,-117
1607179094.8945,-186
1607179094.8965,-129
1607179094.8985,-91
1607179094.9005,-103
1607179094.9025,-86
1607179094.9045,-64
1607179094.9064,-62
1607179094.9084,-45
1607179094.9105,-21
1607179094.9124,-4
1607179094.9144,14
1607179094.9164,35
1607179094.9184,59
1607179094.9205,86
1607179094.9224,117
1607179094.9244,148
1607179094.9264,184
1607179094.9284,227
1607179094.9305,278
1607179094.9324,330
1607179094.9344,388
1607179094.9364,436
1607179094.9384,467
1607179094.9405,481
1607179094.9424,474
1607179094.9444,433
1607179094.9464,352
1607179094.9486,246
1607179094.9505,136
1607179094.9525,38
1607179094.9544,-38
1607179094.9564,-91
1607179094.9584,-124
1607179094.9604,-146
1607179094.9625,-155
1607179094.9644,-153
1607179094.9665,-148
1607179094.9684,-141
1607179094.9706,-129
1607179094.9724,-119
1607179094.9745,-112
1607179094.9765,-103
1607179094.9784,-98
1607179094.9805,-95
1607179094.9824,-88
1607179094.9844,-86
1607179094.9864,-83
1607179095.3827,-81
1607179095.3834,-79
1607179095.3857,-76
1607179095.3874,-69
1607179095.3895,-62
1607179095.3902,-59
1607179095.3914,-62
1607179095.3934,-59
1607179095.3954,-57
1607179095.3974,-57
1607179095.3994,-67
1607179095.4015,-69
1607179095.4034,-59
1607179095.4054,-57
1607179095.4074,-57
1607179095.4094,-52
1607179095.4114,-47
1607179095.4134,-47
1607179095.4154,-45
1607179095.4174,-45
1607179095.4194,-43
1607179095.4201,-38
1607179095.4214,-40
1607179095.4234,-40
1607179095.4254,-38
1607179095.4274,-38
1607179095.4294,-35
1607179095.4314,-31
1607179095.4334,-28
1607179095.4354,-26
1607179095.4374,-21
1607179095.4395,-21
1607179095.4414,-23
1607179095.4434,-23
1607179095.4454,-16
1607179095.4474,-14
1607179095.4494,-11
1607179095.4500,-9
1607179095.4514,-9
1607179095.4533,-9
1607179095.4554,-11
1607179095.4574,-9
1607179095.4594,-2
1607179095.4614,4
1607179095.4634,21
1607179095.4654,38
1607179095.4674,35
1607179095.4694,33
1607179095.4714,40
1607179095.4734,33
1607179095.4754,11
1607179095.4774,2
1607179095.4794,4
1607179095.4800,7
1607179095.4814,11
1607179095.4834,16
1607179095.4854,16
1607179095.4874,16
1607179095.4894,19
1607179095.4914,21
1607179095.4934,26
1607179095.4953,28
1607179095.4974,2
1607179095.4994,-143
1607179095.5014,-299
1607179095.5034,-7
1607179095.5054,982
1607179095.5074,2200
1607179095.5094,2463
1607179095.5100,1049
1607179095.5114,-481
1607179095.5133,-457
1607179095.5154,-31
1607179095.9524,-220
1607179095.9530,-285
1607179095.9554,-115
1607179095.9581,-134
1607179095.9602,-174
1607179095.9621,-107
1607179095.9643,-91
1607179095.9661,-112
1607179095.9681,-91
1607179095.9689,-62
1607179095.9702,-57
1607179095.9721,-45
1607179095.9741,-23
1607179095.9761,-7
1607179095.9780,11
1607179095.9801,33
1607179095.9820,55
1607179095.9840,74
1607179095.9860,100
1607179095.9881,134
1607179095.9901,172
1607179095.9921,215
1607179095.9941,263
1607179095.9961,309
1607179095.9980,361
1607179095.9986,405
1607179096.0011,431
1607179096.0031,443
1607179096.0050,438
1607179096.0070,402
1607179096.0091,333
1607179096.0111,232
1607179096.0130,127
1607179096.0150,35
1607179096.0170,-40
1607179096.0190,-95
1607179096.0211,-129
1607179096.0230,-153
1607179096.0250,-165
1607179096.0270,-165
1607179096.0276,-160
1607179096.0290,-153
1607179096.0310,-143
1607179096.0330,-136
1607179096.0350,-129
1607179096.0370,-122
1607179096.0390,-115
1607179096.0410,-112
1607179096.0430,-110
1607179096.0450,-105
1607179096.0470,-103
1607179096.0490,-100
1607179096.0510,-95
1607179096.0530,-93
1607179096.0550,-91
1607179096.0570,-91
1607179096.0576,-88
1607179096.0590,-81
1607179096.0610,-79
1607179096.0630,-76
1607179096.0652,-76
1607179096.0671,-76
1607179096.0690,-74
1607179096.0711,-71
1607179096.0730,-67
1607179096.0750,-64
1607179096.0770,-59
1607179096.0790,-57
1607179096.0810,-52
1607179096.0830,-50
1607179096.0850,-50
1607179096.0870,-43
1607179096.0876,-38
1607179096.5529,-38
1607179096.5537,-35
1607179096.5561,-31
1607179096.5588,-28
1607179096.5608,-23
1607179096.5628,-23
1607179096.5649,-21
1607179096.5668,-23
1607179096.5688,-28
1607179096.5708,-33
1607179096.5727,-31
1607179096.5747,-28
1607179096.5767,-28
1607179096.5787,-26
1607179096.5808,-26
1607179096.5813,-23
1607179096.5827,-19
1607179096.5847,-19
1607179096.5867,-16
1607179096.5887,-14
1607179096.5907,-9
1607179096.5927,-7
1607179096.5947,-4
1607179096.5967,-7
1607179096.5987,-9
1607179096.6008,-4
1607179096.6027,4
1607179096.6047,19
1607179096.6067,35
1607179096.6087,38
1607179096.6107,33
1607179096.6113,40
1607179096.6127,43
1607179096.6147,23
1607179096.6167,4
1607179096.6187,4
1607179096.6207,7
1607179096.6227,9
1607179096.6248,11
1607179096.6267,14
1607179096.6287,14
1607179096.6307,14
1607179096.6327,16
1607179096.6347,19
1607179096.6367,23
1607179096.6387,21
1607179096.6408,-62
1607179096.6413,-251
1607179096.6427,-208
1607179096.6447,486
1607179096.6467,1668
1607179096.6487,2451
1607179096.6508,1730
1607179096.6527,31
1607179096.6547,-606
1607179096.6567,-153
1607179096.6587,-103
1607179096.6608,-299
1607179096.6627,-174
1607179096.6647,-100
1607179096.6667,-167
1607179096.6687,-139
1607179096.6707,-88
1607179096.6727,-98
1607179096.6747,-86
1607179096.6767,-55
1607179096.6787,-50
1607179096.6807,-43
1607179096.6827,-21
1607179096.6847,-4
1607179096.6867,14
1607179096.6887,31
1607179096.6907,50
1607179097.0622,69
1607179097.0629,95
1607179097.0653,124
1607179097.0679,155
1607179097.0699,189
1607179097.0719,227
1607179097.0740,273
1607179097.0759,318
1607179097.0779,364
1607179097.0799,400
1607179097.0819,417
1607179097.0839,424
1607179097.0859,407
1607179097.0879,342
1607179097.0899,254
1607179097.0919,153
1607179097.0941,50
1607179097.0959,-38
1607179097.0979,-103
1607179097.0999,-150
1607179097.1019,-184
1607179097.1039,-198
1607179097.1059,-194
1607179097.1079,-189
1607179097.1099,-184
1607179097.1118,-177
1607179097.1138,-167
1607179097.1158,-162
1607179097.1178,-153
1607179097.1198,-141
1607179097.1218,-129
1607179097.1238,-127
1607179097.1258,-122
1607179097.1278,-115
1607179097.1298,-110
1607179097.1318,-103
1607179097.1339,-98
1607179097.1358,-100
1607179097.1378,-100
1607179097.1399,-93
1607179097.1419,-88
1607179097.1439,-88
1607179097.1459,-83
1607179097.1479,-76
1607179097.1499,-74
1607179097.1519,-76
1607179097.1539,-79
1607179097.1559,-76
1607179097.1579,-67
1607179097.1599,-59
1607179097.1619,-64
1607179097.1639,-62
1607179097.1659,-47
1607179097.1679,-45
1607179097.1699,-52
1607179097.1718,-50
1607179097.1738,-40
1607179097.1759,-35
1607179097.1778,-38
1607179097.1798,-38
1607179097.1819,-33
1607179097.1838,-28
1607179097.1859,-26
1607179097.1878,-21
1607179097.1898,-19
1607179097.1919,-21
1607179097.1939,-16
1607179097.1960,-16
1607179097.1979,-23
1607179097.1998,-28
1607179097.2018,-14
1607179097.2039,-7
1607179097.2059,-11
1607179097.6020,-11
1607179097.6027,-7
1607179097.6051,-9
1607179097.6077,-14
1607179097.6097,-14
1607179097.6117,-2
1607179097.6138,11
1607179097.6157,28
1607179097.6177,38
1607179097.6197,23
1607179097.6217,11
1607179097.6237,21
1607179097.6257,26
1607179097.6277,9
1607179097.6297,-7
1607179097.6317,-7
1607179097.6337,-2
1607179097.6358,4
1607179097.6377,2
1607179097.6397,0
1607179097.6417,2
1607179097.6437,4
1607179097.6456,2
1607179097.6476,9
1607179097.6497,23
1607179097.6516,26
1607179097.6536,-47
1607179097.6557,-256
1607179097.6576,-311
1607179097.6597,304
1607179097.6617,1555
1607179097.6636,2542
1607179097.6656,1943
1607179097.6676,31
1607179097.6697,-798
1607179097.6717,-177
1607179097.6737,-43
1607179097.6757,-342
1607179097.6777,-198
1607179097.6797,-74
1607179097.6817,-167
1607179097.6836,-146
1607179097.6857,-76
1607179097.6876,-86
1607179097.6897,-81
1607179097.6918,-52
1607179097.6937,-50
1607179097.6957,-45
1607179097.6977,-16
1607179097.6997,7
1607179097.7017,26
1607179097.7037,45
1607179097.7057,64
1607179097.7077,88
1607179097.7097,122
1607179097.7117,160
1607179097.7137,198
1607179097.7157,242
1607179097.7177,289
1607179097.7197,345
1607179097.7217,402
1607179097.7237,452
1607179097.7257,496
1607179097.7277,524
1607179097.7297,527
1607179097.7317,503
1607179097.7337,448
1607179097.7357,349
1607179097.7377,220
1607179097.7397,95
1607179097.7417,-9
1607179097.7437,-91
1607179097.7457,-148
1607179098.2029,-182
1607179098.2038,-203
1607179098.2063,-213
1607179098.2089,-220
1607179098.2109,-232
1607179098.2129,-227
1607179098.2150,-201
1607179098.2169,-182
1607179098.2189,-174
1607179098.2209,-165
1607179098.2228,-158
1607179098.2248,-150
1607179098.2268,-139
1607179098.2288,-131
1607179098.2309,-127
1607179098.2328,-117
1607179098.2348,-107
1607179098.2368,-98
1607179098.2388,-95
1607179098.2408,-91
1607179098.2428,-88
1607179098.2448,-88
1607179098.2468,-91
1607179098.2490,-91
1607179098.2509,-86
1607179098.2528,-79
1607179098.2548,-79
1607179098.2568,-81
1607179098.2588,-79
1607179098.2608,-74
1607179098.2628,-71
1607179098.2648,-67
1607179098.2668,-62
1607179098.2688,-59
1607179098.2708,-55
1607179098.2727,-55
1607179098.2747,-55
1607179098.2768,-45
1607179098.2788,-38
1607179098.2808,-35
1607179098.2827,-35
1607179098.2848,-35
1607179098.2868,-35
1607179098.2888,-31
1607179098.2908,-23
1607179098.2927,-21
1607179098.2947,-21
1607179098.2968,-19
1607179098.2988,-16
1607179098.3008,-11
1607179098.3028,-9
1607179098.3047,-9
1607179098.3068,-11
1607179098.3088,-14
1607179098.3108,-19
1607179098.3128,-16
1607179098.3147,-9
1607179098.3167,-7
1607179098.3188,-9
1607179098.3208,-9
1607179098.3228,-4
1607179098.3247,0
1607179098.3268,4
1607179098.3288,21
1607179098.3308,35
1607179098.3328,33
1607179098.3348,33
1607179098.3368,38
1607179098.3388,28
1607179098.3408,4
1607179098.3427,-2
1607179098.3448,2
1607179098.3468,9
1607179098.7727,11
1607179098.7738,9
1607179098.7760,7
1607179098.7787,9
1607179098.7807,11
1607179098.7826,14
1607179098.7847,19
1607179098.7866,-2
1607179098.7886,-143
1607179098.7906,-340
1607179098.7926,-141
1607179098.7946,781
1607179098.7966,2056
1607179098.7986,2554
1607179098.8006,1298
1607179098.8026,-431
1607179098.8046,-601
1607179098.8066,-74
1607179098.8086,-213
1607179098.8106,-347
1607179098.8125,-160
1607179098.8145,-150
1607179098.8165,-213
1607179098.8186,-146
1607179098.8206,-110
1607179098.8225,-129
1607179098.8245,-107
1607179098.8265,-76
1607179098.8285,-71
1607179098.8306,-57
1607179098.8326,-33
1607179098.8345,-21
1607179098.8365,-7
1607179098.8385,16
1607179098.8406,45
1607179098.8425,69
1607179098.8446,98
1607179098.8465,129
1607179098.8486,167
1607179098.8506,208
1607179098.8525,251
1607179098.8545,301
1607179098.8565,357
1607179098.8586,407
1607179098.8606,443
1607179098.8625,460
1607179098.8645,460
1607179098.8665,433
1607179098.8686,376
1607179098.8706,285
1607179098.8725,172
1607179098.8745,64
1607179098.8767,-21
1607179098.8786,-88
1607179098.8807,-134
1607179098.8825,-162
1607179098.8845,-179
1607179098.8865,-182
1607179098.8885,-177
1607179098.8906,-170
1607179098.8925,-162
1607179098.8945,-150
1607179098.8965,-141
1607179098.8985,-134
1607179098.9006,-124
1607179098.9025,-115
1607179098.9045,-107
1607179098.9065,-103
1607179098.9085,-95
1607179098.9106,-93
1607179098.9125,-91
1607179098.9145,-86
1607179098.9166,-81
1607179099.3125,-76
1607179099.3132,-79
1607179099.3157,-79
1607179099.3183,-74
1607179099.3203,-69
1607179099.3223,-69
1607179099.3243,-69
1607179099.3263,-67
1607179099.3283,-64
1607179099.3303,-64
1607179099.3324,-69
1607179099.3342,-69
1607179099.3362,-62
1607179099.3384,-57
1607179099.3403,-55
1607179099.3422,-52
1607179099.3442,-47
1607179099.3462,-43
1607179099.3483,-38
1607179099.3503,-33
1607179099.3522,-31
1607179099.3542,-28
1607179099.3562,-26
1607179099.3582,-21
1607179099.3603,-19
1607179099.3622,-19
1607179099.3642,-16
1607179099.3662,-11
1607179099.3682,-9
1607179099.3702,-7
1607179099.3724,-9
1607179099.3743,-9
1607179099.3762,-4
1607179099.3782,-2
1607179099.3803,-2
1607179099.3822,0
1607179099.3842,2
1607179099.3862,0
1607179099.3882,-2
1607179099.3903,-4
1607179099.3922,-7
1607179099.3942,-2
1607179099.3962,2
1607179099.3982,16
1607179099.4003,33
1607179099.4022,40
1607179099.4042,38
1607179099.4062,45
1607179099.4082,45
1607179099.4103,26
1607179099.4122,7
1607179099.4142,4
1607179099.4162,9
1607179099.4182,9
1607179099.4203,9
1607179099.4222,11
1607179099.4242,11
1607179099.4262,11
1607179099.4282,14
1607179099.4302,19
1607179099.4323,19
1607179099.4342,-21
1607179099.4362,-184
1607179099.4382,-304
1607179099.4403,86
1607179099.4422,1138
1607179099.4442,2281
1607179099.4462,2312
1607179099.4482,769
1607179099.4502,-575
1607179099.4522,-395
1607179099.4542,-43
1607179099.4562,-263
1607179099.8829,-280
1607179099.8838,-119
1607179099.8860,-155
1607179099.8877,-182
1607179099.8897,-115
1607179099.8916,-100
1607179099.8936,-110
1607179099.8956,-91
1607179099.8979,-76
1607179099.8997,-67
1607179099.9016,-43
1607179099.9036,-26
1607179099.9056,-14
1607179099.9076,7
1607179099.9096,31
1607179099.9116,50
1607179099.9136,79
1607179099.9156,110
1607179099.9176,141
1607179099.9196,172
1607179099.9216,215
1607179099.9236,263
1607179099.9256,313
1607179099.9276,364
1607179099.9296,405
1607179099.9317,433
1607179099.9337,448
1607179099.9356,443
1607179099.9376,414
1607179099.9396,352
1607179099.9416,256
1607179099.9436,146
1607179099.9456,45
1607179099.9476,-31
1607179099.9496,-88
1607179099.9516,-134
1607179099.9536,-160
1607179099.9556,-167
1607179099.9576,-170
1607179099.9596,-167
1607179099.9616,-158
1607179099.9636,-146
1607179099.9656,-136
1607179099.9676,-131
1607179099.9696,-122
1607179099.9716,-112
1607179099.9736,-107
1607179099.9756,-100
1607179099.9776,-93
1607179099.9796,-88
1607179099.9816,-86
1607179099.9836,-81
1607179099.9856,-76
1607179099.9876,-71
1607179099.9896,-71
1607179099.9916,-69
1607179099.9936,-64
1607179099.9956,-67
1607179099.9976,-67
1607179099.9998,-64
1607179100.0016,-62
1607179100.0036,-59
1607179100.0056,-57
1607179100.0076,-57
1607179100.0096,-52
1607179100.0116,-47
1607179100.0136,-45
1607179100.0156,-45
1607179100.0176,-38
1607179100.0196,-33
1607179100.0216,-35
1607179100.0236,-31
1607179100.0257,-26
1607179100.4525,-23
1607179100.4531,-23
1607179100.4556,-19
1607179100.4582,-14
1607179100.4602,-14
1607179100.4621,-14
1607179100.4642,-11
1607179100.4662,-7
1607179100.4681,-14
1607179100.4702,-19
1607179100.4721,-14
1607179100.4741,-11
1607179100.4761,-11
1607179100.4781,-9
1607179100.4803,-4
1607179100.4821,-4
1607179100.4841,-9
1607179100.4861,-9
1607179100.4881,-7
1607179100.4902,-7
1607179100.4921,-4
1607179100.4941,0
1607179100.4961,11
1607179100.4981,26
1607179100.5002,31
1607179100.5021,26
1607179100.5041,31
1607179100.5061,35
1607179100.5081,19
1607179100.5101,0
1607179100.5121,-2
1607179100.5141,2
1607179100.5161,4
1607179100.5181,7
1607179100.5202,7
1607179100.5221,7
1607179100.5241,4
1607179100.5263,7
1607179100.5282,14
1607179100.5302,16
1607179100.5321,-23
1607179100.5341,-186
1607179100.5361,-292
1607179100.5381,122
1607179100.5402,1174
1607179100.5421,2252
1607179100.5441,2188
1607179100.5461,651
1607179100.5481,-570
1607179100.5502,-349
1607179100.5521,-55
1607179100.5541,-278
1607179100.5561,-266
1607179100.5581,-122
1607179100.5601,-165
1607179100.5621,-182
1607179100.5641,-115
1607179100.5661,-105
1607179100.5681,-112
1607179100.5702,-86
1607179100.5721,-64
1607179100.5741,-55
1607179100.5761,-35
1607179100.5781,-19
1607179100.5801,-7
1607179100.5821,9
1607179100.5841,31
1607179100.5861,57
1607179100.5881,83
1607179100.5902,115
1607179100.5921,148
1607179100.5941,179
1607179100.5961,220
1607179100.9622,268
1607179100.9629,316
1607179100.9653,364
1607179100.9680,407
1607179100.9699,438
1607179100.9719,452
1607179100.9740,445
1607179100.9760,409
1607179100.9779,342
1607179100.9799,244
1607179100.9819,131
1607179100.9839,35
1607179100.9859,-40
1607179100.9879,-100
1607179100.9899,-139
1607179100.9921,-160
1607179100.9939,-179
1607179100.9959,-191
1607179100.9979,-184
1607179101.0000,-172
1607179101.0019,-162
1607179101.0039,-150
1607179101.0059,-136
1607179101.0079,-129
1607179101.0099,-127
1607179101.0119,-119
1607179101.0139,-107
1607179101.0159,-103
1607179101.0179,-100
1607179101.0199,-95
1607179101.0219,-93
1607179101.0239,-91
1607179101.0259,-88
1607179101.0279,-81
1607179101.0300,-76
1607179101.0319,-74
1607179101.0339,-74
1607179101.0359,-71
1607179101.0379,-64
1607179101.0399,-69
1607179101.0419,-74
1607179101.0439,-69
1607179101.0459,-59
1607179101.0479,-57
1607179101.0499,-59
1607179101.0519,-55
1607179101.0539,-55
1607179101.0559,-55
1607179101.0579,-47
1607179101.0599,-35
1607179101.0619,-31
1607179101.0639,-28
1607179101.0659,-28
1607179101.0679,-28
1607179101.0699,-21
1607179101.0719,-14
1607179101.0739,-26
1607179101.0759,-33
1607179101.0779,-21
1607179101.0799,-14
1607179101.0819,-16
1607179101.0839,-11
1607179101.0859,-4
1607179101.0879,-4
1607179101.0899,-4
1607179101.0919,-2
1607179101.0941,-2
1607179101.0959,-2
1607179101.0979,0
1607179101.0999,7
1607179101.1019,21
1607179101.1039,31
1607179101.1059,28
1607179101.5624,26
1607179101.5633,33
1607179101.5657,21
1607179101.5684,-7
1607179101.5704,-16
1607179101.5723,-11
1607179101.5743,-7
1607179101.5763,-4
1607179101.5783,-4
1607179101.5803,-7
1607179101.5823,-7
1607179101.5843,-4
1607179101.5864,0
1607179101.5883,4
1607179101.5903,-23
1607179101.5922,-177
1607179101.5942,-325
1607179101.5962,21
1607179101.5983,1085
1607179101.6003,2286
1607179101.6022,2327
1607179101.6043,663
1607179101.6062,-742
1607179101.6069,-412
1607179101.6083,7
1607179101.6103,-292
1607179101.6122,-297
1607179101.6142,-95
1607179101.6162,-153
1607179101.6182,-189
1607179101.6204,-112
1607179101.6223,-103
1607179101.6242,-107
1607179101.6262,-69
1607179101.6282,-47
1607179101.6303,-45
1607179101.6325,-26
1607179101.6342,-4
1607179101.6350,7
1607179101.6362,26
1607179101.6382,50
1607179101.6403,81
1607179101.6422,115
1607179101.6443,148
1607179101.6464,186
1607179101.6483,225
1607179101.6503,275
1607179101.6523,337
1607179101.6542,402
1607179101.6562,462
1607179101.6582,515
1607179101.6603,551
1607179101.6622,570
1607179101.6642,563
1607179101.6649,517
1607179101.6662,426
1607179101.6682,299
1607179101.6703,158
1607179101.6723,38
1607179101.6743,-50
1607179101.6763,-115
1607179101.6783,-162
1607179101.6803,-198
1607179101.6823,-213
1607179101.6843,-213
1607179101.6863,-210
1607179101.6883,-206
1607179101.6903,-194
1607179101.6922,-184
1607179101.6943,-174
1607179101.6949,-160
1607179101.6963,-148
1607179101.6983,-141
1607179102.1324,-136
1607179102.1333,-131
1607179102.1358,-127
1607179102.1384,-119
1607179102.1405,-110
1607179102.1423,-107
1607179102.1444,-105
1607179102.1464,-100
1607179102.1483,-100
1607179102.1504,-105
1607179102.1523,-100
1607179102.1530,-95
1607179102.1553,-98
1607179102.1573,-98
1607179102.1594,-95
1607179102.1613,-88
1607179102.1633,-83
1607179102.1653,-83
1607179102.1673,-76
1607179102.1693,-74
1607179102.1713,-79
1607179102.1733,-76
1607179102.1755,-69
1607179102.1773,-64
1607179102.1792,-64
1607179102.1813,-62
1607179102.1833,-55
1607179102.1840,-52
1607179102.1853,-50
1607179102.1873,-47
1607179102.1893,-40
1607179102.1913,-40
1607179102.1933,-43
1607179102.1953,-38
1607179102.1973,-33
1607179102.1993,-28
1607179102.2013,-11
1607179102.2033,2
1607179102.2053,4
1607179102.2073,7
1607179102.2093,11
1607179102.2113,7
1607179102.2133,-11
1607179102.2140,-21
1607179102.2153,-21
1607179102.2173,-23
1607179102.2193,-21
1607179102.2213,-14
1607179102.2233,-11
1607179102.2253,-11
1607179102.2273,-9
1607179102.2293,-4
1607179102.2313,0
1607179102.2333,-11
1607179102.2353,-129
1607179102.2373,-333
1607179102.2393,-210
1607179102.2413,637
1607179102.2433,1941
1607179102.2440,2624
1607179102.2453,1509
1607179102.2473,-357
1607179102.2493,-680
1607179102.2513,-71
1607179102.2533,-167
1607179102.2553,-361
1607179102.2573,-165
1607179102.2593,-127
1607179102.2613,-210
1607179102.2633,-153
1607179102.2653,-107
1607179102.2673,-129
1607179102.2693,-112
1607179102.6725,-83
1607179102.6732,-79
1607179102.6756,-59
1607179102.6783,-35
1607179102.6803,-28
1607179102.6822,-16
1607179102.6842,7
1607179102.6862,31
1607179102.6882,52
1607179102.6902,74
1607179102.6922,103
1607179102.6942,146
1607179102.6962,186
1607179102.6982,232
1607179102.7003,287
1607179102.7009,352
1607179102.7032,407
1607179102.7052,448
1607179102.7072,469
1607179102.7092,469
1607179102.7112,440
1607179102.7132,376
1607179102.7152,273
1607179102.7172,153
1607179102.7192,40
1607179102.7213,-55
1607179102.7232,-122
1607179102.7252,-165
1607179102.7272,-194
1607179102.7292,-208
1607179102.7312,-210
1607179102.7319,-208
1607179102.7342,-201
1607179102.7362,-189
1607179102.7382,-174
1607179102.7402,-165
1607179102.7422,-160
1607179102.7442,-150
1607179102.7462,-141
1607179102.7482,-131
1607179102.7502,-127
1607179102.7522,-117
1607179102.7542,-112
1607179102.7562,-112
1607179102.7582,-112
1607179102.7602,-105
1607179102.7622,-95
1607179102.7629,-88
1607179102.7642,-88
1607179102.7662,-86
1607179102.7682,-83
1607179102.7704,-79
1607179102.7723,-79
1607179102.7742,-79
1607179102.7762,-74
1607179102.7782,-74
1607179102.7803,-71
1607179102.7823,-64
1607179102.7842,-59
1607179102.7862,-62
1607179102.7882,-62
1607179102.7902,-57
1607179102.7909,-55
1607179102.7922,-55
1607179102.7942,-50
1607179102.7962,-43
1607179102.7982,-43
1607179102.8002,-38
1607179102.8022,-31
1607179102.8043,-31
1607179102.8062,-31
1607179102.8082,-26
1607179102.8102,-23
1607179103.2424,-23
1607179103.2433,-23
1607179103.2458,-28
1607179103.2485,-28
1607179103.2505,-21
1607179103.2524,-4
1607179103.2545,7
1607179103.2564,2
1607179103.2584,4
1607179103.2604,16
1607179103.2624,16
1607179103.2644,-2
1607179103.2664,-21
1607179103.2684,-23
1607179103.2704,-19
1607179103.2723,-16
1607179103.2743,-11
1607179103.2763,-11
1607179103.2783,-9
1607179103.2804,-4
1607179103.2823,-2
1607179103.2843,2
1607179103.2863,7
1607179103.2883,-28
1607179103.2904,-194
1607179103.2923,-333
1607179103.2943,35
1607179103.2964,1102
1607179103.2983,2319
1607179103.3005,2446
1607179103.3024,869
1607179103.3043,-599
1607179103.3063,-436
1607179103.3083,-38
1607179103.3104,-275
1607179103.3123,-306
1607179103.3143,-129
1607179103.3163,-167
1607179103.3183,-201
1607179103.3203,-127
1607179103.3223,-110
1607179103.3243,-124
1607179103.3263,-95
1607179103.3283,-69
1607179103.3304,-64
1607179103.3323,-50
1607179103.3343,-28
1607179103.3363,-11
1607179103.3383,4
1607179103.3403,26
1607179103.3423,50
1607179103.3443,74
1607179103.3464,98
1607179103.3483,122
1607179103.3504,158
1607179103.3523,203
1607179103.3543,251
1607179103.3563,301
1607179103.3583,357
1607179103.3604,409
1607179103.3623,443
1607179103.3643,455
1607179103.3663,450
1607179103.3683,417
1607179103.3704,345
1607179103.3723,239
1607179103.3743,122
1607179103.3763,16
1607179103.3783,-64
1607179103.3804,-124
1607179103.3823,-162
1607179103.3843,-186
1607179103.3863,-198
1607179103.7826,-198
1607179103.7832,-191
1607179103.7857,-179
1607179103.7883,-170
1607179103.7903,-160
1607179103.7923,-150
1607179103.7943,-143
1607179103.7965,-143
1607179103.7983,-139
1607179103.8004,-129
1607179103.8079,-124
1607179103.8093,-122
1607179103.8113,-117
1607179103.8133,-110
1607179103.8153,-107
1607179103.8173,-105
1607179103.8193,-100
1607179103.8213,-93
1607179103.8233,-91
1607179103.8253,-86
1607179103.8273,-83
1607179103.8292,-79
1607179103.8313,-74
1607179103.8333,-74
1607179103.8352,-74
1607179103.8373,-71
1607179103.8392,-69
1607179103.8413,-69
1607179103.8432,-67
1607179103.8452,-62
1607179103.8473,-59
1607179103.8492,-57
1607179103.8512,-50
1607179103.8532,-47
1607179103.8552,-45
1607179103.8572,-43
1607179103.8592,-38
1607179103.8613,-33
1607179103.8632,-33
1607179103.8652,-31
1607179103.8672,-28
1607179103.8692,-23
1607179103.8712,-23
1607179103.8732,-21
1607179103.8752,-19
1607179103.8772,-21
1607179103.8792,-26
1607179103.8813,-31
1607179103.8832,-26
1607179103.8852,-19
1607179103.8872,-14
1607179103.8892,0
1607179103.8912,19
1607179103.8932,21
1607179103.8952,16
1607179103.8972,23
1607179103.8992,26
1607179103.9013,7
1607179103.9034,-14
1607179103.9053,-16
1607179103.9072,-11
1607179103.9092,-9
1607179103.9113,-9
1607179103.9132,-2
1607179103.9152,0
1607179103.9172,-2
1607179103.9192,0
1607179103.9213,4
1607179103.9232,9
1607179103.9252,-19
1607179103.9272,-172
1607179103.9292,-313
1607179103.9313,23
1607179104.3526,1042
1607179104.3532,2231
1607179104.3557,2401
1607179104.3583,927
1607179104.3604,-536
1607179104.3623,-450
1607179104.3644,-55
1607179104.3663,-258
1607179104.3683,-304
1607179104.3703,-141
1607179104.3723,-162
1607179104.3743,-196
1607179104.3763,-131
1607179104.3783,-112
1607179104.3803,-119
1607179104.3823,-91
1607179104.3843,-71
1607179104.3863,-69
1607179104.3883,-50
1607179104.3903,-28
1607179104.3923,-16
1607179104.3943,0
1607179104.3963,23
1607179104.3983,47
1607179104.4003,74
1607179104.4023,103
1607179104.4043,134
1607179104.4063,172
1607179104.4083,213
1607179104.4103,258
1607179104.4123,309
1607179104.4142,359
1607179104.4163,407
1607179104.4182,445
1607179104.4203,462
1607179104.4222,457
1607179104.4244,426
1607179104.4263,354
1607179104.4282,244
1607179104.4303,122
1607179104.4322,21
1607179104.4342,-57
1607179104.4362,-119
1607179104.4382,-162
1607179104.4403,-186
1607179104.4422,-196
1607179104.4442,-196
1607179104.4462,-191
1607179104.4483,-184
1607179104.4503,-174
1607179104.4522,-165
1607179104.4542,-155
1607179104.4562,-146
1607179104.4582,-136
1607179104.4604,-127
1607179104.4623,-122
1607179104.4643,-119
1607179104.4663,-117
1607179104.4684,-112
1607179104.4704,-110
1607179104.4723,-110
1607179104.4742,-100
1607179104.4763,-91
1607179104.4769,-88
1607179104.4782,-86
1607179104.4803,-81
1607179104.4822,-81
1607179104.4842,-81
1607179104.4863,-79
1607179104.4882,-74
1607179104.4903,-67
1607179104.4922,-64
1607179104.4942,-64
1607179104.9528,-62
1607179104.9536,-59
1607179104.9561,-55
1607179104.9587,-52
1607179104.9594,-47
1607179104.9616,-47
1607179104.9636,-52
1607179104.9657,-55
1607179104.9676,-52
1607179104.9696,-50
1607179104.9716,-47
1607179104.9736,-45
1607179104.9756,-40
1607179104.9776,-33
1607179104.9798,-28
1607179104.9817,-28
1607179104.9836,-26
1607179104.9856,-21
1607179104.9876,-19
1607179104.9896,-21
1607179104.9903,-16
1607179104.9916,-11
1607179104.9936,-16
1607179104.9956,-16
1607179104.9976,-7
1607179104.9996,-2
1607179105.0017,-2
1607179105.0036,-4
1607179105.0056,2
1607179105.0076,19
1607179105.0096,26
1607179105.0116,21
1607179105.0136,21
1607179105.0156,31
1607179105.0176,23
1607179105.0196,2
1607179105.0203,-9
1607179105.0216,-4
1607179105.0236,0
1607179105.0256,0
1607179105.0276,-2
1607179105.0296,-7
1607179105.0316,-7
1607179105.0336,2
1607179105.0356,14
1607179105.0376,14
1607179105.0396,14
1607179105.0416,-21
1607179105.0436,-186
1607179105.0456,-335
1607179105.0476,35
1607179105.0496,1128
1607179105.0503,2358
1607179105.0516,2413
1607179105.0536,721
1607179105.0556,-721
1607179105.0576,-409
1607179105.0596,9
1607179105.0616,-282
1607179105.0636,-287
1607179105.0656,-88
1607179105.0676,-141
1607179105.0696,-170
1607179105.0716,-93
1607179105.0736,-83
1607179105.0758,-93
1607179105.0777,-64
1607179105.0796,-47
1607179105.0803,-35
1607179105.0816,-16
1607179105.0836,0
1607179105.0856,14
1607179105.0876,33
1607179105.4929,57
1607179105.4938,86
1607179105.4962,115
1607179105.4989,141
1607179105.5009,174
1607179105.5028,215
1607179105.5048,268
1607179105.5068,328
1607179105.5088,395
1607179105.5108,457
1607179105.5128,508
1607179105.5135,541
1607179105.5158,558
1607179105.5179,556
1607179105.5198,515
1607179105.5218,426
1607179105.5237,299
1607179105.5258,165
1607179105.5277,43
1607179105.5298,-62
1607179105.5317,-139
1607179105.5338,-184
1607179105.5358,-213
1607179105.5377,-230
1607179105.5397,-232
1607179105.5418,-222
1607179105.5438,-220
1607179105.5445,-213
1607179105.5458,-203
1607179105.5477,-194
1607179105.5498,-182
1607179105.5517,-172
1607179105.5538,-170
1607179105.5557,-160
1607179105.5577,-146
1607179105.5597,-136
1607179105.5618,-131
1607179105.5637,-122
1607179105.5657,-110
1607179105.5678,-110
1607179105.5698,-110
1607179105.5717,-100
1607179105.5737,-93
1607179105.5746,-91
1607179105.5760,-83
1607179105.5778,-81
1607179105.5798,-83
1607179105.5818,-83
1607179105.5838,-79
1607179105.5858,-79
1607179105.5878,-79
1607179105.5898,-74
1607179105.5918,-67
1607179105.5938,-67
1607179105.5957,-67
1607179105.5978,-64
1607179105.5998,-57
1607179105.6018,-50
1607179105.6024,-47
1607179105.6038,-45
1607179105.6057,-40
1607179105.6078,-40
1607179105.6098,-40
1607179105.6118,-35
1607179105.6138,-35
1607179105.6157,-43
1607179105.6178,-38
1607179105.6198,-26
1607179105.6218,-23
1607179105.6238,-23
1607179105.6258,-19
1607179105.6278,-16
1607179105.6298,-19
1607179106.0624,-19
1607179106.0634,-16
1607179106.0657,-16
1607179106.0684,-11
1607179106.0705,-7
1607179106.0724,-7
1607179106.0744,2
1607179106.0764,23
1607179106.0784,23
1607179106.0804,11
1607179106.0824,19
1607179106.0843,23
1607179106.0863,2
1607179106.0884,-14
1607179106.0904,-14
1607179106.0910,-14
1607179106.0933,-19
1607179106.0953,-14
1607179106.0973,-7
1607179106.0994,-7
1607179106.1014,-7
1607179106.1035,-2
1607179106.1054,-2
1607179106.1073,-2
1607179106.1093,-4
1607179106.1113,-67
1607179106.1133,-266
1607179106.1153,-328
1607179106.1173,244
1607179106.1193,1478
1607179106.1213,2583
1607179106.1220,2192
1607179106.1244,282
1607179106.1263,-790
1607179106.1283,-266
1607179106.1303,-40
1607179106.1323,-352
1607179106.1343,-258
1607179106.1363,-103
1607179106.1383,-184
1607179106.1403,-182
1607179106.1423,-105
1607179106.1443,-110
1607179106.1463,-115
1607179106.1483,-81
1607179106.1504,-71
1607179106.1523,-64
1607179106.1530,-38
1607179106.1543,-21
1607179106.1563,-11
1607179106.1583,4
1607179106.1604,28
1607179106.1623,52
1607179106.1643,74
1607179106.1663,100
1607179106.1683,131
1607179106.1703,172
1607179106.1723,225
1607179106.1743,282
1607179106.1763,342
1607179106.1783,402
1607179106.1803,452
1607179106.1823,486
1607179106.1830,503
1607179106.1843,493
1607179106.1863,450
1607179106.1883,364
1607179106.1903,244
1607179106.1923,119
1607179106.1943,16
1607179106.1963,-64
1607179106.1983,-129
1607179106.2005,-170
1607179106.6022,-194
1607179106.6031,-206
1607179106.6055,-206
1607179106.6082,-201
1607179106.6103,-189
1607179106.6122,-177
1607179106.6129,-170
1607179106.6151,-162
1607179106.6171,-158
1607179106.6191,-158
1607179106.6212,-155
1607179106.6231,-143
1607179106.6251,-136
1607179106.6271,-134
1607179106.6291,-131
1607179106.6311,-122
1607179106.6331,-115
1607179106.6351,-112
1607179106.6371,-110
1607179106.6391,-100
1607179106.6411,-93
1607179106.6431,-91
1607179106.6437,-88
1607179106.6451,-86
1607179106.6471,-86
1607179106.6491,-83
1607179106.6511,-79
1607179106.6531,-74
1607179106.6551,-74
1607179106.6571,-74
1607179106.6591,-74
1607179106.6611,-67
1607179106.6631,-62
1607179106.6651,-57
1607179106.6671,-52
1607179106.6691,-45
1607179106.6711,-45
1607179106.6731,-43
1607179106.6738,-40
1607179106.6751,-35
1607179106.6771,-33
1607179106.6791,-33
1607179106.6811,-31
1607179106.6831,-28
1607179106.6851,-23
1607179106.6871,-21
1607179106.6891,-21
1607179106.6911,-21
1607179106.6931,-16
1607179106.6951,-16
1607179106.6973,-16
1607179106.6992,-9
1607179106.7011,-9
1607179106.7031,-11
1607179106.7038,-9
1607179106.7051,-7
1607179106.7071,-9
1607179106.7091,-4
1607179106.7111,0
1607179106.7131,-2
1607179106.7151,-7
1607179106.7171,-2
1607179106.7191,4
1607179106.7211,11
1607179106.7231,31
1607179106.7251,38
1607179106.7271,31
1607179106.7291,35
1607179106.7311,47
1607179106.7331,35
1607179106.7338,11
1607179106.7351,7
1607179106.7371,4
1607179107.1428,0
1607179107.1436,2
1607179107.1460,2
1607179107.1488,2
1607179107.1508,2
1607179107.1526,0
1607179107.1548,-2
1607179107.1567,-2
1607179107.1588,-2
1607179107.1607,-43
1607179107.1626,-218
1607179107.1633,-325
1607179107.1646,124
1607179107.1666,1243
1607179107.1686,2391
1607179107.1707,2339
1607179107.1726,699
1607179107.1746,-635
1607179107.1766,-397
1607179107.1786,-57
1607179107.1807,-301
1607179107.1826,-301
1607179107.1846,-141
1607179107.1866,-186
1607179107.1886,-208
1607179107.1907,-139
1607179107.1926,-129
1607179107.1933,-134
1607179107.1948,-103
1607179107.1967,-86
1607179107.1986,-83
1607179107.2006,-64
1607179107.2026,-43
1607179107.2046,-26
1607179107.2066,-7
1607179107.2086,14
1607179107.2106,33
1607179107.2126,55
1607179107.2146,83
1607179107.2166,117
1607179107.2186,153
1607179107.2207,194
1607179107.2226,242
1607179107.2233,299
1607179107.2246,357
1607179107.2266,409
1607179107.2286,448
1607179107.2306,472
1607179107.2326,474
1607179107.2346,448
1607179107.2366,385
1607179107.2386,285
1607179107.2406,172
1607179107.2426,64
1607179107.2446,-26
1607179107.2466,-91
1607179107.2486,-136
1607179107.2507,-167
1607179107.2527,-182
1607179107.2533,-184
1607179107.2546,-182
1607179107.2566,-174
1607179107.2586,-160
1607179107.2607,-150
1607179107.2626,-143
1607179107.2646,-134
1607179107.2666,-129
1607179107.2686,-127
1607179107.2706,-127
1607179107.2726,-122
1607179107.2746,-117
1607179107.2766,-110
1607179107.2786,-105
1607179107.7128,-103
1607179107.7136,-95
1607179107.7160,-88
1607179107.7187,-88
1607179107.7207,-95
1607179107.7226,-95
1607179107.7250,-88
1607179107.7267,-81
1607179107.7286,-81
1607179107.7306,-79
1607179107.7326,-76
1607179107.7346,-71
1607179107.7366,-69
1607179107.7387,-67
1607179107.7393,-64
1607179107.7407,-62
1607179107.7426,-59
1607179107.7446,-55
1607179107.7466,-50
1607179107.7486,-47
1607179107.7506,-43
1607179107.7526,-38
1607179107.7546,-35
1607179107.7566,-35
1607179107.7586,-31
1607179107.7606,-26
1607179107.7626,-23
1607179107.7646,-26
1607179107.7666,-28
1607179107.7687,-23
1607179107.7693,-19
1607179107.7706,-16
1607179107.7726,-16
1607179107.7746,-14
1607179107.7766,-14
1607179107.7786,-11
1607179107.7806,-7
1607179107.7827,-7
1607179107.7846,-4
1607179107.7866,-2
1607179107.7886,-4
1607179107.7907,-2
1607179107.7926,-2
1607179107.7946,0
1607179107.7966,4
1607179107.7986,7
1607179107.7993,2
1607179107.8006,2
1607179107.8026,2
1607179107.8046,4
1607179107.8066,7
1607179107.8086,14
1607179107.8106,31
1607179107.8126,47
1607179107.8146,43
1607179107.8166,38
1607179107.8186,47
1607179107.8208,45
1607179107.8226,21
1607179107.8246,2
1607179107.8266,-2
1607179107.8286,-4
1607179107.8293,0
1607179107.8306,2
1607179107.8326,2
1607179107.8346,2
1607179107.8366,-2
1607179107.8386,-2
1607179107.8406,0
1607179107.8426,4
1607179107.8446,-7
1607179107.8466,-112
1607179107.8486,-297
1607179108.3425,-170
1607179108.3435,642
1607179108.3460,1869
1607179108.3485,2516
1607179108.3505,1548
1607179108.3512,-184
1607179108.3525,-630
1607179108.3547,-139
1607179108.3565,-167
1607179108.3585,-347
1607179108.3606,-196
1607179108.3625,-141
1607179108.3645,-208
1607179108.3665,-167
1607179108.3685,-119
1607179108.3704,-127
1607179108.3724,-112
1607179108.3745,-81
1607179108.3764,-71
1607179108.3785,-62
1607179108.3804,-45
1607179108.3811,-33
1607179108.3825,-11
1607179108.3845,14
1607179108.3864,35
1607179108.3884,59
1607179108.3905,86
1607179108.3924,110
1607179108.3944,146
1607179108.3964,189
1607179108.3984,234
1607179108.4005,285
1607179108.4024,342
1607179108.4044,400
1607179108.4064,455
1607179108.4086,491
1607179108.4105,493
1607179108.4111,481
1607179108.4124,448
1607179108.4144,366
1607179108.4164,249
1607179108.4184,136
1607179108.4205,38
1607179108.4225,-45
1607179108.4244,-107
1607179108.4264,-146
1607179108.4284,-172
1607179108.4304,-186
1607179108.4324,-186
1607179108.4344,-174
1607179108.4364,-167
1607179108.4384,-170
1607179108.4405,-167
1607179108.4411,-153
1607179108.4424,-139
1607179108.4444,-131
1607179108.4464,-127
1607179108.4484,-127
1607179108.4505,-119
1607179108.4524,-107
1607179108.4544,-103
1607179108.4564,-105
1607179108.4584,-103
1607179108.4605,-98
1607179108.4625,-93
1607179108.4644,-86
1607179108.4664,-76
1607179108.4685,-74
1607179108.4705,-76
1607179108.4711,-79
1607179108.4724,-74
1607179108.4744,-67
1607179108.4764,-64
1607179108.8528,-62
1607179108.8537,-62
1607179108.8561,-62
1607179108.8588,-57
1607179108.8608,-55
1607179108.8627,-47
1607179108.8648,-43
1607179108.8667,-45
1607179108.8687,-45
1607179108.8708,-43
1607179108.8714,-47
1607179108.8727,-45
1607179108.8747,-26
1607179108.8769,-23
1607179108.8788,-43
1607179108.8807,-43
1607179108.8827,-28
1607179108.8847,-33
1607179108.8867,-35
1607179108.8888,-26
1607179108.8908,-21
1607179108.8927,-23
1607179108.8947,-21
1607179108.8967,-14
1607179108.8987,-11
1607179108.9007,-16
1607179108.9014,-14
1607179108.9027,-7
1607179108.9047,-7
1607179108.9067,-9
1607179108.9087,-2
1607179108.9107,4
1607179108.9127,11
1607179108.9147,26
1607179108.9167,35
1607179108.9187,28
1607179108.9207,26
1607179108.9227,38
1607179108.9247,28
1607179108.9267,4
1607179108.9287,0
1607179108.9307,4
1607179108.9314,-4
1607179108.9327,-16
1607179108.9347,-14
1607179108.9367,-11
1607179108.9387,-14
1607179108.9407,-16
1607179108.9427,-9
1607179108.9447,-7
1607179108.9467,-11
1607179108.9487,-7
1607179108.9507,-38
1607179108.9527,-215
1607179108.9547,-366
1607179108.9567,50
1607179108.9587,1222
1607179108.9608,2458
1607179108.9613,2372
1607179108.9627,548
1607179108.9647,-831
1607179108.9667,-407
1607179108.9687,-4
1607179108.9707,-316
1607179108.9728,-287
1607179108.9747,-88
1607179108.9767,-160
1607179108.9787,-191
1607179108.9807,-110
1607179108.9827,-98
1607179108.9847,-100
1607179108.9867,-69
1607179108.9887,-57
1607179109.4529,-55
1607179109.4540,-33
1607179109.4564,-14
1607179109.4591,-2
1607179109.4611,19
1607179109.4631,45
1607179109.4652,69
1607179109.4671,88
1607179109.4690,112
1607179109.4711,150
1607179109.4730,198
1607179109.4750,246
1607179109.4770,301
1607179109.4790,369
1607179109.4803,436
1607179109.4810,486
1607179109.4829,524
1607179109.4850,551
1607179109.4870,556
1607179109.4890,522
1607179109.4910,448
1607179109.4929,337
1607179109.4949,196
1607179109.4970,59
1607179109.4991,-43
1607179109.5010,-119
1607179109.5029,-172
1607179109.5049,-206
1607179109.5069,-220
1607179109.5089,-225
1607179109.5110,-225
1607179109.5115,-218
1607179109.5129,-203
1607179109.5149,-198
1607179109.5169,-194
1607179109.5189,-182
1607179109.5210,-167
1607179109.5229,-162
1607179109.5250,-160
1607179109.5269,-153
1607179109.5289,-139
1607179109.5309,-127
1607179109.5331,-124
1607179109.5350,-122
1607179109.5369,-112
1607179109.5389,-100
1607179109.5409,-100
1607179109.5415,-98
1607179109.5429,-98
1607179109.5449,-98
1607179109.5471,-95
1607179109.5489,-93
1607179109.5510,-91
1607179109.5529,-88
1607179109.5549,-86
1607179109.5569,-81
1607179109.5589,-76
1607179109.5610,-76
1607179109.5629,-76
1607179109.5649,-71
1607179109.5669,-67
1607179109.5689,-64
1607179109.5696,-59
1607179109.5709,-57
1607179109.5729,-52
1607179109.5749,-50
1607179109.5769,-50
1607179109.5789,-50
1607179109.5809,-43
1607179109.5829,-40
1607179109.5849,-35
1607179109.5869,-35
1607179109.5889,-35
1607179109.9625,-35
1607179109.9635,-31
1607179109.9660,-26
1607179109.9670,-21
1607179109.9686,-21
1607179109.9706,-19
1607179109.9725,-16
1607179109.9746,-16
1607179109.9765,-21
1607179109.9785,-23
1607179109.9805,-19
1607179109.9825,-16
1607179109.9845,-21
1607179109.9865,-26
1607179109.9885,-21
1607179109.9905,-16
1607179109.9925,-16
1607179109.9945,-23
1607179109.9965,-26
1607179109.9971,-19
1607179109.9987,-11
1607179110.0006,-4
1607179110.0026,14
1607179110.0045,21
1607179110.0065,7
1607179110.0086,7
1607179110.0105,23
1607179110.0125,14
1607179110.0145,-14
1607179110.0165,-23
1607179110.0185,-21
1607179110.0205,-23
1607179110.0225,-23
1607179110.0245,-21
1607179110.0265,-16
1607179110.0271,-16
1607179110.0285,-14
1607179110.0305,-7
1607179110.0325,2
1607179110.0345,-2
1607179110.0365,-95
1607179110.0385,-297
1607179110.0405,-254
1607179110.0425,476
1607179110.0445,1742
1607179110.0465,2619
1607179110.0485,1883
1607179110.0505,14
1607179110.0525,-721
1607179110.0545,-184
1607179110.0565,-107
1607179110.0571,-357
1607179110.0585,-222
1607179110.0605,-122
1607179110.0625,-198
1607179110.0644,-172
1607179110.0665,-112
1607179110.0685,-122
1607179110.0705,-112
1607179110.0725,-81
1607179110.0745,-76
1607179110.0765,-67
1607179110.0785,-43
1607179110.0805,-23
1607179110.0825,-9
1607179110.0845,11
1607179110.0865,35
1607179110.0871,57
1607179110.0885,83
1607179110.0905,115
1607179110.0925,146
1607179110.0946,182
1607179110.0965,220
1607179110.5326,270
1607179110.5338,330
1607179110.5361,388
1607179110.5379,438
1607179110.5399,474
1607179110.5418,491
1607179110.5438,481
1607179110.5458,450
1607179110.5478,390
1607179110.5498,289
1607179110.5504,167
1607179110.5518,62
1607179110.5538,-23
1607179110.5558,-93
1607179110.5578,-141
1607179110.5599,-172
1607179110.5618,-189
1607179110.5638,-191
1607179110.5658,-184
1607179110.5677,-174
1607179110.5698,-165
1607179110.5718,-155
1607179110.5738,-146
1607179110.5757,-136
1607179110.5778,-134
1607179110.5798,-131
1607179110.5803,-122
1607179110.5817,-112
1607179110.5837,-107
1607179110.5857,-107
1607179110.5877,-103
1607179110.5897,-95
1607179110.5917,-93
1607179110.5937,-91
1607179110.5957,-86
1607179110.5977,-81
1607179110.5997,-76
1607179110.6017,-71
1607179110.6037,-71
1607179110.6057,-67
1607179110.6077,-64
1607179110.6098,-67
1607179110.6103,-64
1607179110.6117,-57
1607179110.6137,-55
1607179110.6157,-55
1607179110.6177,-50
1607179110.6198,-52
1607179110.6217,-52
1607179110.6239,-47
1607179110.6258,-43
1607179110.6277,-40
1607179110.6297,-38
1607179110.6317,-35
1607179110.6337,-31
1607179110.6357,-26
1607179110.6377,-23
1607179110.6397,-21
1607179110.6403,-16
1607179110.6417,-16
1607179110.6437,-16
1607179110.6457,-11
1607179110.6477,-9
1607179110.6497,-7
1607179110.6517,-4
1607179110.6537,-4
1607179110.6557,-2
1607179110.6577,2
1607179110.6598,4
1607179110.6617,4
1607179110.6637,4
1607179110.6657,4
1607179110.6677,4
1607179111.0729,2
1607179111.0738,4
1607179111.0762,2
1607179111.0789,0
1607179111.0809,2
1607179111.0829,7
1607179111.0849,9
1607179111.0869,16
1607179111.0888,19
1607179111.0909,14
1607179111.0928,19
1607179111.0948,21
1607179111.0968,9
1607179111.0988,-9
1607179111.1008,-16
1607179111.1014,-16
1607179111.1028,-14
1607179111.1048,-11
1607179111.1068,-14
1607179111.1088,-14
1607179111.1108,-7
1607179111.1128,-4
1607179111.1148,-2
1607179111.1168,2
1607179111.1188,-4
1607179111.1208,-100
1607179111.1228,-289
1607179111.1249,-198
1607179111.1268,570
1607179111.1288,1809
1607179111.1308,2554
1607179111.1314,1699
1607179111.1328,-74
1607179111.1348,-647
1607179111.1368,-153
1607179111.1389,-134
1607179111.1408,-333
1607179111.1427,-194
1607179111.1447,-124
1607179111.1468,-196
1607179111.1488,-160
1607179111.1508,-105
1607179111.1527,-117
1607179111.1547,-105
1607179111.1568,-71
1607179111.1587,-59
1607179111.1607,-55
1607179111.1614,-35
1607179111.1627,-14
1607179111.1647,0
1607179111.1667,19
1607179111.1688,40
1607179111.1708,64
1607179111.1727,88
1607179111.1747,119
1607179111.1767,153
1607179111.1787,191
1607179111.1807,230
1607179111.1827,275
1607179111.1848,333
1607179111.1867,390
1607179111.1887,433
1607179111.1908,464
1607179111.1914,484
1607179111.1928,479
1607179111.1947,445
1607179111.1968,378
1607179111.1987,278
1607179111.2008,165
1607179111.2027,64
1607179111.2048,-21
1607179111.2067,-88
1607179111.2087,-131
1607179111.6727,-158
1607179111.6737,-172
1607179111.6751,-174
1607179111.6771,-174
1607179111.6779,-172
1607179111.6794,-165
1607179111.6812,-150
1607179111.6831,-139
1607179111.6851,-134
1607179111.6871,-129
1607179111.6891,-124
1607179111.6912,-117
1607179111.6932,-112
1607179111.6951,-107
1607179111.6972,-105
1607179111.6991,-100
1607179111.7011,-95
1607179111.7030,-88
1607179111.7050,-83
1607179111.7070,-81
1607179111.7077,-81
1607179111.7091,-76
1607179111.7110,-71
1607179111.7130,-71
1607179111.7150,-71
1607179111.7170,-64
1607179111.7191,-62
1607179111.7211,-62
1607179111.7230,-59
1607179111.7250,-59
1607179111.7270,-57
1607179111.7290,-52
1607179111.7310,-52
1607179111.7330,-50
1607179111.7350,-43
1607179111.7370,-38
1607179111.7376,-35
1607179111.7390,-31
1607179111.7410,-28
1607179111.7430,-28
1607179111.7450,-26
1607179111.7470,-21
1607179111.7490,-19
1607179111.7510,-16
1607179111.7530,-16
1607179111.7550,-14
1607179111.7570,-11
1607179111.7590,-9
1607179111.7610,-4
1607179111.7630,-2
1607179111.7650,-2
1607179111.7670,-2
1607179111.7676,-2
1607179111.7690,0
1607179111.7710,2
1607179111.7730,2
1607179111.7751,2
1607179111.7771,4
1607179111.7790,7
1607179111.7810,4
1607179111.7830,4
1607179111.7850,7
1607179111.7870,4
1607179111.7891,7
1607179111.7911,28
1607179111.7931,43
1607179111.7950,35
1607179111.7970,33
1607179111.7976,40
1607179111.7990,28
1607179111.8010,0
1607179111.8030,-9
1607179111.8051,0
1607179112.2728,2
1607179112.2736,-2
1607179112.2755,-4
1607179112.2775,-4
1607179112.2794,-2
1607179112.2814,0
1607179112.2834,2
1607179112.2854,7
1607179112.2874,7
1607179112.2895,-74
1607179112.2901,-266
1607179112.2913,-251
1607179112.2933,397
1607179112.2954,1572
1607179112.2974,2442
1607179112.2994,1871
1607179112.3014,162
1607179112.3033,-644
1607179112.3054,-215
1607179112.3074,-98
1607179112.3094,-321
1607179112.3113,-225
1607179112.3133,-127
1607179112.3153,-186
1607179112.3173,-167
1607179112.3194,-110
1607179112.3199,-115
1607179112.3213,-107
1607179112.3233,-76
1607179112.3253,-62
1607179112.3273,-52
1607179112.3293,-33
1607179112.3313,-21
1607179112.3333,-4
1607179112.3355,21
1607179112.3374,43
1607179112.3393,62
1607179112.3413,86
1607179112.3433,117
1607179112.3453,150
1607179112.3473,184
1607179112.3493,225
1607179112.3500,270
1607179112.3513,323
1607179112.3533,371
1607179112.3553,414
1607179112.3573,450
1607179112.3593,464
1607179112.3613,460
1607179112.3633,433
1607179112.3653,373
1607179112.3673,280
1607179112.3693,170
1607179112.3713,67
1607179112.3733,-16
1607179112.3753,-81
1607179112.3773,-131
1607179112.3793,-162
1607179112.3800,-172
1607179112.3813,-174
1607179112.3833,-174
1607179112.3853,-167
1607179112.3873,-158
1607179112.3893,-148
1607179112.3913,-139
1607179112.3933,-131
1607179112.3953,-124
1607179112.3973,-119
1607179112.3993,-117
1607179112.4013,-110
1607179112.4033,-103
1607179112.4053,-100
1607179112.4073,-93
1607179112.7822,-86
1607179112.7828,-86
1607179112.7852,-88
1607179112.7879,-86
1607179112.7900,-79
1607179112.7919,-76
1607179112.7939,-74
1607179112.7959,-71
1607179112.7979,-71
1607179112.7999,-69
1607179112.8019,-67
1607179112.8039,-62
1607179112.8061,-57
1607179112.8079,-57
1607179112.8099,-67
1607179112.8105,-67
1607179112.8118,-59
1607179112.8139,-57
1607179112.8159,-55
1607179112.8179,-52
1607179112.8199,-47
1607179112.8218,-43
1607179112.8238,-35
1607179112.8258,-31
1607179112.8278,-31
1607179112.8299,-28
1607179112.8318,-26
1607179112.8338,-23
1607179112.8358,-19
1607179112.8378,-16
1607179112.8399,-16
1607179112.8404,-14
1607179112.8418,-9
1607179112.8439,-11
1607179112.8459,-14
1607179112.8478,-4
1607179112.8499,0
1607179112.8518,-4
1607179112.8538,-9
1607179112.8559,-7
1607179112.8578,-4
1607179112.8599,2
1607179112.8618,2
1607179112.8638,-4
1607179112.8658,-7
1607179112.8678,-4
1607179112.8699,7
1607179112.8704,26
1607179112.8718,33
1607179112.8738,26
1607179112.8758,21
1607179112.8778,21
1607179112.8799,7
1607179112.8818,-14
1607179112.8838,-16
1607179112.8858,-7
1607179112.8878,-9
1607179112.8899,-14
1607179112.8918,-9
1607179112.8938,0
1607179112.8958,-4
1607179112.8978,-11
1607179112.8999,-2
1607179112.9006,9
1607179112.9019,-19
1607179112.9038,-167
1607179112.9058,-335
1607179112.9078,-50
1607179112.9099,951
1607179112.9118,2178
1607179112.9138,2437
1607179112.9158,982
1607179112.9178,-584
1607179113.3228,-508
1607179113.3237,-33
1607179113.3261,-249
1607179113.3278,-318
1607179113.3298,-127
1607179113.3317,-146
1607179113.3323,-189
1607179113.3337,-134
1607179113.3357,-124
1607179113.3377,-127
1607179113.3397,-88
1607179113.3417,-71
1607179113.3438,-71
1607179113.3457,-50
1607179113.3477,-23
1607179113.3497,-9
1607179113.3517,7
1607179113.3537,28
1607179113.3557,55
1607179113.3577,81
1607179113.3597,110
1607179113.3617,146
1607179113.3623,191
1607179113.3637,237
1607179113.3657,287
1607179113.3677,347
1607179113.3697,407
1607179113.3717,462
1607179113.3736,512
1607179113.3756,551
1607179113.3777,560
1607179113.3797,544
1607179113.3817,486
1607179113.3837,395
1607179113.3857,273
1607179113.3876,134
1607179113.3897,11
1607179113.3903,-74
1607179113.3916,-131
1607179113.3936,-172
1607179113.3957,-201
1607179113.3978,-222
1607179113.3997,-222
1607179113.4017,-208
1607179113.4036,-203
1607179113.4057,-201
1607179113.4077,-191
1607179113.4097,-177
1607179113.4117,-162
1607179113.4136,-153
1607179113.4157,-146
1607179113.4176,-141
1607179113.4197,-134
1607179113.4203,-129
1607179113.4216,-134
1607179113.4236,-134
1607179113.4256,-115
1607179113.4277,-103
1607179113.4297,-105
1607179113.4317,-107
1607179113.4337,-100
1607179113.4357,-98
1607179113.4376,-98
1607179113.4397,-98
1607179113.4417,-93
1607179113.4437,-88
1607179113.4457,-86
1607179113.4477,-88
1607179113.4497,-86
1607179113.4503,-76
1607179113.4516,-74
1607179113.4537,-74
1607179113.4557,-76
1607179113.8929,-71
1607179113.8938,-67
1607179113.8954,-62
1607179113.8973,-59
1607179113.8993,-59
1607179113.9013,-62
1607179113.9033,-59
1607179113.9053,-55
1607179113.9073,-55
1607179113.9080,-55
1607179113.9093,-50
1607179113.9113,-45
1607179113.9133,-45
1607179113.9153,-45
1607179113.9173,-40
1607179113.9193,-35
1607179113.9213,-35
1607179113.9233,-35
1607179113.9253,-33
1607179113.9275,-28
1607179113.9293,-19
1607179113.9312,-4
1607179113.9332,4
1607179113.9352,9
1607179113.9372,11
1607179113.9379,11
1607179113.9392,-2
1607179113.9412,-26
1607179113.9433,-31
1607179113.9452,-21
1607179113.9472,-21
1607179113.9492,-31
1607179113.9512,-28
1607179113.9532,-19
1607179113.9552,-16
1607179113.9572,-19
1607179113.9592,-16
1607179113.9612,-9
1607179113.9632,-11
1607179113.9652,-117
1607179113.9672,-330
1607179113.9678,-256
1607179113.9692,551
1607179113.9712,1871
1607179113.9732,2626
1607179113.9752,1588
1607179113.9772,-345
1607179113.9792,-774
1607179113.9812,-119
1607179113.9832,-165
1607179113.9852,-393
1607179113.9872,-194
1607179113.9892,-134
1607179113.9912,-225
1607179113.9933,-172
1607179113.9952,-117
1607179113.9972,-141
1607179113.9978,-124
1607179113.9992,-88
1607179114.0013,-81
1607179114.0033,-74
1607179114.0053,-50
1607179114.0072,-28
1607179114.0092,-14
1607179114.0112,7
1607179114.0132,31
1607179114.0152,55
1607179114.0172,83
1607179114.0192,115
1607179114.0212,155
1607179114.0234,198
1607179114.0253,246
1607179114.0272,304
1607179114.4324,366
1607179114.4333,428
1607179114.4356,479
1607179114.4374,512
1607179114.4393,524
1607179114.4413,510
1607179114.4433,462
1607179114.4453,373
1607179114.4473,256
1607179114.4493,129
1607179114.4513,11
1607179114.4533,-76
1607179114.4553,-143
1607179114.4573,-191
1607179114.4593,-218
1607179114.4613,-225
1607179114.4619,-227
1607179114.4633,-227
1607179114.4653,-222
1607179114.4673,-210
1607179114.4693,-198
1607179114.4713,-186
1607179114.4733,-174
1607179114.4753,-167
1607179114.4773,-158
1607179114.4793,-150
1607179114.4813,-143
1607179114.4833,-134
1607179114.4853,-129
1607179114.4872,-124
1607179114.4892,-119
1607179114.4913,-112
1607179114.4918,-110
1607179114.4933,-105
1607179114.4952,-100
1607179114.4972,-98
1607179114.4992,-98
1607179114.5012,-100
1607179114.5032,-98
1607179114.5052,-98
1607179114.5072,-103
1607179114.5093,-100
1607179114.5113,-93
1607179114.5132,-88
1607179114.5152,-88
1607179114.5172,-83
1607179114.5192,-76
1607179114.5213,-71
1607179114.5220,-71
1607179114.5233,-71
1607179114.5252,-64
1607179114.5272,-59
1607179114.5292,-59
1607179114.5313,-59
1607179114.5332,-55
1607179114.5352,-50
1607179114.5372,-47
1607179114.5392,-50
1607179114.5412,-45
1607179114.5433,-40
1607179114.5452,-38
1607179114.5472,-38
1607179114.5492,-35
1607179114.5513,-33
1607179114.5518,-38
1607179114.5532,-38
1607179114.5552,-28
1607179114.5572,-19
1607179114.5592,-2
1607179114.5612,7
1607179114.5632,7
1607179114.5652,7
1607179114.5672,14
1607179115.0325,11
1607179115.0334,-4
1607179115.0358,-21
1607179115.0385,-31
1607179115.0405,-35
1607179115.0412,-28
1607179115.0424,-21
1607179115.0445,-21
1607179115.0464,-23
1607179115.0484,-23
1607179115.0505,-19
1607179115.0524,-11
1607179115.0544,-11
1607179115.0564,-76
1607179115.0584,-268
1607179115.0604,-309
1607179115.0624,280
1607179115.0644,1485
1607179115.0664,2516
1607179115.0684,2087
1607179115.0704,266
1607179115.0710,-740
1607179115.0724,-287
1607179115.0743,-95
1607179115.0764,-364
1607179115.0784,-273
1607179115.0806,-146
1607179115.0824,-220
1607179115.0844,-210
1607179115.0864,-139
1607179115.0884,-143
1607179115.0904,-148
1607179115.0923,-122
1607179115.0943,-110
1607179115.0963,-100
1607179115.0983,-79
1607179115.1004,-59
1607179115.1010,-43
1607179115.1023,-23
1607179115.1044,-7
1607179115.1063,14
1607179115.1083,40
1607179115.1103,71
1607179115.1123,107
1607179115.1143,143
1607179115.1164,184
1607179115.1183,234
1607179115.1204,289
1607179115.1223,347
1607179115.1243,402
1607179115.1263,440
1607179115.1284,460
1607179115.1303,462
1607179115.1310,440
1607179115.1323,378
1607179115.1343,280
1607179115.1363,165
1607179115.1383,55
1607179115.1404,-35
1607179115.1423,-103
1607179115.1443,-150
1607179115.1464,-179
1607179115.1483,-194
1607179115.1504,-198
1607179115.1524,-194
1607179115.1543,-184
1607179115.1563,-174
1607179115.1583,-162
1607179115.1603,-150
1607179115.1610,-146
1607179115.1623,-141
1607179115.1644,-131
1607179115.1663,-124
1607179115.6023,-119
1607179115.6031,-117
1607179115.6055,-112
1607179115.6082,-112
1607179115.6105,-107
1607179115.6123,-100
1607179115.6145,-98
1607179115.6162,-95
1607179115.6182,-98
1607179115.6203,-100
1607179115.6222,-98
1607179115.6228,-93
1607179115.6242,-93
1607179115.6262,-91
1607179115.6282,-83
1607179115.6302,-81
1607179115.6322,-81
1607179115.6342,-79
1607179115.6362,-74
1607179115.6382,-71
1607179115.6402,-69
1607179115.6422,-67
1607179115.6443,-62
1607179115.6462,-52
1607179115.6482,-47
1607179115.6502,-52
1607179115.6522,-55
1607179115.6528,-47
1607179115.6535,-47
1607179115.6551,-47
1607179115.6571,-45
1607179115.6591,-40
1607179115.6611,-40
1607179115.6631,-40
1607179115.6651,-38
1607179115.6671,-33
1607179115.6691,-26
1607179115.6712,-26
1607179115.6731,-28
1607179115.6752,-26
1607179115.6771,-23
1607179115.6791,-19
1607179115.6798,2
1607179115.6811,16
1607179115.6831,14
1607179115.6851,16
1607179115.6871,26
1607179115.6891,14
1607179115.6912,-4
1607179115.6931,-9
1607179115.6951,-7
1607179115.6971,-14
1607179115.6991,-16
1607179115.7012,-9
1607179115.7031,-4
1607179115.7053,-2
1607179115.7072,-4
1607179115.7091,0
1607179115.7098,7
1607179115.7111,11
1607179115.7131,-31
1607179115.7151,-203
1607179115.7171,-304
1607179115.7191,160
1607179115.7212,1279
1607179115.7232,2396
1607179115.7251,2255
1607179115.7271,560
1607179115.7291,-680
1607179115.7311,-347
1607179115.7331,-40
1607179115.7351,-304
1607179115.7371,-273
1607179116.1428,-117
1607179116.1438,-177
1607179116.1462,-191
1607179116.1488,-115
1607179116.1509,-107
1607179116.1528,-119
1607179116.1549,-91
1607179116.1568,-71
1607179116.1588,-69
1607179116.1608,-59
1607179116.1628,-52
1607179116.1648,-35
1607179116.1668,-7
1607179116.1688,9
1607179116.1708,26
1607179116.1714,59
1607179116.1728,93
1607179116.1748,119
1607179116.1767,155
1607179116.1788,201
1607179116.1808,256
1607179116.1828,316
1607179116.1848,383
1607179116.1868,443
1607179116.1888,486
1607179116.1908,508
1607179116.1927,512
1607179116.1947,493
1607179116.1967,428
1607179116.1988,323
1607179116.2008,196
1607179116.2013,79
1607179116.2027,-19
1607179116.2049,-103
1607179116.2068,-167
1607179116.2087,-203
1607179116.2107,-213
1607179116.2127,-213
1607179116.2147,-215
1607179116.2167,-215
1607179116.2187,-206
1607179116.2208,-189
1607179116.2227,-179
1607179116.2247,-174
1607179116.2267,-165
1607179116.2287,-155
1607179116.2307,-141
1607179116.2313,-129
1607179116.2327,-131
1607179116.2347,-131
1607179116.2367,-122
1607179116.2387,-115
1607179116.2408,-122
1607179116.2427,-127
1607179116.2447,-115
1607179116.2467,-105
1607179116.2487,-103
1607179116.2507,-100
1607179116.2527,-93
1607179116.2547,-88
1607179116.2567,-95
1607179116.2587,-95
1607179116.2607,-88
1607179116.2614,-88
1607179116.2627,-86
1607179116.2647,-76
1607179116.2667,-67
1607179116.2687,-67
1607179116.2708,-69
1607179116.2727,-69
1607179116.2747,-62
1607179116.2767,-55
1607179116.2787,-52
1607179116.7128,-55
1607179116.7137,-55
1607179116.7161,-47
1607179116.7179,-43
1607179116.7185,-40
1607179116.7198,-33
1607179116.7217,-38
1607179116.7237,-47
1607179116.7257,-43
1607179116.7277,-35
1607179116.7297,-38
1607179116.7319,-38
1607179116.7337,-28
1607179116.7357,-19
1607179116.7377,-11
1607179116.7397,0
1607179116.7417,4
1607179116.7437,-4
1607179116.7457,-21
1607179116.7477,-35
1607179116.7483,-40
1607179116.7498,-31
1607179116.7517,-23
1607179116.7537,-26
1607179116.7557,-21
1607179116.7577,-16
1607179116.7597,-19
1607179116.7617,-11
1607179116.7637,-7
1607179116.7657,-7
1607179116.7677,-23
1607179116.7698,-162
1607179116.7716,-354
1607179116.7737,-105
1607179116.7756,922
1607179116.7776,2250
1607179116.7783,2566
1607179116.7797,982
1607179116.7816,-726
1607179116.7837,-575
1607179116.7857,0
1607179116.7876,-256
1607179116.7897,-342
1607179116.7916,-107
1607179116.7936,-131
1607179116.7956,-203
1607179116.7977,-129
1607179116.7997,-95
1607179116.8016,-110
1607179116.8036,-83
1607179116.8056,-55
1607179116.8076,-50
1607179116.8083,-38
1607179116.8097,-19
1607179116.8116,-2
1607179116.8136,16
1607179116.8156,35
1607179116.8177,55
1607179116.8197,86
1607179116.8216,119
1607179116.8236,150
1607179116.8256,186
1607179116.8278,234
1607179116.8297,289
1607179116.8316,349
1607179116.8337,412
1607179116.8356,474
1607179116.8376,527
1607179116.8383,556
1607179116.8398,556
1607179116.8416,534
1607179116.8436,472
1607179116.8457,361
1607179117.2528,222
1607179117.2536,86
1607179117.2560,-26
1607179117.2577,-112
1607179117.2597,-182
1607179117.2616,-222
1607179117.2636,-234
1607179117.2656,-244
1607179117.2676,-256
1607179117.2682,-254
1607179117.2696,-242
1607179117.2716,-230
1607179117.2736,-213
1607179117.2756,-196
1607179117.2776,-186
1607179117.2796,-182
1607179117.2816,-174
1607179117.2836,-165
1607179117.2856,-153
1607179117.2876,-143
1607179117.2896,-139
1607179117.2916,-131
1607179117.2936,-127
1607179117.2957,-119
1607179117.2976,-112
1607179117.2982,-110
1607179117.2996,-110
1607179117.3016,-105
1607179117.3036,-103
1607179117.3056,-98
1607179117.3076,-98
1607179117.3096,-95
1607179117.3116,-88
1607179117.3136,-88
1607179117.3156,-88
1607179117.3177,-81
1607179117.3196,-76
1607179117.3216,-79
1607179117.3236,-74
1607179117.3256,-67
1607179117.3277,-67
1607179117.3283,-64
1607179117.3296,-57
1607179117.3316,-55
1607179117.3336,-50
1607179117.3356,-45
1607179117.3376,-45
1607179117.3396,-43
1607179117.3416,-35
1607179117.3436,-28
1607179117.3456,-31
1607179117.3476,-33
1607179117.3496,-35
1607179117.3516,-31
1607179117.3536,-26
1607179117.3556,-11
1607179117.3576,7
1607179117.3582,14
1607179117.3597,14
1607179117.3616,19
1607179117.3636,23
1607179117.3656,11
1607179117.3676,-9
1607179117.3696,-16
1607179117.3716,-11
1607179117.3736,-9
1607179117.3756,-7
1607179117.3776,-4
1607179117.3796,-7
1607179117.3816,-14
1607179117.3836,-16
1607179117.3856,-11
1607179117.3876,-2
1607179117.8528,-4
1607179117.8537,-83
1607179117.8561,-282
1607179117.8588,-282
1607179117.8607,385
1607179117.8627,1636
1607179117.8648,2605
1607179117.8667,1998
1607179117.8687,88
1607179117.8708,-774
1607179117.8727,-227
1607179117.8748,-100
1607179117.8767,-373
1607179117.8787,-246
1607179117.8793,-127
1607179117.8807,-210
1607179117.8827,-191
1607179117.8847,-122
1607179117.8869,-131
1607179117.8888,-127
1607179117.8907,-93
1607179117.8926,-81
1607179117.8946,-71
1607179117.8966,-47
1607179117.8986,-33
1607179117.9007,-23
1607179117.9026,-2
1607179117.9047,19
1607179117.9066,38
1607179117.9087,62
1607179117.9093,91
1607179117.9106,122
1607179117.9126,162
1607179117.9146,208
1607179117.9166,256
1607179117.9186,313
1607179117.9207,371
1607179117.9226,424
1607179117.9246,462
1607179117.9266,481
1607179117.9286,476
1607179117.9306,443
1607179117.9326,369
1607179117.9346,258
1607179117.9366,136
1607179117.9386,28
1607179117.9392,-59
1607179117.9407,-124
1607179117.9426,-170
1607179117.9446,-198
1607179117.9466,-215
1607179117.9486,-220
1607179117.9506,-215
1607179117.9526,-203
1607179117.9546,-191
1607179117.9566,-179
1607179117.9586,-170
1607179117.9606,-165
1607179117.9626,-158
1607179117.9646,-150
1607179117.9666,-143
1607179117.9686,-136
1607179117.9692,-136
1607179117.9707,-139
1607179117.9726,-134
1607179117.9746,-127
1607179117.9766,-119
1607179117.9786,-115
1607179117.9806,-112
1607179117.9828,-110
1607179117.9847,-105
1607179117.9866,-100
1607179117.9886,-95
1607179118.4228,-88
1607179118.4237,-88
1607179118.4262,-88
1607179118.4288,-86
1607179118.4308,-81
1607179118.4314,-76
1607179118.4328,-79
1607179118.4347,-83
1607179118.4369,-76
1607179118.4389,-71
1607179118.4409,-74
1607179118.4428,-76
1607179118.4447,-69
1607179118.4467,-64
1607179118.4487,-62
1607179118.4508,-57
1607179118.4527,-50
1607179118.4548,-47
1607179118.4567,-47
1607179118.4587,-45
1607179118.4607,-40
1607179118.4613,-35
1607179118.4627,-33
1607179118.4647,-31
1607179118.4667,-26
1607179118.4687,-21
1607179118.4707,-23
1607179118.4727,-28
1607179118.4747,-21
1607179118.4768,-11
1607179118.4787,-2
1607179118.4807,19
1607179118.4827,26
1607179118.4847,21
1607179118.4867,23
1607179118.4887,35
1607179118.4907,26
1607179118.4913,2
1607179118.4927,-7
1607179118.4947,-2
1607179118.4967,2
1607179118.4987,2
1607179118.5007,4
1607179118.5027,7
1607179118.5047,9
1607179118.5067,11
1607179118.5087,14
1607179118.5109,19
1607179118.5127,23
1607179118.5147,-33
1607179118.5167,-220
1607179118.5187,-275
1607179118.5207,268
1607179118.5213,1421
1607179118.5227,2454
1607179118.5247,2149
1607179118.5267,438
1607179118.5287,-647
1607179118.5307,-292
1607179118.5327,-62
1607179118.5347,-306
1607179118.5367,-251
1607179118.5387,-117
1607179118.5407,-174
1607179118.5427,-174
1607179118.5447,-110
1607179118.5467,-107
1607179118.5487,-105
1607179118.5507,-74
1607179118.5513,-59
1607179118.5527,-52
1607179118.5547,-31
1607179118.5567,-14
1607179118.9622,0
1607179118.9628,16
1607179118.9652,40
1607179118.9679,59
1607179118.9699,83
1607179118.9719,110
1607179118.9740,143
1607179118.9759,177
1607179118.9779,213
1607179118.9785,258
1607179118.9799,309
1607179118.9818,357
1607179118.9838,397
1607179118.9858,436
1607179118.9879,460
1607179118.9899,460
1607179118.9918,436
1607179118.9938,381
1607179118.9958,287
1607179118.9978,167
1607179118.9999,57
1607179119.0018,-26
1607179119.0038,-95
1607179119.0058,-146
1607179119.0078,-174
1607179119.0163,-184
1607179119.0178,-189
1607179119.0199,-189
1607179119.0218,-177
1607179119.0238,-160
1607179119.0258,-148
1607179119.0278,-146
1607179119.0299,-141
1607179119.0318,-129
1607179119.0338,-119
1607179119.0358,-117
1607179119.0378,-115
1607179119.0399,-112
1607179119.0418,-107
1607179119.0438,-100
1607179119.0444,-95
1607179119.0457,-95
1607179119.0478,-91
1607179119.0499,-83
1607179119.0518,-81
1607179119.0538,-81
1607179119.0558,-79
1607179119.0578,-79
1607179119.0598,-86
1607179119.0618,-86
1607179119.0638,-76
1607179119.0658,-69
1607179119.0678,-69
1607179119.0699,-64
1607179119.0718,-57
1607179119.0738,-59
1607179119.0744,-62
1607179119.0758,-55
1607179119.0778,-50
1607179119.0799,-47
1607179119.0818,-43
1607179119.0838,-38
1607179119.0858,-40
1607179119.0878,-35
1607179119.0899,-28
1607179119.0918,-26
1607179119.0938,-23
1607179119.0958,-21
1607179119.0978,-21
1607179119.0998,-19
1607179119.1018,-19
1607179119.1038,-16
1607179119.1045,-7
1607179119.5029,-9
1607179119.5038,-23
1607179119.5062,-21
1607179119.5091,-2
1607179119.5108,0
1607179119.5128,-11
1607179119.5148,-7
1607179119.5168,-2
1607179119.5188,-9
1607179119.5208,-7
1607179119.5228,14
1607179119.5248,23
1607179119.5268,19
1607179119.5288,28
1607179119.5308,35
1607179119.5315,14
1607179119.5328,-7
1607179119.5348,-7
1607179119.5368,0
1607179119.5388,-2
1607179119.5408,-4
1607179119.5428,4
1607179119.5448,11
1607179119.5468,4
1607179119.5488,0
1607179119.5508,7
1607179119.5528,19
1607179119.5548,19
1607179119.5568,-55
1607179119.5588,-254
1607179119.5607,-282
1607179119.5614,337
1607179119.5628,1572
1607179119.5647,2588
1607179119.5668,2049
1607179119.5687,127
1607179119.5708,-790
1607179119.5727,-208
1607179119.5748,-43
1607179119.5768,-345
1607179119.5788,-222
1607179119.5808,-93
1607179119.5827,-182
1607179119.5847,-162
1607179119.5868,-91
1607179119.5887,-100
1607179119.5907,-91
1607179119.5914,-50
1607179119.5927,-45
1607179119.5947,-47
1607179119.5967,-31
1607179119.5988,-11
1607179119.6008,9
1607179119.6027,28
1607179119.6050,55
1607179119.6068,81
1607179119.6088,100
1607179119.6108,131
1607179119.6127,177
1607179119.6147,220
1607179119.6168,258
1607179119.6189,318
1607179119.6208,390
1607179119.6215,452
1607179119.6228,510
1607179119.6247,558
1607179119.6269,587
1607179119.6288,587
1607179119.6308,556
1607179119.6327,479
1607179119.6348,357
1607179119.6368,210
1607179119.6387,76
1607179120.0729,-28
1607179120.0737,-100
1607179120.0762,-167
1607179120.0789,-210
1607179120.0795,-218
1607179120.0818,-215
1607179120.0839,-222
1607179120.0858,-230
1607179120.0878,-215
1607179120.0899,-203
1607179120.0918,-206
1607179120.0938,-194
1607179120.0958,-170
1607179120.0978,-165
1607179120.0999,-162
1607179120.1018,-148
1607179120.1038,-136
1607179120.1058,-127
1607179120.1077,-129
1607179120.1098,-124
1607179120.1104,-110
1607179120.1118,-100
1607179120.1138,-103
1607179120.1158,-107
1607179120.1178,-107
1607179120.1198,-103
1607179120.1217,-100
1607179120.1237,-95
1607179120.1257,-83
1607179120.1277,-83
1607179120.1298,-93
1607179120.1317,-93
1607179120.1339,-79
1607179120.1358,-69
1607179120.1377,-83
1607179120.1398,-93
1607179120.1403,-74
1607179120.1417,-64
1607179120.1437,-71
1607179120.1458,-67
1607179120.1477,-47
1607179120.1498,-50
1607179120.1517,-64
1607179120.1537,-52
1607179120.1557,-40
1607179120.1577,-40
1607179120.1597,-43
1607179120.1617,-40
1607179120.1637,-40
1607179120.1657,-43
1607179120.1677,-35
1607179120.1698,-16
1607179120.1703,-19
1607179120.1717,-26
1607179120.1737,-7
1607179120.1757,9
1607179120.1777,7
1607179120.1797,9
1607179120.1817,14
1607179120.1837,-2
1607179120.1857,-26
1607179120.1877,-31
1607179120.1898,-21
1607179120.1917,-21
1607179120.1937,-21
1607179120.1957,-14
1607179120.1977,-19
1607179120.1998,-19
1607179120.2003,-2
1607179120.2017,2
1607179120.2037,-2
1607179120.2057,-2
1607179120.2077,-47
1607179120.6424,-237
1607179120.6429,-369
1607179120.6442,117
1607179120.6462,1366
1607179120.6468,2605
1607179120.6483,2406
1607179120.6502,431
1607179120.6522,-965
1607179120.6542,-424
1607179120.6562,11
1607179120.6584,-349
1607179120.6602,-301
1607179120.6622,-79
1607179120.6642,-162
1607179120.6662,-184
1607179120.6682,-91
1607179120.6702,-93
1607179120.6722,-112
1607179120.6742,-71
1607179120.6762,-43
1607179120.6768,-31
1607179120.6782,-26
1607179120.6802,-21
1607179120.6822,16
1607179120.6842,57
1607179120.6862,59
1607179120.6882,69
1607179120.6902,119
1607179120.6922,162
1607179120.6942,182
1607179120.6962,218
1607179120.6982,282
1607179120.7002,347
1607179120.7022,417
1607179120.7042,508
1607179120.7062,589
1607179120.7082,618
1607179120.7102,639
1607179120.7122,659
1607179120.7142,613
1607179120.7162,512
1607179120.7182,383
1607179120.7202,218
1607179120.7222,64
1607179120.7228,-52
1607179120.7242,-141
1607179120.7262,-208
1607179120.7282,-251
1607179120.7302,-261
1607179120.7322,-258
1607179120.7342,-266
1607179120.7362,-256
1607179120.7382,-234
1607179120.7402,-225
1607179120.7422,-222
1607179120.7442,-222
1607179120.7462,-227
1607179120.7482,-206
1607179120.7502,-167
1607179120.7522,-158
1607179120.7528,-155
1607179120.7544,-139
1607179120.7562,-129
1607179120.7582,-129
1607179120.7602,-119
1607179120.7622,-115
1607179120.7642,-112
1607179120.7662,-105
1607179120.7669,-100
1607179120.7682,-93
1607179120.7702,-110
1607179120.7722,-119
1607179120.7742,-86
1607179121.2125,-81
1607179121.2131,-110
1607179121.2147,-95
1607179121.2172,-74
1607179121.2192,-100
1607179121.2212,-124
1607179121.2232,-105
1607179121.2252,-76
1607179121.2272,-83
1607179121.2292,-88
1607179121.2311,-55
1607179121.2331,-35
1607179121.2353,-57
1607179121.2372,-74
1607179121.2391,-52
1607179121.2412,-38
1607179121.2431,-62
1607179121.2451,-76
1607179121.2458,-64
1607179121.2472,-55
1607179121.2492,-69
1607179121.2512,-83
1607179121.2531,-74
1607179121.2551,-50
1607179121.2571,-45
1607179121.2591,-45
1607179121.2612,-21
1607179121.2631,-16
1607179121.2651,-40
1607179121.2671,-64
1607179121.2691,-215
1607179121.2712,-407
1607179121.2731,-43
1607179121.2751,1183
1607179121.2758,2545
1607179121.2771,2605
1607179121.2791,766
1607179121.2811,-917
1607179121.2831,-591
1607179121.2853,14
1607179121.2872,-294
1607179121.2891,-361
1607179121.2912,-107
1607179121.2931,-143
1607179121.2951,-213
1607179121.2972,-131
1607179121.2991,-100
1607179121.3012,-107
1607179121.3031,-69
1607179121.3051,-40
1607179121.3058,-43
1607179121.3071,-40
1607179121.3092,-11
1607179121.3111,26
1607179121.3131,55
1607179121.3151,62
1607179121.3171,57
1607179121.3191,93
1607179121.3212,160
1607179121.3231,218
1607179121.3251,261
1607179121.3271,287
1607179121.3291,354
1607179121.3311,467
1607179121.3331,544
1607179121.3352,577
1607179121.3358,635
1607179121.3371,699
1607179121.3391,666
1607179121.3412,551
1607179121.3432,450
1607179121.3452,335
1607179121.3471,150
1607179121.7828,-23
1607179121.7836,-136
1607179121.7860,-225
1607179121.7887,-287
1607179121.7907,-292
1607179121.7927,-275
1607179121.7947,-275
1607179121.7954,-311
1607179121.7967,-330
1607179121.7987,-292
1607179121.8007,-275
1607179121.8026,-273
1607179121.8046,-249
1607179121.8067,-251
1607179121.8087,-256
1607179121.8106,-222
1607179121.8126,-194
1607179121.8148,-172
1607179121.8167,-148
1607179121.8187,-143
1607179121.8207,-141
1607179121.8226,-136
1607179121.8246,-124
1607179121.8252,-110
1607179121.8266,-112
1607179121.8286,-105
1607179121.8307,-100
1607179121.8326,-107
1607179121.8346,-103
1607179121.8366,-98
1607179121.8386,-110
1607179121.8406,-105
1607179121.8427,-86
1607179121.8446,-95
1607179121.8466,-95
1607179121.8486,-76
1607179121.8506,-74
1607179121.8526,-81
1607179121.8533,-79
1607179121.8546,-69
1607179121.8566,-55
1607179121.8586,-55
1607179121.8607,-55
1607179121.8626,-47
1607179121.8646,-59
1607179121.8666,-62
1607179121.8686,-43
1607179121.8706,-33
1607179121.8726,-33
1607179121.8746,-28
1607179121.8766,-35
1607179121.8788,-31
1607179121.8807,7
1607179121.8812,23
1607179121.8826,7
1607179121.8846,-2
1607179121.8866,0
1607179121.8886,9
1607179121.8906,0
1607179121.8926,-26
1607179121.8946,-31
1607179121.8966,-19
1607179121.8986,-11
1607179121.9006,-9
1607179121.9026,-28
1607179121.9046,-35
1607179121.9066,-7
1607179121.9086,2
1607179121.9107,-11
1607179121.9113,-7
1607179121.9126,-95
1607179121.9146,-328
1607179121.9166,-318
1607179122.3228,443
1607179122.3236,1857
1607179122.3261,2897
1607179122.3287,2188
1607179122.3307,47
1607179122.3326,-961
1607179122.3347,-254
1607179122.3366,-14
1607179122.3386,-402
1607179122.3407,-292
1607179122.3426,-105
1607179122.3433,-196
1607179122.3446,-194
1607179122.3466,-124
1607179122.3487,-136
1607179122.3507,-117
1607179122.3526,-69
1607179122.3546,-79
1607179122.3566,-81
1607179122.3586,-35
1607179122.3606,-11
1607179122.3626,-9
1607179122.3646,11
1607179122.3666,45
1607179122.3686,74
1607179122.3707,100
1607179122.3726,129
1607179122.3732,186
1607179122.3746,251
1607179122.3766,285
1607179122.3786,323
1607179122.3807,407
1607179122.3826,491
1607179122.3846,546
1607179122.3866,591
1607179122.3886,608
1607179122.3906,589
1607179122.3926,536
1607179122.3946,428
1607179122.3966,270
1607179122.3986,124
1607179122.4006,0
1607179122.4026,-117
1607179122.4032,-189
1607179122.4046,-210
1607179122.4066,-239
1607179122.4088,-268
1607179122.4106,-266
1607179122.4126,-251
1607179122.4146,-242
1607179122.4166,-220
1607179122.4186,-198
1607179122.4206,-213
1607179122.4226,-222
1607179122.4246,-189
1607179122.4266,-174
1607179122.4286,-182
1607179122.4306,-158
1607179122.4326,-136
1607179122.4332,-153
1607179122.4346,-146
1607179122.4366,-124
1607179122.4386,-119
1607179122.4406,-107
1607179122.4426,-100
1607179122.4446,-110
1607179122.4466,-107
1607179122.4486,-95
1607179122.4506,-98
1607179122.4526,-100
1607179122.4546,-107
1607179122.4566,-119
1607179122.4586,-107
1607179122.8929,-81
1607179122.8938,-76
1607179122.8962,-81
1607179122.8989,-86
1607179122.9009,-91
1607179122.9028,-86
1607179122.9048,-83
1607179122.9068,-74
1607179122.9088,-57
1607179122.9108,-57
1607179122.9128,-76
1607179122.9148,-83
1607179122.9168,-64
1607179122.9188,-52
1607179122.9208,-64
1607179122.9228,-64
1607179122.9234,-45
1607179122.9247,-43
1607179122.9267,-57
1607179122.9288,-52
1607179122.9307,-38
1607179122.9327,-40
1607179122.9348,-35
1607179122.9368,-7
1607179122.9389,-2
1607179122.9408,-31
1607179122.9427,-23
1607179122.9447,14
1607179122.9467,35
1607179122.9487,21
1607179122.9508,-21
1607179122.9527,-38
1607179122.9533,-28
1607179122.9547,-28
1607179122.9567,-21
1607179122.9587,-7
1607179122.9607,-4
1607179122.9627,-9
1607179122.9647,0
1607179122.9668,-4
1607179122.9687,-23
1607179122.9708,-7
1607179122.9727,-19
1607179122.9747,-232
1607179122.9767,-424
1607179122.9787,28
1607179122.9807,1277
1607179122.9827,2605
1607179122.9834,2753
1607179122.9847,1047
1607179122.9867,-735
1607179122.9887,-608
1607179122.9908,-11
1607179122.9927,-282
1607179122.9947,-390
1607179122.9967,-150
1607179122.9987,-162
1607179123.0011,-222
1607179123.0028,-143
1607179123.0047,-119
1607179123.0067,-124
1607179123.0087,-88
1607179123.0107,-81
1607179123.0127,-88
1607179123.0133,-59
1607179123.0147,-31
1607179123.0167,-19
1607179123.0187,-2
1607179123.0208,31
1607179123.0227,57
1607179123.0247,74
1607179123.0267,95
1607179123.0287,148
1607179123.4324,208
1607179123.4333,244
1607179123.4360,285
1607179123.4384,366
1607179123.4403,443
1607179123.4423,491
1607179123.4444,546
1607179123.4451,599
1607179123.4463,599
1607179123.4483,556
1607179123.4504,481
1607179123.4523,361
1607179123.4543,213
1607179123.4563,67
1607179123.4583,-40
1607179123.4603,-124
1607179123.4623,-194
1607179123.4643,-220
1607179123.4663,-232
1607179123.4683,-266
1607179123.4703,-268
1607179123.4723,-232
1607179123.4743,-213
1607179123.4749,-220
1607179123.4763,-218
1607179123.4783,-191
1607179123.4803,-170
1607179123.4823,-177
1607179123.4843,-179
1607179123.4863,-170
1607179123.4883,-165
1607179123.4903,-153
1607179123.4922,-143
1607179123.4942,-148
1607179123.4963,-148
1607179123.4982,-143
1607179123.5003,-139
1607179123.5022,-127
1607179123.5042,-124
1607179123.5049,-134
1607179123.5062,-129
1607179123.5082,-107
1607179123.5102,-98
1607179123.5122,-103
1607179123.5142,-107
1607179123.5162,-103
1607179123.5182,-83
1607179123.5203,-62
1607179123.5222,-76
1607179123.5242,-98
1607179123.5262,-86
1607179123.5282,-67
1607179123.5302,-62
1607179123.5324,-64
1607179123.5343,-57
1607179123.5348,-52
1607179123.5362,-55
1607179123.5382,-50
1607179123.5403,-43
1607179123.5422,-47
1607179123.5442,-52
1607179123.5462,-45
1607179123.5482,-43
1607179123.5503,-43
1607179123.5523,-35
1607179123.5542,-26
1607179123.5562,-23
1607179123.5582,-28
1607179123.5602,-35
1607179123.5622,-35
1607179123.5642,-23
1607179123.5648,-21
1607179123.5662,-23
1607179124.0029,-2
1607179124.0039,21
1607179124.0063,23
1607179124.0090,19
1607179124.0110,21
1607179124.0129,11
1607179124.0150,0
1607179124.0171,-4
