Time,ECG
1605960427.9802,-109
1605960427.9826,417
1605960427.9852,2402
1605960427.9879,5302
1605960427.9903,7148
1605960427.9924,8105
1605960427.9948,9277
1605960427.9969,10290
1605960427.9990,10927
1605960428.0010,11560
1605960428.0026,12143
1605960428.0046,12553
1605960428.0066,12929
1605960428.0086,13300
1605960428.0106,13579
1605960428.0126,13803
1605960428.0146,14023
1605960428.0166,14221
1605960428.0186,14382
1605960428.0206,14506
1605960428.0226,14626
1605960428.0246,14741
1605960428.0266,14821
1605960428.0286,14890
1605960428.0306,14978
1605960428.0326,15053
1605960428.0346,15100
1605960428.0366,15144
1605960428.0386,15192
1605960428.0405,15227
1605960428.0425,15249
1605960428.0445,15278
1605960428.0465,15297
1605960428.0485,15300
1605960428.0506,15290
1605960428.0525,15292
1605960428.0545,15292
1605960428.0566,15239
1605960428.0585,15180
1605960428.0606,15153
1605960428.0625,15112
1605960428.0645,15070
1605960428.0665,15019
1605960428.0685,14953
1605960428.0705,14919
1605960428.0725,14877
1605960428.0745,14797
1605960428.0765,14738
1605960428.0785,14697
1605960428.0806,14631
1605960428.0827,14555
1605960428.0846,14494
1605960428.0865,14433
1605960428.0885,14357
1605960428.0905,14284
1605960428.0925,14216
1605960428.0945,14150
1605960428.0965,14072
1605960428.0985,13991
1605960428.1005,13933
1605960428.1025,13854
1605960428.1045,13742
1605960428.1065,13647
1605960428.1085,13574
1605960428.1105,13486
1605960428.1125,13395
1605960428.1145,13317
1605960428.1165,13249
1605960428.1185,13173
1605960428.1205,13078
1605960428.1225,12978
1605960428.1245,12897
1605960428.1265,12819
1605960428.5187,12719
1605960428.5198,12619
1605960428.5222,12524
1605960428.5249,12314
1605960428.5269,11923
1605960428.5289,11716
1605960428.5310,12165
1605960428.5329,12749
1605960428.5349,12500
1605960428.5369,11887
1605960428.5389,11782
1605960428.5408,11784
1605960428.5428,11550
1605960428.5449,11430
1605960428.5468,11408
1605960428.5488,11286
1605960428.5509,11166
1605960428.5528,11098
1605960428.5548,11010
1605960428.5568,10903
1605960428.5588,10812
1605960428.5609,10727
1605960428.5628,10634
1605960428.5648,10537
1605960428.5668,10434
1605960428.5688,10339
1605960428.5708,10244
1605960428.5728,10146
1605960428.5750,10065
1605960428.5769,9960
1605960428.5788,9838
1605960428.5808,9750
1605960428.5828,9665
1605960428.5848,9565
1605960428.5868,9470
1605960428.5888,9384
1605960428.5908,9309
1605960428.5928,9243
1605960428.5949,9160
1605960428.5968,9074
1605960428.5988,9006
1605960428.6008,8942
1605960428.6028,8869
1605960428.6048,8803
1605960428.6068,8737
1605960428.6088,8671
1605960428.6108,8608
1605960428.6128,8532
1605960428.6148,8457
1605960428.6168,8388
1605960428.6188,8303
1605960428.6208,8210
1605960428.6228,8129
1605960428.6248,8051
1605960428.6268,7971
1605960428.6288,7885
1605960428.6308,7802
1605960428.6328,7724
1605960428.6348,7651
1605960428.6368,7578
1605960428.6388,7504
1605960428.6408,7436
1605960428.6428,7363
1605960428.6448,7280
1605960428.6468,7216
1605960428.6488,7153
1605960428.6508,7070
1605960428.6528,6997
1605960428.6548,6936
1605960428.6568,6865
1605960428.6588,6799
1605960428.6608,6733
1605960428.6628,6672
1605960429.0885,6611
1605960429.0895,6542
1605960429.0919,6479
1605960429.0945,6406
1605960429.0965,6320
1605960429.0985,6247
1605960429.1008,6188
1605960429.1025,6140
1605960429.1045,6088
1605960429.1065,6008
1605960429.1085,5942
1605960429.1106,5900
1605960429.1125,5844
1605960429.1145,5766
1605960429.1166,5708
1605960429.1185,5661
1605960429.1205,5598
1605960429.1224,5532
1605960429.1245,5410
1605960429.1264,5112
1605960429.1285,4826
1605960429.1305,5080
1605960429.1325,5761
1605960429.1345,5861
1605960429.1365,5288
1605960429.1385,5012
1605960429.1405,5075
1605960429.1424,4985
1605960429.1445,4875
1605960429.1465,4865
1605960429.1485,4819
1605960429.1505,4746
1605960429.1524,4697
1605960429.1544,4648
1605960429.1564,4592
1605960429.1584,4548
1605960429.1605,4504
1605960429.1624,4445
1605960429.1645,4394
1605960429.1664,4355
1605960429.1684,4301
1605960429.1705,4245
1605960429.1725,4194
1605960429.1744,4143
1605960429.1764,4086
1605960429.1785,4040
1605960429.1805,3994
1605960429.1824,3935
1605960429.1845,3886
1605960429.1864,3857
1605960429.1884,3823
1605960429.1904,3779
1605960429.1924,3740
1605960429.1944,3710
1605960429.1965,3681
1605960429.1984,3649
1605960429.2005,3615
1605960429.2027,3596
1605960429.2045,3579
1605960429.2065,3554
1605960429.2085,3542
1605960429.2105,3530
1605960429.2124,3496
1605960429.2144,3454
1605960429.2164,3425
1605960429.2184,3395
1605960429.2205,3354
1605960429.2224,3317
1605960429.2244,3281
1605960429.2264,3242
1605960429.2284,3205
1605960429.2305,3171
1605960429.2324,3142
1605960429.6585,3107
1605960429.6593,3073
1605960429.6617,3044
1605960429.6643,3012
1605960429.6663,2988
1605960429.6683,2963
1605960429.6705,2927
1605960429.6724,2895
1605960429.6743,2873
1605960429.6763,2846
1605960429.6783,2805
1605960429.6804,2768
1605960429.6823,2751
1605960429.6843,2727
1605960429.6863,2697
1605960429.6883,2663
1605960429.6903,2631
1605960429.6923,2612
1605960429.6943,2587
1605960429.6963,2561
1605960429.6983,2546
1605960429.7003,2519
1605960429.7023,2475
1605960429.7043,2441
1605960429.7063,2424
1605960429.7083,2399
1605960429.7103,2365
1605960429.7123,2351
1605960429.7143,2351
1605960429.7163,2329
1605960429.7183,2299
1605960429.7203,2285
1605960429.7223,2268
1605960429.7243,2238
1605960429.7263,2214
1605960429.7285,2192
1605960429.7303,2163
1605960429.7323,2048
1605960429.7343,1772
1605960429.7363,1574
1605960429.7383,1962
1605960429.7403,2666
1605960429.7423,2668
1605960429.7443,2116
1605960429.7463,1950
1605960429.7483,2038
1605960429.7503,1953
1605960429.7523,1887
1605960429.7543,1906
1605960429.7563,1882
1605960429.7583,1850
1605960429.7603,1850
1605960429.7623,1823
1605960429.7643,1787
1605960429.7663,1772
1605960429.7683,1762
1605960429.7703,1738
1605960429.7723,1713
1605960429.7743,1694
1605960429.7763,1677
1605960429.7783,1655
1605960429.7803,1633
1605960429.7823,1613
1605960429.7843,1584
1605960429.7862,1555
1605960429.7883,1535
1605960429.7903,1518
1605960429.7923,1503
1605960429.7943,1479
1605960429.7963,1462
1605960429.7983,1457
1605960429.8003,1455
1605960429.8023,1450
1605960430.1988,1450
1605960430.1996,1445
1605960430.2020,1442
1605960430.2046,1437
1605960430.2066,1447
1605960430.2086,1455
1605960430.2107,1452
1605960430.2126,1445
1605960430.2146,1435
1605960430.2166,1435
1605960430.2186,1428
1605960430.2206,1401
1605960430.2226,1386
1605960430.2248,1376
1605960430.2267,1357
1605960430.2287,1337
1605960430.2307,1328
1605960430.2326,1318
1605960430.2347,1301
1605960430.2366,1289
1605960430.2386,1286
1605960430.2406,1279
1605960430.2426,1267
1605960430.2446,1252
1605960430.2466,1242
1605960430.2486,1242
1605960430.2506,1235
1605960430.2526,1220
1605960430.2546,1213
1605960430.2566,1210
1605960430.2586,1206
1605960430.2606,1188
1605960430.2626,1174
1605960430.2646,1171
1605960430.2666,1162
1605960430.2686,1154
1605960430.2707,1149
1605960430.2726,1137
1605960430.2746,1123
1605960430.2766,1115
1605960430.2786,1118
1605960430.2806,1118
1605960430.2826,1096
1605960430.2846,1062
1605960430.2866,1042
1605960430.2886,1042
1605960430.2906,1040
1605960430.2926,1032
1605960430.2946,1035
1605960430.2966,1037
1605960430.2986,1027
1605960430.3006,1018
1605960430.3026,1008
1605960430.3046,998
1605960430.3066,993
1605960430.3086,983
1605960430.3106,979
1605960430.3126,937
1605960430.3146,739
1605960430.3166,456
1605960430.3186,566
1605960430.3206,1259
1605960430.3226,1667
1605960430.3246,1245
1605960430.3268,852
1605960430.3287,915
1605960430.3306,915
1605960430.3326,825
1605960430.3346,844
1605960430.3366,861
1605960430.3386,827
1605960430.3406,817
1605960430.3426,822
1605960430.7381,798
1605960430.7388,783
1605960430.7413,786
1605960430.7439,773
1605960430.7459,754
1605960430.7479,742
1605960430.7501,734
1605960430.7519,715
1605960430.7539,688
1605960430.7559,681
1605960430.7579,678
1605960430.7599,661
1605960430.7619,644
1605960430.7638,639
1605960430.7658,642
1605960430.7679,632
1605960430.7699,617
1605960430.7718,617
1605960430.7738,629
1605960430.7758,639
1605960430.7778,646
1605960430.7799,651
1605960430.7818,656
1605960430.7846,666
1605960430.7858,678
1605960430.7879,695
1605960430.7899,708
1605960430.7918,715
1605960430.7938,720
1605960430.7958,717
1605960430.7978,722
1605960430.7999,727
1605960430.8018,722
1605960430.8038,705
1605960430.8058,695
1605960430.8078,688
1605960430.8099,681
1605960430.8118,676
1605960430.8138,673
1605960430.8158,661
1605960430.8178,654
1605960430.8198,656
1605960430.8220,654
1605960430.8239,656
1605960430.8259,656
1605960430.8278,646
1605960430.8299,637
1605960430.8318,642
1605960430.8338,649
1605960430.8358,644
1605960430.8378,629
1605960430.8399,625
1605960430.8418,625
1605960430.8438,629
1605960430.8458,629
1605960430.8478,620
1605960430.8499,617
1605960430.8518,617
1605960430.8538,612
1605960430.8558,605
1605960430.8578,607
1605960430.8599,612
1605960430.8618,603
1605960430.8639,588
1605960430.8659,566
1605960430.8679,541
1605960430.8700,541
1605960430.8718,551
1605960430.8738,544
1605960430.8758,546
1605960430.8778,561
1605960430.8799,571
1605960430.8818,566
1605960431.3685,556
1605960431.3695,551
1605960431.3719,546
1605960431.3746,534
1605960431.3765,532
1605960431.3785,488
1605960431.3807,280
1605960431.3825,12
1605960431.3845,163
1605960431.3865,871
1605960431.3885,1235
1605960431.3904,791
1605960431.3925,437
1605960431.3944,520
1605960431.3964,520
1605960431.3984,429
1605960431.4005,454
1605960431.4024,476
1605960431.4044,439
1605960431.4064,434
1605960431.4086,444
1605960431.4105,427
1605960431.4124,419
1605960431.4144,424
1605960431.4164,417
1605960431.4184,410
1605960431.4205,410
1605960431.4224,402
1605960431.4244,390
1605960431.4264,380
1605960431.4284,375
1605960431.4305,373
1605960431.4324,361
1605960431.4344,346
1605960431.4364,339
1605960431.4384,341
1605960431.4404,339
1605960431.4424,334
1605960431.4444,339
1605960431.4464,341
1605960431.4484,344
1605960431.4505,356
1605960431.4524,371
1605960431.4544,380
1605960431.4564,388
1605960431.4584,402
1605960431.4605,424
1605960431.4624,437
1605960431.4644,449
1605960431.4664,466
1605960431.4684,471
1605960431.4704,471
1605960431.4724,468
1605960431.4744,461
1605960431.4764,454
1605960431.4784,446
1605960431.4805,437
1605960431.4824,424
1605960431.4844,419
1605960431.4864,417
1605960431.4885,412
1605960431.4904,415
1605960431.4924,417
1605960431.4944,415
1605960431.4964,412
1605960431.4984,410
1605960431.5005,405
1605960431.5024,410
1605960431.5044,415
1605960431.5064,415
1605960431.5084,415
1605960431.5107,415
1605960431.5125,410
1605960431.8784,407
1605960431.8792,410
1605960431.8816,407
1605960431.8844,405
1605960431.8863,405
1605960431.8882,402
1605960431.8902,400
1605960431.8922,402
1605960431.8942,407
1605960431.8962,410
1605960431.8982,405
1605960431.9003,390
1605960431.9022,371
1605960431.9042,361
1605960431.9062,354
1605960431.9082,344
1605960431.9102,349
1605960431.9122,368
1605960431.9142,368
1605960431.9162,366
1605960431.9182,368
1605960431.9202,366
1605960431.9222,358
1605960431.9242,354
1605960431.9262,349
1605960431.9282,346
1605960431.9302,319
1605960431.9322,153
1605960431.9342,-129
1605960431.9362,-85
1605960431.9382,573
1605960431.9403,1054
1605960431.9422,695
1605960431.9442,278
1605960431.9462,329
1605960431.9482,356
1605960431.9502,261
1605960431.9522,278
1605960431.9542,314
1605960431.9562,285
1605960431.9582,278
1605960431.9602,283
1605960431.9622,268
1605960431.9642,268
1605960431.9662,275
1605960431.9682,268
1605960431.9702,256
1605960431.9722,263
1605960431.9742,263
1605960431.9764,236
1605960431.9783,222
1605960431.9803,219
1605960431.9822,207
1605960431.9842,207
1605960431.9862,209
1605960431.9882,192
1605960431.9902,178
1605960431.9922,183
1605960431.9942,187
1605960431.9962,185
1605960431.9982,192
1605960432.0002,205
1605960432.0022,209
1605960432.0042,217
1605960432.0062,231
1605960432.0082,249
1605960432.0102,273
1605960432.0122,292
1605960432.0142,300
1605960432.0162,312
1605960432.0182,332
1605960432.0202,346
1605960432.0222,346
1605960432.4489,341
1605960432.4499,346
1605960432.4524,341
1605960432.4550,324
1605960432.4570,317
1605960432.4590,317
1605960432.4610,314
1605960432.4629,305
1605960432.4650,300
1605960432.4669,297
1605960432.4689,295
1605960432.4709,297
1605960432.4728,297
1605960432.4749,292
1605960432.4768,283
1605960432.4788,278
1605960432.4809,297
1605960432.4828,317
1605960432.4848,305
1605960432.4869,302
1605960432.4875,312
1605960432.4888,307
1605960432.4908,288
1605960432.4928,283
1605960432.4948,307
1605960432.4968,319
1605960432.4988,292
1605960432.5011,275
1605960432.5030,290
1605960432.5049,314
1605960432.5068,336
1605960432.5088,329
1605960432.5109,278
1605960432.5128,244
1605960432.5148,266
1605960432.5168,300
1605960432.5176,288
1605960432.5188,246
1605960432.5208,249
1605960432.5229,292
1605960432.5248,307
1605960432.5270,288
1605960432.5288,280
1605960432.5309,280
1605960432.5329,256
1605960432.5348,224
1605960432.5369,102
1605960432.5388,-197
1605960432.5409,-305
1605960432.5429,285
1605960432.5448,971
1605960432.5468,778
1605960432.5475,270
1605960432.5488,275
1605960432.5509,334
1605960432.5529,163
1605960432.5548,124
1605960432.5568,224
1605960432.5589,239
1605960432.5609,209
1605960432.5628,224
1605960432.5649,227
1605960432.5668,175
1605960432.5688,148
1605960432.5709,190
1605960432.5728,227
1605960432.5748,187
1605960432.5768,151
1605960432.5775,178
1605960432.5788,163
1605960432.5809,134
1605960432.5829,168
1605960432.5848,158
1605960432.9884,92
1605960432.9891,80
1605960432.9919,104
1605960432.9942,136
1605960432.9961,161
1605960432.9984,136
1605960433.0003,122
1605960433.0021,129
1605960433.0041,114
1605960433.0061,112
1605960433.0081,148
1605960433.0101,190
1605960433.0121,170
1605960433.0141,180
1605960433.0161,266
1605960433.0168,285
1605960433.0191,256
1605960433.0211,283
1605960433.0232,307
1605960433.0251,290
1605960433.0271,283
1605960433.0291,302
1605960433.0311,312
1605960433.0331,288
1605960433.0351,261
1605960433.0371,266
1605960433.0391,270
1605960433.0411,249
1605960433.0431,200
1605960433.0451,185
1605960433.0471,256
1605960433.0478,292
1605960433.0491,258
1605960433.0511,266
1605960433.0531,283
1605960433.0551,246
1605960433.0571,234
1605960433.0591,249
1605960433.0611,244
1605960433.0631,249
1605960433.0651,266
1605960433.0671,266
1605960433.0691,249
1605960433.0711,253
1605960433.0731,261
1605960433.0751,256
1605960433.0771,270
1605960433.0778,253
1605960433.0791,187
1605960433.0811,178
1605960433.0831,246
1605960433.0851,275
1605960433.0871,236
1605960433.0891,207
1605960433.0911,222
1605960433.0931,283
1605960433.0953,314
1605960433.0972,258
1605960433.0991,219
1605960433.1011,244
1605960433.1031,241
1605960433.1051,207
1605960433.1071,187
1605960433.1078,92
1605960433.1091,-136
1605960433.1111,-285
1605960433.1131,68
1605960433.1151,769
1605960433.1171,878
1605960433.1191,366
1605960433.1212,151
1605960433.1231,209
1605960433.1251,139
1605960433.5884,139
1605960433.5894,234
1605960433.5918,219
1605960433.5945,168
1605960433.5952,178
1605960433.5966,185
1605960433.5985,161
1605960433.6004,109
1605960433.6024,97
1605960433.6044,156
1605960433.6064,178
1605960433.6084,122
1605960433.6105,102
1605960433.6124,114
1605960433.6144,90
1605960433.6164,129
1605960433.6184,166
1605960433.6204,83
1605960433.6224,26
1605960433.6244,68
1605960433.6251,112
1605960433.6264,100
1605960433.6284,70
1605960433.6304,70
1605960433.6324,73
1605960433.6344,51
1605960433.6363,43
1605960433.6384,78
1605960433.6404,131
1605960433.6424,151
1605960433.6444,168
1605960433.6463,224
1605960433.6484,258
1605960433.6504,236
1605960433.6526,224
1605960433.6544,268
1605960433.6550,292
1605960433.6563,212
1605960433.6584,161
1605960433.6604,249
1605960433.6624,292
1605960433.6644,244
1605960433.6664,239
1605960433.6684,249
1605960433.6704,214
1605960433.6724,195
1605960433.6744,190
1605960433.6764,173
1605960433.6783,178
1605960433.6804,214
1605960433.6824,227
1605960433.6843,202
1605960433.6850,185
1605960433.6864,183
1605960433.6884,183
1605960433.6903,183
1605960433.6924,195
1605960433.6943,224
1605960433.6964,224
1605960433.6984,200
1605960433.7004,202
1605960433.7024,222
1605960433.7044,214
1605960433.7064,178
1605960433.7084,153
1605960433.7104,156
1605960433.7124,158
1605960433.7144,166
1605960433.7153,180
1605960433.7174,183
1605960433.7195,180
1605960433.7214,187
1605960433.7234,190
1605960434.0981,190
1605960434.0989,197
1605960434.1013,197
1605960434.1039,180
1605960434.1059,166
1605960434.1079,178
1605960434.1099,129
1605960434.1119,-134
1605960434.1139,-363
1605960434.1159,-7
1605960434.1179,703
1605960434.1199,771
1605960434.1221,263
1605960434.1239,97
1605960434.1259,202
1605960434.1279,141
1605960434.1299,100
1605960434.1319,148
1605960434.1339,134
1605960434.1359,102
1605960434.1379,100
1605960434.1400,87
1605960434.1419,92
1605960434.1439,136
1605960434.1459,136
1605960434.1479,102
1605960434.1554,109
1605960434.1569,134
1605960434.1590,112
1605960434.1609,83
1605960434.1629,100
1605960434.1649,134
1605960434.1669,119
1605960434.1689,78
1605960434.1709,61
1605960434.1729,53
1605960434.1749,41
1605960434.1769,31
1605960434.1789,31
1605960434.1809,43
1605960434.1829,46
1605960434.1849,48
1605960434.1868,73
1605960434.1889,100
1605960434.1909,107
1605960434.1929,124
1605960434.1949,158
1605960434.1969,180
1605960434.1989,192
1605960434.2009,205
1605960434.2029,222
1605960434.2049,229
1605960434.2069,234
1605960434.2089,246
1605960434.2109,239
1605960434.2129,222
1605960434.2149,205
1605960434.2169,195
1605960434.2189,202
1605960434.2209,200
1605960434.2228,190
1605960434.2249,195
1605960434.2269,197
1605960434.2291,190
1605960434.2310,190
1605960434.2329,190
1605960434.2349,190
1605960434.2369,185
1605960434.2389,180
1605960434.2409,178
1605960434.2429,180
1605960434.2449,183
1605960434.2469,178
1605960434.6989,178
1605960434.6998,197
1605960434.7023,197
1605960434.7049,180
1605960434.7069,175
1605960434.7089,183
1605960434.7109,183
1605960434.7128,166
1605960434.7148,141
1605960434.7168,134
1605960434.7188,144
1605960434.7208,153
1605960434.7228,158
1605960434.7248,161
1605960434.7268,168
1605960434.7289,178
1605960434.7308,178
1605960434.7328,166
1605960434.7348,168
1605960434.7368,173
1605960434.7388,161
1605960434.7408,153
1605960434.7428,100
1605960434.7448,-131
1605960434.7468,-385
1605960434.7488,-141
1605960434.7509,581
1605960434.7528,820
1605960434.7548,341
1605960434.7568,80
1605960434.7589,183
1605960434.7608,151
1605960434.7628,83
1605960434.7648,119
1605960434.7668,122
1605960434.7688,92
1605960434.7708,102
1605960434.7728,109
1605960434.7748,97
1605960434.7768,102
1605960434.7788,109
1605960434.7810,95
1605960434.7829,80
1605960434.7848,80
1605960434.7868,78
1605960434.7888,70
1605960434.7908,65
1605960434.7927,65
1605960434.7948,63
1605960434.7968,51
1605960434.7988,39
1605960434.8008,29
1605960434.8028,19
1605960434.8048,17
1605960434.8068,17
1605960434.8088,21
1605960434.8109,39
1605960434.8128,53
1605960434.8149,56
1605960434.8168,63
1605960434.8188,80
1605960434.8208,102
1605960434.8228,129
1605960434.8248,158
1605960434.8267,173
1605960434.8288,183
1605960434.8308,195
1605960434.8328,200
1605960434.8348,200
1605960434.8368,197
1605960434.8388,192
1605960434.8408,187
1605960434.8428,180
1605960435.2686,180
1605960435.2695,175
1605960435.2720,168
1605960435.2746,168
1605960435.2766,170
1605960435.2786,168
1605960435.2808,170
1605960435.2826,168
1605960435.2846,161
1605960435.2866,153
1605960435.2886,146
1605960435.2906,146
1605960435.2926,148
1605960435.2945,144
1605960435.2965,144
1605960435.2985,151
1605960435.3006,158
1605960435.3025,153
1605960435.3046,148
1605960435.3068,148
1605960435.3086,148
1605960435.3105,156
1605960435.3125,161
1605960435.3145,161
1605960435.3165,168
1605960435.3185,173
1605960435.3205,170
1605960435.3225,161
1605960435.3245,136
1605960435.3265,124
1605960435.3285,136
1605960435.3305,144
1605960435.3325,134
1605960435.3345,124
1605960435.3365,144
1605960435.3385,166
1605960435.3405,163
1605960435.3425,153
1605960435.3445,153
1605960435.3465,153
1605960435.3485,153
1605960435.3505,156
1605960435.3525,139
1605960435.3545,0
1605960435.3565,-288
1605960435.3585,-351
1605960435.3605,200
1605960435.3625,808
1605960435.3645,607
1605960435.3665,122
1605960435.3685,104
1605960435.3705,187
1605960435.3725,92
1605960435.3745,75
1605960435.3765,117
1605960435.3786,87
1605960435.3806,65
1605960435.3825,92
1605960435.3845,95
1605960435.3865,80
1605960435.3885,83
1605960435.3905,78
1605960435.3925,68
1605960435.3945,65
1605960435.3965,63
1605960435.3985,58
1605960435.4005,51
1605960435.4025,43
1605960435.4045,39
1605960435.4065,26
1605960435.4087,24
1605960435.4106,26
1605960435.4125,12
1605960435.8086,-4
1605960435.8093,-7
1605960435.8117,-7
1605960435.8144,-7
1605960435.8164,7
1605960435.8184,19
1605960435.8204,24
1605960435.8224,31
1605960435.8244,51
1605960435.8264,78
1605960435.8284,95
1605960435.8304,100
1605960435.8323,112
1605960435.8343,139
1605960435.8363,166
1605960435.8383,173
1605960435.8403,168
1605960435.8423,163
1605960435.8443,161
1605960435.8463,156
1605960435.8483,151
1605960435.8504,148
1605960435.8523,144
1605960435.8543,141
1605960435.8563,141
1605960435.8583,141
1605960435.8603,141
1605960435.8623,139
1605960435.8643,139
1605960435.8664,136
1605960435.8683,129
1605960435.8703,136
1605960435.8725,144
1605960435.8744,136
1605960435.8765,129
1605960435.8783,136
1605960435.8804,146
1605960435.8823,146
1605960435.8843,136
1605960435.8863,139
1605960435.8883,146
1605960435.8903,144
1605960435.8923,139
1605960435.8943,131
1605960435.8963,131
1605960435.8983,139
1605960435.9003,134
1605960435.9023,129
1605960435.9045,129
1605960435.9063,134
1605960435.9083,134
1605960435.9104,131
1605960435.9123,131
1605960435.9143,134
1605960435.9163,136
1605960435.9183,126
1605960435.9203,104
1605960435.9223,97
1605960435.9243,109
1605960435.9263,114
1605960435.9283,114
1605960435.9303,117
1605960435.9323,119
1605960435.9343,124
1605960435.9363,134
1605960435.9383,129
1605960435.9403,112
1605960435.9423,109
1605960435.9443,114
1605960435.9463,112
1605960435.9483,83
1605960435.9503,-97
1605960435.9523,-393
1605960436.3482,-324
1605960436.3491,371
1605960436.3516,849
1605960436.3543,468
1605960436.3562,46
1605960436.3582,104
1605960436.3602,129
1605960436.3621,29
1605960436.3641,41
1605960436.3661,70
1605960436.3681,41
1605960436.3701,41
1605960436.3721,58
1605960436.3741,56
1605960436.3761,46
1605960436.3781,46
1605960436.3801,48
1605960436.3821,41
1605960436.3842,31
1605960436.3861,36
1605960436.3881,46
1605960436.3902,34
1605960436.3921,12
1605960436.3941,12
1605960436.3961,21
1605960436.3981,4
1605960436.4003,-14
1605960436.4021,-12
1605960436.4041,-9
1605960436.4061,-14
1605960436.4081,-26
1605960436.4101,-24
1605960436.4121,-4
1605960436.4141,9
1605960436.4161,9
1605960436.4181,19
1605960436.4201,43
1605960436.4221,65
1605960436.4241,85
1605960436.4261,114
1605960436.4281,144
1605960436.4301,163
1605960436.4322,170
1605960436.4341,163
1605960436.4361,163
1605960436.4381,178
1605960436.4401,178
1605960436.4421,166
1605960436.4441,158
1605960436.4461,161
1605960436.4481,156
1605960436.4501,148
1605960436.4521,151
1605960436.4541,148
1605960436.4561,134
1605960436.4581,134
1605960436.4602,141
1605960436.4621,139
1605960436.4641,129
1605960436.4661,117
1605960436.4681,117
1605960436.4702,124
1605960436.4721,126
1605960436.4742,131
1605960436.4761,134
1605960436.4781,136
1605960436.4800,129
1605960436.4821,124
1605960436.4841,131
1605960436.4861,134
1605960436.4881,131
1605960436.4901,131
1605960436.4921,129
1605960436.9185,129
1605960436.9193,129
1605960436.9217,131
1605960436.9244,136
1605960436.9265,129
1605960436.9284,109
1605960436.9304,100
1605960436.9323,109
1605960436.9343,114
1605960436.9364,114
1605960436.9383,119
1605960436.9403,119
1605960436.9423,114
1605960436.9443,119
1605960436.9464,117
1605960436.9483,90
1605960436.9504,73
1605960436.9523,85
1605960436.9543,95
1605960436.9563,85
1605960436.9583,92
1605960436.9603,112
1605960436.9623,109
1605960436.9643,102
1605960436.9663,109
1605960436.9683,109
1605960436.9703,104
1605960436.9723,102
1605960436.9743,97
1605960436.9763,90
1605960436.9783,-9
1605960436.9803,-283
1605960436.9823,-419
1605960436.9843,51
1605960436.9863,737
1605960436.9883,661
1605960436.9903,129
1605960436.9923,43
1605960436.9943,156
1605960436.9963,78
1605960436.9983,41
1605960437.0003,85
1605960437.0023,78
1605960437.0042,56
1605960437.0062,63
1605960437.0084,65
1605960437.0103,63
1605960437.0123,61
1605960437.0143,53
1605960437.0163,58
1605960437.0183,58
1605960437.0202,41
1605960437.0223,34
1605960437.0244,31
1605960437.0263,24
1605960437.0285,19
1605960437.0304,17
1605960437.0323,12
1605960437.0343,7
1605960437.0363,-7
1605960437.0383,-24
1605960437.0403,-29
1605960437.0423,-31
1605960437.0443,-29
1605960437.0463,-21
1605960437.0483,-2
1605960437.0503,12
1605960437.0523,19
1605960437.0543,29
1605960437.0563,48
1605960437.0583,73
1605960437.0603,97
1605960437.0623,119
1605960437.4586,139
1605960437.4596,151
1605960437.4621,153
1605960437.4647,153
1605960437.4667,156
1605960437.4686,161
1605960437.4706,151
1605960437.4726,139
1605960437.4746,139
1605960437.4766,131
1605960437.4786,122
1605960437.4806,126
1605960437.4827,126
1605960437.4846,122
1605960437.4866,114
1605960437.4886,112
1605960437.4905,114
1605960437.4925,119
1605960437.4945,114
1605960437.4965,102
1605960437.4985,107
1605960437.5006,119
1605960437.5025,117
1605960437.5045,107
1605960437.5065,114
1605960437.5086,119
1605960437.5106,119
1605960437.5125,117
1605960437.5145,114
1605960437.5165,119
1605960437.5185,114
1605960437.5206,109
1605960437.5225,112
1605960437.5247,109
1605960437.5266,104
1605960437.5285,102
1605960437.5305,100
1605960437.5326,100
1605960437.5345,100
1605960437.5365,102
1605960437.5385,104
1605960437.5406,102
1605960437.5426,97
1605960437.5447,85
1605960437.5466,85
1605960437.5485,90
1605960437.5506,95
1605960437.5525,100
1605960437.5545,95
1605960437.5566,90
1605960437.5585,90
1605960437.5606,75
1605960437.5625,56
1605960437.5645,61
1605960437.5665,78
1605960437.5685,80
1605960437.5705,70
1605960437.5725,78
1605960437.5745,95
1605960437.5765,104
1605960437.5785,102
1605960437.5806,102
1605960437.5826,104
1605960437.5845,95
1605960437.5865,87
1605960437.5885,100
1605960437.5905,65
1605960437.5925,-124
1605960437.5945,-390
1605960437.5965,-288
1605960437.5985,375
1605960437.6005,791
1605960437.6025,405
1605960438.0582,36
1605960438.0592,117
1605960438.0616,126
1605960438.0643,26
1605960438.0662,48
1605960438.0683,80
1605960438.0702,51
1605960438.0722,48
1605960438.0742,61
1605960438.0762,51
1605960438.0782,43
1605960438.0804,43
1605960438.0823,43
1605960438.0842,39
1605960438.0861,31
1605960438.0882,26
1605960438.0902,24
1605960438.0921,21
1605960438.0941,17
1605960438.0961,7
1605960438.0981,0
1605960438.1002,2
1605960438.1021,-2
1605960438.1041,-19
1605960438.1062,-26
1605960438.1081,-26
1605960438.1102,-31
1605960438.1121,-36
1605960438.1141,-21
1605960438.1161,0
1605960438.1181,4
1605960438.1201,7
1605960438.1221,26
1605960438.1242,53
1605960438.1261,70
1605960438.1281,85
1605960438.1302,112
1605960438.1321,139
1605960438.1341,139
1605960438.1361,134
1605960438.1381,136
1605960438.1401,134
1605960438.1421,124
1605960438.1441,126
1605960438.1461,131
1605960438.1481,126
1605960438.1502,122
1605960438.1521,119
1605960438.1541,109
1605960438.1561,102
1605960438.1581,104
1605960438.1601,100
1605960438.1621,90
1605960438.1641,87
1605960438.1663,92
1605960438.1683,97
1605960438.1702,95
1605960438.1722,95
1605960438.1741,95
1605960438.1761,95
1605960438.1782,95
1605960438.1802,100
1605960438.1824,102
1605960438.1842,104
1605960438.1861,100
1605960438.1881,100
1605960438.1901,104
1605960438.1921,107
1605960438.1943,107
1605960438.1962,102
1605960438.1982,100
1605960438.2002,102
1605960438.2021,102
1605960438.6284,102
1605960438.6292,95
1605960438.6316,97
1605960438.6342,102
1605960438.6362,100
1605960438.6382,100
1605960438.6403,100
1605960438.6422,92
1605960438.6442,87
1605960438.6462,85
1605960438.6482,85
1605960438.6502,85
1605960438.6521,85
1605960438.6541,90
1605960438.6561,90
1605960438.6581,85
1605960438.6602,75
1605960438.6621,56
1605960438.6642,56
1605960438.6661,70
1605960438.6682,75
1605960438.6702,75
1605960438.6722,75
1605960438.6742,90
1605960438.6762,102
1605960438.6781,102
1605960438.6802,92
1605960438.6822,87
1605960438.6842,80
1605960438.6861,83
1605960438.6882,92
1605960438.6902,68
1605960438.6922,-107
1605960438.6941,-390
1605960438.6961,-339
1605960438.6981,300
1605960438.7003,783
1605960438.7022,446
1605960438.7041,31
1605960438.7061,83
1605960438.7083,119
1605960438.7102,29
1605960438.7121,51
1605960438.7141,85
1605960438.7162,51
1605960438.7181,46
1605960438.7202,63
1605960438.7222,53
1605960438.7242,43
1605960438.7262,56
1605960438.7282,53
1605960438.7289,39
1605960438.7312,39
1605960438.7332,36
1605960438.7352,26
1605960438.7372,21
1605960438.7393,14
1605960438.7412,12
1605960438.7432,9
1605960438.7451,0
1605960438.7471,-14
1605960438.7492,-26
1605960438.7512,-36
1605960438.7532,-43
1605960438.7551,-46
1605960438.7572,-39
1605960438.7593,-31
1605960438.7599,-24
1605960438.7622,-17
1605960438.7641,-9
1605960438.7662,7
1605960438.7681,26
1605960438.7701,43
1605960439.1684,65
1605960439.1692,80
1605960439.1716,97
1605960439.1742,114
1605960439.1762,122
1605960439.1782,122
1605960439.1803,124
1605960439.1822,124
1605960439.1842,122
1605960439.1849,114
1605960439.1872,100
1605960439.1892,92
1605960439.1912,92
1605960439.1933,92
1605960439.1952,87
1605960439.1972,83
1605960439.1993,80
1605960439.2012,83
1605960439.2034,85
1605960439.2053,73
1605960439.2072,65
1605960439.2092,75
1605960439.2112,78
1605960439.2132,73
1605960439.2139,78
1605960439.2152,80
1605960439.2172,80
1605960439.2193,80
1605960439.2212,85
1605960439.2232,87
1605960439.2252,87
1605960439.2272,92
1605960439.2292,92
1605960439.2312,87
1605960439.2332,90
1605960439.2352,92
1605960439.2372,92
1605960439.2393,90
1605960439.2412,87
1605960439.2432,92
1605960439.2439,92
1605960439.2462,92
1605960439.2482,90
1605960439.2502,90
1605960439.2522,95
1605960439.2542,92
1605960439.2562,90
1605960439.2582,95
1605960439.2602,90
1605960439.2622,92
1605960439.2642,92
1605960439.2662,90
1605960439.2682,90
1605960439.2703,92
1605960439.2722,97
1605960439.2742,92
1605960439.2749,70
1605960439.2772,53
1605960439.2793,58
1605960439.2812,73
1605960439.2832,78
1605960439.2852,65
1605960439.2872,68
1605960439.2892,87
1605960439.2912,100
1605960439.2932,100
1605960439.2952,97
1605960439.2972,92
1605960439.2993,90
1605960439.3014,87
1605960439.3032,90
1605960439.3052,51
1605960439.3059,-148
1605960439.7382,-410
1605960439.7392,-263
1605960439.7416,419
1605960439.7444,778
1605960439.7464,358
1605960439.7483,21
1605960439.7504,102
1605960439.7522,92
1605960439.7542,7
1605960439.7562,43
1605960439.7582,73
1605960439.7602,26
1605960439.7621,14
1605960439.7629,31
1605960439.7651,31
1605960439.7671,21
1605960439.7692,24
1605960439.7712,24
1605960439.7732,17
1605960439.7752,7
1605960439.7772,4
1605960439.7792,4
1605960439.7812,0
1605960439.7831,-4
1605960439.7851,-14
1605960439.7871,-24
1605960439.7892,-29
1605960439.7911,-43
1605960439.7933,-53
1605960439.7940,-48
1605960439.7961,-56
1605960439.7982,-63
1605960439.8002,-58
1605960439.8021,-48
1605960439.8042,-34
1605960439.8061,-24
1605960439.8081,-14
1605960439.8102,2
1605960439.8121,24
1605960439.8141,41
1605960439.8161,61
1605960439.8182,83
1605960439.8201,95
1605960439.8221,102
1605960439.8241,119
1605960439.8248,129
1605960439.8261,122
1605960439.8283,117
1605960439.8303,112
1605960439.8322,102
1605960439.8342,100
1605960439.8361,107
1605960439.8381,112
1605960439.8402,102
1605960439.8421,90
1605960439.8441,87
1605960439.8461,85
1605960439.8482,85
1605960439.8502,85
1605960439.8521,87
1605960439.8541,87
1605960439.8548,83
1605960439.8561,85
1605960439.8581,95
1605960439.8602,95
1605960439.8621,95
1605960439.8641,95
1605960439.8662,95
1605960439.8681,92
1605960439.8702,97
1605960439.8721,104
1605960439.8742,100
1605960439.8762,92
1605960440.2783,92
1605960440.2791,95
1605960440.2815,95
1605960440.2842,90
1605960440.2862,83
1605960440.2881,80
1605960440.2902,83
1605960440.2921,83
1605960440.2941,73
1605960440.2961,63
1605960440.2981,65
1605960440.3001,68
1605960440.3021,68
1605960440.3041,70
1605960440.3061,73
1605960440.3081,75
1605960440.3101,73
1605960440.3108,68
1605960440.3131,78
1605960440.3151,87
1605960440.3171,83
1605960440.3192,75
1605960440.3211,56
1605960440.3232,36
1605960440.3253,41
1605960440.3274,61
1605960440.3292,61
1605960440.3312,63
1605960440.3332,80
1605960440.3352,83
1605960440.3373,83
1605960440.3391,87
1605960440.3411,90
1605960440.3431,87
1605960440.3451,83
1605960440.3471,78
1605960440.3492,75
1605960440.3511,-14
1605960440.3531,-273
1605960440.3551,-439
1605960440.3571,-34
1605960440.3592,656
1605960440.3611,676
1605960440.3631,161
1605960440.3651,14
1605960440.3671,114
1605960440.3691,51
1605960440.3711,7
1605960440.3731,53
1605960440.3751,48
1605960440.3770,21
1605960440.3791,29
1605960440.3811,36
1605960440.3831,29
1605960440.3851,26
1605960440.3871,21
1605960440.3892,14
1605960440.3911,17
1605960440.3931,12
1605960440.3951,0
1605960440.3971,-4
1605960440.3992,-12
1605960440.4011,-24
1605960440.4031,-26
1605960440.4051,-29
1605960440.4071,-39
1605960440.4091,-51
1605960440.4111,-53
1605960440.4131,-56
1605960440.4151,-65
1605960440.4170,-73
1605960440.4191,-68
1605960440.4211,-51
1605960440.8480,-41
1605960440.8488,-36
1605960440.8512,-14
1605960440.8541,9
1605960440.8559,21
1605960440.8578,31
1605960440.8598,41
1605960440.8618,58
1605960440.8638,75
1605960440.8658,90
1605960440.8678,97
1605960440.8698,97
1605960440.8718,97
1605960440.8739,100
1605960440.8758,97
1605960440.8778,100
1605960440.8798,95
1605960440.8819,83
1605960440.8839,78
1605960440.8858,78
1605960440.8878,78
1605960440.8898,75
1605960440.8918,70
1605960440.8938,73
1605960440.8958,75
1605960440.8978,73
1605960440.8998,68
1605960440.9018,70
1605960440.9037,80
1605960440.9057,78
1605960440.9078,70
1605960440.9098,75
1605960440.9118,80
1605960440.9138,78
1605960440.9157,85
1605960440.9177,90
1605960440.9198,87
1605960440.9217,75
1605960440.9237,78
1605960440.9258,90
1605960440.9278,80
1605960440.9298,68
1605960440.9318,75
1605960440.9338,80
1605960440.9357,75
1605960440.9377,73
1605960440.9398,83
1605960440.9417,85
1605960440.9439,75
1605960440.9457,78
1605960440.9478,83
1605960440.9498,73
1605960440.9517,70
1605960440.9537,80
1605960440.9559,87
1605960440.9578,78
1605960440.9598,61
1605960440.9617,51
1605960440.9638,53
1605960440.9659,61
1605960440.9678,58
1605960440.9698,53
1605960440.9717,58
1605960440.9737,70
1605960440.9757,65
1605960440.9778,61
1605960440.9798,63
1605960440.9817,68
1605960440.9838,70
1605960440.9858,68
1605960440.9877,56
1605960440.9898,-43
1605960440.9918,-305
1605960441.4185,-466
1605960441.4194,-29
1605960441.4205,688
1605960441.4225,693
1605960441.4245,163
1605960441.4266,24
1605960441.4286,109
1605960441.4306,17
1605960441.4325,-24
1605960441.4346,31
1605960441.4365,21
1605960441.4385,-4
1605960441.4405,12
1605960441.4425,14
1605960441.4444,2
1605960441.4464,4
1605960441.4484,9
1605960441.4505,7
1605960441.4524,2
1605960441.4544,-7
1605960441.4565,-19
1605960441.4585,-26
1605960441.4604,-34
1605960441.4625,-36
1605960441.4644,-43
1605960441.4664,-53
1605960441.4684,-61
1605960441.4704,-70
1605960441.4724,-78
1605960441.4744,-75
1605960441.4765,-78
1605960441.4784,-92
1605960441.4806,-90
1605960441.4825,-68
1605960441.4844,-51
1605960441.4864,-43
1605960441.4884,-34
1605960441.4904,-9
1605960441.4924,21
1605960441.4944,46
1605960441.4964,61
1605960441.4984,73
1605960441.5004,90
1605960441.5024,109
1605960441.5044,126
1605960441.5064,134
1605960441.5084,131
1605960441.5104,122
1605960441.5124,112
1605960441.5144,109
1605960441.5164,107
1605960441.5184,102
1605960441.5204,87
1605960441.5224,75
1605960441.5244,73
1605960441.5264,68
1605960441.5284,63
1605960441.5304,65
1605960441.5324,68
1605960441.5345,70
1605960441.5364,70
1605960441.5386,75
1605960441.5404,80
1605960441.5424,75
1605960441.5444,73
1605960441.5464,75
1605960441.5484,78
1605960441.5504,85
1605960441.5524,90
1605960441.5544,85
1605960441.5564,87
1605960441.5584,87
1605960441.5604,87
1605960441.9886,87
1605960441.9897,85
1605960441.9922,85
1605960441.9948,85
1605960441.9968,87
1605960441.9988,92
1605960442.0008,92
1605960442.0028,87
1605960442.0048,80
1605960442.0068,80
1605960442.0091,75
1605960442.0108,51
1605960442.0128,36
1605960442.0148,46
1605960442.0168,56
1605960442.0188,56
1605960442.0208,56
1605960442.0228,63
1605960442.0248,75
1605960442.0268,85
1605960442.0288,85
1605960442.0307,78
1605960442.0327,68
1605960442.0348,65
1605960442.0368,63
1605960442.0387,61
1605960442.0407,-41
1605960442.0428,-319
1605960442.0447,-449
1605960442.0467,43
1605960442.0488,737
1605960442.0507,659
1605960442.0527,119
1605960442.0547,26
1605960442.0567,122
1605960442.0587,36
1605960442.0607,9
1605960442.0627,58
1605960442.0647,39
1605960442.0667,21
1605960442.0687,39
1605960442.0707,36
1605960442.0727,26
1605960442.0747,29
1605960442.0767,26
1605960442.0787,24
1605960442.0807,21
1605960442.0827,12
1605960442.0847,0
1605960442.0867,-2
1605960442.0887,-14
1605960442.0907,-26
1605960442.0927,-34
1605960442.0947,-39
1605960442.0967,-41
1605960442.0987,-46
1605960442.1007,-56
1605960442.1027,-63
1605960442.1047,-70
1605960442.1068,-68
1605960442.1087,-61
1605960442.1109,-53
1605960442.1128,-51
1605960442.1147,-46
1605960442.1167,-21
1605960442.1187,9
1605960442.1207,34
1605960442.1227,51
1605960442.1247,68
1605960442.1267,90
1605960442.1287,104
1605960442.1307,114
1605960442.1327,124
1605960442.5275,119
1605960442.5283,109
1605960442.5308,114
1605960442.5333,114
1605960442.5353,109
1605960442.5373,100
1605960442.5393,90
1605960442.5413,87
1605960442.5433,83
1605960442.5453,68
1605960442.5473,65
1605960442.5493,68
1605960442.5513,63
1605960442.5533,56
1605960442.5553,65
1605960442.5573,73
1605960442.5593,73
1605960442.5613,73
1605960442.5633,70
1605960442.5653,70
1605960442.5673,80
1605960442.5692,83
1605960442.5713,78
1605960442.5733,85
1605960442.5753,90
1605960442.5773,85
1605960442.5793,87
1605960442.5813,90
1605960442.5833,87
1605960442.5853,80
1605960442.5873,83
1605960442.5893,85
1605960442.5913,80
1605960442.5933,87
1605960442.5953,87
1605960442.5973,75
1605960442.5993,61
1605960442.6013,56
1605960442.6032,63
1605960442.6054,61
1605960442.6073,48
1605960442.6093,51
1605960442.6113,68
1605960442.6133,78
1605960442.6153,75
1605960442.6173,75
1605960442.6193,78
1605960442.6213,73
1605960442.6233,68
1605960442.6253,73
1605960442.6273,61
1605960442.6292,-73
1605960442.6312,-356
1605960442.6333,-419
1605960442.6353,144
1605960442.6373,754
1605960442.6393,554
1605960442.6413,68
1605960442.6433,46
1605960442.6453,117
1605960442.6473,26
1605960442.6493,19
1605960442.6513,63
1605960442.6532,36
1605960442.6553,24
1605960442.6572,36
1605960442.6593,26
1605960442.6612,12
1605960442.6633,17
1605960442.6653,26
1605960442.6673,24
1605960442.6693,19
1605960442.6713,14
1605960443.0985,4
1605960443.0995,-2
1605960443.1019,-7
1605960443.1046,-14
1605960443.1066,-21
1605960443.1086,-36
1605960443.1105,-56
1605960443.1125,-65
1605960443.1145,-65
1605960443.1165,-75
1605960443.1185,-83
1605960443.1205,-75
1605960443.1225,-65
1605960443.1245,-63
1605960443.1265,-51
1605960443.1285,-31
1605960443.1305,-14
1605960443.1326,7
1605960443.1347,24
1605960443.1365,46
1605960443.1384,80
1605960443.1404,100
1605960443.1425,100
1605960443.1445,104
1605960443.1465,109
1605960443.1484,102
1605960443.1505,97
1605960443.1525,107
1605960443.1544,100
1605960443.1564,80
1605960443.1585,78
1605960443.1605,80
1605960443.1625,68
1605960443.1645,56
1605960443.1664,56
1605960443.1684,56
1605960443.1705,53
1605960443.1724,51
1605960443.1744,58
1605960443.1765,63
1605960443.1785,58
1605960443.1805,56
1605960443.1825,58
1605960443.1844,58
1605960443.1865,58
1605960443.1884,65
1605960443.1905,73
1605960443.1924,73
1605960443.1945,70
1605960443.1964,73
1605960443.1985,75
1605960443.2004,78
1605960443.2024,70
1605960443.2044,70
1605960443.2065,73
1605960443.2085,70
1605960443.2105,68
1605960443.2124,78
1605960443.2144,85
1605960443.2164,73
1605960443.2185,46
1605960443.2205,43
1605960443.2224,56
1605960443.2244,53
1605960443.2264,56
1605960443.2284,68
1605960443.2305,73
1605960443.2324,78
1605960443.2346,78
1605960443.2366,73
1605960443.2384,73
1605960443.2404,75
1605960443.2425,73
1605960443.6460,63
1605960443.6467,7
1605960443.6492,-212
1605960443.6509,-456
1605960443.6528,-212
1605960443.6548,515
1605960443.6567,759
1605960443.6588,258
1605960443.6607,-24
1605960443.6627,92
1605960443.6647,68
1605960443.6667,-17
1605960443.6687,29
1605960443.6707,46
1605960443.6727,12
1605960443.6747,14
1605960443.6768,24
1605960443.6787,12
1605960443.6807,7
1605960443.6827,9
1605960443.6847,12
1605960443.6867,9
1605960443.6887,4
1605960443.6907,-2
1605960443.6927,-12
1605960443.6947,-19
1605960443.6967,-29
1605960443.6987,-36
1605960443.7007,-41
1605960443.7027,-56
1605960443.7047,-61
1605960443.7067,-61
1605960443.7087,-70
1605960443.7108,-75
1605960443.7128,-73
1605960443.7147,-68
1605960443.7167,-56
1605960443.7187,-41
1605960443.7207,-36
1605960443.7227,-24
1605960443.7247,2
1605960443.7267,24
1605960443.7287,48
1605960443.7307,73
1605960443.7327,87
1605960443.7347,100
1605960443.7369,112
1605960443.7388,114
1605960443.7407,112
1605960443.7427,107
1605960443.7447,107
1605960443.7467,104
1605960443.7487,97
1605960443.7507,87
1605960443.7527,83
1605960443.7547,75
1605960443.7567,70
1605960443.7587,70
1605960443.7607,70
1605960443.7627,70
1605960443.7647,68
1605960443.7667,68
1605960443.7687,63
1605960443.7707,58
1605960443.7727,56
1605960443.7747,53
1605960443.7767,53
1605960443.7787,58
1605960443.7807,61
1605960443.7827,61
1605960443.7847,61
1605960443.7867,61
1605960443.7887,58
1605960444.2085,58
1605960444.2094,63
1605960444.2119,65
1605960444.2146,61
1605960444.2166,51
1605960444.2185,41
1605960444.2206,48
1605960444.2224,58
1605960444.2244,51
1605960444.2264,46
1605960444.2284,43
1605960444.2305,29
1605960444.2324,21
1605960444.2344,26
1605960444.2364,21
1605960444.2384,24
1605960444.2404,41
1605960444.2425,56
1605960444.2444,53
1605960444.2464,43
1605960444.2484,46
1605960444.2504,43
1605960444.2524,43
1605960444.2544,48
1605960444.2567,51
1605960444.2585,17
1605960444.2605,-163
1605960444.2624,-444
1605960444.2644,-368
1605960444.2664,300
1605960444.2684,771
1605960444.2704,407
1605960444.2724,-4
1605960444.2744,48
1605960444.2764,83
1605960444.2784,0
1605960444.2804,12
1605960444.2824,36
1605960444.2844,9
1605960444.2864,4
1605960444.2884,19
1605960444.2904,17
1605960444.2924,12
1605960444.2944,14
1605960444.2964,9
1605960444.2984,2
1605960444.3004,4
1605960444.3024,-2
1605960444.3044,-14
1605960444.3064,-17
1605960444.3084,-19
1605960444.3104,-34
1605960444.3124,-41
1605960444.3144,-36
1605960444.3164,-41
1605960444.3184,-61
1605960444.3204,-68
1605960444.3224,-65
1605960444.3244,-65
1605960444.3264,-68
1605960444.3284,-63
1605960444.3304,-48
1605960444.3324,-36
1605960444.3344,-24
1605960444.3364,-2
1605960444.3384,24
1605960444.3404,43
1605960444.3424,65
1605960444.3444,85
1605960444.3464,97
1605960444.3484,102
1605960444.3504,107
1605960444.3524,109
1605960444.8083,109
1605960444.8093,114
1605960444.8121,107
1605960444.8144,100
1605960444.8164,104
1605960444.8184,97
1605960444.8203,73
1605960444.8223,65
1605960444.8243,75
1605960444.8263,65
1605960444.8283,48
1605960444.8303,48
1605960444.8323,56
1605960444.8343,58
1605960444.8362,51
1605960444.8384,43
1605960444.8404,53
1605960444.8423,65
1605960444.8443,58
1605960444.8462,56
1605960444.8483,61
1605960444.8503,61
1605960444.8522,63
1605960444.8542,61
1605960444.8563,56
1605960444.8582,61
1605960444.8603,61
1605960444.8624,56
1605960444.8642,48
1605960444.8662,53
1605960444.8683,56
1605960444.8702,48
1605960444.8722,36
1605960444.8742,41
1605960444.8762,56
1605960444.8782,65
1605960444.8803,61
1605960444.8822,46
1605960444.8842,26
1605960444.8862,19
1605960444.8882,31
1605960444.8903,31
1605960444.8922,31
1605960444.8942,46
1605960444.8962,56
1605960444.8982,56
1605960444.9003,56
1605960444.9022,51
1605960444.9043,51
1605960444.9062,51
1605960444.9082,51
1605960444.9103,56
1605960444.9122,17
1605960444.9144,-195
1605960444.9163,-473
1605960444.9182,-302
1605960444.9202,415
1605960444.9222,759
1605960444.9242,317
1605960444.9262,-14
1605960444.9283,70
1605960444.9303,65
1605960444.9322,-19
1605960444.9342,9
1605960444.9362,26
1605960444.9382,0
1605960444.9403,4
1605960444.9422,14
1605960444.9442,4
1605960444.9463,2
1605960444.9483,2
1605960444.9503,0
1605960444.9523,4
1605960445.3484,0
1605960445.3494,-9
1605960445.3519,-19
1605960445.3545,-29
1605960445.3565,-46
1605960445.3585,-51
1605960445.3604,-48
1605960445.3624,-51
1605960445.3644,-63
1605960445.3664,-75
1605960445.3685,-87
1605960445.3703,-97
1605960445.3723,-100
1605960445.3744,-97
1605960445.3751,-87
1605960445.3764,-70
1605960445.3784,-53
1605960445.3804,-43
1605960445.3823,-29
1605960445.3843,-4
1605960445.3864,17
1605960445.3884,34
1605960445.3904,53
1605960445.3923,75
1605960445.3944,92
1605960445.3964,90
1605960445.3984,85
1605960445.4004,92
1605960445.4024,92
1605960445.4045,85
1605960445.4051,83
1605960445.4075,83
1605960445.4094,78
1605960445.4114,70
1605960445.4133,65
1605960445.4154,61
1605960445.4173,58
1605960445.4194,65
1605960445.4214,58
1605960445.4233,51
1605960445.4254,63
1605960445.4273,68
1605960445.4294,51
1605960445.4314,43
1605960445.4334,58
1605960445.4354,68
1605960445.4360,56
1605960445.4374,53
1605960445.4394,65
1605960445.4414,58
1605960445.4434,53
1605960445.4454,58
1605960445.4474,53
1605960445.4494,51
1605960445.4513,51
1605960445.4534,39
1605960445.4554,36
1605960445.4574,41
1605960445.4594,43
1605960445.4613,43
1605960445.4633,43
1605960445.4654,41
1605960445.4660,43
1605960445.4674,48
1605960445.4694,53
1605960445.4714,51
1605960445.4734,48
1605960445.4754,31
1605960445.4774,12
1605960445.4794,9
1605960445.4813,14
1605960445.4833,14
1605960445.4853,19
1605960445.9182,26
1605960445.9192,36
1605960445.9209,39
1605960445.9233,41
1605960445.9253,46
1605960445.9273,41
1605960445.9293,41
1605960445.9312,39
1605960445.9332,17
1605960445.9354,-107
1605960445.9373,-388
1605960445.9392,-505
1605960445.9411,14
1605960445.9432,712
1605960445.9452,605
1605960445.9472,68
1605960445.9491,-9
1605960445.9512,83
1605960445.9519,-9
1605960445.9532,-34
1605960445.9552,17
1605960445.9571,0
1605960445.9592,-17
1605960445.9612,-2
1605960445.9632,-2
1605960445.9651,-4
1605960445.9672,-2
1605960445.9692,-7
1605960445.9712,-14
1605960445.9731,-12
1605960445.9752,-17
1605960445.9771,-31
1605960445.9792,-34
1605960445.9811,-29
1605960445.9818,-36
1605960445.9831,-46
1605960445.9852,-58
1605960445.9872,-70
1605960445.9892,-75
1605960445.9912,-80
1605960445.9932,-90
1605960445.9952,-92
1605960445.9971,-90
1605960445.9993,-87
1605960446.0013,-75
1605960446.0033,-58
1605960446.0052,-56
1605960446.0071,-43
1605960446.0091,-14
1605960446.0111,14
1605960446.0119,36
1605960446.0132,53
1605960446.0152,78
1605960446.0171,97
1605960446.0192,104
1605960446.0211,112
1605960446.0231,122
1605960446.0251,124
1605960446.0272,119
1605960446.0291,112
1605960446.0313,100
1605960446.0332,87
1605960446.0351,73
1605960446.0371,70
1605960446.0392,78
1605960446.0411,70
1605960446.0418,56
1605960446.0432,56
1605960446.0451,65
1605960446.0472,63
1605960446.0492,56
1605960446.0512,56
1605960446.0531,56
1605960446.4585,58
1605960446.4594,58
1605960446.4618,61
1605960446.4645,65
1605960446.4665,58
1605960446.4685,46
1605960446.4704,51
1605960446.4724,61
1605960446.4744,56
1605960446.4751,43
1605960446.4764,36
1605960446.4784,34
1605960446.4805,36
1605960446.4824,39
1605960446.4844,43
1605960446.4864,39
1605960446.4884,39
1605960446.4905,51
1605960446.4924,56
1605960446.4944,46
1605960446.4964,41
1605960446.4984,53
1605960446.5004,61
1605960446.5024,51
1605960446.5031,46
1605960446.5044,34
1605960446.5064,24
1605960446.5084,29
1605960446.5104,34
1605960446.5124,36
1605960446.5144,43
1605960446.5164,56
1605960446.5184,63
1605960446.5204,58
1605960446.5224,58
1605960446.5244,63
1605960446.5264,53
1605960446.5284,46
1605960446.5306,46
1605960446.5324,34
1605960446.5330,-90
1605960446.5344,-371
1605960446.5364,-439
1605960446.5384,131
1605960446.5405,756
1605960446.5424,546
1605960446.5444,46
1605960446.5464,29
1605960446.5484,100
1605960446.5504,2
1605960446.5524,2
1605960446.5544,51
1605960446.5564,21
1605960446.5584,7
1605960446.5603,14
1605960446.5624,2
1605960446.5630,0
1605960446.5644,12
1605960446.5664,12
1605960446.5684,-2
1605960446.5704,-2
1605960446.5724,2
1605960446.5744,-7
1605960446.5764,-19
1605960446.5784,-21
1605960446.5804,-26
1605960446.5824,-39
1605960446.5844,-48
1605960446.5864,-56
1605960446.5884,-61
1605960446.5904,-73
1605960446.5924,-83
1605960446.5931,-83
1605960446.9980,-70
1605960446.9990,-58
1605960447.0013,-56
1605960447.0041,-51
1605960447.0060,-39
1605960447.0080,-29
1605960447.0101,-7
1605960447.0120,14
1605960447.0140,34
1605960447.0160,63
1605960447.0180,85
1605960447.0199,92
1605960447.0219,100
1605960447.0239,112
1605960447.0259,112
1605960447.0279,107
1605960447.0302,109
1605960447.0320,104
1605960447.0339,92
1605960447.0359,87
1605960447.0379,83
1605960447.0399,78
1605960447.0419,73
1605960447.0439,70
1605960447.0459,68
1605960447.0479,63
1605960447.0500,61
1605960447.0519,61
1605960447.0539,56
1605960447.0559,51
1605960447.0579,48
1605960447.0600,56
1605960447.0619,65
1605960447.0639,56
1605960447.0659,53
1605960447.0679,56
1605960447.0700,53
1605960447.0719,56
1605960447.0739,61
1605960447.0759,63
1605960447.0779,65
1605960447.0800,61
1605960447.0819,53
1605960447.0839,61
1605960447.0859,65
1605960447.0879,56
1605960447.0899,56
1605960447.0920,58
1605960447.0939,51
1605960447.0959,43
1605960447.0979,51
1605960447.1000,56
1605960447.1019,56
1605960447.1039,56
1605960447.1059,56
1605960447.1079,61
1605960447.1099,65
1605960447.1119,53
1605960447.1139,39
1605960447.1159,21
1605960447.1179,21
1605960447.1200,34
1605960447.1219,34
1605960447.1239,34
1605960447.1259,43
1605960447.1279,61
1605960447.1299,65
1605960447.1321,61
1605960447.1340,56
1605960447.1359,51
1605960447.1379,46
1605960447.1400,51
1605960447.1419,53
1605960447.5683,-17
1605960447.5692,-253
1605960447.5708,-471
1605960447.5728,-183
1605960447.5748,524
1605960447.5768,686
1605960447.5788,187
1605960447.5808,-26
1605960447.5828,90
1605960447.5848,41
1605960447.5868,-26
1605960447.5888,29
1605960447.5908,34
1605960447.5928,-2
1605960447.5948,14
1605960447.5968,21
1605960447.5988,2
1605960447.6008,2
1605960447.6028,9
1605960447.6048,0
1605960447.6068,-9
1605960447.6088,-7
1605960447.6108,-4
1605960447.6128,-14
1605960447.6148,-26
1605960447.6168,-29
1605960447.6188,-26
1605960447.6207,-39
1605960447.6228,-56
1605960447.6248,-61
1605960447.6267,-65
1605960447.6288,-73
1605960447.6308,-80
1605960447.6327,-78
1605960447.6347,-73
1605960447.6368,-73
1605960447.6387,-61
1605960447.6408,-39
1605960447.6427,-26
1605960447.6447,-14
1605960447.6467,4
1605960447.6487,24
1605960447.6507,41
1605960447.6527,61
1605960447.6547,83
1605960447.6569,87
1605960447.6588,83
1605960447.6608,90
1605960447.6628,100
1605960447.6647,104
1605960447.6667,100
1605960447.6687,80
1605960447.6707,73
1605960447.6727,75
1605960447.6747,75
1605960447.6767,68
1605960447.6787,53
1605960447.6807,43
1605960447.6827,48
1605960447.6847,51
1605960447.6868,53
1605960447.6887,56
1605960447.6907,53
1605960447.6927,51
1605960447.6947,51
1605960447.6967,53
1605960447.6988,53
1605960447.7007,48
1605960447.7027,48
1605960447.7047,56
1605960447.7067,58
1605960447.7087,56
1605960447.7107,56
1605960448.1684,68
1605960448.1693,73
1605960448.1718,61
1605960448.1744,56
1605960448.1764,56
1605960448.1784,46
1605960448.1805,34
1605960448.1824,39
1605960448.1844,48
1605960448.1864,43
1605960448.1884,41
1605960448.1904,53
1605960448.1924,53
1605960448.1944,41
1605960448.1964,39
1605960448.1984,48
1605960448.2004,51
1605960448.2024,48
1605960448.2044,56
1605960448.2064,61
1605960448.2084,48
1605960448.2104,29
1605960448.2123,19
1605960448.2145,29
1605960448.2164,36
1605960448.2183,36
1605960448.2203,41
1605960448.2223,46
1605960448.2243,56
1605960448.2263,65
1605960448.2283,61
1605960448.2304,61
1605960448.2323,56
1605960448.2343,36
1605960448.2363,41
1605960448.2383,39
1605960448.2403,-97
1605960448.2423,-378
1605960448.2443,-434
1605960448.2463,114
1605960448.2483,712
1605960448.2504,515
1605960448.2524,29
1605960448.2543,12
1605960448.2563,90
1605960448.2583,2
1605960448.2604,-14
1605960448.2623,34
1605960448.2643,19
1605960448.2663,0
1605960448.2683,12
1605960448.2703,12
1605960448.2723,4
1605960448.2743,4
1605960448.2763,4
1605960448.2783,0
1605960448.2804,-2
1605960448.2823,-4
1605960448.2843,-7
1605960448.2863,-17
1605960448.2885,-24
1605960448.2903,-34
1605960448.2923,-41
1605960448.2943,-43
1605960448.2963,-53
1605960448.2984,-63
1605960448.3003,-63
1605960448.3023,-73
1605960448.3043,-85
1605960448.3063,-87
1605960448.3084,-75
1605960448.3104,-63
1605960448.3123,-58
1605960448.7082,-51
1605960448.7092,-41
1605960448.7115,-24
1605960448.7140,2
1605960448.7160,26
1605960448.7180,41
1605960448.7201,56
1605960448.7221,73
1605960448.7240,83
1605960448.7260,75
1605960448.7280,63
1605960448.7301,61
1605960448.7320,73
1605960448.7340,78
1605960448.7360,63
1605960448.7380,56
1605960448.7400,61
1605960448.7420,58
1605960448.7440,48
1605960448.7460,43
1605960448.7481,46
1605960448.7501,46
1605960448.7520,39
1605960448.7540,39
1605960448.7560,39
1605960448.7580,34
1605960448.7600,29
1605960448.7620,31
1605960448.7640,29
1605960448.7660,26
1605960448.7680,34
1605960448.7700,46
1605960448.7720,43
1605960448.7740,34
1605960448.7760,41
1605960448.7780,48
1605960448.7800,43
1605960448.7820,41
1605960448.7840,43
1605960448.7860,39
1605960448.7880,36
1605960448.7900,41
1605960448.7920,51
1605960448.7940,46
1605960448.7960,46
1605960448.7980,48
1605960448.8000,46
1605960448.8020,51
1605960448.8040,56
1605960448.8060,48
1605960448.8080,41
1605960448.8100,46
1605960448.8122,51
1605960448.8140,51
1605960448.8160,51
1605960448.8180,56
1605960448.8201,43
1605960448.8220,26
1605960448.8240,19
1605960448.8260,21
1605960448.8280,24
1605960448.8300,21
1605960448.8320,24
1605960448.8340,41
1605960448.8360,53
1605960448.8380,51
1605960448.8401,46
1605960448.8420,51
1605960448.8440,48
1605960448.8460,39
1605960448.8480,39
1605960448.8500,24
1605960448.8521,-129
1605960449.2784,-427
1605960449.2794,-444
1605960449.2818,185
1605960449.2845,769
1605960449.2865,483
1605960449.2885,9
1605960449.2905,26
1605960449.2924,70
1605960449.2944,-39
1605960449.2964,-36
1605960449.2984,12
1605960449.3004,-4
1605960449.3024,-17
1605960449.3044,-9
1605960449.3064,-21
1605960449.3083,-29
1605960449.3104,-21
1605960449.3123,-17
1605960449.3144,-26
1605960449.3163,-34
1605960449.3183,-29
1605960449.3203,-36
1605960449.3223,-61
1605960449.3243,-70
1605960449.3264,-70
1605960449.3283,-80
1605960449.3304,-83
1605960449.3323,-85
1605960449.3343,-97
1605960449.3363,-114
1605960449.3385,-131
1605960449.3404,-136
1605960449.3424,-126
1605960449.3443,-114
1605960449.3463,-112
1605960449.3483,-114
1605960449.3505,-102
1605960449.3523,-78
1605960449.3543,-53
1605960449.3563,-29
1605960449.3583,0
1605960449.3604,29
1605960449.3624,48
1605960449.3643,63
1605960449.3663,80
1605960449.3683,87
1605960449.3703,75
1605960449.3723,78
1605960449.3744,90
1605960449.3819,87
1605960449.3833,83
1605960449.3854,78
1605960449.3873,73
1605960449.3894,65
1605960449.3913,61
1605960449.3933,53
1605960449.3953,36
1605960449.3973,36
1605960449.3994,43
1605960449.4013,39
1605960449.4034,31
1605960449.4053,31
1605960449.4074,36
1605960449.4094,43
1605960449.4114,46
1605960449.4133,48
1605960449.4153,46
1605960449.4173,41
1605960449.4194,51
1605960449.4213,53
1605960449.4233,56
1605960449.4253,63
1605960449.4273,61
1605960449.8482,58
1605960449.8490,58
1605960449.8514,58
1605960449.8540,63
1605960449.8560,68
1605960449.8580,68
1605960449.8601,63
1605960449.8620,51
1605960449.8642,41
1605960449.8661,46
1605960449.8680,53
1605960449.8700,51
1605960449.8720,34
1605960449.8740,14
1605960449.8760,4
1605960449.8780,9
1605960449.8800,9
1605960449.8819,14
1605960449.8840,26
1605960449.8860,41
1605960449.8879,41
1605960449.8900,36
1605960449.8919,36
1605960449.8940,36
1605960449.8960,29
1605960449.8979,29
1605960449.9000,34
1605960449.9019,-4
1605960449.9039,-200
1605960449.9059,-476
1605960449.9080,-356
1605960449.9100,368
1605960449.9119,820
1605960449.9139,388
1605960449.9159,-24
1605960449.9180,56
1605960449.9200,63
1605960449.9219,-39
1605960449.9239,-4
1605960449.9259,24
1605960449.9279,-17
1605960449.9300,-12
1605960449.9320,12
1605960449.9339,2
1605960449.9359,-12
1605960449.9380,-9
1605960449.9400,-2
1605960449.9419,-7
1605960449.9440,-14
1605960449.9459,-19
1605960449.9479,-21
1605960449.9500,-26
1605960449.9520,-36
1605960449.9539,-48
1605960449.9560,-51
1605960449.9579,-48
1605960449.9600,-61
1605960449.9620,-70
1605960449.9640,-80
1605960449.9661,-95
1605960449.9680,-100
1605960449.9699,-92
1605960449.9720,-83
1605960449.9740,-75
1605960449.9759,-65
1605960449.9780,-48
1605960449.9799,-34
1605960449.9819,-14
1605960449.9839,12
1605960449.9859,46
1605960449.9880,73
1605960449.9900,78
1605960449.9919,78
1605960450.3884,90
1605960450.3893,102
1605960450.3918,109
1605960450.3944,112
1605960450.3964,107
1605960450.3984,97
1605960450.4004,75
1605960450.4023,63
1605960450.4043,80
1605960450.4063,70
1605960450.4084,39
1605960450.4103,39
1605960450.4123,43
1605960450.4143,31
1605960450.4163,46
1605960450.4183,75
1605960450.4203,68
1605960450.4223,48
1605960450.4243,43
1605960450.4263,36
1605960450.4283,39
1605960450.4303,56
1605960450.4323,58
1605960450.4343,56
1605960450.4363,65
1605960450.4383,58
1605960450.4403,43
1605960450.4423,53
1605960450.4443,70
1605960450.4463,61
1605960450.4483,43
1605960450.4503,46
1605960450.4523,68
1605960450.4543,78
1605960450.4563,63
1605960450.4583,51
1605960450.4603,68
1605960450.4625,73
1605960450.4644,39
1605960450.4663,14
1605960450.4683,26
1605960450.4703,46
1605960450.4723,43
1605960450.4743,48
1605960450.4763,65
1605960450.4783,65
1605960450.4803,53
1605960450.4823,53
1605960450.4843,51
1605960450.4863,43
1605960450.4883,46
1605960450.4903,61
1605960450.4923,-14
1605960450.4943,-270
1605960450.4963,-473
1605960450.4983,-117
1605960450.5003,627
1605960450.5023,744
1605960450.5043,200
1605960450.5063,-12
1605960450.5083,104
1605960450.5103,58
1605960450.5123,-2
1605960450.5143,34
1605960450.5163,17
1605960450.5183,-9
1605960450.5203,7
1605960450.5223,7
1605960450.5243,9
1605960450.5263,36
1605960450.5283,34
1605960450.5304,4
1605960450.5323,-9
1605960450.9281,-4
1605960450.9290,-12
1605960450.9315,-31
1605960450.9342,-34
1605960450.9361,-21
1605960450.9381,-17
1605960450.9402,-41
1605960450.9421,-70
1605960450.9440,-85
1605960450.9460,-100
1605960450.9481,-109
1605960450.9501,-109
1605960450.9520,-97
1605960450.9540,-80
1605960450.9560,-73
1605960450.9582,-73
1605960450.9600,-73
1605960450.9620,-39
1605960450.9640,12
1605960450.9661,26
1605960450.9680,34
1605960450.9700,48
1605960450.9720,53
1605960450.9740,61
1605960450.9760,75
1605960450.9780,104
1605960450.9800,129
1605960450.9820,112
1605960450.9840,85
1605960450.9860,83
1605960450.9880,83
1605960450.9901,70
1605960450.9920,56
1605960450.9940,48
1605960450.9960,39
1605960450.9981,31
1605960451.0001,39
1605960451.0021,39
1605960451.0041,24
1605960451.0060,14
1605960451.0080,31
1605960451.0100,56
1605960451.0120,53
1605960451.0140,46
1605960451.0160,46
1605960451.0180,24
1605960451.0200,4
1605960451.0220,21
1605960451.0240,51
1605960451.0260,61
1605960451.0280,48
1605960451.0300,51
1605960451.0320,65
1605960451.0340,39
1605960451.0360,9
1605960451.0380,36
1605960451.0400,85
1605960451.0420,90
1605960451.0441,65
1605960451.0460,61
1605960451.0481,41
1605960451.0500,12
1605960451.0520,7
1605960451.0540,14
1605960451.0560,26
1605960451.0581,29
1605960451.0603,24
1605960451.0622,51
1605960451.0641,70
1605960451.0660,43
1605960451.0680,12
1605960451.0700,12
1605960451.0720,41
1605960451.5279,48
1605960451.5289,-7
1605960451.5313,-185
1605960451.5340,-458
1605960451.5359,-346
1605960451.5379,346
1605960451.5400,739
1605960451.5419,336
1605960451.5439,-12
1605960451.5459,51
1605960451.5479,39
1605960451.5500,-48
1605960451.5519,-17
1605960451.5538,17
1605960451.5558,-9
1605960451.5578,-14
1605960451.5599,2
1605960451.5618,9
1605960451.5638,12
1605960451.5659,-7
1605960451.5678,-36
1605960451.5699,-36
1605960451.5718,-17
1605960451.5738,-24
1605960451.5758,-48
1605960451.5778,-46
1605960451.5799,-21
1605960451.5818,-26
1605960451.5838,-61
1605960451.5858,-90
1605960451.5878,-83
1605960451.5898,-51
1605960451.5918,-58
1605960451.5938,-73
1605960451.5958,-70
1605960451.5978,-78
1605960451.5998,-78
1605960451.6018,-53
1605960451.6038,-31
1605960451.6059,-29
1605960451.6078,-31
1605960451.6098,-19
1605960451.6119,-9
1605960451.6138,24
1605960451.6160,83
1605960451.6179,104
1605960451.6199,95
1605960451.6219,92
1605960451.6239,107
1605960451.6259,129
1605960451.6278,119
1605960451.6300,100
1605960451.6318,119
1605960451.6339,112
1605960451.6359,70
1605960451.6379,70
1605960451.6400,75
1605960451.6418,51
1605960451.6438,31
1605960451.6458,36
1605960451.6478,39
1605960451.6499,39
1605960451.6518,46
1605960451.6538,46
1605960451.6558,41
1605960451.6578,41
1605960451.6599,46
1605960451.6618,53
1605960451.6638,46
1605960451.6658,34
1605960451.6678,41
1605960451.6685,48
1605960451.6698,41
1605960452.0983,41
1605960452.0992,39
1605960452.1016,24
1605960452.1043,21
1605960452.1063,51
1605960452.1083,65
1605960452.1089,46
1605960452.1102,36
1605960452.1122,31
1605960452.1142,9
1605960452.1162,0
1605960452.1182,12
1605960452.1203,24
1605960452.1222,29
1605960452.1242,39
1605960452.1262,34
1605960452.1282,31
1605960452.1302,41
1605960452.1322,46
1605960452.1343,31
1605960452.1362,17
1605960452.1369,-2
1605960452.1383,-156
1605960452.1402,-437
1605960452.1422,-412
1605960452.1442,219
1605960452.1462,725
1605960452.1482,395
1605960452.1502,-17
1605960452.1522,58
1605960452.1542,109
1605960452.1562,-4
1605960452.1583,-14
1605960452.1602,21
1605960452.1622,2
1605960452.1642,-17
1605960452.1662,-7
1605960452.1669,2
1605960452.1682,17
1605960452.1703,19
1605960452.1722,-4
1605960452.1742,-14
1605960452.1762,-2
1605960452.1782,-9
1605960452.1802,-46
1605960452.1822,-61
1605960452.1842,-43
1605960452.1862,-56
1605960452.1882,-70
1605960452.1902,-56
1605960452.1922,-61
1605960452.1942,-85
1605960452.1962,-100
1605960452.1969,-122
1605960452.1982,-129
1605960452.2002,-104
1605960452.2022,-97
1605960452.2042,-90
1605960452.2062,-51
1605960452.2082,-39
1605960452.2102,-43
1605960452.2122,-12
1605960452.2142,9
1605960452.2162,41
1605960452.2182,87
1605960452.2202,90
1605960452.2222,83
1605960452.2242,83
1605960452.2262,83
1605960452.2269,95
1605960452.2282,107
1605960452.2302,104
1605960452.2322,85
1605960452.6384,58
1605960452.6391,48
1605960452.6415,61
1605960452.6442,68
1605960452.6461,53
1605960452.6481,41
1605960452.6502,48
1605960452.6521,39
1605960452.6541,46
1605960452.6561,75
1605960452.6568,41
1605960452.6591,12
1605960452.6611,48
1605960452.6631,58
1605960452.6651,34
1605960452.6671,29
1605960452.6691,48
1605960452.6711,56
1605960452.6731,36
1605960452.6751,19
1605960452.6771,19
1605960452.6791,39
1605960452.6811,70
1605960452.6831,73
1605960452.6851,31
1605960452.6871,-14
1605960452.6878,-4
1605960452.6891,39
1605960452.6911,51
1605960452.6931,34
1605960452.6951,21
1605960452.6971,43
1605960452.6992,63
1605960452.7011,34
1605960452.7031,24
1605960452.7051,48
1605960452.7071,36
1605960452.7091,7
1605960452.7111,21
1605960452.7131,12
1605960452.7151,-166
1605960452.7171,-441
1605960452.7178,-322
1605960452.7191,339
1605960452.7212,678
1605960452.7231,283
1605960452.7251,-2
1605960452.7271,70
1605960452.7291,36
1605960452.7311,-34
1605960452.7331,-2
1605960452.7353,-9
1605960452.7371,-41
1605960452.7391,-9
1605960452.7411,14
1605960452.7431,-12
1605960452.7451,-21
1605960452.7472,-4
1605960452.7478,-2
1605960452.7491,-12
1605960452.7511,-17
1605960452.7531,-14
1605960452.7551,-29
1605960452.7571,-46
1605960452.7591,-43
1605960452.7611,-46
1605960452.7631,-56
1605960452.7651,-61
1605960452.7671,-83
1605960452.7691,-102
1605960452.7711,-97
1605960452.7731,-87
1605960452.7751,-80
1605960453.1782,-78
1605960453.1790,-78
1605960453.1814,-70
1605960453.1841,-63
1605960453.1861,-48
1605960453.1881,-26
1605960453.1901,4
1605960453.1920,41
1605960453.1940,43
1605960453.1960,36
1605960453.1980,61
1605960453.2000,70
1605960453.2019,61
1605960453.2039,56
1605960453.2059,70
1605960453.2079,92
1605960453.2100,78
1605960453.2107,56
1605960453.2130,53
1605960453.2149,63
1605960453.2169,83
1605960453.2190,78
1605960453.2210,51
1605960453.2230,43
1605960453.2249,43
1605960453.2270,29
1605960453.2290,24
1605960453.2309,48
1605960453.2329,63
1605960453.2351,46
1605960453.2370,39
1605960453.2390,56
1605960453.2409,63
1605960453.2416,48
1605960453.2429,31
1605960453.2449,31
1605960453.2470,39
1605960453.2490,36
1605960453.2510,21
1605960453.2530,24
1605960453.2550,53
1605960453.2569,58
1605960453.2591,34
1605960453.2609,29
1605960453.2630,41
1605960453.2649,43
1605960453.2669,48
1605960453.2690,61
1605960453.2696,56
1605960453.2710,34
1605960453.2729,17
1605960453.2750,29
1605960453.2769,56
1605960453.2790,56
1605960453.2809,41
1605960453.2830,2
1605960453.2849,-192
1605960453.2870,-451
1605960453.2890,-263
1605960453.2909,412
1605960453.2929,664
1605960453.2949,219
1605960453.2969,-43
1605960453.2990,43
1605960453.3009,12
1605960453.3029,-63
1605960453.3050,-14
1605960453.3069,9
1605960453.3090,-17
1605960453.3109,-4
1605960453.3129,12
1605960453.3149,4
1605960453.3169,-2
1605960453.7477,-14
1605960453.7484,-12
1605960453.7508,-4
1605960453.7536,-19
1605960453.7555,-46
1605960453.7575,-63
1605960453.7596,-68
1605960453.7617,-61
1605960453.7636,-61
1605960453.7655,-70
1605960453.7675,-80
1605960453.7695,-90
1605960453.7715,-104
1605960453.7735,-114
1605960453.7755,-97
1605960453.7775,-75
1605960453.7796,-80
1605960453.7815,-85
1605960453.7835,-65
1605960453.7855,-53
1605960453.7875,-43
1605960453.7895,-24
1605960453.7915,-2
1605960453.7935,14
1605960453.7954,41
1605960453.7975,68
1605960453.7995,75
1605960453.8014,68
1605960453.8034,70
1605960453.8054,85
1605960453.8075,92
1605960453.8095,83
1605960453.8114,70
1605960453.8134,63
1605960453.8155,56
1605960453.8174,65
1605960453.8195,65
1605960453.8214,56
1605960453.8234,53
1605960453.8254,51
1605960453.8274,48
1605960453.8295,51
1605960453.8315,48
1605960453.8334,41
1605960453.8354,39
1605960453.8374,46
1605960453.8395,48
1605960453.8414,43
1605960453.8435,46
1605960453.8454,48
1605960453.8474,53
1605960453.8495,53
1605960453.8514,43
1605960453.8535,51
1605960453.8554,73
1605960453.8574,70
1605960453.8595,41
1605960453.8614,19
1605960453.8636,21
1605960453.8655,31
1605960453.8675,43
1605960453.8695,51
1605960453.8714,43
1605960453.8734,53
1605960453.8754,70
1605960453.8774,61
1605960453.8795,51
1605960453.8814,53
1605960453.8834,48
1605960453.8854,41
1605960453.8874,48
1605960453.8895,29
1605960453.8914,-144
1605960454.2883,-437
1605960454.2892,-400
1605960454.2917,258
1605960454.2943,781
1605960454.2963,449
1605960454.2983,-7
1605960454.3003,7
1605960454.3023,31
1605960454.3042,-61
1605960454.3062,-41
1605960454.3082,-7
1605960454.3103,-34
1605960454.3123,-41
1605960454.3143,-29
1605960454.3162,-31
1605960454.3182,-34
1605960454.3203,-36
1605960454.3223,-46
1605960454.3242,-48
1605960454.3262,-53
1605960454.3282,-56
1605960454.3303,-56
1605960454.3322,-58
1605960454.3342,-73
1605960454.3362,-85
1605960454.3382,-95
1605960454.3403,-100
1605960454.3422,-104
1605960454.3442,-119
1605960454.3462,-129
1605960454.3482,-119
1605960454.3503,-114
1605960454.3522,-109
1605960454.3542,-107
1605960454.3562,-102
1605960454.3582,-85
1605960454.3604,-68
1605960454.3623,-46
1605960454.3642,-17
1605960454.3662,0
1605960454.3682,17
1605960454.3703,34
1605960454.3722,48
1605960454.3742,58
1605960454.3762,68
1605960454.3782,80
1605960454.3802,87
1605960454.3822,87
1605960454.3842,80
1605960454.3862,68
1605960454.3882,63
1605960454.3902,65
1605960454.3922,63
1605960454.3942,56
1605960454.3962,51
1605960454.3982,46
1605960454.4002,43
1605960454.4022,41
1605960454.4042,41
1605960454.4062,43
1605960454.4082,41
1605960454.4102,43
1605960454.4122,46
1605960454.4142,39
1605960454.4162,29
1605960454.4182,41
1605960454.4203,70
1605960454.4222,83
1605960454.4242,80
1605960454.4262,70
1605960454.4282,51
1605960454.4302,34
1605960454.4322,31
1605960454.8883,34
1605960454.8892,34
1605960454.8916,29
1605960454.8943,29
1605960454.8963,43
1605960454.8983,56
1605960454.9003,51
1605960454.9022,31
1605960454.9042,26
1605960454.9062,41
1605960454.9082,34
1605960454.9102,24
1605960454.9122,4
1605960454.9142,-173
1605960454.9165,-466
1605960454.9183,-371
1605960454.9202,334
1605960454.9222,773
1605960454.9242,351
1605960454.9262,-46
1605960454.9282,43
1605960454.9303,63
1605960454.9322,-39
1605960454.9342,-19
1605960454.9362,14
1605960454.9382,-2
1605960454.9402,-4
1605960454.9422,-9
1605960454.9442,-24
1605960454.9462,-24
1605960454.9482,-21
1605960454.9503,-14
1605960454.9522,0
1605960454.9542,-17
1605960454.9562,-43
1605960454.9582,-51
1605960454.9602,-63
1605960454.9622,-80
1605960454.9642,-85
1605960454.9662,-92
1605960454.9684,-95
1605960454.9702,-78
1605960454.9722,-80
1605960454.9742,-107
1605960454.9762,-114
1605960454.9782,-102
1605960454.9802,-100
1605960454.9808,-104
1605960454.9822,-92
1605960454.9842,-63
1605960454.9862,-36
1605960454.9882,-17
1605960454.9902,0
1605960454.9922,21
1605960454.9942,36
1605960454.9962,56
1605960454.9982,78
1605960455.0002,73
1605960455.0022,65
1605960455.0042,85
1605960455.0062,92
1605960455.0082,85
1605960455.0102,85
1605960455.0108,70
1605960455.0122,53
1605960455.0144,48
1605960455.0163,39
1605960455.0183,48
1605960455.0203,75
1605960455.0222,63
1605960455.0242,48
1605960455.0262,56
1605960455.0282,48
1605960455.4582,26
1605960455.4592,24
1605960455.4616,34
1605960455.4643,41
1605960455.4650,51
1605960455.4663,61
1605960455.4683,51
1605960455.4703,36
1605960455.4722,41
1605960455.4742,46
1605960455.4762,43
1605960455.4782,26
1605960455.4802,9
1605960455.4822,9
1605960455.4842,17
1605960455.4862,21
1605960455.4882,24
1605960455.4902,26
1605960455.4922,39
1605960455.4941,61
1605960455.4948,61
1605960455.4961,31
1605960455.4981,21
1605960455.5002,41
1605960455.5021,41
1605960455.5041,29
1605960455.5061,36
1605960455.5082,-39
1605960455.5102,-312
1605960455.5122,-500
1605960455.5141,-70
1605960455.5161,629
1605960455.5181,605
1605960455.5202,95
1605960455.5221,-7
1605960455.5241,97
1605960455.5248,14
1605960455.5261,-29
1605960455.5281,26
1605960455.5302,21
1605960455.5322,-17
1605960455.5341,-14
1605960455.5361,4
1605960455.5383,9
1605960455.5402,7
1605960455.5422,4
1605960455.5443,-4
1605960455.5462,-9
1605960455.5481,-12
1605960455.5502,-29
1605960455.5521,-53
1605960455.5542,-63
1605960455.5548,-48
1605960455.5561,-39
1605960455.5581,-65
1605960455.5602,-92
1605960455.5621,-92
1605960455.5641,-87
1605960455.5662,-92
1605960455.5681,-102
1605960455.5702,-104
1605960455.5721,-92
1605960455.5741,-65
1605960455.5761,-46
1605960455.5781,-51
1605960455.5802,-48
1605960455.5821,-7
1605960455.5841,24
1605960455.5848,31
1605960455.5861,41
1605960455.5881,63
1605960455.5902,65
1605960455.5921,58
1605960455.9980,78
1605960455.9991,92
1605960456.0015,63
1605960456.0042,51
1605960456.0061,85
1605960456.0082,95
1605960456.0102,61
1605960456.0121,46
1605960456.0141,53
1605960456.0147,43
1605960456.0161,29
1605960456.0181,34
1605960456.0201,29
1605960456.0220,31
1605960456.0241,53
1605960456.0260,43
1605960456.0281,31
1605960456.0300,51
1605960456.0321,51
1605960456.0340,31
1605960456.0361,39
1605960456.0382,51
1605960456.0401,36
1605960456.0420,31
1605960456.0440,56
1605960456.0447,68
1605960456.0460,61
1605960456.0480,61
1605960456.0501,51
1605960456.0520,26
1605960456.0540,7
1605960456.0560,14
1605960456.0580,43
1605960456.0600,51
1605960456.0621,43
1605960456.0641,56
1605960456.0662,63
1605960456.0681,48
1605960456.0700,46
1605960456.0720,63
1605960456.0741,56
1605960456.0747,36
1605960456.0761,56
1605960456.0780,61
1605960456.0801,-92
1605960456.0821,-385
1605960456.0840,-424
1605960456.0860,129
1605960456.0880,678
1605960456.0900,449
1605960456.0920,12
1605960456.0941,24
1605960456.0960,85
1605960456.0980,0
1605960456.1001,-2
1605960456.1020,31
1605960456.1040,7
1605960456.1047,2
1605960456.1060,19
1605960456.1080,2
1605960456.1101,-21
1605960456.1120,-19
1605960456.1140,-12
1605960456.1160,-21
1605960456.1181,-41
1605960456.1201,-48
1605960456.1220,-36
1605960456.1240,-48
1605960456.1260,-70
1605960456.1280,-70
1605960456.1300,-61
1605960456.1320,-65
1605960456.1342,-83
1605960456.5681,-100
1605960456.5690,-104
1605960456.5707,-107
1605960456.5727,-92
1605960456.5747,-80
1605960456.5767,-95
1605960456.5787,-90
1605960456.5806,-61
1605960456.5826,-56
1605960456.5846,-53
1605960456.5866,-31
1605960456.5886,-7
1605960456.5906,14
1605960456.5913,31
1605960456.5926,31
1605960456.5946,29
1605960456.5966,56
1605960456.5986,92
1605960456.6006,92
1605960456.6025,65
1605960456.6046,56
1605960456.6066,61
1605960456.6087,61
1605960456.6105,56
1605960456.6125,51
1605960456.6146,39
1605960456.6166,36
1605960456.6186,43
1605960456.6206,46
1605960456.6212,48
1605960456.6225,53
1605960456.6245,51
1605960456.6265,41
1605960456.6286,34
1605960456.6305,31
1605960456.6325,34
1605960456.6345,29
1605960456.6365,19
1605960456.6386,41
1605960456.6406,75
1605960456.6426,80
1605960456.6446,68
1605960456.6466,61
1605960456.6486,51
1605960456.6506,51
1605960456.6512,53
1605960456.6526,53
1605960456.6546,43
1605960456.6565,26
1605960456.6586,19
1605960456.6607,19
1605960456.6626,17
1605960456.6646,34
1605960456.6666,56
1605960456.6686,56
1605960456.6705,48
1605960456.6726,53
1605960456.6746,46
1605960456.6766,31
1605960456.6786,26
1605960456.6806,43
1605960456.6813,48
1605960456.6825,26
1605960456.6845,-92
1605960456.6865,-375
1605960456.6886,-466
1605960456.6906,80
1605960456.6926,695
1605960456.6946,502
1605960456.6965,19
1605960456.6986,-4
1605960456.7006,78
1605960456.7025,2
1605960457.1077,-14
1605960457.1085,7
1605960457.1109,-14
1605960457.1136,-17
1605960457.1143,-7
1605960457.1155,-14
1605960457.1175,-19
1605960457.1195,-17
1605960457.1216,-24
1605960457.1235,-41
1605960457.1255,-53
1605960457.1275,-53
1605960457.1296,-56
1605960457.1315,-56
1605960457.1335,-58
1605960457.1355,-65
1605960457.1375,-70
1605960457.1395,-80
1605960457.1415,-90
1605960457.1435,-97
1605960457.1442,-109
1605960457.1455,-114
1605960457.1475,-117
1605960457.1495,-114
1605960457.1516,-85
1605960457.1535,-53
1605960457.1555,-46
1605960457.1575,-56
1605960457.1597,-48
1605960457.1615,-19
1605960457.1635,0
1605960457.1655,14
1605960457.1675,41
1605960457.1695,63
1605960457.1715,65
1605960457.1722,56
1605960457.1735,63
1605960457.1755,75
1605960457.1775,73
1605960457.1795,73
1605960457.1815,70
1605960457.1835,65
1605960457.1855,65
1605960457.1875,48
1605960457.1895,34
1605960457.1915,41
1605960457.1935,56
1605960457.1955,48
1605960457.1975,31
1605960457.1995,31
1605960457.2015,41
1605960457.2021,36
1605960457.2035,34
1605960457.2055,48
1605960457.2074,48
1605960457.2095,36
1605960457.2115,31
1605960457.2135,34
1605960457.2155,41
1605960457.2175,56
1605960457.2195,63
1605960457.2215,53
1605960457.2235,53
1605960457.2255,58
1605960457.2275,48
1605960457.2295,46
1605960457.2315,61
1605960457.2321,53
1605960457.2335,21
1605960457.2355,9
1605960457.2375,21
1605960457.2395,29
1605960457.2415,31
1605960457.6783,39
1605960457.6792,34
1605960457.6817,34
1605960457.6843,48
1605960457.6863,61
1605960457.6883,56
1605960457.6905,31
1605960457.6924,19
1605960457.6929,31
1605960457.6942,36
1605960457.6962,4
1605960457.6982,-158
1605960457.7002,-444
1605960457.7022,-402
1605960457.7042,258
1605960457.7062,773
1605960457.7082,424
1605960457.7102,-24
1605960457.7122,9
1605960457.7142,43
1605960457.7162,-41
1605960457.7182,-17
1605960457.7202,4
1605960457.7222,-34
1605960457.7229,-26
1605960457.7242,2
1605960457.7262,-7
1605960457.7282,-31
1605960457.7302,-34
1605960457.7322,-29
1605960457.7342,-36
1605960457.7362,-43
1605960457.7382,-51
1605960457.7402,-65
1605960457.7422,-75
1605960457.7442,-65
1605960457.7462,-53
1605960457.7482,-65
1605960457.7502,-80
1605960457.7522,-87
1605960457.7528,-107
1605960457.7542,-122
1605960457.7562,-112
1605960457.7582,-109
1605960457.7602,-112
1605960457.7622,-97
1605960457.7642,-73
1605960457.7662,-61
1605960457.7682,-58
1605960457.7703,-46
1605960457.7722,-21
1605960457.7742,2
1605960457.7762,26
1605960457.7782,48
1605960457.7802,65
1605960457.7822,75
1605960457.7829,80
1605960457.7844,85
1605960457.7862,83
1605960457.7882,78
1605960457.7902,80
1605960457.7922,78
1605960457.7942,58
1605960457.7962,46
1605960457.7983,56
1605960457.8002,56
1605960457.8022,51
1605960457.8042,48
1605960457.8062,41
1605960457.8082,36
1605960457.8103,46
1605960457.8122,56
1605960457.8129,46
1605960458.2483,41
1605960458.2492,51
1605960458.2516,61
1605960458.2543,58
1605960458.2563,61
1605960458.2583,68
1605960458.2602,53
1605960458.2622,36
1605960458.2642,46
1605960458.2662,56
1605960458.2683,43
1605960458.2702,41
1605960458.2722,51
1605960458.2742,53
1605960458.2749,46
1605960458.2762,39
1605960458.2782,26
1605960458.2802,12
1605960458.2822,7
1605960458.2842,17
1605960458.2862,41
1605960458.2882,65
1605960458.2902,58
1605960458.2922,43
1605960458.2942,51
1605960458.2962,56
1605960458.2982,46
1605960458.3002,34
1605960458.3022,26
1605960458.3042,39
1605960458.3048,34
1605960458.3062,-134
1605960458.3082,-441
1605960458.3103,-419
1605960458.3122,234
1605960458.3143,761
1605960458.3162,432
1605960458.3182,-17
1605960458.3202,19
1605960458.3222,56
1605960458.3242,-39
1605960458.3262,-24
1605960458.3282,4
1605960458.3302,-29
1605960458.3322,-26
1605960458.3342,-9
1605960458.3348,-21
1605960458.3362,-31
1605960458.3382,-31
1605960458.3402,-39
1605960458.3422,-34
1605960458.3442,-26
1605960458.3462,-39
1605960458.3482,-48
1605960458.3503,-56
1605960458.3522,-65
1605960458.3542,-58
1605960458.3562,-51
1605960458.3582,-70
1605960458.3602,-90
1605960458.3622,-90
1605960458.3642,-87
1605960458.3648,-100
1605960458.3662,-104
1605960458.3682,-85
1605960458.3702,-68
1605960458.3722,-68
1605960458.3741,-56
1605960458.3762,-29
1605960458.3782,-14
1605960458.3802,0
1605960458.3822,19
1605960458.3842,39
1605960458.8182,58
1605960458.8192,68
1605960458.8216,75
1605960458.8227,85
1605960458.8243,90
1605960458.8263,95
1605960458.8282,90
1605960458.8302,75
1605960458.8322,56
1605960458.8342,48
1605960458.8362,51
1605960458.8382,41
1605960458.8401,39
1605960458.8423,51
1605960458.8442,39
1605960458.8461,36
1605960458.8481,53
1605960458.8502,46
1605960458.8521,31
1605960458.8528,31
1605960458.8541,31
1605960458.8562,39
1605960458.8581,46
1605960458.8602,48
1605960458.8621,46
1605960458.8641,43
1605960458.8661,53
1605960458.8681,61
1605960458.8702,51
1605960458.8721,41
1605960458.8742,43
1605960458.8761,43
1605960458.8781,46
1605960458.8801,53
1605960458.8821,58
1605960458.8828,39
1605960458.8841,14
1605960458.8861,24
1605960458.8881,41
1605960458.8902,31
1605960458.8921,24
1605960458.8941,34
1605960458.8961,36
1605960458.8981,36
1605960458.9002,48
1605960458.9021,48
1605960458.9041,34
1605960458.9061,41
1605960458.9081,53
1605960458.9102,43
1605960458.9121,-4
1605960458.9128,-185
1605960458.9141,-446
1605960458.9161,-356
1605960458.9181,300
1605960458.9202,729
1605960458.9221,346
1605960458.9241,-51
1605960458.9261,14
1605960458.9281,51
1605960458.9302,-29
1605960458.9321,-14
1605960458.9341,7
1605960458.9361,-21
1605960458.9383,-14
1605960458.9402,-2
1605960458.9408,-26
1605960458.9421,-39
1605960458.9441,-29
1605960458.9461,-24
1605960458.9481,-21
1605960458.9502,-21
1605960458.9522,-31
1605960459.3583,-41
1605960459.3594,-48
1605960459.3618,-56
1605960459.3645,-68
1605960459.3665,-75
1605960459.3685,-80
1605960459.3705,-80
1605960459.3724,-75
1605960459.3744,-85
1605960459.3751,-107
1605960459.3764,-102
1605960459.3784,-85
1605960459.3804,-83
1605960459.3824,-75
1605960459.3844,-65
1605960459.3864,-48
1605960459.3884,-21
1605960459.3903,0
1605960459.3923,12
1605960459.3944,26
1605960459.3963,56
1605960459.3983,68
1605960459.4004,63
1605960459.4023,65
1605960459.4043,70
1605960459.4050,65
1605960459.4064,61
1605960459.4083,61
1605960459.4103,63
1605960459.4123,58
1605960459.4143,53
1605960459.4163,46
1605960459.4184,41
1605960459.4204,48
1605960459.4223,51
1605960459.4244,41
1605960459.4265,41
1605960459.4284,39
1605960459.4304,36
1605960459.4323,46
1605960459.4344,51
1605960459.4350,41
1605960459.4365,46
1605960459.4384,63
1605960459.4403,61
1605960459.4423,51
1605960459.4444,51
1605960459.4463,56
1605960459.4483,61
1605960459.4504,56
1605960459.4525,43
1605960459.4544,56
1605960459.4564,75
1605960459.4583,73
1605960459.4603,56
1605960459.4623,29
1605960459.4644,17
1605960459.4650,29
1605960459.4664,31
1605960459.4683,29
1605960459.4703,31
1605960459.4724,34
1605960459.4744,46
1605960459.4764,53
1605960459.4783,48
1605960459.4803,48
1605960459.4823,48
1605960459.4843,39
1605960459.4863,34
1605960459.4883,39
1605960459.4903,-9
1605960459.4923,-239
1605960459.4943,-488
1605960459.9280,-244
1605960459.9288,473
1605960459.9312,695
1605960459.9339,195
1605960459.9359,-63
1605960459.9379,61
1605960459.9399,34
1605960459.9418,-53
1605960459.9439,-24
1605960459.9458,-14
1605960459.9478,-34
1605960459.9499,-19
1605960459.9518,-12
1605960459.9525,-29
1605960459.9539,-41
1605960459.9559,-43
1605960459.9578,-39
1605960459.9598,-26
1605960459.9605,-34
1605960459.9628,-51
1605960459.9650,-56
1605960459.9668,-61
1605960459.9688,-70
1605960459.9708,-70
1605960459.9728,-65
1605960459.9748,-73
1605960459.9768,-75
1605960459.9788,-83
1605960459.9794,-95
1605960459.9808,-97
1605960459.9828,-83
1605960459.9848,-75
1605960459.9868,-73
1605960459.9888,-56
1605960459.9908,-41
1605960459.9928,-36
1605960459.9948,-21
1605960459.9968,7
1605960459.9988,34
1605960460.0008,41
1605960460.0028,53
1605960460.0048,63
1605960460.0068,68
1605960460.0088,85
1605960460.0094,104
1605960460.0108,100
1605960460.0129,78
1605960460.0148,58
1605960460.0168,58
1605960460.0188,63
1605960460.0208,58
1605960460.0228,43
1605960460.0248,39
1605960460.0268,48
1605960460.0288,56
1605960460.0308,53
1605960460.0328,46
1605960460.0348,41
1605960460.0368,46
1605960460.0388,48
1605960460.0394,46
1605960460.0408,53
1605960460.0428,53
1605960460.0448,46
1605960460.0468,51
1605960460.0488,61
1605960460.0508,68
1605960460.0528,68
1605960460.0548,56
1605960460.0568,51
1605960460.0588,56
1605960460.0610,56
1605960460.0628,56
1605960460.4677,61
1605960460.4685,61
1605960460.4702,34
1605960460.4726,7
1605960460.4745,9
1605960460.4765,17
1605960460.4786,12
1605960460.4805,9
1605960460.4825,14
1605960460.4845,24
1605960460.4865,34
1605960460.4886,36
1605960460.4905,36
1605960460.4925,34
1605960460.4945,24
1605960460.4965,14
1605960460.4986,17
1605960460.5005,-29
1605960460.5011,-246
1605960460.5025,-485
1605960460.5045,-258
1605960460.5065,429
1605960460.5086,676
1605960460.5105,217
1605960460.5125,-53
1605960460.5145,48
1605960460.5165,29
1605960460.5185,-43
1605960460.5205,-7
1605960460.5225,0
1605960460.5245,-29
1605960460.5265,-17
1605960460.5286,-9
1605960460.5305,-14
1605960460.5311,-14
1605960460.5325,-19
1605960460.5345,-29
1605960460.5365,-31
1605960460.5385,-36
1605960460.5405,-46
1605960460.5425,-56
1605960460.5445,-58
1605960460.5465,-58
1605960460.5485,-61
1605960460.5505,-61
1605960460.5525,-65
1605960460.5545,-78
1605960460.5564,-90
1605960460.5585,-90
1605960460.5606,-87
1605960460.5611,-90
1605960460.5625,-75
1605960460.5645,-61
1605960460.5665,-53
1605960460.5686,-46
1605960460.5705,-31
1605960460.5725,-9
1605960460.5745,9
1605960460.5765,24
1605960460.5785,51
1605960460.5805,75
1605960460.5825,80
1605960460.5845,83
1605960460.5865,90
1605960460.5885,87
1605960460.5905,78
1605960460.5911,73
1605960460.5925,80
1605960460.5945,75
1605960460.5965,48
1605960460.5986,29
1605960460.6005,34
1605960460.6025,48
1605960461.0379,43
1605960461.0389,29
1605960461.0414,41
1605960461.0440,58
1605960461.0459,46
1605960461.0480,21
1605960461.0502,21
1605960461.0509,34
1605960461.0520,34
1605960461.0540,36
1605960461.0560,43
1605960461.0580,43
1605960461.0599,43
1605960461.0620,43
1605960461.0640,53
1605960461.0660,53
1605960461.0680,41
1605960461.0700,41
1605960461.0719,48
1605960461.0739,43
1605960461.0759,39
1605960461.0779,53
1605960461.0800,68
1605960461.0805,41
1605960461.0829,9
1605960461.0849,19
1605960461.0869,29
1605960461.0891,19
1605960461.0910,17
1605960461.0929,34
1605960461.0949,56
1605960461.0969,48
1605960461.0990,34
1605960461.1009,41
1605960461.1029,46
1605960461.1049,43
1605960461.1069,39
1605960461.1089,26
1605960461.1110,-63
1605960461.1116,-322
1605960461.1129,-488
1605960461.1149,-70
1605960461.1169,607
1605960461.1189,590
1605960461.1209,87
1605960461.1229,-17
1605960461.1249,92
1605960461.1269,7
1605960461.1289,-48
1605960461.1309,7
1605960461.1329,7
1605960461.1349,-24
1605960461.1369,-17
1605960461.1389,-4
1605960461.1409,-21
1605960461.1415,-29
1605960461.1429,-17
1605960461.1449,-14
1605960461.1469,-26
1605960461.1489,-34
1605960461.1509,-39
1605960461.1529,-46
1605960461.1549,-63
1605960461.1569,-70
1605960461.1589,-68
1605960461.1609,-68
1605960461.1629,-80
1605960461.1649,-97
1605960461.1669,-107
1605960461.1689,-90
1605960461.1709,-75
1605960461.1715,-83
1605960461.1729,-83
1605960461.6677,-68
1605960461.6686,-51
1605960461.6711,-39
1605960461.6737,-26
1605960461.6757,-7
1605960461.6780,2
1605960461.6798,2
1605960461.6817,19
1605960461.6837,51
1605960461.6857,70
1605960461.6877,73
1605960461.6884,70
1605960461.6896,68
1605960461.6917,61
1605960461.6936,58
1605960461.6956,63
1605960461.6976,63
1605960461.6997,53
1605960461.7017,43
1605960461.7037,41
1605960461.7056,31
1605960461.7076,29
1605960461.7097,43
1605960461.7116,43
1605960461.7136,29
1605960461.7156,29
1605960461.7176,31
1605960461.7182,34
1605960461.7196,39
1605960461.7216,48
1605960461.7236,53
1605960461.7256,46
1605960461.7276,48
1605960461.7297,58
1605960461.7316,51
1605960461.7336,48
1605960461.7356,53
1605960461.7376,51
1605960461.7396,48
1605960461.7416,46
1605960461.7436,53
1605960461.7456,56
1605960461.7476,56
1605960461.7482,43
1605960461.7496,17
1605960461.7516,14
1605960461.7536,31
1605960461.7556,29
1605960461.7576,24
1605960461.7596,29
1605960461.7616,34
1605960461.7636,39
1605960461.7656,41
1605960461.7676,41
1605960461.7696,31
1605960461.7716,24
1605960461.7738,29
1605960461.7756,21
1605960461.7776,-19
1605960461.7782,-183
1605960461.7796,-463
1605960461.7816,-415
1605960461.7836,253
1605960461.7856,749
1605960461.7876,388
1605960461.7896,-39
1605960461.7916,21
1605960461.7936,56
1605960461.7956,-48
1605960461.7976,-41
1605960461.7996,-7
1605960461.8016,-31
1605960461.8036,-29
1605960462.1779,-12
1605960462.1787,-21
1605960462.1803,-34
1605960462.1822,-36
1605960462.1842,-39
1605960462.1861,-43
1605960462.1881,-41
1605960462.1901,-39
1605960462.1921,-53
1605960462.1941,-70
1605960462.1961,-70
1605960462.1983,-75
1605960462.2011,-90
1605960462.2031,-97
1605960462.2051,-104
1605960462.2071,-119
1605960462.2077,-124
1605960462.2091,-122
1605960462.2111,-122
1605960462.2132,-112
1605960462.2151,-92
1605960462.2171,-75
1605960462.2192,-68
1605960462.2211,-61
1605960462.2231,-48
1605960462.2251,-29
1605960462.2271,2
1605960462.2291,26
1605960462.2311,39
1605960462.2330,51
1605960462.2351,73
1605960462.2371,85
1605960462.2376,90
1605960462.2390,87
1605960462.2413,70
1605960462.2431,63
1605960462.2451,70
1605960462.2470,70
1605960462.2491,63
1605960462.2510,56
1605960462.2530,46
1605960462.2550,39
1605960462.2570,39
1605960462.2590,36
1605960462.2610,29
1605960462.2631,26
1605960462.2651,26
1605960462.2671,34
1605960462.2679,51
1605960462.2701,48
1605960462.2721,36
1605960462.2742,39
1605960462.2761,46
1605960462.2781,56
1605960462.2800,53
1605960462.2822,43
1605960462.2841,48
1605960462.2861,56
1605960462.2881,53
1605960462.2901,58
1605960462.2921,63
1605960462.2941,63
1605960462.2961,48
1605960462.2980,24
1605960462.2987,17
1605960462.3001,19
1605960462.3020,24
1605960462.3041,31
1605960462.3061,34
1605960462.3081,41
1605960462.3101,56
1605960462.3121,58
1605960462.3140,43
1605960462.7781,43
1605960462.7790,46
1605960462.7815,31
1605960462.7842,24
1605960462.7862,4
1605960462.7868,-148
1605960462.7881,-437
1605960462.7902,-437
1605960462.7921,195
1605960462.7941,751
1605960462.7961,444
1605960462.7981,-31
1605960462.8004,-7
1605960462.8022,43
1605960462.8041,-48
1605960462.8061,-41
1605960462.8081,0
1605960462.8101,-19
1605960462.8121,-29
1605960462.8161,-14
1605960462.8169,-14
1605960462.8177,-29
1605960462.8200,-31
1605960462.8220,-29
1605960462.8240,-31
1605960462.8260,-36
1605960462.8280,-46
1605960462.8300,-51
1605960462.8320,-51
1605960462.8340,-53
1605960462.8360,-53
1605960462.8380,-63
1605960462.8400,-75
1605960462.8420,-87
1605960462.8440,-97
1605960462.8460,-104
1605960462.8480,-112
1605960462.8488,-97
1605960462.8500,-73
1605960462.8520,-70
1605960462.8540,-83
1605960462.8560,-73
1605960462.8580,-43
1605960462.8600,-24
1605960462.8620,-17
1605960462.8640,7
1605960462.8660,41
1605960462.8680,63
1605960462.8700,73
1605960462.8720,83
1605960462.8740,95
1605960462.8760,95
1605960462.8780,97
1605960462.8787,90
1605960462.8800,65
1605960462.8821,58
1605960462.8860,68
1605960462.8908,78
1605960462.8976,73
1605960462.8996,51
1605960462.9021,36
1605960462.9101,41
1605960462.9172,53
1605960462.9244,48
1605960462.9256,36
1605960462.9316,29
1605960462.9330,34
1605960462.9350,34
1605960462.9370,36
1605960462.9390,43
1605960462.9410,39
1605960462.9430,39
1605960462.9450,58
1605960463.2879,65
1605960463.2885,48
1605960463.2893,34
1605960463.2916,41
1605960463.2936,53
1605960463.2956,68
1605960463.2977,73
1605960463.2996,63
1605960463.3015,43
1605960463.3035,4
1605960463.3055,-19
1605960463.3075,7
1605960463.3096,29
1605960463.3115,19
1605960463.3135,4
1605960463.3155,2
1605960463.3175,24
1605960463.3195,41
1605960463.3201,36
1605960463.3215,24
1605960463.3235,19
1605960463.3255,26
1605960463.3275,24
1605960463.3295,-2
1605960463.3315,-114
1605960463.3335,-368
1605960463.3355,-498
1605960463.3375,-48
1605960463.3395,620
1605960463.3415,556
1605960463.3435,39
1605960463.3455,-53
1605960463.3475,36
1605960463.3495,-56
1605960463.3501,-61
1605960463.3515,17
1605960463.3535,-14
1605960463.3555,-58
1605960463.3575,-46
1605960463.3595,-29
1605960463.3615,-24
1605960463.3636,-36
1605960463.3655,-53
1605960463.3675,-53
1605960463.3695,-39
1605960463.3715,-41
1605960463.3735,-56
1605960463.3755,-51
1605960463.3775,-56
1605960463.3795,-85
1605960463.3801,-87
1605960463.3815,-68
1605960463.3835,-65
1605960463.3855,-90
1605960463.3875,-122
1605960463.3895,-129
1605960463.3915,-114
1605960463.3935,-104
1605960463.3955,-95
1605960463.3975,-80
1605960463.3995,-75
1605960463.4015,-53
1605960463.4035,-31
1605960463.4055,-26
1605960463.4075,-9
1605960463.4096,24
1605960463.4101,43
1605960463.4115,51
1605960463.4136,58
1605960463.4156,56
1605960463.4175,41
1605960463.4195,53
1605960463.4215,97
1605960463.8277,97
1605960463.8285,48
1605960463.8310,61
1605960463.8337,114
1605960463.8343,102
1605960463.8366,34
1605960463.8387,4
1605960463.8406,39
1605960463.8425,68
1605960463.8445,39
1605960463.8465,0
1605960463.8486,2
1605960463.8505,26
1605960463.8525,51
1605960463.8545,46
1605960463.8565,24
1605960463.8586,4
1605960463.8605,4
1605960463.8625,26
1605960463.8647,43
1605960463.8651,43
1605960463.8665,41
1605960463.8686,19
1605960463.8705,21
1605960463.8725,63
1605960463.8745,63
1605960463.8765,12
1605960463.8786,-7
1605960463.8806,-7
1605960463.8825,-12
1605960463.8845,12
1605960463.8865,46
1605960463.8886,34
1605960463.8905,26
1605960463.8925,21
1605960463.8945,-2
1605960463.9028,12
1605960463.9045,41
1605960463.9065,21
1605960463.9085,2
1605960463.9105,7
1605960463.9125,12
1605960463.9145,19
1605960463.9165,-63
1605960463.9186,-329
1605960463.9205,-502
1605960463.9225,-92
1605960463.9245,563
1605960463.9265,520
1605960463.9286,26
1605960463.9305,-56
1605960463.9311,51
1605960463.9324,-14
1605960463.9345,-34
1605960463.9365,14
1605960463.9386,-4
1605960463.9405,-43
1605960463.9425,-21
1605960463.9445,4
1605960463.9465,-26
1605960463.9485,-58
1605960463.9505,-31
1605960463.9525,-7
1605960463.9545,-34
1605960463.9565,-48
1605960463.9585,-36
1605960463.9605,-31
1605960463.9611,-36
1605960463.9625,-39
1605960463.9645,-36
1605960463.9666,-58
1605960463.9686,-97
1605960463.9705,-119
1605960464.3979,-107
1605960464.3985,-92
1605960464.4010,-112
1605960464.4037,-122
1605960464.4057,-87
1605960464.4076,-58
1605960464.4097,-65
1605960464.4116,-85
1605960464.4136,-85
1605960464.4156,-39
1605960464.4163,34
1605960464.4187,53
1605960464.4206,48
1605960464.4226,58
1605960464.4246,53
1605960464.4266,58
1605960464.4286,90
1605960464.4305,109
1605960464.4325,95
1605960464.4345,63
1605960464.4365,53
1605960464.4386,68
1605960464.4406,58
1605960464.4425,43
1605960464.4445,65
1605960464.4465,58
1605960464.4472,29
1605960464.4486,36
1605960464.4505,46
1605960464.4525,31
1605960464.4545,21
1605960464.4565,24
1605960464.4586,14
1605960464.4605,19
1605960464.4625,46
1605960464.4645,51
1605960464.4665,51
1605960464.4686,48
1605960464.4706,58
1605960464.4725,97
1605960464.4745,100
1605960464.4765,51
1605960464.4772,29
1605960464.4786,43
1605960464.4805,53
1605960464.4825,51
1605960464.4845,39
1605960464.4865,21
1605960464.4887,9
1605960464.4906,12
1605960464.4925,19
1605960464.4945,17
1605960464.4965,14
1605960464.4986,7
1605960464.5005,14
1605960464.5025,51
1605960464.5045,70
1605960464.5065,68
1605960464.5072,65
1605960464.5085,53
1605960464.5105,39
1605960464.5125,41
1605960464.5145,-4
1605960464.5165,-222
1605960464.5185,-476
1605960464.5205,-275
1605960464.5225,419
1605960464.5245,673
1605960464.5265,200
1605960464.5286,-43
1605960464.5305,100
1605960464.5325,53
1605960464.5345,-53
1605960464.9977,9
1605960464.9987,53
1605960465.0011,14
1605960465.0037,0
1605960465.0058,-9
1605960465.0078,-26
1605960465.0098,-31
1605960465.0117,-34
1605960465.0137,-41
1605960465.0157,-43
1605960465.0177,-51
1605960465.0197,-63
1605960465.0204,-65
1605960465.0217,-73
1605960465.0237,-80
1605960465.0258,-73
1605960465.0277,-85
1605960465.0298,-97
1605960465.0317,-78
1605960465.0337,-85
1605960465.0357,-122
1605960465.0377,-139
1605960465.0397,-119
1605960465.0417,-80
1605960465.0437,-68
1605960465.0458,-73
1605960465.0480,-63
1605960465.0497,-46
1605960465.0503,-26
1605960465.0516,0
1605960465.0536,19
1605960465.0556,48
1605960465.0577,75
1605960465.0597,65
1605960465.0617,61
1605960465.0637,85
1605960465.0656,87
1605960465.0676,61
1605960465.0697,63
1605960465.0716,87
1605960465.0736,85
1605960465.0756,58
1605960465.0777,34
1605960465.0797,43
1605960465.0802,73
1605960465.0816,58
1605960465.0836,24
1605960465.0856,34
1605960465.0876,51
1605960465.0896,39
1605960465.0916,29
1605960465.0936,31
1605960465.0957,29
1605960465.0977,39
1605960465.0997,56
1605960465.1016,61
1605960465.1036,61
1605960465.1057,48
1605960465.1077,36
1605960465.1097,46
1605960465.1103,56
1605960465.1117,48
1605960465.1137,41
1605960465.1157,43
1605960465.1176,43
1605960465.1196,41
1605960465.1216,31
1605960465.1236,19
1605960465.1256,12
1605960465.1277,9
1605960465.1297,17
1605960465.1316,24
1605960465.1336,26
1605960465.5680,43
1605960465.5688,58
1605960465.5704,51
1605960465.5724,29
1605960465.5747,9
1605960465.5764,14
1605960465.5784,26
1605960465.5804,29
1605960465.5823,-31
1605960465.5843,-268
1605960465.5863,-539
1605960465.5884,-310
1605960465.5904,458
1605960465.5924,749
1605960465.5944,234
1605960465.5964,-78
1605960465.5984,48
1605960465.5990,26
1605960465.6003,-68
1605960465.6024,-31
1605960465.6043,-12
1605960465.6063,-48
1605960465.6084,-46
1605960465.6103,-34
1605960465.6124,-41
1605960465.6143,-39
1605960465.6163,-36
1605960465.6184,-53
1605960465.6203,-68
1605960465.6223,-65
1605960465.6243,-48
1605960465.6263,-31
1605960465.6284,-43
1605960465.6289,-63
1605960465.6303,-80
1605960465.6323,-92
1605960465.6343,-92
1605960465.6363,-104
1605960465.6384,-126
1605960465.6403,-122
1605960465.6423,-117
1605960465.6443,-122
1605960465.6463,-112
1605960465.6484,-92
1605960465.6503,-85
1605960465.6524,-83
1605960465.6543,-65
1605960465.6563,-36
1605960465.6584,-7
1605960465.6589,17
1605960465.6603,41
1605960465.6623,63
1605960465.6643,78
1605960465.6663,83
1605960465.6683,73
1605960465.6704,70
1605960465.6723,92
1605960465.6743,102
1605960465.6763,85
1605960465.6784,68
1605960465.6803,53
1605960465.6823,56
1605960465.6843,70
1605960465.6863,68
1605960465.6884,46
1605960465.6889,34
1605960465.6903,36
1605960465.6923,43
1605960465.6943,41
1605960465.6963,34
1605960465.6983,26
1605960465.7003,31
1605960465.7023,43
1605960466.1078,46
1605960466.1087,41
1605960466.1111,36
1605960466.1138,34
1605960466.1157,41
1605960466.1177,48
1605960466.1198,46
1605960466.1217,43
1605960466.1223,36
1605960466.1237,31
1605960466.1257,43
1605960466.1277,34
1605960466.1298,2
1605960466.1317,-7
1605960466.1337,-9
1605960466.1357,-14
1605960466.1377,-7
1605960466.1397,19
1605960466.1418,36
1605960466.1437,31
1605960466.1457,26
1605960466.1477,24
1605960466.1497,24
1605960466.1516,29
1605960466.1523,21
1605960466.1537,21
1605960466.1557,17
1605960466.1577,-87
1605960466.1597,-356
1605960466.1616,-515
1605960466.1636,-87
1605960466.1656,632
1605960466.1676,642
1605960466.1699,92
1605960466.1717,-46
1605960466.1736,75
1605960466.1756,2
1605960466.1776,-53
1605960466.1797,-4
1605960466.1816,-9
1605960466.1823,-41
1605960466.1836,-24
1605960466.1856,-7
1605960466.1876,-19
1605960466.1897,-34
1605960466.1916,-36
1605960466.1936,-31
1605960466.1956,-31
1605960466.1976,-41
1605960466.1997,-43
1605960466.2016,-51
1605960466.2036,-65
1605960466.2056,-68
1605960466.2076,-68
1605960466.2097,-83
1605960466.2116,-104
1605960466.2122,-112
1605960466.2136,-97
1605960466.2156,-92
1605960466.2163,-102
1605960466.2176,-100
1605960466.2197,-92
1605960466.2216,-85
1605960466.2236,-78
1605960466.2256,-61
1605960466.2276,-36
1605960466.2296,-14
1605960466.2316,2
1605960466.2336,21
1605960466.2356,43
1605960466.2376,70
1605960466.2383,90
1605960466.2396,100
1605960466.6481,95
1605960466.6490,87
1605960466.6506,85
1605960466.6526,75
1605960466.6532,63
1605960466.6546,63
1605960466.6566,63
1605960466.6585,58
1605960466.6606,51
1605960466.6626,36
1605960466.6645,31
1605960466.6667,34
1605960466.6673,36
1605960466.6686,31
1605960466.6705,31
1605960466.6725,31
1605960466.6731,26
1605960466.6742,26
1605960466.6756,36
1605960466.6775,39
1605960466.6796,43
1605960466.6815,56
1605960466.6836,56
1605960466.6856,51
1605960466.6876,43
1605960466.6896,46
1605960466.6915,51
1605960466.6920,43
1605960466.6934,36
1605960466.6954,46
1605960466.6974,68
1605960466.6995,73
1605960466.7014,51
1605960466.7034,26
1605960466.7054,24
1605960466.7074,31
1605960466.7095,29
1605960466.7114,24
1605960466.7134,29
1605960466.7154,36
1605960466.7174,34
1605960466.7194,34
1605960466.7214,41
1605960466.7220,48
1605960466.7234,51
1605960466.7254,46
1605960466.7274,31
1605960466.7295,17
1605960466.7314,-87
1605960466.7334,-363
1605960466.7354,-490
1605960466.7374,14
1605960466.7394,678
1605960466.7414,544
1605960466.7435,29
1605960466.7454,-21
1605960466.7474,70
1605960466.7495,-19
1605960466.7514,-48
1605960466.7520,2
1605960466.7534,-19
1605960466.7554,-43
1605960466.7576,-19
1605960466.7595,-14
1605960466.7614,-31
1605960466.7634,-36
1605960466.7654,-34
1605960466.7674,-36
1605960466.7694,-43
1605960466.7714,-36
1605960466.7734,-34
1605960466.7754,-58
1605960466.7774,-75
1605960467.2178,-70
1605960467.2185,-63
1605960467.2202,-70
1605960467.2226,-95
1605960467.2245,-107
1605960467.2266,-107
1605960467.2286,-114
1605960467.2305,-117
1605960467.2325,-104
1605960467.2345,-95
1605960467.2365,-90
1605960467.2386,-75
1605960467.2405,-58
1605960467.2425,-48
1605960467.2445,-26
1605960467.2465,4
1605960467.2486,31
1605960467.2505,48
1605960467.2511,63
1605960467.2525,70
1605960467.2545,78
1605960467.2565,87
1605960467.2586,85
1605960467.2605,75
1605960467.2625,68
1605960467.2645,68
1605960467.2665,63
1605960467.2686,51
1605960467.2705,43
1605960467.2725,43
1605960467.2745,39
1605960467.2765,31
1605960467.2786,39
1605960467.2805,53
1605960467.2811,46
1605960467.2825,36
1605960467.2845,41
1605960467.2865,39
1605960467.2885,34
1605960467.2905,51
1605960467.2927,61
1605960467.2945,51
1605960467.2965,48
1605960467.2985,53
1605960467.3005,51
1605960467.3025,51
1605960467.3045,53
1605960467.3065,41
1605960467.3085,29
1605960467.3105,31
1605960467.3111,29
1605960467.3125,36
1605960467.3145,51
1605960467.3165,56
1605960467.3185,61
1605960467.3205,61
1605960467.3225,43
1605960467.3245,19
1605960467.3265,12
1605960467.3286,12
1605960467.3305,7
1605960467.3325,9
1605960467.3345,19
1605960467.3365,31
1605960467.3385,46
1605960467.3405,46
1605960467.3411,36
1605960467.3425,36
1605960467.3445,29
1605960467.3465,17
1605960467.3485,21
1605960467.3505,26
1605960467.3525,-75
1605960467.7578,-349
1605960467.7584,-500
1605960467.7600,-65
1605960467.7620,622
1605960467.7640,607
1605960467.7646,73
1605960467.7660,-58
1605960467.7680,58
1605960467.7700,-9
1605960467.7720,-58
1605960467.7740,-12
1605960467.7760,-19
1605960467.7780,-39
1605960467.7800,-21
1605960467.7820,-14
1605960467.7840,-29
1605960467.7860,-34
1605960467.7880,-26
1605960467.7901,-36
1605960467.7920,-46
1605960467.7939,-41
1605960467.7946,-51
1605960467.7959,-65
1605960467.7979,-58
1605960467.7999,-46
1605960467.8019,-58
1605960467.8039,-78
1605960467.8060,-87
1605960467.8079,-100
1605960467.8099,-109
1605960467.8120,-107
1605960467.8139,-102
1605960467.8159,-97
1605960467.8180,-83
1605960467.8200,-63
1605960467.8219,-53
1605960467.8239,-48
1605960467.8246,-26
1605960467.8259,-7
1605960467.8279,4
1605960467.8300,21
1605960467.8320,39
1605960467.8339,43
1605960467.8359,61
1605960467.8379,80
1605960467.8400,70
1605960467.8420,63
1605960467.8439,83
1605960467.8460,87
1605960467.8479,68
1605960467.8500,58
1605960467.8519,58
1605960467.8540,51
1605960467.8546,34
1605960467.8559,31
1605960467.8579,41
1605960467.8600,43
1605960467.8620,34
1605960467.8640,29
1605960467.8653,31
1605960467.8669,41
1605960467.8690,56
1605960467.8710,56
1605960467.8729,51
1605960467.8749,51
1605960467.8770,39
1605960467.8791,39
1605960467.8811,56
1605960467.8832,56
1605960467.8838,41
1605960467.8850,41
1605960467.8870,46
1605960467.8892,53
1605960468.3581,58
1605960468.3590,53
1605960468.3614,46
1605960468.3641,39
1605960468.3661,39
1605960468.3680,36
1605960468.3701,36
1605960468.3720,43
1605960468.3740,36
1605960468.3760,17
1605960468.3780,4
1605960468.3801,0
1605960468.3807,0
1605960468.3820,7
1605960468.3840,7
1605960468.3860,9
1605960468.3880,24
1605960468.3900,36
1605960468.3920,24
1605960468.3940,17
1605960468.3960,17
1605960468.3979,4
1605960468.3999,2
1605960468.4019,12
1605960468.4039,-12
1605960468.4060,-195
1605960468.4079,-471
1605960468.4099,-341
1605960468.4105,349
1605960468.4119,720
1605960468.4139,297
1605960468.4159,-48
1605960468.4179,29
1605960468.4199,26
1605960468.4219,-58
1605960468.4239,-21
1605960468.4259,2
1605960468.4279,-29
1605960468.4299,-31
1605960468.4319,-21
1605960468.4339,-31
1605960468.4359,-36
1605960468.4379,-31
1605960468.4399,-34
1605960468.4405,-39
1605960468.4419,-41
1605960468.4439,-46
1605960468.4461,-53
1605960468.4480,-56
1605960468.4499,-58
1605960468.4519,-68
1605960468.4539,-73
1605960468.4559,-78
1605960468.4579,-85
1605960468.4599,-90
1605960468.4619,-95
1605960468.4639,-92
1605960468.4659,-90
1605960468.4679,-87
1605960468.4699,-73
1605960468.4705,-63
1605960468.4719,-56
1605960468.4739,-41
1605960468.4759,-21
1605960468.4780,0
1605960468.4800,19
1605960468.4819,43
1605960468.4839,65
1605960468.4859,75
1605960468.4879,83
1605960468.4899,85
1605960468.4919,90
1605960468.4939,90
1605960468.9278,80
1605960468.9285,70
1605960468.9309,61
1605960468.9336,51
1605960468.9356,51
1605960468.9375,46
1605960468.9397,39
1605960468.9416,41
1605960468.9436,39
1605960468.9456,24
1605960468.9476,14
1605960468.9496,24
1605960468.9516,31
1605960468.9536,26
1605960468.9556,29
1605960468.9576,39
1605960468.9596,41
1605960468.9602,41
1605960468.9615,41
1605960468.9636,46
1605960468.9655,43
1605960468.9675,34
1605960468.9696,39
1605960468.9715,48
1605960468.9735,43
1605960468.9757,26
1605960468.9776,26
1605960468.9796,34
1605960468.9815,36
1605960468.9835,34
1605960468.9855,34
1605960468.9875,39
1605960468.9896,39
1605960468.9901,19
1605960468.9915,-7
1605960468.9935,-14
1605960468.9955,-9
1605960468.9975,-12
1605960468.9995,-12
1605960469.0015,-2
1605960469.0035,7
1605960469.0055,17
1605960469.0075,19
1605960469.0096,17
1605960469.0115,14
1605960469.0135,9
1605960469.0155,7
1605960469.0175,9
1605960469.0197,7
1605960469.0202,-122
1605960469.0215,-415
1605960469.0235,-493
1605960469.0255,73
1605960469.0276,732
1605960469.0296,561
1605960469.0315,31
1605960469.0335,-21
1605960469.0355,58
1605960469.0375,-34
1605960469.0396,-51
1605960469.0415,-7
1605960469.0435,-26
1605960469.0455,-41
1605960469.0475,-24
1605960469.0496,-26
1605960469.0501,-41
1605960469.0515,-39
1605960469.0535,-41
1605960469.0555,-56
1605960469.0575,-48
1605960469.0595,-43
1605960469.0615,-51
1605960469.0635,-58
1605960469.4675,-63
1605960469.4681,-70
1605960469.4704,-83
1605960469.4734,-97
1605960469.4752,-107
1605960469.4771,-109
1605960469.4792,-112
1605960469.4798,-117
1605960469.4811,-119
1605960469.4831,-124
1605960469.4851,-124
1605960469.4871,-107
1605960469.4892,-85
1605960469.4912,-73
1605960469.4931,-56
1605960469.4951,-26
1605960469.4971,0
1605960469.4992,14
1605960469.5011,26
1605960469.5031,43
1605960469.5051,56
1605960469.5071,65
1605960469.5092,83
1605960469.5097,85
1605960469.5111,75
1605960469.5131,75
1605960469.5151,70
1605960469.5171,58
1605960469.5192,48
1605960469.5211,43
1605960469.5231,41
1605960469.5251,36
1605960469.5271,36
1605960469.5292,39
1605960469.5312,34
1605960469.5332,36
1605960469.5352,43
1605960469.5372,39
1605960469.5392,31
1605960469.5397,36
1605960469.5411,46
1605960469.5431,48
1605960469.5452,46
1605960469.5471,41
1605960469.5491,43
1605960469.5511,53
1605960469.5531,56
1605960469.5551,48
1605960469.5571,43
1605960469.5591,36
1605960469.5611,36
1605960469.5631,46
1605960469.5651,58
1605960469.5671,61
1605960469.5693,43
1605960469.5697,31
1605960469.5711,14
1605960469.5731,-12
1605960469.5751,-14
1605960469.5771,2
1605960469.5791,19
1605960469.5811,34
1605960469.5831,39
1605960469.5851,36
1605960469.5871,39
1605960469.5891,34
1605960469.5911,19
1605960469.5931,12
1605960469.5951,17
1605960469.5971,0
1605960469.5991,-163
1605960469.5997,-444
1605960469.6011,-405
1605960470.0375,256
1605960470.0382,793
1605960470.0406,451
1605960470.0433,-14
1605960470.0453,21
1605960470.0473,58
1605960470.0494,-48
1605960470.0513,-36
1605960470.0533,-2
1605960470.0553,-36
1605960470.0573,-56
1605960470.0593,-41
1605960470.0599,-31
1605960470.0613,-29
1605960470.0632,-34
1605960470.0652,-46
1605960470.0673,-51
1605960470.0693,-53
1605960470.0712,-61
1605960470.0733,-63
1605960470.0752,-68
1605960470.0772,-75
1605960470.0793,-75
1605960470.0812,-87
1605960470.0832,-100
1605960470.0852,-100
1605960470.0872,-97
1605960470.0893,-107
1605960470.0898,-117
1605960470.0912,-109
1605960470.0932,-97
1605960470.0952,-92
1605960470.0974,-83
1605960470.0993,-65
1605960470.1013,-43
1605960470.1032,-21
1605960470.1052,-2
1605960470.1072,24
1605960470.1092,51
1605960470.1112,65
1605960470.1132,73
1605960470.1152,83
1605960470.1172,95
1605960470.1193,100
1605960470.1198,90
1605960470.1212,80
1605960470.1232,70
1605960470.1252,63
1605960470.1272,63
1605960470.1293,58
1605960470.1312,48
1605960470.1333,48
1605960470.1352,53
1605960470.1372,43
1605960470.1393,26
1605960470.1412,29
1605960470.1432,46
1605960470.1453,51
1605960470.1473,43
1605960470.1494,41
1605960470.1500,43
1605960470.1512,43
1605960470.1532,36
1605960470.1552,41
1605960470.1572,51
1605960470.1593,53
1605960470.1612,46
1605960470.1632,36
1605960470.1652,36
1605960470.1672,56
1605960470.1692,73
1605960470.1712,63
1605960470.1732,51
1605960470.5777,51
1605960470.5785,36
1605960470.5800,7
1605960470.5820,-4
1605960470.5840,-2
1605960470.5860,7
1605960470.5880,12
1605960470.5900,17
1605960470.5920,24
1605960470.5940,14
1605960470.5962,7
1605960470.5980,12
1605960470.6000,2
1605960470.6020,7
1605960470.6040,17
1605960470.6060,12
1605960470.6080,-14
1605960470.6086,-161
1605960470.6100,-446
1605960470.6120,-458
1605960470.6141,158
1605960470.6160,720
1605960470.6180,439
1605960470.6200,-24
1605960470.6220,-4
1605960470.6240,56
1605960470.6260,-29
1605960470.6280,-36
1605960470.6300,-14
1605960470.6319,-31
1605960470.6340,-21
1605960470.6360,-17
1605960470.6380,-29
1605960470.6386,-17
1605960470.6400,-2
1605960470.6419,-9
1605960470.6440,-29
1605960470.6460,-46
1605960470.6479,-53
1605960470.6500,-43
1605960470.6520,-31
1605960470.6539,-43
1605960470.6559,-65
1605960470.6579,-80
1605960470.6600,-90
1605960470.6620,-100
1605960470.6640,-112
1605960470.6660,-129
1605960470.6680,-122
1605960470.6686,-92
1605960470.6700,-73
1605960470.6719,-63
1605960470.6740,-43
1605960470.6760,-36
1605960470.6780,-41
1605960470.6800,-9
1605960470.6820,34
1605960470.6839,46
1605960470.6860,41
1605960470.6880,39
1605960470.6900,39
1605960470.6921,63
1605960470.6941,97
1605960470.6960,119
1605960470.6980,117
1605960470.6986,107
1605960470.7000,104
1605960470.7020,92
1605960470.7040,73
1605960470.7059,56
1605960470.7079,48
1605960470.7100,41
1605960470.7120,29
1605960471.1180,29
1605960471.1187,34
1605960471.1211,19
1605960471.1238,7
1605960471.1258,0
1605960471.1278,-2
1605960471.1299,9
1605960471.1303,39
1605960471.1317,58
1605960471.1337,51
1605960471.1357,43
1605960471.1377,41
1605960471.1397,46
1605960471.1417,61
1605960471.1437,58
1605960471.1457,39
1605960471.1477,36
1605960471.1497,46
1605960471.1517,53
1605960471.1537,56
1605960471.1557,34
1605960471.1577,0
1605960471.1598,14
1605960471.1603,51
1605960471.1617,51
1605960471.1637,29
1605960471.1657,41
1605960471.1677,68
1605960471.1697,46
1605960471.1717,-4
1605960471.1737,-19
1605960471.1757,17
1605960471.1778,39
1605960471.1797,19
1605960471.1817,14
1605960471.1837,19
1605960471.1857,-107
1605960471.1879,-385
1605960471.1897,-463
1605960471.1905,65
1605960471.1917,666
1605960471.1937,483
1605960471.1957,31
1605960471.1977,29
1605960471.1997,83
1605960471.2017,-36
1605960471.2038,-51
1605960471.2057,39
1605960471.2077,65
1605960471.2098,31
1605960471.2118,-7
1605960471.2137,-41
1605960471.2157,-46
1605960471.2177,-14
1605960471.2198,-14
1605960471.2203,-19
1605960471.2218,7
1605960471.2237,-9
1605960471.2257,-46
1605960471.2277,-53
1605960471.2298,-43
1605960471.2317,-48
1605960471.2337,-70
1605960471.2357,-92
1605960471.2377,-100
1605960471.2397,-107
1605960471.2417,-131
1605960471.2437,-126
1605960471.2457,-75
1605960471.2477,-63
1605960471.2483,-100
1605960471.2497,-90
1605960471.2517,-29
1605960471.7177,9
1605960471.7186,12
1605960471.7211,9
1605960471.7238,0
1605960471.7258,-12
1605960471.7277,2
1605960471.7298,39
1605960471.7317,58
1605960471.7338,65
1605960471.7357,87
1605960471.7377,100
1605960471.7384,75
1605960471.7397,63
1605960471.7417,80
1605960471.7437,75
1605960471.7457,43
1605960471.7477,31
1605960471.7499,29
1605960471.7517,24
1605960471.7536,34
1605960471.7556,34
1605960471.7576,21
1605960471.7597,29
1605960471.7616,53
1605960471.7636,43
1605960471.7656,19
1605960471.7676,17
1605960471.7683,29
1605960471.7696,61
1605960471.7716,65
1605960471.7736,9
1605960471.7756,2
1605960471.7777,68
1605960471.7797,56
1605960471.7816,14
1605960471.7836,46
1605960471.7856,63
1605960471.7876,31
1605960471.7896,12
1605960471.7916,34
1605960471.7936,26
1605960471.7956,-14
1605960471.7976,14
1605960471.7983,29
1605960471.7996,4
1605960471.8016,41
1605960471.8036,70
1605960471.8056,29
1605960471.8076,-2
1605960471.8097,19
1605960471.8116,39
1605960471.8136,29
1605960471.8156,19
1605960471.8176,7
1605960471.8197,-4
1605960471.8216,-109
1605960471.8236,-400
1605960471.8256,-512
1605960471.8277,34
1605960471.8283,646
1605960471.8296,471
1605960471.8316,19
1605960471.8337,-14
1605960471.8356,31
1605960471.8376,-48
1605960471.8396,-39
1605960471.8416,-4
1605960471.8436,-29
1605960471.8458,-43
1605960471.8477,-58
1605960471.8496,-19
1605960471.8516,36
1605960471.8536,-2
1605960472.2880,-39
1605960472.2889,-31
1605960472.2907,-46
1605960472.2930,-26
1605960472.2951,-12
1605960472.2970,-63
1605960472.2991,-80
1605960472.3010,-70
1605960472.3030,-95
1605960472.3050,-104
1605960472.3070,-107
1605960472.3090,-87
1605960472.3109,-48
1605960472.3130,-97
1605960472.3150,-175
1605960472.3170,-139
1605960472.3190,-34
1605960472.3210,-17
1605960472.3215,-63
1605960472.3229,-53
1605960472.3249,-48
1605960472.3269,-70
1605960472.3290,-29
1605960472.3309,51
1605960472.3329,70
1605960472.3349,34
1605960472.3369,31
1605960472.3390,92
1605960472.3409,134
1605960472.3429,100
1605960472.3449,68
1605960472.3469,53
1605960472.3489,34
1605960472.3509,61
1605960472.3515,95
1605960472.3529,73
1605960472.3549,51
1605960472.3569,43
1605960472.3590,4
1605960472.3609,-7
1605960472.3629,17
1605960472.3649,26
1605960472.3669,26
1605960472.3689,31
1605960472.3710,58
1605960472.3729,129
1605960472.3751,119
1605960472.3770,17
1605960472.3790,-4
1605960472.3809,53
1605960472.3815,36
1605960472.3829,4
1605960472.3849,48
1605960472.3869,48
1605960472.3890,31
1605960472.3909,75
1605960472.3929,80
1605960472.3949,7
1605960472.3969,-7
1605960472.3990,53
1605960472.4009,34
1605960472.4029,-26
1605960472.4049,0
1605960472.4069,31
1605960472.4089,34
1605960472.4109,70
1605960472.4115,63
1605960472.4129,0
1605960472.4149,14
1605960472.4169,26
1605960472.4190,0
1605960472.4210,36
1605960472.4229,61
1605960472.8278,-39
1605960472.8285,-256
1605960472.8309,-495
1605960472.8336,-305
1605960472.8356,434
1605960472.8376,754
1605960472.8383,253
1605960472.8396,-61
1605960472.8416,65
1605960472.8436,31
1605960472.8456,-102
1605960472.8476,-73
1605960472.8496,-19
1605960472.8515,-43
1605960472.8535,-63
1605960472.8555,-36
1605960472.8575,-26
1605960472.8596,-58
1605960472.8615,-100
1605960472.8635,-100
1605960472.8656,-34
1605960472.8675,9
1605960472.8682,-36
1605960472.8695,-100
1605960472.8717,-114
1605960472.8736,-102
1605960472.8755,-80
1605960472.8762,-92
1605960472.8786,-153
1605960472.8805,-161
1605960472.8825,-112
1605960472.8845,-117
1605960472.8866,-146
1605960472.8886,-114
1605960472.8905,-117
1605960472.8925,-180
1605960472.8945,-136
1605960472.8951,9
1605960472.8965,29
1605960472.8986,-78
1605960472.9005,-102
1605960472.9025,-39
1605960472.9045,-12
1605960472.9065,9
1605960472.9086,46
1605960472.9105,75
1605960472.9125,112
1605960472.9145,73
1605960472.9165,4
1605960472.9186,100
1605960472.9205,183
1605960472.9225,70
1605960472.9245,-17
1605960472.9251,7
1605960472.9265,41
1605960472.9286,19
1605960472.9305,0
1605960472.9325,65
1605960472.9345,87
1605960472.9365,-9
1605960472.9385,-61
1605960472.9405,24
1605960472.9425,87
1605960472.9445,26
1605960472.9465,-29
1605960472.9486,-2
1605960472.9505,26
1605960472.9525,31
1605960472.9545,12
1605960472.9551,-2
1605960472.9565,34
1605960472.9585,61
1605960472.9605,75
1605960473.3979,53
1605960473.3986,-36
1605960473.4012,-53
1605960473.4037,31
1605960473.4056,68
1605960473.4076,19
1605960473.4097,-9
1605960473.4117,2
1605960473.4136,17
1605960473.4156,29
1605960473.4176,17
1605960473.4196,21
1605960473.4203,68
1605960473.4217,61
1605960473.4236,7
1605960473.4256,-92
1605960473.4276,-383
1605960473.4296,-593
1605960473.4316,-131
1605960473.4336,654
1605960473.4356,688
1605960473.4377,126
1605960473.4396,-51
1605960473.4416,51
1605960473.4436,-26
1605960473.4456,-78
1605960473.4476,-9
1605960473.4497,-29
1605960473.4502,-104
1605960473.4516,-83
1605960473.4536,-4
1605960473.4556,-34
1605960473.4576,-87
1605960473.4597,-48
1605960473.4616,-24
1605960473.4636,-21
1605960473.4656,-41
1605960473.4676,-139
1605960473.4696,-141
1605960473.4716,-31
1605960473.4736,-51
1605960473.4756,-151
1605960473.4776,-104
1605960473.4796,-36
1605960473.4802,-126
1605960473.4816,-192
1605960473.4836,-124
1605960473.4856,-107
1605960473.4877,-166
1605960473.4896,-144
1605960473.4916,-83
1605960473.4936,-87
1605960473.4956,-97
1605960473.4978,-61
1605960473.4997,-29
1605960473.5016,-17
1605960473.5036,4
1605960473.5056,43
1605960473.5076,70
1605960473.5097,85
1605960473.5102,78
1605960473.5116,56
1605960473.5136,68
1605960473.5156,102
1605960473.5176,80
1605960473.5196,26
1605960473.5216,39
1605960473.5236,80
1605960473.5256,58
1605960473.5276,21
1605960473.5296,43
1605960473.5316,58
1605960473.5336,36
1605960473.9374,34
1605960473.9382,39
1605960473.9406,21
1605960473.9432,19
1605960473.9452,34
1605960473.9472,31
1605960473.9493,31
1605960473.9513,34
1605960473.9532,12
1605960473.9553,2
1605960473.9573,19
1605960473.9592,29
1605960473.9612,36
1605960473.9632,34
1605960473.9652,17
1605960473.9672,12
1605960473.9692,14
1605960473.9698,2
1605960473.9712,-2
1605960473.9732,4
1605960473.9752,17
1605960473.9772,26
1605960473.9792,29
1605960473.9812,17
1605960473.9831,2
1605960473.9852,-7
1605960473.9872,-34
1605960473.9892,-39
1605960473.9911,12
1605960473.9931,-97
1605960473.9951,-458
1605960473.9973,-520
1605960473.9992,166
1605960473.9997,783
1605960474.0011,468
1605960474.0031,-14
1605960474.0051,31
1605960474.0071,63
1605960474.0092,-70
1605960474.0111,-61
1605960474.0131,-2
1605960474.0151,-31
1605960474.0171,-65
1605960474.0192,-48
1605960474.0212,-4
1605960474.0231,-2
1605960474.0252,-31
1605960474.0271,-48
1605960474.0292,-56
1605960474.0298,-63
1605960474.0311,-75
1605960474.0332,-83
1605960474.0351,-80
1605960474.0371,-85
1605960474.0392,-104
1605960474.0412,-109
1605960474.0432,-85
1605960474.0452,-85
1605960474.0471,-124
1605960474.0492,-129
1605960474.0511,-107
1605960474.0531,-114
1605960474.0551,-122
1605960474.0572,-107
1605960474.0591,-92
1605960474.0598,-70
1605960474.0611,-51
1605960474.0632,-41
1605960474.0651,-19
1605960474.0671,21
1605960474.0692,43
1605960474.0711,51
1605960474.0731,80
1605960474.5073,95
1605960474.5080,75
1605960474.5104,63
1605960474.5131,73
1605960474.5150,95
1605960474.5171,100
1605960474.5192,70
1605960474.5196,48
1605960474.5211,34
1605960474.5233,7
1605960474.5251,7
1605960474.5270,24
1605960474.5291,43
1605960474.5310,73
1605960474.5330,63
1605960474.5350,24
1605960474.5370,21
1605960474.5391,36
1605960474.5410,31
1605960474.5430,12
1605960474.5450,2
1605960474.5470,9
1605960474.5491,21
1605960474.5496,34
1605960474.5510,41
1605960474.5530,48
1605960474.5550,58
1605960474.5570,48
1605960474.5590,21
1605960474.5610,7
1605960474.5630,14
1605960474.5650,14
1605960474.5670,7
1605960474.5691,7
1605960474.5711,7
1605960474.5730,21
1605960474.5750,56
1605960474.5770,58
1605960474.5790,36
1605960474.5796,21
1605960474.5810,9
1605960474.5830,7
1605960474.5850,7
1605960474.5870,-109
1605960474.5890,-417
1605960474.5910,-512
1605960474.5930,78
1605960474.5950,732
1605960474.5970,507
1605960474.5990,-12
1605960474.6010,-17
1605960474.6030,73
1605960474.6050,-24
1605960474.6070,-43
1605960474.6090,-19
1605960474.6096,-53
1605960474.6110,-46
1605960474.6130,-7
1605960474.6150,-21
1605960474.6170,-31
1605960474.6192,-17
1605960474.6211,-48
1605960474.6230,-53
1605960474.6250,-26
1605960474.6270,-58
1605960474.6291,-83
1605960474.6310,-73
1605960474.6330,-90
1605960474.6350,-92
1605960474.6370,-73
1605960474.6391,-100
1605960474.6396,-131
1605960474.6410,-119
1605960475.0780,-112
1605960475.0789,-124
1605960475.0813,-114
1605960475.0840,-92
