Time,ECG
1607019136.1097,-28
1607019136.1102,572
1607019136.1126,2806
1607019136.1143,5731
1607019136.1162,7416
1607019136.1182,8390
1607019136.1202,9614
1607019136.1222,10572
1607019136.1243,11192
1607019136.1262,11838
1607019136.1283,12394
1607019136.1302,12782
1607019136.1322,13159
1607019136.1342,13506
1607019136.1363,13739
1607019136.1382,13915
1607019136.1402,14096
1607019136.1422,14260
1607019136.1443,14364
1607019136.1462,14440
1607019136.1482,14523
1607019136.1503,14583
1607019136.1522,14602
1607019136.1543,14621
1607019136.1562,14647
1607019136.1582,14647
1607019136.1602,14630
1607019136.1622,14623
1607019136.1642,14619
1607019136.1663,14604
1607019136.1683,14564
1607019136.1702,14514
1607019136.1722,14478
1607019136.1743,14409
1607019136.1762,14319
1607019136.1782,14267
1607019136.1802,14222
1607019136.1822,14143
1607019136.1842,14074
1607019136.1862,14022
1607019136.1882,13953
1607019136.1902,13846
1607019136.1922,13689
1607019136.1942,13549
1607019136.1962,13637
1607019136.1982,14122
1607019136.2003,14830
1607019136.2022,14970
1607019136.2042,13796
1607019136.2062,12442
1607019136.2084,12480
1607019136.2103,13017
1607019136.2122,12931
1607019136.2142,12751
1607019136.2162,12765
1607019136.2182,12694
1607019136.2203,12584
1607019136.2222,12534
1607019136.2243,12454
1607019136.2262,12361
1607019136.2282,12294
1607019136.2302,12211
1607019136.2322,12121
1607019136.2342,12057
1607019136.2363,11986
1607019136.2382,11900
1607019136.2402,11833
1607019136.2422,11774
1607019136.2443,11700
1607019136.2462,11624
1607019136.2482,11558
1607019136.2503,11489
1607019136.2522,11396
1607019136.6498,11299
1607019136.6509,11211
1607019136.6534,11111
1607019136.6560,10988
1607019136.6582,10866
1607019136.6601,10738
1607019136.6621,10574
1607019136.6640,10410
1607019136.6660,10258
1607019136.6680,10111
1607019136.6699,10006
1607019136.6719,9904
1607019136.6740,9764
1607019136.6759,9671
1607019136.6779,9607
1607019136.6800,9512
1607019136.6819,9426
1607019136.6842,9362
1607019136.6860,9281
1607019136.6879,9191
1607019136.6899,9110
1607019136.6919,9039
1607019136.6939,8961
1607019136.6959,8868
1607019136.6979,8780
1607019136.6999,8709
1607019136.7019,8630
1607019136.7040,8542
1607019136.7061,8466
1607019136.7080,8393
1607019136.7099,8312
1607019136.7119,8241
1607019136.7139,8183
1607019136.7159,8117
1607019136.7179,8034
1607019136.7199,7941
1607019136.7219,7841
1607019136.7239,7751
1607019136.7259,7670
1607019136.7279,7589
1607019136.7300,7520
1607019136.7319,7456
1607019136.7339,7380
1607019136.7359,7295
1607019136.7379,7200
1607019136.7399,7059
1607019136.7419,6910
1607019136.7439,6941
1607019136.7459,7354
1607019136.7479,8074
1607019136.7499,8381
1607019136.7519,7385
1607019136.7539,6007
1607019136.7559,5955
1607019136.7579,6525
1607019136.7599,6454
1607019136.7619,6252
1607019136.7639,6311
1607019136.7659,6278
1607019136.7679,6166
1607019136.7699,6145
1607019136.7719,6111
1607019136.7739,6033
1607019136.7759,5993
1607019136.7779,5966
1607019136.7800,5907
1607019136.7819,5850
1607019136.7839,5814
1607019136.7859,5783
1607019136.7879,5745
1607019136.7899,5698
1607019136.7919,5667
1607019136.7939,5646
1607019137.2200,5600
1607019137.2209,5548
1607019137.2234,5515
1607019137.2260,5472
1607019137.2280,5401
1607019137.2300,5327
1607019137.2323,5258
1607019137.2340,5182
1607019137.2359,5085
1607019137.2379,4956
1607019137.2399,4828
1607019137.2419,4724
1607019137.2440,4633
1607019137.2459,4545
1607019137.2479,4474
1607019137.2499,4424
1607019137.2519,4379
1607019137.2539,4334
1607019137.2559,4293
1607019137.2579,4258
1607019137.2599,4213
1607019137.2619,4170
1607019137.2639,4137
1607019137.2659,4099
1607019137.2679,4049
1607019137.2699,3999
1607019137.2719,3968
1607019137.2739,3932
1607019137.2759,3890
1607019137.2779,3847
1607019137.2799,3804
1607019137.2819,3761
1607019137.2839,3714
1607019137.2859,3673
1607019137.2879,3647
1607019137.2899,3607
1607019137.2919,3564
1607019137.2939,3554
1607019137.2959,3540
1607019137.2979,3493
1607019137.2999,3443
1607019137.3019,3395
1607019137.3039,3338
1607019137.3059,3291
1607019137.3079,3260
1607019137.3099,3227
1607019137.3120,3193
1607019137.3139,3167
1607019137.3159,3136
1607019137.3179,3086
1607019137.3199,2998
1607019137.3219,2877
1607019137.3239,2858
1607019137.3259,3146
1607019137.3279,3794
1607019137.3300,4396
1607019137.3319,3970
1607019137.3341,2580
1607019137.3359,2000
1607019137.3379,2571
1607019137.3399,2823
1607019137.3476,2602
1607019137.3489,2613
1607019137.3510,2694
1607019137.3530,2621
1607019137.3548,2594
1607019137.3569,2623
1607019137.3589,2592
1607019137.3609,2556
1607019137.3629,2559
1607019137.3649,2554
1607019137.3669,2540
1607019137.3689,2530
1607019137.7601,2528
1607019137.7611,2521
1607019137.7636,2511
1607019137.7662,2509
1607019137.7681,2511
1607019137.7702,2509
1607019137.7723,2504
1607019137.7741,2492
1607019137.7761,2473
1607019137.7781,2449
1607019137.7803,2411
1607019137.7821,2366
1607019137.7841,2321
1607019137.7861,2266
1607019137.7881,2195
1607019137.7901,2107
1607019137.7921,2010
1607019137.7942,1936
1607019137.7961,1879
1607019137.7981,1829
1607019137.8001,1798
1607019137.8021,1784
1607019137.8041,1767
1607019137.8061,1748
1607019137.8081,1727
1607019137.8101,1713
1607019137.8121,1703
1607019137.8141,1694
1607019137.8161,1677
1607019137.8181,1656
1607019137.8201,1644
1607019137.8221,1632
1607019137.8241,1615
1607019137.8261,1601
1607019137.8281,1587
1607019137.8303,1563
1607019137.8321,1542
1607019137.8341,1530
1607019137.8361,1518
1607019137.8381,1494
1607019137.8401,1482
1607019137.8421,1478
1607019137.8441,1456
1607019137.8462,1425
1607019137.8481,1409
1607019137.8501,1399
1607019137.8521,1385
1607019137.8541,1371
1607019137.8561,1354
1607019137.8581,1337
1607019137.8601,1325
1607019137.8620,1333
1607019137.8641,1342
1607019137.8661,1342
1607019137.8681,1330
1607019137.8701,1316
1607019137.8721,1283
1607019137.8741,1245
1607019137.8761,1235
1607019137.8781,1233
1607019137.8801,1209
1607019137.8821,1195
1607019137.8841,1195
1607019137.8861,1188
1607019137.8881,1154
1607019137.8901,1062
1607019137.8921,960
1607019137.8941,1040
1607019137.8961,1494
1607019137.8981,2309
1607019137.9001,2839
1607019137.9021,1996
1607019137.9041,449
1607019138.3305,228
1607019138.3315,938
1607019138.3339,1050
1607019138.3366,902
1607019138.3386,1012
1607019138.3405,1050
1607019138.3427,979
1607019138.3445,990
1607019138.3465,1019
1607019138.3485,1012
1607019138.3505,1019
1607019138.3525,1031
1607019138.3545,1036
1607019138.3567,1043
1607019138.3585,1055
1607019138.3605,1064
1607019138.3625,1078
1607019138.3644,1102
1607019138.3664,1121
1607019138.3684,1131
1607019138.3704,1138
1607019138.3724,1145
1607019138.3744,1150
1607019138.3764,1147
1607019138.3784,1138
1607019138.3805,1126
1607019138.3824,1104
1607019138.3844,1071
1607019138.3864,1024
1607019138.3884,960
1607019138.3904,883
1607019138.3924,805
1607019138.3944,731
1607019138.3964,679
1607019138.3984,655
1607019138.4004,636
1607019138.4024,617
1607019138.4044,615
1607019138.4064,624
1607019138.4084,624
1607019138.4104,620
1607019138.4124,620
1607019138.4144,617
1607019138.4164,617
1607019138.4184,620
1607019138.4204,620
1607019138.4224,615
1607019138.4244,601
1607019138.4266,591
1607019138.4286,586
1607019138.4304,586
1607019138.4324,598
1607019138.4344,601
1607019138.4364,584
1607019138.4384,579
1607019138.4404,591
1607019138.4424,582
1607019138.4444,551
1607019138.4464,529
1607019138.4484,541
1607019138.4504,567
1607019138.4524,567
1607019138.4544,537
1607019138.4564,515
1607019138.4586,537
1607019138.4605,563
1607019138.4624,558
1607019138.4644,553
1607019138.4664,544
1607019138.4684,510
1607019138.4704,494
1607019138.4724,513
1607019138.4744,529
1607019138.8696,539
1607019138.8703,546
1607019138.8721,560
1607019138.8741,572
1607019138.8761,558
1607019138.8781,525
1607019138.8801,489
1607019138.8821,482
1607019138.8840,496
1607019138.8861,491
1607019138.8880,475
1607019138.8900,472
1607019138.8920,477
1607019138.8940,446
1607019138.8960,330
1607019138.8980,232
1607019138.9000,403
1607019138.9020,1012
1607019138.9041,1927
1607019138.9061,2243
1607019138.9080,1055
1607019138.9100,-311
1607019138.9120,-144
1607019138.9140,453
1607019138.9161,354
1607019138.9181,263
1607019138.9200,408
1607019138.9220,403
1607019138.9241,358
1607019138.9260,415
1607019138.9280,441
1607019138.9300,427
1607019138.9320,434
1607019138.9341,441
1607019138.9360,451
1607019138.9380,494
1607019138.9400,532
1607019138.9420,537
1607019138.9441,544
1607019138.9460,558
1607019138.9480,570
1607019138.9500,601
1607019138.9522,639
1607019138.9541,667
1607019138.9561,679
1607019138.9580,670
1607019138.9600,662
1607019138.9620,660
1607019138.9640,627
1607019138.9660,577
1607019138.9680,548
1607019138.9701,520
1607019138.9720,444
1607019138.9740,361
1607019138.9761,292
1607019138.9780,232
1607019138.9801,199
1607019138.9820,185
1607019138.9840,190
1607019138.9860,216
1607019138.9880,223
1607019138.9900,199
1607019138.9920,201
1607019138.9941,228
1607019138.9961,228
1607019138.9980,213
1607019139.0000,223
1607019139.0020,244
1607019139.0041,251
1607019139.0061,244
1607019139.0080,237
1607019139.0100,240
1607019139.0120,247
1607019139.4700,251
1607019139.4710,259
1607019139.4736,251
1607019139.4761,230
1607019139.4781,211
1607019139.4802,211
1607019139.4822,228
1607019139.4840,249
1607019139.4860,259
1607019139.4880,254
1607019139.4900,232
1607019139.4920,204
1607019139.4940,201
1607019139.4960,223
1607019139.4980,249
1607019139.5000,266
1607019139.5020,261
1607019139.5040,254
1607019139.5060,256
1607019139.5080,249
1607019139.5103,230
1607019139.5121,223
1607019139.5140,235
1607019139.5160,261
1607019139.5180,259
1607019139.5200,237
1607019139.5219,251
1607019139.5241,301
1607019139.5260,339
1607019139.5280,325
1607019139.5300,289
1607019139.5320,287
1607019139.5340,287
1607019139.5360,251
1607019139.5380,232
1607019139.5400,242
1607019139.5420,249
1607019139.5440,247
1607019139.5460,254
1607019139.5480,240
1607019139.5500,154
1607019139.5520,52
1607019139.5540,116
1607019139.5560,541
1607019139.5580,1387
1607019139.5600,2067
1607019139.5620,1404
1607019139.5640,-125
1607019139.5660,-489
1607019139.5680,149
1607019139.5700,254
1607019139.5719,52
1607019139.5740,149
1607019139.5759,242
1607019139.5780,190
1607019139.5800,194
1607019139.5820,235
1607019139.5840,232
1607019139.5860,251
1607019139.5879,282
1607019139.5900,275
1607019139.5920,301
1607019139.5940,342
1607019139.5960,337
1607019139.5980,344
1607019139.6000,382
1607019139.6020,399
1607019139.6040,427
1607019139.6061,477
1607019139.6080,489
1607019139.6100,480
1607019139.6122,501
1607019139.6140,522
1607019140.0094,508
1607019140.0102,480
1607019140.0127,456
1607019140.0153,441
1607019140.0173,401
1607019140.0193,320
1607019140.0213,240
1607019140.0233,175
1607019140.0252,125
1607019140.0272,92
1607019140.0292,76
1607019140.0313,64
1607019140.0333,59
1607019140.0352,57
1607019140.0372,54
1607019140.0392,68
1607019140.0412,87
1607019140.0433,102
1607019140.0452,116
1607019140.0472,118
1607019140.0492,111
1607019140.0512,121
1607019140.0533,128
1607019140.0552,130
1607019140.0572,135
1607019140.0592,140
1607019140.0612,142
1607019140.0632,142
1607019140.0652,142
1607019140.0673,140
1607019140.0692,142
1607019140.0712,144
1607019140.0733,140
1607019140.0752,142
1607019140.0772,154
1607019140.0792,149
1607019140.0812,142
1607019140.0832,149
1607019140.0852,152
1607019140.0872,144
1607019140.0892,147
1607019140.0912,149
1607019140.0933,149
1607019140.0952,154
1607019140.0972,154
1607019140.0992,156
1607019140.1012,161
1607019140.1032,152
1607019140.1052,144
1607019140.1074,147
1607019140.1093,149
1607019140.1112,152
1607019140.1132,156
1607019140.1152,168
1607019140.1172,192
1607019140.1192,213
1607019140.1212,216
1607019140.1232,211
1607019140.1252,199
1607019140.1272,180
1607019140.1292,159
1607019140.1312,147
1607019140.1332,144
1607019140.1352,149
1607019140.1372,152
1607019140.1392,144
1607019140.1412,142
1607019140.1433,130
1607019140.1452,54
1607019140.1472,-30
1607019140.1492,66
1607019140.1512,534
1607019140.1532,1347
1607019140.5803,1846
1607019140.5813,1019
1607019140.5842,-430
1607019140.5864,-622
1607019140.5884,35
1607019140.5904,142
1607019140.5925,-2
1607019140.5943,85
1607019140.5963,133
1607019140.5983,99
1607019140.6003,135
1607019140.6027,173
1607019140.6043,171
1607019140.6050,182
1607019140.6073,206
1607019140.6093,216
1607019140.6113,230
1607019140.6132,261
1607019140.6153,285
1607019140.6174,297
1607019140.6194,316
1607019140.6213,346
1607019140.6233,370
1607019140.6252,392
1607019140.6273,415
1607019140.6292,434
1607019140.6312,444
1607019140.6335,451
1607019140.6354,449
1607019140.6359,434
1607019140.6383,411
1607019140.6404,373
1607019140.6422,316
1607019140.6442,240
1607019140.6462,168
1607019140.6483,133
1607019140.6502,95
1607019140.6523,33
1607019140.6542,4
1607019140.6562,9
1607019140.6583,0
1607019140.6602,-11
1607019140.6622,-11
1607019140.6643,9
1607019140.6663,38
1607019140.6670,42
1607019140.6693,33
1607019140.6712,40
1607019140.6734,49
1607019140.6753,47
1607019140.6773,52
1607019140.6792,64
1607019140.6812,61
1607019140.6833,61
1607019140.6853,73
1607019140.6872,78
1607019140.6893,71
1607019140.6912,68
1607019140.6932,66
1607019140.6952,64
1607019140.6960,64
1607019140.6982,59
1607019140.7004,57
1607019140.7023,61
1607019140.7042,64
1607019140.7062,61
1607019140.7082,59
1607019140.7102,57
1607019140.7123,59
1607019140.7142,68
1607019140.7162,73
1607019140.7182,66
1607019140.7202,66
1607019141.1195,71
1607019141.1205,71
1607019141.1229,68
1607019141.1255,68
1607019141.1275,68
1607019141.1298,68
1607019141.1317,76
1607019141.1335,95
1607019141.1355,118
1607019141.1375,130
1607019141.1395,135
1607019141.1415,133
1607019141.1435,114
1607019141.1454,92
1607019141.1474,83
1607019141.1495,80
1607019141.1514,76
1607019141.1522,78
1607019141.1545,92
1607019141.1565,95
1607019141.1585,87
1607019141.1604,61
1607019141.1624,-28
1607019141.1645,-111
1607019141.1665,52
1607019141.1685,684
1607019141.1704,1627
1607019141.1724,1939
1607019141.1744,691
1607019141.1765,-788
1607019141.1784,-653
1607019141.1805,45
1607019141.1824,23
1607019141.1832,-61
1607019141.1855,85
1607019141.1874,99
1607019141.1894,57
1607019141.1915,104
1607019141.1935,137
1607019141.1954,130
1607019141.1974,147
1607019141.1994,173
1607019141.2014,185
1607019141.2035,199
1607019141.2054,220
1607019141.2074,247
1607019141.2094,268
1607019141.2114,287
1607019141.2134,313
1607019141.2141,342
1607019141.2165,370
1607019141.2185,389
1607019141.2204,406
1607019141.2224,420
1607019141.2244,422
1607019141.2264,413
1607019141.2286,401
1607019141.2305,377
1607019141.2324,332
1607019141.2344,268
1607019141.2364,194
1607019141.2385,109
1607019141.2405,30
1607019141.2424,-16
1607019141.2444,-40
1607019141.2451,-61
1607019141.2474,-73
1607019141.2495,-71
1607019141.2515,-66
1607019141.2535,-57
1607019141.2554,-47
1607019141.2574,-38
1607019141.2594,-28
1607019141.6897,-19
1607019141.6906,-9
1607019141.6932,-2
1607019141.6958,2
1607019141.6977,7
1607019141.6997,4
1607019141.7018,0
1607019141.7026,7
1607019141.7046,14
1607019141.7066,16
1607019141.7086,16
1607019141.7106,16
1607019141.7126,16
1607019141.7146,16
1607019141.7166,21
1607019141.7186,28
1607019141.7206,28
1607019141.7227,28
1607019141.7246,35
1607019141.7266,40
1607019141.7286,38
1607019141.7306,38
1607019141.7327,45
1607019141.7333,49
1607019141.7356,49
1607019141.7376,49
1607019141.7396,49
1607019141.7416,49
1607019141.7438,52
1607019141.7456,54
1607019141.7476,57
1607019141.7496,71
1607019141.7516,104
1607019141.7536,130
1607019141.7558,137
1607019141.7576,133
1607019141.7596,118
1607019141.7616,102
1607019141.7623,83
1607019141.7646,73
1607019141.7666,76
1607019141.7686,76
1607019141.7706,78
1607019141.7726,83
1607019141.7746,83
1607019141.7766,64
1607019141.7786,-4
1607019141.7806,-118
1607019141.7826,-125
1607019141.7846,235
1607019141.7866,1114
1607019141.7886,2038
1607019141.7906,1658
1607019141.7926,-40
1607019141.7933,-803
1607019141.7956,-159
1607019141.7976,118
1607019141.7996,-111
1607019141.8016,-40
1607019141.8036,80
1607019141.8056,19
1607019141.8076,23
1607019141.8096,87
1607019141.8116,90
1607019141.8136,87
1607019141.8156,118
1607019141.8176,135
1607019141.8196,147
1607019141.8216,168
1607019141.8236,194
1607019141.8243,220
1607019141.8266,244
1607019141.8286,263
1607019142.2299,294
1607019142.2309,330
1607019142.2335,361
1607019142.2359,384
1607019142.2379,403
1607019142.2399,418
1607019142.2421,415
1607019142.2439,396
1607019142.2459,373
1607019142.2479,335
1607019142.2499,275
1607019142.2519,197
1607019142.2541,104
1607019142.2559,23
1607019142.2579,-38
1607019142.2598,-78
1607019142.2619,-102
1607019142.2638,-106
1607019142.2659,-102
1607019142.2678,-99
1607019142.2698,-90
1607019142.2719,-76
1607019142.2739,-66
1607019142.2758,-59
1607019142.2779,-47
1607019142.2798,-38
1607019142.2818,-33
1607019142.2838,-26
1607019142.2858,-21
1607019142.2878,-11
1607019142.2898,-4
1607019142.2918,0
1607019142.2939,2
1607019142.2958,4
1607019142.2979,4
1607019142.2998,7
1607019142.3018,4
1607019142.3039,-2
1607019142.3058,-2
1607019142.3078,4
1607019142.3098,4
1607019142.3118,7
1607019142.3139,11
1607019142.3158,9
1607019142.3178,9
1607019142.3198,14
1607019142.3218,14
1607019142.3239,14
1607019142.3258,16
1607019142.3278,21
1607019142.3298,19
1607019142.3318,21
1607019142.3338,30
1607019142.3358,52
1607019142.3378,80
1607019142.3398,104
1607019142.3418,109
1607019142.3439,97
1607019142.3458,78
1607019142.3479,59
1607019142.3498,47
1607019142.3518,45
1607019142.3539,45
1607019142.3560,49
1607019142.3579,49
1607019142.3598,49
1607019142.3618,54
1607019142.3638,40
1607019142.3658,-49
1607019142.3678,-159
1607019142.3698,-87
1607019142.3718,377
1607019142.3738,1295
1607019142.8293,1986
1607019142.8303,1195
1607019142.8328,-444
1607019142.8355,-746
1607019142.8374,-47
1607019142.8394,35
1607019142.8414,-149
1607019142.8434,-21
1607019142.8454,42
1607019142.8474,-11
1607019142.8494,23
1607019142.8515,66
1607019142.8535,61
1607019142.8554,78
1607019142.8574,106
1607019142.8594,114
1607019142.8614,130
1607019142.8633,161
1607019142.8653,182
1607019142.8674,201
1607019142.8694,230
1607019142.8713,254
1607019142.8734,282
1607019142.8753,313
1607019142.8773,342
1607019142.8793,368
1607019142.8813,384
1607019142.8834,394
1607019142.8854,392
1607019142.8873,375
1607019142.8893,344
1607019142.8913,304
1607019142.8934,244
1607019142.8953,161
1607019142.8973,71
1607019142.8993,-4
1607019142.9014,-59
1607019142.9034,-87
1607019142.9053,-104
1607019142.9073,-114
1607019142.9093,-109
1607019142.9115,-97
1607019142.9134,-87
1607019142.9153,-83
1607019142.9173,-68
1607019142.9194,-54
1607019142.9213,-49
1607019142.9233,-45
1607019142.9253,-35
1607019142.9273,-26
1607019142.9293,-21
1607019142.9313,-16
1607019142.9333,-9
1607019142.9354,-9
1607019142.9373,-7
1607019142.9393,-2
1607019142.9413,2
1607019142.9434,7
1607019142.9453,7
1607019142.9473,4
1607019142.9493,9
1607019142.9514,11
1607019142.9534,11
1607019142.9553,14
1607019142.9573,19
1607019142.9593,21
1607019142.9613,23
1607019142.9633,19
1607019142.9653,19
1607019142.9673,21
1607019142.9694,21
1607019142.9713,21
1607019142.9733,33
1607019143.3999,61
1607019143.4009,92
1607019143.4034,104
1607019143.4060,106
1607019143.4080,99
1607019143.4100,78
1607019143.4121,54
1607019143.4139,45
1607019143.4159,45
1607019143.4179,38
1607019143.4201,35
1607019143.4219,47
1607019143.4239,52
1607019143.4259,40
1607019143.4279,-9
1607019143.4299,-106
1607019143.4319,-142
1607019143.4339,104
1607019143.4360,798
1607019143.4382,1696
1607019143.4399,1694
1607019143.4419,263
1607019143.4439,-817
1607019143.4459,-370
1607019143.4479,121
1607019143.4499,-59
1607019143.4519,-92
1607019143.4540,54
1607019143.4559,35
1607019143.4579,14
1607019143.4599,73
1607019143.4619,87
1607019143.4639,80
1607019143.4658,109
1607019143.4678,135
1607019143.4700,142
1607019143.4719,156
1607019143.4739,180
1607019143.4758,199
1607019143.4778,220
1607019143.4798,249
1607019143.4818,278
1607019143.4838,304
1607019143.4859,327
1607019143.4880,354
1607019143.4898,373
1607019143.4918,387
1607019143.4939,389
1607019143.4959,384
1607019143.4978,368
1607019143.4998,332
1607019143.5018,280
1607019143.5039,216
1607019143.5059,140
1607019143.5079,61
1607019143.5098,-4
1607019143.5118,-45
1607019143.5138,-71
1607019143.5158,-90
1607019143.5178,-95
1607019143.5200,-90
1607019143.5219,-80
1607019143.5239,-66
1607019143.5258,-57
1607019143.5278,-52
1607019143.5300,-45
1607019143.5319,-35
1607019143.5338,-30
1607019143.5359,-26
1607019143.5380,-19
1607019143.5400,-14
1607019143.5419,-7
1607019143.5439,-4
1607019143.9999,-7
1607019144.0009,-2
1607019144.0034,2
1607019144.0061,7
1607019144.0080,9
1607019144.0100,7
1607019144.0120,4
1607019144.0139,7
1607019144.0159,11
1607019144.0179,16
1607019144.0200,11
1607019144.0220,2
1607019144.0239,4
1607019144.0259,9
1607019144.0279,7
1607019144.0299,4
1607019144.0319,7
1607019144.0339,4
1607019144.0359,2
1607019144.0379,9
1607019144.0399,21
1607019144.0418,45
1607019144.0439,76
1607019144.0459,92
1607019144.0478,92
1607019144.0498,80
1607019144.0518,57
1607019144.0539,40
1607019144.0559,35
1607019144.0579,38
1607019144.0599,33
1607019144.0618,35
1607019144.0639,42
1607019144.0659,47
1607019144.0679,38
1607019144.0698,-9
1607019144.0720,-104
1607019144.0740,-123
1607019144.0758,159
1607019144.0778,862
1607019144.0798,1639
1607019144.0819,1440
1607019144.0839,33
1607019144.0858,-824
1607019144.0879,-332
1607019144.0899,90
1607019144.0918,-57
1607019144.0939,-59
1607019144.0960,59
1607019144.0979,30
1607019144.0998,19
1607019144.1018,73
1607019144.1039,83
1607019144.1059,78
1607019144.1079,102
1607019144.1098,123
1607019144.1118,133
1607019144.1139,147
1607019144.1159,168
1607019144.1178,192
1607019144.1199,209
1607019144.1219,228
1607019144.1239,254
1607019144.1258,282
1607019144.1279,301
1607019144.1298,320
1607019144.1319,335
1607019144.1339,342
1607019144.1358,344
1607019144.1379,337
1607019144.1399,318
1607019144.1418,299
1607019144.1439,259
1607019144.5095,194
1607019144.5105,121
1607019144.5130,49
1607019144.5156,-11
1607019144.5176,-54
1607019144.5196,-78
1607019144.5217,-90
1607019144.5236,-99
1607019144.5258,-102
1607019144.5276,-97
1607019144.5296,-87
1607019144.5316,-83
1607019144.5336,-76
1607019144.5356,-64
1607019144.5376,-61
1607019144.5397,-71
1607019144.5417,-73
1607019144.5436,-59
1607019144.5456,-57
1607019144.5476,-57
1607019144.5496,-52
1607019144.5517,-47
1607019144.5535,-42
1607019144.5556,-35
1607019144.5576,-38
1607019144.5596,-42
1607019144.5617,-42
1607019144.5636,-35
1607019144.5656,-30
1607019144.5675,-30
1607019144.5695,-30
1607019144.5715,-26
1607019144.5736,-19
1607019144.5755,-21
1607019144.5775,-21
1607019144.5795,-14
1607019144.5815,-14
1607019144.5835,-14
1607019144.5855,-14
1607019144.5875,-16
1607019144.5895,-14
1607019144.5916,-7
1607019144.5935,7
1607019144.5955,38
1607019144.5975,68
1607019144.5995,76
1607019144.6015,64
1607019144.6035,42
1607019144.6055,21
1607019144.6076,9
1607019144.6095,2
1607019144.6115,2
1607019144.6136,14
1607019144.6155,21
1607019144.6175,21
1607019144.6195,19
1607019144.6215,2
1607019144.6236,-66
1607019144.6256,-161
1607019144.6275,-111
1607019144.6295,318
1607019144.6315,1152
1607019144.6335,1801
1607019144.6355,1147
1607019144.6375,-437
1607019144.6396,-910
1607019144.6416,-220
1607019144.6435,42
1607019144.6455,-114
1607019144.6475,-47
1607019144.6495,38
1607019144.6515,7
1607019144.6535,14
1607019145.0494,45
1607019145.0504,47
1607019145.0529,66
1607019145.0554,92
1607019145.0578,102
1607019145.0595,111
1607019145.0616,135
1607019145.0634,161
1607019145.0654,182
1607019145.0674,199
1607019145.0694,223
1607019145.0714,244
1607019145.0734,266
1607019145.0754,299
1607019145.0774,323
1607019145.0793,332
1607019145.0813,342
1607019145.0834,349
1607019145.0853,335
1607019145.0873,313
1607019145.0893,282
1607019145.0913,230
1607019145.0934,159
1607019145.0954,76
1607019145.0973,-9
1607019145.0993,-66
1607019145.1013,-99
1607019145.1034,-118
1607019145.1053,-130
1607019145.1073,-135
1607019145.1094,-133
1607019145.1113,-123
1607019145.1134,-109
1607019145.1153,-99
1607019145.1173,-90
1607019145.1193,-80
1607019145.1213,-78
1607019145.1234,-73
1607019145.1254,-61
1607019145.1274,-57
1607019145.1293,-57
1607019145.1313,-54
1607019145.1333,-49
1607019145.1353,-45
1607019145.1373,-40
1607019145.1393,-35
1607019145.1414,-35
1607019145.1434,-40
1607019145.1453,-38
1607019145.1473,-26
1607019145.1493,-23
1607019145.1513,-28
1607019145.1534,-28
1607019145.1553,-23
1607019145.1574,-19
1607019145.1596,-21
1607019145.1614,-23
1607019145.1635,-9
1607019145.1653,11
1607019145.1673,30
1607019145.1693,49
1607019145.1713,68
1607019145.1734,71
1607019145.1754,49
1607019145.1774,16
1607019145.1793,2
1607019145.1813,2
1607019145.1834,2
1607019145.1853,9
1607019145.1873,19
1607019145.1893,21
1607019145.1913,16
1607019145.1934,-2
1607019145.5893,-85
1607019145.5902,-182
1607019145.5928,-54
1607019145.5954,515
1607019145.5973,1409
1607019145.5993,1808
1607019145.6014,753
1607019145.6033,-717
1607019145.6052,-746
1607019145.6072,-68
1607019145.6092,-19
1607019145.6113,-116
1607019145.6132,4
1607019145.6152,33
1607019145.6172,-2
1607019145.6192,40
1607019145.6212,73
1607019145.6232,66
1607019145.6252,80
1607019145.6272,106
1607019145.6292,123
1607019145.6312,137
1607019145.6332,154
1607019145.6352,173
1607019145.6372,197
1607019145.6392,220
1607019145.6412,244
1607019145.6432,273
1607019145.6453,299
1607019145.6472,320
1607019145.6492,342
1607019145.6512,358
1607019145.6532,361
1607019145.6553,351
1607019145.6572,332
1607019145.6592,306
1607019145.6613,273
1607019145.6632,213
1607019145.6652,128
1607019145.6672,47
1607019145.6692,-16
1607019145.6712,-59
1607019145.6732,-90
1607019145.6752,-102
1607019145.6772,-104
1607019145.6793,-106
1607019145.6812,-102
1607019145.6832,-87
1607019145.6852,-76
1607019145.6872,-68
1607019145.6892,-61
1607019145.6912,-52
1607019145.6932,-47
1607019145.6952,-42
1607019145.6972,-38
1607019145.6992,-33
1607019145.7012,-30
1607019145.7032,-30
1607019145.7052,-30
1607019145.7072,-28
1607019145.7092,-26
1607019145.7113,-23
1607019145.7132,-21
1607019145.7152,-19
1607019145.7172,-23
1607019145.7192,-28
1607019145.7212,-26
1607019145.7232,-23
1607019145.7252,-21
1607019145.7272,-19
1607019145.7293,-23
1607019145.7312,-26
1607019145.7332,-16
1607019146.1894,2
1607019146.1904,26
1607019146.1930,45
1607019146.1956,47
1607019146.1976,45
1607019146.1995,40
1607019146.2015,16
1607019146.2035,-4
1607019146.2054,-2
1607019146.2074,0
1607019146.2094,2
1607019146.2117,7
1607019146.2134,14
1607019146.2154,14
1607019146.2174,-4
1607019146.2193,-78
1607019146.2213,-171
1607019146.2234,-111
1607019146.2254,301
1607019146.2273,1121
1607019146.2294,1777
1607019146.2315,1128
1607019146.2334,-394
1607019146.2353,-781
1607019146.2373,-125
1607019146.2393,35
1607019146.2413,-142
1607019146.2434,-54
1607019146.2454,26
1607019146.2474,-19
1607019146.2494,2
1607019146.2513,52
1607019146.2534,47
1607019146.2553,54
1607019146.2574,83
1607019146.2593,99
1607019146.2614,114
1607019146.2635,130
1607019146.2654,147
1607019146.2673,171
1607019146.2693,197
1607019146.2713,220
1607019146.2734,247
1607019146.2753,278
1607019146.2773,299
1607019146.2795,313
1607019146.2815,327
1607019146.2834,339
1607019146.2854,335
1607019146.2873,320
1607019146.2893,301
1607019146.2913,259
1607019146.2934,197
1607019146.2953,125
1607019146.2974,49
1607019146.2994,-19
1607019146.3013,-68
1607019146.3034,-97
1607019146.3053,-114
1607019146.3073,-121
1607019146.3093,-116
1607019146.3113,-111
1607019146.3136,-106
1607019146.3154,-95
1607019146.3173,-80
1607019146.3195,-76
1607019146.3214,-71
1607019146.3234,-64
1607019146.3253,-59
1607019146.3273,-52
1607019146.3294,-42
1607019146.3314,-38
1607019146.3334,-38
1607019146.7600,-30
1607019146.7613,-28
1607019146.7638,-23
1607019146.7664,-19
1607019146.7684,-21
1607019146.7703,-21
1607019146.7725,-19
1607019146.7743,-21
1607019146.7763,-26
1607019146.7784,-28
1607019146.7804,-23
1607019146.7823,-26
1607019146.7843,-30
1607019146.7862,-28
1607019146.7882,-26
1607019146.7903,-26
1607019146.7923,-19
1607019146.7942,7
1607019146.7962,40
1607019146.7982,49
1607019146.8002,42
1607019146.8023,47
1607019146.8042,40
1607019146.8062,9
1607019146.8082,-7
1607019146.8102,2
1607019146.8123,9
1607019146.8142,9
1607019146.8162,14
1607019146.8182,21
1607019146.8202,19
1607019146.8223,-23
1607019146.8242,-123
1607019146.8262,-168
1607019146.8282,54
1607019146.8302,689
1607019146.8323,1516
1607019146.8342,1573
1607019146.8362,289
1607019146.8382,-815
1607019146.8404,-472
1607019146.8424,59
1607019146.8443,-59
1607019146.8464,-116
1607019146.8483,14
1607019146.8502,2
1607019146.8523,-26
1607019146.8542,30
1607019146.8563,54
1607019146.8582,49
1607019146.8602,68
1607019146.8622,90
1607019146.8643,99
1607019146.8663,121
1607019146.8669,144
1607019146.8682,154
1607019146.8702,178
1607019146.8723,206
1607019146.8742,228
1607019146.8762,251
1607019146.8782,280
1607019146.8802,306
1607019146.8823,325
1607019146.8842,330
1607019146.8862,330
1607019146.8882,330
1607019146.8902,316
1607019146.8923,282
1607019146.8942,230
1607019146.8962,168
1607019146.8969,97
1607019146.8982,21
1607019146.9002,-42
1607019147.2996,-87
1607019147.3005,-118
1607019147.3029,-133
1607019147.3056,-123
1607019147.3075,-114
1607019147.3096,-114
1607019147.3117,-114
1607019147.3136,-97
1607019147.3154,-80
1607019147.3175,-80
1607019147.3194,-80
1607019147.3202,-80
1607019147.3225,-78
1607019147.3244,-71
1607019147.3265,-68
1607019147.3284,-64
1607019147.3304,-57
1607019147.3325,-52
1607019147.3346,-54
1607019147.3365,-57
1607019147.3384,-42
1607019147.3404,-33
1607019147.3425,-42
1607019147.3444,-47
1607019147.3464,-40
1607019147.3484,-35
1607019147.3505,-38
1607019147.3511,-52
1607019147.3525,-61
1607019147.3544,-35
1607019147.3564,-19
1607019147.3584,-52
1607019147.3604,-57
1607019147.3625,-11
1607019147.3644,-14
1607019147.3664,-38
1607019147.3684,-33
1607019147.3704,-35
1607019147.3725,-47
1607019147.3744,-47
1607019147.3764,-40
1607019147.3784,-21
1607019147.3804,7
1607019147.3811,26
1607019147.3825,30
1607019147.3845,26
1607019147.3864,35
1607019147.3884,33
1607019147.3904,4
1607019147.3925,-16
1607019147.3944,-9
1607019147.3965,-7
1607019147.3984,-7
1607019147.4004,0
1607019147.4025,7
1607019147.4044,-7
1607019147.4064,-64
1607019147.4084,-156
1607019147.4104,-173
1607019147.4111,123
1607019147.4135,881
1607019147.4154,1758
1607019147.4174,1587
1607019147.4196,-7
1607019147.4214,-1033
1607019147.4234,-475
1607019147.4254,30
1607019147.4274,-111
1607019147.4294,-97
1607019147.4317,23
1607019147.4335,-11
1607019147.4354,-7
1607019147.4374,54
1607019147.8694,54
1607019147.8704,54
1607019147.8722,95
1607019147.8741,114
1607019147.8761,121
1607019147.8781,144
1607019147.8801,159
1607019147.8821,171
1607019147.8840,201
1607019147.8860,232
1607019147.8881,256
1607019147.8900,285
1607019147.8920,313
1607019147.8940,339
1607019147.8960,363
1607019147.8967,377
1607019147.8980,382
1607019147.9000,370
1607019147.9020,351
1607019147.9040,327
1607019147.9060,282
1607019147.9080,201
1607019147.9100,106
1607019147.9120,21
1607019147.9140,-42
1607019147.9160,-97
1607019147.9181,-130
1607019147.9200,-142
1607019147.9220,-147
1607019147.9240,-149
1607019147.9260,-149
1607019147.9267,-135
1607019147.9291,-114
1607019147.9310,-104
1607019147.9330,-102
1607019147.9350,-90
1607019147.9370,-76
1607019147.9390,-68
1607019147.9410,-66
1607019147.9430,-57
1607019147.9450,-47
1607019147.9470,-47
1607019147.9490,-45
1607019147.9510,-38
1607019147.9531,-33
1607019147.9550,-35
1607019147.9570,-35
1607019147.9579,-28
1607019147.9591,-23
1607019147.9610,-28
1607019147.9630,-30
1607019147.9650,-28
1607019147.9670,-26
1607019147.9690,-28
1607019147.9710,-28
1607019147.9731,-26
1607019147.9750,-26
1607019147.9770,-26
1607019147.9790,-23
1607019147.9810,-19
1607019147.9830,-19
1607019147.9851,-23
1607019147.9870,-21
1607019147.9877,-4
1607019147.9890,23
1607019147.9910,49
1607019147.9931,66
1607019147.9950,64
1607019147.9970,47
1607019147.9990,28
1607019148.0010,11
1607019148.0031,0
1607019148.0050,2
1607019148.4097,2
1607019148.4107,-2
1607019148.4132,4
1607019148.4158,11
1607019148.4177,9
1607019148.4184,-23
1607019148.4207,-128
1607019148.4227,-225
1607019148.4246,-85
1607019148.4266,527
1607019148.4286,1520
1607019148.4306,1969
1607019148.4327,800
1607019148.4346,-765
1607019148.4366,-722
1607019148.4386,-33
1607019148.4406,-71
1607019148.4426,-175
1607019148.4446,-16
1607019148.4466,0
1607019148.4486,-47
1607019148.4493,7
1607019148.4506,35
1607019148.4526,16
1607019148.4546,42
1607019148.4568,78
1607019148.4587,90
1607019148.4607,106
1607019148.4627,130
1607019148.4646,149
1607019148.4667,175
1607019148.4686,206
1607019148.4706,235
1607019148.4726,266
1607019148.4746,294
1607019148.4766,318
1607019148.4786,344
1607019148.4806,365
1607019148.4827,370
1607019148.4846,365
1607019148.4866,349
1607019148.4886,316
1607019148.4906,261
1607019148.4926,190
1607019148.4946,106
1607019148.4966,16
1607019148.4986,-57
1607019148.5006,-109
1607019148.5026,-133
1607019148.5046,-142
1607019148.5066,-152
1607019148.5086,-154
1607019148.5107,-144
1607019148.5126,-133
1607019148.5146,-121
1607019148.5165,-114
1607019148.5186,-106
1607019148.5206,-92
1607019148.5226,-83
1607019148.5246,-76
1607019148.5266,-68
1607019148.5286,-61
1607019148.5306,-64
1607019148.5326,-57
1607019148.5346,-42
1607019148.5366,-42
1607019148.5386,-40
1607019148.5406,-30
1607019148.5426,-30
1607019148.5446,-38
1607019148.5466,-38
1607019148.5486,-35
1607019148.5506,-35
1607019148.9797,-35
1607019148.9807,-35
1607019148.9832,-30
1607019148.9861,-28
1607019148.9879,-38
1607019148.9898,-47
1607019148.9920,-45
1607019148.9938,-33
1607019148.9957,-33
1607019148.9978,-33
1607019148.9998,-23
1607019149.0018,-21
1607019149.0038,-23
1607019149.0058,-21
1607019149.0078,-19
1607019149.0098,-19
1607019149.0118,-16
1607019149.0137,-14
1607019149.0157,-19
1607019149.0177,-19
1607019149.0197,-11
1607019149.0218,0
1607019149.0237,26
1607019149.0257,57
1607019149.0277,71
1607019149.0297,59
1607019149.0317,45
1607019149.0337,38
1607019149.0357,21
1607019149.0377,4
1607019149.0397,7
1607019149.0417,16
1607019149.0438,14
1607019149.0457,11
1607019149.0477,14
1607019149.0497,14
1607019149.0517,-23
1607019149.0538,-118
1607019149.0557,-192
1607019149.0577,-42
1607019149.0597,537
1607019149.0618,1499
1607019149.0637,1917
1607019149.0657,762
1607019149.0677,-691
1607019149.0697,-575
1607019149.0717,49
1607019149.0737,-66
1607019149.0757,-180
1607019149.0777,-14
1607019149.0797,-2
1607019149.0817,-52
1607019149.0837,7
1607019149.0857,40
1607019149.0879,33
1607019149.0898,61
1607019149.0917,85
1607019149.0938,92
1607019149.0957,106
1607019149.0977,130
1607019149.0997,154
1607019149.1017,182
1607019149.1038,211
1607019149.1058,230
1607019149.1077,251
1607019149.1097,287
1607019149.1117,318
1607019149.1137,337
1607019149.1157,349
1607019149.1177,361
1607019149.1197,361
1607019149.1217,351
1607019149.1238,325
1607019149.5793,280
1607019149.5804,216
1607019149.5817,133
1607019149.5836,45
1607019149.5856,-30
1607019149.5876,-83
1607019149.5896,-125
1607019149.5917,-159
1607019149.5936,-168
1607019149.5957,-161
1607019149.5976,-154
1607019149.5997,-142
1607019149.6017,-125
1607019149.6037,-116
1607019149.6056,-111
1607019149.6078,-97
1607019149.6097,-90
1607019149.6116,-90
1607019149.6136,-83
1607019149.6156,-73
1607019149.6176,-68
1607019149.6196,-61
1607019149.6216,-59
1607019149.6237,-59
1607019149.6256,-57
1607019149.6276,-52
1607019149.6296,-45
1607019149.6316,-42
1607019149.6337,-40
1607019149.6356,-38
1607019149.6376,-38
1607019149.6396,-38
1607019149.6418,-38
1607019149.6436,-33
1607019149.6457,-33
1607019149.6476,-30
1607019149.6496,-23
1607019149.6516,-23
1607019149.6537,-23
1607019149.6556,-14
1607019149.6575,-14
1607019149.6596,-16
1607019149.6616,-11
1607019149.6636,-7
1607019149.6655,-9
1607019149.6675,-7
1607019149.6695,0
1607019149.6716,0
1607019149.6736,-4
1607019149.6756,0
1607019149.6775,9
1607019149.6795,9
1607019149.6815,7
1607019149.6836,7
1607019149.6856,9
1607019149.6876,11
1607019149.6896,7
1607019149.6915,0
1607019149.6936,2
1607019149.6956,7
1607019149.6975,11
1607019149.6996,19
1607019149.7016,40
1607019149.7036,66
1607019149.7055,83
1607019149.7075,80
1607019149.7096,71
1607019149.7116,54
1607019149.7136,40
1607019149.7155,23
1607019149.7175,14
1607019149.7196,19
1607019149.7216,19
1607019150.1190,11
1607019150.1197,16
1607019150.1223,28
1607019150.1248,14
1607019150.1268,-52
1607019150.1288,-137
1607019150.1308,-116
1607019150.1329,190
1607019150.1348,907
1607019150.1368,1682
1607019150.1390,1361
1607019150.1408,-128
1607019150.1428,-822
1607019150.1447,-228
1607019150.1467,57
1607019150.1487,-159
1607019150.1507,-104
1607019150.1528,21
1607019150.1557,-30
1607019150.1568,-30
1607019150.1588,30
1607019150.1608,35
1607019150.1629,35
1607019150.1647,64
1607019150.1668,78
1607019150.1688,92
1607019150.1707,111
1607019150.1728,130
1607019150.1747,152
1607019150.1767,180
1607019150.1788,201
1607019150.1807,220
1607019150.1827,247
1607019150.1847,275
1607019150.1867,297
1607019150.1887,313
1607019150.1907,330
1607019150.1927,337
1607019150.1947,332
1607019150.1967,316
1607019150.1987,287
1607019150.2008,244
1607019150.2028,182
1607019150.2047,104
1607019150.2067,21
1607019150.2088,-45
1607019150.2107,-90
1607019150.2128,-121
1607019150.2147,-140
1607019150.2167,-142
1607019150.2187,-140
1607019150.2207,-142
1607019150.2228,-133
1607019150.2247,-116
1607019150.2268,-104
1607019150.2287,-102
1607019150.2307,-95
1607019150.2328,-80
1607019150.2347,-73
1607019150.2367,-76
1607019150.2387,-66
1607019150.2409,-57
1607019150.2428,-54
1607019150.2447,-52
1607019150.2467,-47
1607019150.2487,-47
1607019150.2507,-47
1607019150.2527,-45
1607019150.2547,-45
1607019150.2567,-42
1607019150.2587,-40
1607019150.2607,-35
1607019150.2628,-30
1607019150.6890,-30
1607019150.6900,-38
1607019150.6926,-35
1607019150.6951,-26
1607019150.6970,-23
1607019150.6990,-26
1607019150.7011,-26
1607019150.7031,-28
1607019150.7050,-30
1607019150.7070,-28
1607019150.7090,-26
1607019150.7110,-26
1607019150.7130,-28
1607019150.7149,-21
1607019150.7169,-11
1607019150.7189,-9
1607019150.7210,-11
1607019150.7230,-9
1607019150.7250,-4
1607019150.7269,-7
1607019150.7289,-9
1607019150.7309,-2
1607019150.7329,7
1607019150.7349,2
1607019150.7369,-4
1607019150.7389,0
1607019150.7409,7
1607019150.7430,4
1607019150.7449,11
1607019150.7469,47
1607019150.7489,85
1607019150.7509,78
1607019150.7530,52
1607019150.7549,54
1607019150.7569,47
1607019150.7589,16
1607019150.7609,0
1607019150.7630,0
1607019150.7649,0
1607019150.7671,0
1607019150.7690,7
1607019150.7710,14
1607019150.7729,11
1607019150.7749,-4
1607019150.7769,-64
1607019150.7789,-144
1607019150.7809,-121
1607019150.7830,194
1607019150.7849,910
1607019150.7869,1651
1607019150.7889,1306
1607019150.7909,-194
1607019150.7930,-902
1607019150.7949,-289
1607019150.7970,57
1607019150.7989,-130
1607019150.8009,-97
1607019150.8030,14
1607019150.8050,-21
1607019150.8069,-21
1607019150.8089,30
1607019150.8110,38
1607019150.8129,33
1607019150.8150,57
1607019150.8169,80
1607019150.8189,95
1607019150.8209,111
1607019150.8230,130
1607019150.8249,149
1607019150.8269,168
1607019150.8289,199
1607019150.8309,228
1607019150.8329,251
1607019151.2294,280
1607019151.2302,311
1607019151.2318,327
1607019151.2338,339
1607019151.2357,349
1607019151.2378,346
1607019151.2398,332
1607019151.2418,308
1607019151.2437,266
1607019151.2457,194
1607019151.2477,97
1607019151.2497,4
1607019151.2517,-68
1607019151.2537,-116
1607019151.2557,-147
1607019151.2577,-168
1607019151.2597,-175
1607019151.2619,-171
1607019151.2638,-166
1607019151.2657,-152
1607019151.2677,-137
1607019151.2697,-130
1607019151.2717,-125
1607019151.2737,-114
1607019151.2757,-104
1607019151.2777,-90
1607019151.2797,-83
1607019151.2817,-85
1607019151.2837,-87
1607019151.2857,-78
1607019151.2877,-68
1607019151.2897,-66
1607019151.2917,-66
1607019151.2937,-66
1607019151.2957,-61
1607019151.2977,-57
1607019151.2997,-57
1607019151.3017,-59
1607019151.3037,-54
1607019151.3057,-47
1607019151.3077,-42
1607019151.3097,-40
1607019151.3117,-45
1607019151.3137,-47
1607019151.3157,-42
1607019151.3177,-38
1607019151.3197,-30
1607019151.3217,-23
1607019151.3237,-26
1607019151.3258,-30
1607019151.3277,-28
1607019151.3298,-28
1607019151.3317,-26
1607019151.3337,-19
1607019151.3357,-21
1607019151.3377,-26
1607019151.3397,-23
1607019151.3417,-21
1607019151.3437,-14
1607019151.3458,-2
1607019151.3477,-4
1607019151.3497,-19
1607019151.3517,-9
1607019151.3537,33
1607019151.3557,71
1607019151.3577,66
1607019151.3597,45
1607019151.3617,42
1607019151.3639,30
1607019151.3657,9
1607019151.3677,-2
1607019151.3697,-7
1607019151.3717,-14
1607019151.7694,-9
1607019151.7704,4
1607019151.7729,11
1607019151.7755,0
1607019151.7774,-16
1607019151.7794,-71
1607019151.7817,-178
1607019151.7834,-171
1607019151.7854,180
1607019151.7874,950
1607019151.7894,1737
1607019151.7914,1394
1607019151.7934,-171
1607019151.7954,-952
1607019151.7974,-349
1607019151.7994,19
1607019151.8014,-147
1607019151.8034,-97
1607019151.8053,26
1607019151.8073,-21
1607019151.8093,-30
1607019151.8113,26
1607019151.8134,35
1607019151.8153,33
1607019151.8173,59
1607019151.8193,78
1607019151.8213,87
1607019151.8234,116
1607019151.8253,142
1607019151.8273,154
1607019151.8293,168
1607019151.8315,199
1607019151.8333,232
1607019151.8353,261
1607019151.8373,289
1607019151.8393,318
1607019151.8413,346
1607019151.8434,363
1607019151.8453,368
1607019151.8473,365
1607019151.8493,346
1607019151.8514,313
1607019151.8533,273
1607019151.8553,206
1607019151.8574,104
1607019151.8593,2
1607019151.8615,-87
1607019151.8634,-147
1607019151.8653,-144
1607019151.8673,-130
1607019151.8693,-152
1607019151.8713,-168
1607019151.8734,-156
1607019151.8754,-144
1607019151.8773,-137
1607019151.8793,-128
1607019151.8813,-118
1607019151.8833,-111
1607019151.8853,-102
1607019151.8873,-90
1607019151.8894,-78
1607019151.8913,-78
1607019151.8934,-78
1607019151.8953,-66
1607019151.8973,-57
1607019151.8994,-57
1607019151.9014,-54
1607019151.9033,-45
1607019151.9053,-45
1607019151.9073,-49
1607019151.9093,-45
1607019151.9113,-42
1607019151.9133,-45
1607019152.3395,-47
1607019152.3405,-47
1607019152.3430,-42
1607019152.3455,-40
1607019152.3475,-52
1607019152.3495,-57
1607019152.3516,-42
1607019152.3535,-30
1607019152.3555,-35
1607019152.3575,-35
1607019152.3594,-30
1607019152.3615,-38
1607019152.3635,-42
1607019152.3654,-35
1607019152.3675,-33
1607019152.3694,-38
1607019152.3715,-28
1607019152.3735,-11
1607019152.3755,-11
1607019152.3774,-19
1607019152.3794,-2
1607019152.3814,28
1607019152.3835,54
1607019152.3855,59
1607019152.3876,49
1607019152.3895,42
1607019152.3915,26
1607019152.3935,0
1607019152.3955,-11
1607019152.3975,-9
1607019152.3995,-11
1607019152.4015,-9
1607019152.4035,-2
1607019152.4054,0
1607019152.4074,0
1607019152.4094,-4
1607019152.4115,-61
1607019152.4136,-166
1607019152.4155,-175
1607019152.4174,121
1607019152.4194,850
1607019152.4214,1687
1607019152.4235,1516
1607019152.4254,30
1607019152.4274,-872
1607019152.4295,-337
1607019152.4315,64
1607019152.4335,-137
1607019152.4355,-128
1607019152.4376,14
1607019152.4396,-21
1607019152.4416,-38
1607019152.4436,23
1607019152.4457,40
1607019152.4476,35
1607019152.4496,59
1607019152.4516,83
1607019152.4536,95
1607019152.4555,111
1607019152.4575,133
1607019152.4595,154
1607019152.4614,178
1607019152.4635,206
1607019152.4654,235
1607019152.4674,256
1607019152.4694,287
1607019152.4715,320
1607019152.4735,344
1607019152.4754,361
1607019152.4774,368
1607019152.4795,365
1607019152.4814,351
1607019152.4835,323
1607019152.9394,273
1607019152.9403,201
1607019152.9431,114
1607019152.9454,21
1607019152.9474,-54
1607019152.9493,-104
1607019152.9514,-137
1607019152.9533,-152
1607019152.9553,-154
1607019152.9573,-156
1607019152.9593,-149
1607019152.9614,-135
1607019152.9633,-121
1607019152.9708,-114
1607019152.9723,-106
1607019152.9743,-97
1607019152.9763,-87
1607019152.9783,-80
1607019152.9803,-76
1607019152.9823,-66
1607019152.9843,-61
1607019152.9863,-57
1607019152.9883,-52
1607019152.9903,-49
1607019152.9923,-47
1607019152.9943,-47
1607019152.9963,-47
1607019152.9984,-40
1607019153.0004,-38
1607019153.0024,-40
1607019153.0043,-42
1607019153.0063,-45
1607019153.0083,-49
1607019153.0103,-54
1607019153.0123,-52
1607019153.0143,-47
1607019153.0163,-47
1607019153.0183,-42
1607019153.0203,-35
1607019153.0223,-38
1607019153.0243,-38
1607019153.0263,-35
1607019153.0283,-30
1607019153.0303,-28
1607019153.0323,-26
1607019153.0343,-21
1607019153.0363,-21
1607019153.0383,-21
1607019153.0403,-4
1607019153.0424,28
1607019153.0443,61
1607019153.0463,59
1607019153.0483,42
1607019153.0505,40
1607019153.0524,19
1607019153.0544,-11
1607019153.0563,-23
1607019153.0583,-21
1607019153.0603,-21
1607019153.0624,-26
1607019153.0643,-21
1607019153.0663,-11
1607019153.0683,-11
1607019153.0703,-26
1607019153.0723,-80
1607019153.0750,-168
1607019153.0763,-144
1607019153.0783,187
1607019153.0803,905
1607019153.0824,1601
1607019153.0843,1230
1607019153.0863,-211
1607019153.0883,-883
1607019153.4795,-304
1607019153.4805,33
1607019153.4830,-133
1607019153.4842,-102
1607019153.4856,9
1607019153.4876,-26
1607019153.4896,-26
1607019153.4917,28
1607019153.4935,38
1607019153.4955,33
1607019153.4975,47
1607019153.4995,57
1607019153.5015,71
1607019153.5035,97
1607019153.5055,116
1607019153.5075,135
1607019153.5095,161
1607019153.5115,187
1607019153.5136,213
1607019153.5142,240
1607019153.5165,266
1607019153.5185,287
1607019153.5205,306
1607019153.5225,323
1607019153.5245,327
1607019153.5265,320
1607019153.5285,301
1607019153.5305,278
1607019153.5325,237
1607019153.5345,171
1607019153.5365,87
1607019153.5387,4
1607019153.5405,-64
1607019153.5425,-109
1607019153.5445,-133
1607019153.5452,-142
1607019153.5475,-149
1607019153.5495,-152
1607019153.5515,-144
1607019153.5535,-133
1607019153.5554,-121
1607019153.5575,-114
1607019153.5595,-102
1607019153.5615,-92
1607019153.5636,-87
1607019153.5655,-80
1607019153.5675,-66
1607019153.5695,-59
1607019153.5715,-59
1607019153.5735,-57
1607019153.5755,-52
1607019153.5762,-45
1607019153.5785,-42
1607019153.5805,-42
1607019153.5825,-42
1607019153.5845,-42
1607019153.5865,-40
1607019153.5885,-42
1607019153.5905,-42
1607019153.5925,-38
1607019153.5945,-35
1607019153.5965,-38
1607019153.5985,-38
1607019153.6005,-30
1607019153.6025,-26
1607019153.6045,-23
1607019153.6065,-21
1607019153.6072,-23
1607019153.6096,-26
1607019153.6115,-16
1607019153.6135,-14
1607019153.6155,-16
1607019153.6175,-16
1607019154.0790,-16
1607019154.0805,-19
1607019154.0829,-14
1607019154.0855,-11
1607019154.0875,-16
1607019154.0895,4
1607019154.0915,40
1607019154.0922,59
1607019154.0944,49
1607019154.0966,40
1607019154.0984,38
1607019154.1004,16
1607019154.1024,-11
1607019154.1044,-19
1607019154.1063,-14
1607019154.1084,-14
1607019154.1104,-14
1607019154.1125,-16
1607019154.1143,-16
1607019154.1163,-16
1607019154.1184,-33
1607019154.1204,-104
1607019154.1224,-194
1607019154.1230,-111
1607019154.1244,349
1607019154.1263,1185
1607019154.1284,1777
1607019154.1304,1005
1607019154.1324,-582
1607019154.1343,-902
1607019154.1363,-171
1607019154.1383,0
1607019154.1403,-166
1607019154.1424,-61
1607019154.1443,11
1607019154.1463,-38
1607019154.1483,-9
1607019154.1503,40
1607019154.1524,38
1607019154.1530,45
1607019154.1553,73
1607019154.1573,87
1607019154.1594,102
1607019154.1614,123
1607019154.1635,152
1607019154.1653,178
1607019154.1673,197
1607019154.1693,220
1607019154.1714,247
1607019154.1734,270
1607019154.1754,297
1607019154.1773,332
1607019154.1793,365
1607019154.1813,380
1607019154.1834,377
1607019154.1840,370
1607019154.1853,358
1607019154.1874,320
1607019154.1893,259
1607019154.1913,182
1607019154.1935,97
1607019154.1954,-2
1607019154.1973,-87
1607019154.1993,-130
1607019154.2013,-154
1607019154.2034,-171
1607019154.2053,-180
1607019154.2074,-178
1607019154.2094,-166
1607019154.2113,-149
1607019154.2134,-130
1607019154.2140,-111
1607019154.2153,-106
1607019154.5888,-114
1607019154.5896,-106
1607019154.5921,-87
1607019154.5947,-80
1607019154.5966,-80
1607019154.5986,-76
1607019154.6008,-71
1607019154.6027,-71
1607019154.6046,-68
1607019154.6066,-68
1607019154.6086,-68
1607019154.6106,-68
1607019154.6126,-73
1607019154.6133,-80
1607019154.6156,-76
1607019154.6176,-66
1607019154.6196,-68
1607019154.6216,-68
1607019154.6236,-61
1607019154.6256,-57
1607019154.6276,-52
1607019154.6296,-47
1607019154.6316,-45
1607019154.6336,-42
1607019154.6356,-40
1607019154.6377,-40
1607019154.6396,-33
1607019154.6416,-26
1607019154.6436,-33
1607019154.6443,-33
1607019154.6466,-4
1607019154.6486,33
1607019154.6506,52
1607019154.6526,49
1607019154.6546,45
1607019154.6566,30
1607019154.6586,2
1607019154.6606,-9
1607019154.6628,-9
1607019154.6646,-16
1607019154.6666,-26
1607019154.6686,-21
1607019154.6706,-14
1607019154.6727,-11
1607019154.6746,-7
1607019154.6756,-28
1607019154.6776,-118
1607019154.6796,-211
1607019154.6817,-80
1607019154.6836,487
1607019154.6856,1397
1607019154.6885,1844
1607019154.6902,800
1607019154.6916,-760
1607019154.6936,-838
1607019154.6956,-118
1607019154.6976,-42
1607019154.6995,-149
1607019154.7016,-14
1607019154.7036,21
1607019154.7056,-26
1607019154.7076,11
1607019154.7096,47
1607019154.7116,40
1607019154.7136,49
1607019154.7156,73
1607019154.7176,83
1607019154.7196,99
1607019154.7215,125
1607019154.7237,149
1607019154.7256,171
1607019154.7276,194
1607019154.7296,218
1607019155.1592,251
1607019155.1604,285
1607019155.1629,311
1607019155.1655,330
1607019155.1675,351
1607019155.1695,358
1607019155.1716,354
1607019155.1734,342
1607019155.1754,320
1607019155.1774,280
1607019155.1794,218
1607019155.1814,125
1607019155.1834,30
1607019155.1854,-49
1607019155.1874,-111
1607019155.1894,-147
1607019155.1916,-171
1607019155.1935,-185
1607019155.1954,-185
1607019155.1974,-175
1607019155.1994,-163
1607019155.2014,-149
1607019155.2035,-135
1607019155.2054,-125
1607019155.2074,-118
1607019155.2094,-109
1607019155.2114,-99
1607019155.2134,-87
1607019155.2154,-80
1607019155.2174,-78
1607019155.2194,-76
1607019155.2214,-66
1607019155.2234,-64
1607019155.2254,-66
1607019155.2274,-61
1607019155.2294,-57
1607019155.2314,-54
1607019155.2334,-54
1607019155.2354,-57
1607019155.2374,-59
1607019155.2394,-57
1607019155.2414,-49
1607019155.2434,-45
1607019155.2454,-42
1607019155.2474,-42
1607019155.2494,-45
1607019155.2514,-38
1607019155.2534,-26
1607019155.2554,-30
1607019155.2575,-40
1607019155.2594,-38
1607019155.2614,-28
1607019155.2634,-23
1607019155.2654,-26
1607019155.2673,-14
1607019155.2694,14
1607019155.2714,40
1607019155.2734,45
1607019155.2754,40
1607019155.2774,38
1607019155.2794,21
1607019155.2814,-7
1607019155.2834,-23
1607019155.2854,-23
1607019155.2874,-19
1607019155.2894,-21
1607019155.2914,-23
1607019155.2936,-16
1607019155.2955,-11
1607019155.2974,-26
1607019155.2994,-87
1607019155.3014,-185
1607019155.3034,-190
1607019155.6993,118
1607019155.7003,867
1607019155.7027,1706
1607019155.7054,1504
1607019155.7074,4
1607019155.7094,-891
1607019155.7115,-375
1607019155.7133,14
1607019155.7153,-159
1607019155.7174,-140
1607019155.7193,-23
1607019155.7213,-61
1607019155.7233,-64
1607019155.7253,-4
1607019155.7273,11
1607019155.7293,16
1607019155.7313,33
1607019155.7334,49
1607019155.7353,68
1607019155.7373,87
1607019155.7393,106
1607019155.7413,125
1607019155.7433,144
1607019155.7453,166
1607019155.7473,194
1607019155.7493,225
1607019155.7513,256
1607019155.7533,287
1607019155.7553,320
1607019155.7573,335
1607019155.7593,330
1607019155.7613,325
1607019155.7634,316
1607019155.7653,282
1607019155.7673,235
1607019155.7693,166
1607019155.7713,80
1607019155.7733,-9
1607019155.7753,-83
1607019155.7773,-133
1607019155.7793,-154
1607019155.7813,-163
1607019155.7833,-168
1607019155.7853,-163
1607019155.7873,-149
1607019155.7894,-149
1607019155.7913,-144
1607019155.7933,-123
1607019155.7953,-106
1607019155.7973,-104
1607019155.7994,-95
1607019155.8013,-83
1607019155.8033,-85
1607019155.8053,-85
1607019155.8073,-73
1607019155.8093,-64
1607019155.8113,-61
1607019155.8133,-61
1607019155.8153,-57
1607019155.8174,-49
1607019155.8205,-52
1607019155.8223,-59
1607019155.8243,-59
1607019155.8263,-49
1607019155.8283,-52
1607019155.8303,-59
1607019155.8323,-52
1607019155.8343,-42
1607019155.8363,-42
1607019155.8383,-40
1607019155.8403,-38
1607019155.8424,-38
1607019155.8443,-35
1607019156.2994,-38
1607019156.3003,-38
1607019156.3027,-28
1607019156.3054,-26
1607019156.3074,-30
1607019156.3094,-26
1607019156.3114,-7
1607019156.3134,19
1607019156.3154,38
1607019156.3174,42
1607019156.3194,40
1607019156.3214,28
1607019156.3233,7
1607019156.3253,-11
1607019156.3273,-21
1607019156.3293,-21
1607019156.3313,-19
1607019156.3333,-16
1607019156.3353,-11
1607019156.3373,-7
1607019156.3393,-7
1607019156.3413,-28
1607019156.3433,-99
1607019156.3456,-182
1607019156.3474,-106
1607019156.3493,325
1607019156.3513,1131
1607019156.3533,1696
1607019156.3553,969
1607019156.3573,-487
1607019156.3593,-772
1607019156.3613,-130
1607019156.3633,-4
1607019156.3653,-161
1607019156.3673,-64
1607019156.3693,0
1607019156.3713,-49
1607019156.3739,-19
1607019156.3753,26
1607019156.3773,21
1607019156.3793,30
1607019156.3813,57
1607019156.3833,71
1607019156.3853,80
1607019156.3873,97
1607019156.3893,116
1607019156.3913,142
1607019156.3933,168
1607019156.3953,190
1607019156.3973,218
1607019156.3993,249
1607019156.4013,273
1607019156.4033,297
1607019156.4053,320
1607019156.4073,327
1607019156.4093,327
1607019156.4113,323
1607019156.4133,301
1607019156.4152,266
1607019156.4173,211
1607019156.4193,133
1607019156.4213,45
1607019156.4233,-35
1607019156.4253,-97
1607019156.4273,-133
1607019156.4293,-156
1607019156.4313,-171
1607019156.4333,-171
1607019156.4353,-161
1607019156.4373,-154
1607019156.4393,-144
1607019156.4413,-135
1607019156.4433,-128
1607019156.8693,-116
1607019156.8705,-109
1607019156.8717,-106
1607019156.8737,-95
1607019156.8757,-87
1607019156.8777,-90
1607019156.8797,-85
1607019156.8817,-73
1607019156.8836,-73
1607019156.8856,-78
1607019156.8876,-76
1607019156.8897,-68
1607019156.8916,-66
1607019156.8936,-66
1607019156.8956,-64
1607019156.8976,-59
1607019156.8996,-59
1607019156.9016,-64
1607019156.9036,-61
1607019156.9056,-54
1607019156.9076,-54
1607019156.9096,-49
1607019156.9116,-45
1607019156.9136,-49
1607019156.9156,-47
1607019156.9177,-35
1607019156.9196,-35
1607019156.9216,-38
1607019156.9236,-33
1607019156.9256,-28
1607019156.9276,-28
1607019156.9296,-26
1607019156.9316,-26
1607019156.9336,-26
1607019156.9356,-19
1607019156.9376,-16
1607019156.9396,-21
1607019156.9416,-23
1607019156.9436,-23
1607019156.9456,-19
1607019156.9476,-2
1607019156.9496,30
1607019156.9516,57
1607019156.9536,52
1607019156.9556,40
1607019156.9576,33
1607019156.9596,7
1607019156.9616,-16
1607019156.9637,-21
1607019156.9656,-19
1607019156.9676,-16
1607019156.9696,-16
1607019156.9718,-16
1607019156.9736,-11
1607019156.9756,-4
1607019156.9776,-21
1607019156.9796,-97
1607019156.9816,-190
1607019156.9836,-109
1607019156.9856,356
1607019156.9876,1230
1607019156.9896,1893
1607019156.9916,1116
1607019156.9937,-567
1607019156.9956,-914
1607019156.9976,-154
1607019156.9996,-4
1607019157.0016,-182
1607019157.0036,-64
1607019157.0056,11
1607019157.0076,-45
1607019157.0096,-14
1607019157.0117,30
1607019157.4088,21
1607019157.4098,35
1607019157.4123,71
1607019157.4149,83
1607019157.4169,97
1607019157.4189,121
1607019157.4210,137
1607019157.4229,156
1607019157.4248,190
1607019157.4268,218
1607019157.4289,235
1607019157.4308,263
1607019157.4328,301
1607019157.4348,325
1607019157.4368,344
1607019157.4388,368
1607019157.4408,382
1607019157.4428,375
1607019157.4448,356
1607019157.4467,318
1607019157.4487,261
1607019157.4507,175
1607019157.4528,73
1607019157.4548,-21
1607019157.4568,-95
1607019157.4587,-147
1607019157.4607,-178
1607019157.4628,-194
1607019157.4647,-201
1607019157.4667,-194
1607019157.4689,-185
1607019157.4708,-173
1607019157.4728,-154
1607019157.4747,-140
1607019157.4767,-133
1607019157.4787,-121
1607019157.4808,-106
1607019157.4828,-102
1607019157.4847,-99
1607019157.4868,-97
1607019157.4887,-90
1607019157.4907,-85
1607019157.4928,-80
1607019157.4947,-76
1607019157.4967,-71
1607019157.4987,-66
1607019157.5007,-64
1607019157.5028,-64
1607019157.5048,-64
1607019157.5067,-61
1607019157.5087,-57
1607019157.5107,-52
1607019157.5128,-47
1607019157.5147,-52
1607019157.5167,-52
1607019157.5188,-42
1607019157.5207,-42
1607019157.5228,-49
1607019157.5247,-47
1607019157.5267,-40
1607019157.5287,-38
1607019157.5307,-35
1607019157.5328,-30
1607019157.5347,-28
1607019157.5368,-28
1607019157.5387,-26
1607019157.5408,-21
1607019157.5428,-21
1607019157.5447,-19
1607019157.5467,-14
1607019157.5487,-14
1607019157.5507,-16
1607019157.5528,-14
1607019158.0093,-7
1607019158.0102,-4
1607019158.0127,-9
1607019158.0153,-4
1607019158.0173,23
1607019158.0192,59
1607019158.0214,68
1607019158.0232,47
1607019158.0254,35
1607019158.0274,30
1607019158.0292,7
1607019158.0312,-14
1607019158.0332,-16
1607019158.0352,-11
1607019158.0372,-11
1607019158.0392,-11
1607019158.0412,-4
1607019158.0433,-2
1607019158.0452,-9
1607019158.0472,-35
1607019158.0492,-116
1607019158.0512,-204
1607019158.0533,-121
1607019158.0553,346
1607019158.0572,1252
1607019158.0592,1920
1607019158.0612,1119
1607019158.0633,-518
1607019158.0652,-819
1607019158.0672,-118
1607019158.0692,-23
1607019158.0712,-201
1607019158.0732,-76
1607019158.0752,-9
1607019158.0772,-71
1607019158.0792,-33
1607019158.0812,19
1607019158.0832,9
1607019158.0852,19
1607019158.0872,47
1607019158.0892,59
1607019158.0912,68
1607019158.0932,85
1607019158.0952,106
1607019158.0972,133
1607019158.0992,161
1607019158.1012,190
1607019158.1032,213
1607019158.1052,240
1607019158.1072,270
1607019158.1092,299
1607019158.1112,318
1607019158.1132,335
1607019158.1152,349
1607019158.1172,346
1607019158.1192,325
1607019158.1212,289
1607019158.1232,232
1607019158.1252,149
1607019158.1276,57
1607019158.1293,-28
1607019158.1312,-95
1607019158.1333,-144
1607019158.1352,-173
1607019158.1372,-182
1607019158.1392,-185
1607019158.1412,-185
1607019158.1433,-173
1607019158.1452,-161
1607019158.1472,-152
1607019158.1492,-137
1607019158.1512,-123
1607019158.1532,-121
1607019158.5189,-118
1607019158.5198,-109
1607019158.5224,-99
1607019158.5250,-90
1607019158.5269,-85
1607019158.5289,-85
1607019158.5310,-83
1607019158.5330,-68
1607019158.5348,-59
1607019158.5368,-68
1607019158.5388,-73
1607019158.5408,-66
1607019158.5428,-66
1607019158.5448,-76
1607019158.5468,-71
1607019158.5488,-61
1607019158.5508,-64
1607019158.5528,-66
1607019158.5548,-61
1607019158.5569,-61
1607019158.5588,-61
1607019158.5608,-54
1607019158.5628,-47
1607019158.5648,-49
1607019158.5668,-49
1607019158.5688,-47
1607019158.5708,-45
1607019158.5728,-42
1607019158.5748,-42
1607019158.5768,-42
1607019158.5788,-35
1607019158.5808,-28
1607019158.5828,-28
1607019158.5848,-23
1607019158.5868,-19
1607019158.5888,-21
1607019158.5908,-26
1607019158.5931,-19
1607019158.5949,-16
1607019158.5968,-16
1607019158.5988,-19
1607019158.6008,-19
1607019158.6028,-16
1607019158.6048,-16
1607019158.6068,-16
1607019158.6088,-11
1607019158.6108,-11
1607019158.6128,-16
1607019158.6148,-16
1607019158.6168,-9
1607019158.6188,-2
1607019158.6208,-7
1607019158.6228,-7
1607019158.6248,9
1607019158.6268,40
1607019158.6289,64
1607019158.6308,61
1607019158.6329,52
1607019158.6348,42
1607019158.6368,23
1607019158.6388,0
1607019158.6408,-11
1607019158.6429,-9
1607019158.6448,-9
1607019158.6468,-11
1607019158.6488,-11
1607019158.6508,-9
1607019158.6529,-9
1607019158.6548,-19
1607019158.6568,-64
1607019158.6588,-154
1607019158.6608,-187
1607019158.6628,40
1607019159.0592,696
1607019159.0600,1575
1607019159.0625,1615
1607019159.0651,266
1607019159.0670,-810
1607019159.0690,-434
1607019159.0711,21
1607019159.0731,-147
1607019159.0750,-173
1607019159.0770,-28
1607019159.0790,-52
1607019159.0810,-73
1607019159.0831,-11
1607019159.0850,7
1607019159.0870,0
1607019159.0892,23
1607019159.0911,38
1607019159.0930,47
1607019159.0950,66
1607019159.0970,90
1607019159.0990,106
1607019159.1010,130
1607019159.1031,156
1607019159.1050,185
1607019159.1070,211
1607019159.1090,240
1607019159.1110,270
1607019159.1130,297
1607019159.1150,313
1607019159.1170,323
1607019159.1191,327
1607019159.1210,327
1607019159.1230,311
1607019159.1250,275
1607019159.1270,216
1607019159.1290,137
1607019159.1310,52
1607019159.1330,-28
1607019159.1350,-85
1607019159.1370,-123
1607019159.1390,-152
1607019159.1410,-163
1607019159.1430,-159
1607019159.1450,-156
1607019159.1471,-156
1607019159.1490,-147
1607019159.1510,-135
1607019159.1530,-121
1607019159.1550,-114
1607019159.1570,-106
1607019159.1591,-97
1607019159.1610,-92
1607019159.1631,-97
1607019159.1650,-87
1607019159.1670,-73
1607019159.1690,-68
1607019159.1710,-68
1607019159.1730,-64
1607019159.1750,-54
1607019159.1770,-49
1607019159.1790,-49
1607019159.1810,-52
1607019159.1830,-54
1607019159.1850,-54
1607019159.1870,-54
1607019159.1890,-52
1607019159.1912,-52
1607019159.1931,-54
1607019159.1950,-47
1607019159.1970,-42
1607019159.1990,-49
1607019159.2010,-49
1607019159.2030,-40
1607019159.6592,-35
1607019159.6601,-40
1607019159.6627,-47
1607019159.6652,-52
1607019159.6673,-47
1607019159.6692,-35
1607019159.6713,-35
1607019159.6731,-35
1607019159.6752,-35
1607019159.6771,-40
1607019159.6779,-38
1607019159.6801,-35
1607019159.6822,-35
1607019159.6841,-35
1607019159.6861,-35
1607019159.6881,-35
1607019159.6901,-30
1607019159.6922,-28
1607019159.6941,-33
1607019159.6961,-40
1607019159.6981,-35
1607019159.7001,-28
1607019159.7022,-38
1607019159.7041,-49
1607019159.7061,-30
1607019159.7081,-2
1607019159.7088,-9
1607019159.7101,-30
1607019159.7122,-23
1607019159.7141,0
1607019159.7161,35
1607019159.7181,54
1607019159.7201,42
1607019159.7222,30
1607019159.7241,28
1607019159.7261,9
1607019159.7281,-11
1607019159.7301,-19
1607019159.7322,-19
1607019159.7341,-16
1607019159.7361,-9
1607019159.7381,-9
1607019159.7388,-11
1607019159.7411,-9
1607019159.7434,-16
1607019159.7452,-80
1607019159.7471,-182
1607019159.7492,-171
1607019159.7511,175
1607019159.7532,976
1607019159.7551,1825
1607019159.7571,1501
1607019159.7591,-118
1607019159.7612,-945
1607019159.7631,-332
1607019159.7651,30
1607019159.7671,-159
1607019159.7678,-116
1607019159.7701,4
1607019159.7722,-33
1607019159.7741,-26
1607019159.7761,21
1607019159.7781,19
1607019159.7801,28
1607019159.7822,64
1607019159.7841,76
1607019159.7861,87
1607019159.7881,111
1607019159.7901,133
1607019159.7922,152
1607019159.7941,175
1607019159.7961,201
1607019159.7981,228
1607019160.2291,261
1607019160.2299,292
1607019160.2319,318
1607019160.2338,346
1607019160.2358,375
1607019160.2378,394
1607019160.2398,401
1607019160.2418,389
1607019160.2437,354
1607019160.2456,301
1607019160.2476,237
1607019160.2496,147
1607019160.2503,38
1607019160.2526,-57
1607019160.2546,-128
1607019160.2566,-173
1607019160.2588,-199
1607019160.2607,-216
1607019160.2627,-216
1607019160.2646,-206
1607019160.2666,-197
1607019160.2686,-185
1607019160.2708,-171
1607019160.2727,-159
1607019160.2746,-149
1607019160.2767,-137
1607019160.2788,-123
1607019160.2806,-118
1607019160.2813,-114
1607019160.2836,-106
1607019160.2856,-97
1607019160.2876,-92
1607019160.2896,-95
1607019160.2917,-92
1607019160.2936,-83
1607019160.2956,-78
1607019160.2976,-73
1607019160.2996,-76
1607019160.3017,-76
1607019160.3036,-76
1607019160.3056,-76
1607019160.3076,-73
1607019160.3096,-71
1607019160.3117,-71
1607019160.3123,-68
1607019160.3146,-68
1607019160.3166,-66
1607019160.3186,-66
1607019160.3206,-64
1607019160.3227,-59
1607019160.3246,-54
1607019160.3266,-52
1607019160.3286,-47
1607019160.3306,-45
1607019160.3327,-42
1607019160.3346,-42
1607019160.3366,-40
1607019160.3386,-38
1607019160.3406,-33
1607019160.3427,-28
1607019160.3433,-26
1607019160.3446,-28
1607019160.3467,-30
1607019160.3486,-28
1607019160.3506,-21
1607019160.3527,-14
1607019160.3546,-14
1607019160.3566,-23
1607019160.3586,-16
1607019160.3606,26
1607019160.3626,59
1607019160.3646,49
1607019160.3666,38
1607019160.7690,38
1607019160.7701,14
1607019160.7725,-14
1607019160.7735,-19
1607019160.7750,-19
1607019160.7771,-19
1607019160.7790,-16
1607019160.7811,-14
1607019160.7830,-11
1607019160.7850,-11
1607019160.7870,-21
1607019160.7890,-68
1607019160.7910,-166
1607019160.7930,-204
1607019160.7950,49
1607019160.7970,765
1607019160.7990,1682
1607019160.8010,1706
1607019160.8031,251
1607019160.8037,-912
1607019160.8060,-508
1607019160.8080,14
1607019160.8100,-125
1607019160.8120,-144
1607019160.8140,-7
1607019160.8160,-38
1607019160.8182,-54
1607019160.8200,11
1607019160.8220,28
1607019160.8240,19
1607019160.8260,47
1607019160.8280,73
1607019160.8300,78
1607019160.8320,90
1607019160.8327,116
1607019160.8340,142
1607019160.8360,161
1607019160.8380,182
1607019160.8400,213
1607019160.8420,247
1607019160.8440,275
1607019160.8460,304
1607019160.8480,337
1607019160.8500,363
1607019160.8520,380
1607019160.8540,384
1607019160.8560,373
1607019160.8580,349
1607019160.8600,306
1607019160.8620,237
1607019160.8627,152
1607019160.8653,52
1607019160.8671,-40
1607019160.8690,-106
1607019160.8710,-147
1607019160.8731,-175
1607019160.8750,-190
1607019160.8770,-192
1607019160.8790,-180
1607019160.8810,-171
1607019160.8830,-168
1607019160.8850,-159
1607019160.8870,-142
1607019160.8890,-133
1607019160.8910,-125
1607019160.8930,-116
1607019160.8937,-106
1607019160.8961,-99
1607019160.8980,-95
1607019160.9000,-87
1607019160.9020,-80
1607019160.9040,-78
1607019160.9060,-78
1607019161.3391,-78
1607019161.3401,-73
1607019161.3426,-73
1607019161.3452,-76
1607019161.3472,-73
1607019161.3492,-68
1607019161.3512,-78
1607019161.3532,-85
1607019161.3551,-78
1607019161.3571,-71
1607019161.3591,-68
1607019161.3611,-66
1607019161.3632,-66
1607019161.3651,-64
1607019161.3672,-59
1607019161.3692,-59
1607019161.3712,-54
1607019161.3731,-49
1607019161.3751,-47
1607019161.3771,-45
1607019161.3791,-42
1607019161.3811,-40
1607019161.3832,-38
1607019161.3851,-38
1607019161.3871,-35
1607019161.3891,-30
1607019161.3911,-28
1607019161.3931,-26
1607019161.3951,-26
1607019161.3973,-33
1607019161.3992,-33
1607019161.4011,-28
1607019161.4032,-26
1607019161.4051,-19
1607019161.4071,-16
1607019161.4091,-21
1607019161.4111,-19
1607019161.4131,4
1607019161.4151,38
1607019161.4171,64
1607019161.4191,57
1607019161.4211,42
1607019161.4231,35
1607019161.4251,16
1607019161.4271,-4
1607019161.4291,-11
1607019161.4311,-14
1607019161.4331,-14
1607019161.4351,-7
1607019161.4371,-2
1607019161.4391,0
1607019161.4411,2
1607019161.4432,-11
1607019161.4451,-73
1607019161.4471,-171
1607019161.4491,-168
1607019161.4511,123
1607019161.4531,836
1607019161.4552,1672
1607019161.4572,1506
1607019161.4591,38
1607019161.4611,-860
1607019161.4632,-349
1607019161.4651,38
1607019161.4671,-152
1607019161.4691,-137
1607019161.4711,-7
1607019161.4731,-42
1607019161.4751,-47
1607019161.4771,11
1607019161.4791,19
1607019161.4811,19
1607019161.4831,42
1607019161.8789,59
1607019161.8799,71
1607019161.8815,92
1607019161.8835,111
1607019161.8855,130
1607019161.8875,152
1607019161.8895,178
1607019161.8918,199
1607019161.8936,218
1607019161.8954,249
1607019161.8974,287
1607019161.8994,311
1607019161.9015,330
1607019161.9035,346
1607019161.9054,351
1607019161.9074,344
1607019161.9094,323
1607019161.9114,280
1607019161.9134,218
1607019161.9154,135
1607019161.9175,40
1607019161.9195,-38
1607019161.9214,-95
1607019161.9234,-135
1607019161.9254,-166
1607019161.9274,-173
1607019161.9294,-171
1607019161.9314,-171
1607019161.9334,-166
1607019161.9354,-149
1607019161.9374,-137
1607019161.9394,-128
1607019161.9414,-118
1607019161.9434,-111
1607019161.9454,-104
1607019161.9474,-99
1607019161.9494,-95
1607019161.9514,-87
1607019161.9534,-83
1607019161.9554,-80
1607019161.9574,-80
1607019161.9594,-78
1607019161.9614,-73
1607019161.9634,-73
1607019161.9654,-73
1607019161.9674,-71
1607019161.9694,-71
1607019161.9714,-71
1607019161.9734,-68
1607019161.9754,-64
1607019161.9774,-61
1607019161.9794,-61
1607019161.9814,-64
1607019161.9834,-64
1607019161.9854,-57
1607019161.9874,-52
1607019161.9894,-49
1607019161.9914,-49
1607019161.9936,-47
1607019161.9955,-42
1607019161.9974,-40
1607019161.9994,-38
1607019162.0014,-35
1607019162.0035,-33
1607019162.0054,-33
1607019162.0074,-30
1607019162.0094,-30
1607019162.0114,-28
1607019162.0134,-23
1607019162.0154,-19
1607019162.0174,-19
1607019162.0194,-19
1607019162.0216,-19
1607019162.4491,-19
1607019162.4500,-16
1607019162.4525,-9
1607019162.4551,-7
1607019162.4571,-21
1607019162.4591,-23
1607019162.4612,0
1607019162.4631,40
1607019162.4651,57
1607019162.4671,38
1607019162.4691,26
1607019162.4712,16
1607019162.4731,-4
1607019162.4751,-19
1607019162.4771,-23
1607019162.4792,-23
1607019162.4811,-21
1607019162.4831,-19
1607019162.4851,-16
1607019162.4871,-11
1607019162.4891,-9
1607019162.4911,-28
1607019162.4931,-102
1607019162.4951,-180
1607019162.4971,-95
1607019162.4990,335
1607019162.5010,1138
1607019162.5031,1727
1607019162.5050,1009
1607019162.5070,-484
1607019162.5090,-786
1607019162.5110,-125
1607019162.5131,0
1607019162.5150,-166
1607019162.5170,-66
1607019162.5190,0
1607019162.5213,-49
1607019162.5231,-14
1607019162.5250,28
1607019162.5270,16
1607019162.5290,26
1607019162.5310,54
1607019162.5330,66
1607019162.5350,76
1607019162.5370,92
1607019162.5390,114
1607019162.5410,137
1607019162.5431,163
1607019162.5451,187
1607019162.5471,216
1607019162.5490,244
1607019162.5510,273
1607019162.5531,301
1607019162.5550,332
1607019162.5571,354
1607019162.5590,361
1607019162.5610,363
1607019162.5631,356
1607019162.5650,332
1607019162.5670,285
1607019162.5690,213
1607019162.5710,118
1607019162.5730,26
1607019162.5750,-52
1607019162.5770,-111
1607019162.5777,-152
1607019162.5790,-178
1607019162.5810,-192
1607019162.5831,-185
1607019162.5850,-175
1607019162.5871,-173
1607019162.5890,-161
1607019162.5911,-144
1607019163.0490,-135
1607019163.0500,-130
1607019163.0525,-128
1607019163.0551,-118
1607019163.0571,-106
1607019163.0577,-99
1607019163.0591,-106
1607019163.0612,-114
1607019163.0630,-104
1607019163.0650,-95
1607019163.0670,-90
1607019163.0690,-85
1607019163.0710,-87
1607019163.0730,-87
1607019163.0752,-83
1607019163.0770,-83
1607019163.0790,-85
1607019163.0810,-85
1607019163.0830,-80
1607019163.0850,-80
1607019163.0870,-78
1607019163.0876,-71
1607019163.0890,-68
1607019163.0910,-73
1607019163.0930,-71
1607019163.0950,-64
1607019163.0970,-57
1607019163.0989,-59
1607019163.1009,-64
1607019163.1030,-59
1607019163.1049,-54
1607019163.1069,-54
1607019163.1090,-49
1607019163.1109,-52
1607019163.1129,-59
1607019163.1150,-57
1607019163.1169,-49
1607019163.1176,-45
1607019163.1189,-40
1607019163.1210,-40
1607019163.1230,-40
1607019163.1250,-33
1607019163.1269,-30
1607019163.1289,-33
1607019163.1309,-30
1607019163.1330,-19
1607019163.1350,7
1607019163.1370,40
1607019163.1390,42
1607019163.1410,28
1607019163.1430,33
1607019163.1450,21
1607019163.1470,-14
1607019163.1476,-30
1607019163.1489,-26
1607019163.1509,-21
1607019163.1530,-23
1607019163.1549,-21
1607019163.1570,-16
1607019163.1589,-11
1607019163.1609,-16
1607019163.1630,-59
1607019163.1649,-156
1607019163.1670,-190
1607019163.1690,71
1607019163.1711,784
1607019163.1730,1677
1607019163.1750,1675
1607019163.1769,185
1607019163.1776,-1024
1607019163.1789,-591
1607019163.1810,0
1607019163.1830,-109
1607019163.5884,-130
1607019163.5892,11
1607019163.5916,-11
1607019163.5943,-35
1607019163.5962,23
1607019163.5982,40
1607019163.6003,38
1607019163.6023,59
1607019163.6042,76
1607019163.6062,90
1607019163.6082,106
1607019163.6102,123
1607019163.6109,137
1607019163.6122,163
1607019163.6142,190
1607019163.6162,213
1607019163.6182,244
1607019163.6202,282
1607019163.6222,316
1607019163.6242,339
1607019163.6262,361
1607019163.6282,384
1607019163.6302,389
1607019163.6322,373
1607019163.6342,346
1607019163.6362,308
1607019163.6382,247
1607019163.6402,159
1607019163.6409,57
1607019163.6422,-38
1607019163.6442,-106
1607019163.6462,-159
1607019163.6482,-194
1607019163.6502,-211
1607019163.6522,-209
1607019163.6542,-201
1607019163.6562,-192
1607019163.6582,-178
1607019163.6603,-163
1607019163.6622,-147
1607019163.6642,-137
1607019163.6662,-133
1607019163.6682,-123
1607019163.6704,-114
1607019163.6709,-111
1607019163.6723,-109
1607019163.6742,-99
1607019163.6762,-90
1607019163.6782,-85
1607019163.6802,-85
1607019163.6822,-83
1607019163.6842,-83
1607019163.6862,-80
1607019163.6882,-76
1607019163.6902,-71
1607019163.6922,-71
1607019163.6942,-73
1607019163.6962,-68
1607019163.6982,-66
1607019163.7002,-68
1607019163.7008,-66
1607019163.7022,-64
1607019163.7042,-68
1607019163.7062,-64
1607019163.7082,-54
1607019163.7102,-54
1607019163.7122,-57
1607019163.7142,-49
1607019163.7162,-45
1607019163.7182,-49
1607019163.7202,-52
1607019163.7222,-42
1607019163.7242,-35
1607019164.1887,-40
1607019164.1896,-42
1607019164.1921,-30
1607019164.1938,-28
1607019164.1957,-38
1607019164.1977,-19
1607019164.1997,26
1607019164.2017,47
1607019164.2036,28
1607019164.2056,16
1607019164.2077,14
1607019164.2096,-7
1607019164.2117,-28
1607019164.2136,-35
1607019164.2156,-35
1607019164.2176,-35
1607019164.2196,-38
1607019164.2203,-33
1607019164.2216,-23
1607019164.2236,-23
1607019164.2256,-33
1607019164.2278,-95
1607019164.2297,-199
1607019164.2317,-194
1607019164.2336,149
1607019164.2356,952
1607019164.2376,1813
1607019164.2396,1518
1607019164.2417,-85
1607019164.2436,-931
1607019164.2456,-344
1607019164.2476,16
1607019164.2496,-175
1607019164.2502,-133
1607019164.2516,-4
1607019164.2536,-49
1607019164.2556,-54
1607019164.2576,9
1607019164.2596,16
1607019164.2617,14
1607019164.2636,40
1607019164.2656,61
1607019164.2676,71
1607019164.2696,85
1607019164.2716,111
1607019164.2736,135
1607019164.2757,159
1607019164.2776,182
1607019164.2783,209
1607019164.2796,240
1607019164.2816,270
1607019164.2836,301
1607019164.2856,332
1607019164.2876,356
1607019164.2896,365
1607019164.2917,363
1607019164.2936,361
1607019164.2956,337
1607019164.2976,289
1607019164.2996,216
1607019164.3016,123
1607019164.3036,26
1607019164.3056,-59
1607019164.3076,-121
1607019164.3083,-154
1607019164.3096,-175
1607019164.3116,-194
1607019164.3136,-197
1607019164.3156,-182
1607019164.3176,-173
1607019164.3196,-163
1607019164.3216,-149
1607019164.3238,-140
1607019164.6987,-133
1607019164.6995,-121
1607019164.7018,-109
1607019164.7045,-104
1607019164.7065,-97
1607019164.7085,-95
1607019164.7092,-90
1607019164.7106,-87
1607019164.7126,-85
1607019164.7145,-83
1607019164.7165,-83
1607019164.7185,-85
1607019164.7205,-85
1607019164.7225,-85
1607019164.7245,-85
1607019164.7265,-80
1607019164.7285,-80
1607019164.7305,-85
1607019164.7325,-80
1607019164.7345,-68
1607019164.7365,-66
1607019164.7385,-68
1607019164.7391,-61
1607019164.7405,-57
1607019164.7425,-57
1607019164.7445,-59
1607019164.7465,-54
1607019164.7485,-47
1607019164.7505,-47
1607019164.7525,-52
1607019164.7545,-52
1607019164.7565,-47
1607019164.7585,-45
1607019164.7605,-47
1607019164.7625,-45
1607019164.7645,-38
1607019164.7665,-35
1607019164.7685,-38
1607019164.7691,-38
1607019164.7704,-38
1607019164.7725,-35
1607019164.7745,-35
1607019164.7765,-38
1607019164.7785,-28
1607019164.7805,2
1607019164.7825,38
1607019164.7845,47
1607019164.7864,30
1607019164.7884,21
1607019164.7905,14
1607019164.7927,-7
1607019164.7945,-21
1607019164.7965,-26
1607019164.7984,-28
1607019164.7991,-28
1607019164.8005,-21
1607019164.8026,-16
1607019164.8045,-11
1607019164.8066,-14
1607019164.8084,-52
1607019164.8105,-144
1607019164.8125,-199
1607019164.8145,-30
1607019164.8165,539
1607019164.8185,1435
1607019164.8205,1765
1607019164.8225,620
1607019164.8244,-739
1607019164.8264,-603
1607019164.8284,2
1607019164.8291,-90
1607019164.8305,-194
1607019164.8325,-42
1607019165.2384,-30
1607019165.2392,-73
1607019165.2415,-19
1607019165.2442,4
1607019165.2462,-2
1607019165.2482,21
1607019165.2502,42
1607019165.2522,40
1607019165.2542,54
1607019165.2562,85
1607019165.2582,104
1607019165.2589,123
1607019165.2602,154
1607019165.2622,182
1607019165.2642,209
1607019165.2661,237
1607019165.2681,266
1607019165.2701,294
1607019165.2722,323
1607019165.2741,339
1607019165.2762,344
1607019165.2781,339
1607019165.2801,327
1607019165.2822,301
1607019165.2842,249
1607019165.2861,166
1607019165.2881,76
1607019165.2888,-4
1607019165.2903,-76
1607019165.2923,-135
1607019165.2942,-173
1607019165.2961,-185
1607019165.2981,-180
1607019165.3002,-175
1607019165.3022,-173
1607019165.3041,-166
1607019165.3061,-147
1607019165.3081,-135
1607019165.3101,-130
1607019165.3122,-118
1607019165.3141,-111
1607019165.3162,-111
1607019165.3181,-102
1607019165.3188,-92
1607019165.3201,-87
1607019165.3222,-85
1607019165.3241,-83
1607019165.3261,-76
1607019165.3281,-76
1607019165.3301,-76
1607019165.3322,-71
1607019165.3341,-71
1607019165.3362,-76
1607019165.3381,-76
1607019165.3401,-64
1607019165.3422,-61
1607019165.3441,-68
1607019165.3462,-71
1607019165.3482,-66
1607019165.3488,-64
1607019165.3501,-66
1607019165.3522,-68
1607019165.3541,-59
1607019165.3561,-52
1607019165.3581,-54
1607019165.3601,-54
1607019165.3622,-52
1607019165.3641,-52
1607019165.3661,-57
1607019165.3681,-61
1607019165.3701,-64
1607019165.3722,-59
1607019165.3741,-54
1607019165.8090,-49
1607019165.8099,-47
1607019165.8117,-54
1607019165.8139,-61
1607019165.8160,-61
1607019165.8180,-49
1607019165.8202,-49
1607019165.8221,-54
1607019165.8240,-49
1607019165.8260,-49
1607019165.8279,-57
1607019165.8299,-47
1607019165.8320,-35
1607019165.8339,-40
1607019165.8360,-40
1607019165.8379,-21
1607019165.8399,2
1607019165.8420,23
1607019165.8426,28
1607019165.8439,16
1607019165.8459,-2
1607019165.8479,-11
1607019165.8499,-23
1607019165.8520,-42
1607019165.8539,-47
1607019165.8559,-38
1607019165.8580,-40
1607019165.8599,-49
1607019165.8620,-47
1607019165.8639,-23
1607019165.8659,-26
1607019165.8679,-111
1607019165.8699,-209
1607019165.8720,-142
1607019165.8726,254
1607019165.8739,1071
1607019165.8759,1844
1607019165.8779,1321
1607019165.8799,-351
1607019165.8820,-957
1607019165.8839,-251
1607019165.8859,7
1607019165.8879,-192
1607019165.8899,-104
1607019165.8920,2
1607019165.8940,-52
1607019165.8959,-35
1607019165.8979,21
1607019165.8999,23
1607019165.9019,30
1607019165.9026,59
1607019165.9039,78
1607019165.9059,99
1607019165.9079,118
1607019165.9099,133
1607019165.9120,154
1607019165.9139,178
1607019165.9161,206
1607019165.9180,240
1607019165.9199,270
1607019165.9219,299
1607019165.9239,332
1607019165.9253,365
1607019165.9269,387
1607019165.9290,403
1607019165.9309,422
1607019165.9316,422
1607019165.9329,396
1607019165.9349,349
1607019165.9369,280
1607019165.9389,187
1607019165.9409,78
1607019165.9429,-28
1607019166.4084,-102
1607019166.4092,-140
1607019166.4116,-163
1607019166.4133,-190
1607019166.4153,-204
1607019166.4172,-194
1607019166.4192,-182
1607019166.4213,-180
1607019166.4232,-163
1607019166.4239,-137
1607019166.4252,-133
1607019166.4272,-137
1607019166.4292,-114
1607019166.4312,-97
1607019166.4332,-104
1607019166.4352,-102
1607019166.4372,-95
1607019166.4392,-95
1607019166.4412,-90
1607019166.4432,-87
1607019166.4452,-90
1607019166.4472,-80
1607019166.4492,-64
1607019166.4512,-71
1607019166.4532,-80
1607019166.4538,-73
1607019166.4552,-68
1607019166.4572,-64
1607019166.4592,-54
1607019166.4612,-57
1607019166.4632,-59
1607019166.4652,-52
1607019166.4672,-45
1607019166.4692,-47
1607019166.4712,-49
1607019166.4734,-47
1607019166.4753,-38
1607019166.4772,-33
1607019166.4792,-38
1607019166.4812,-40
1607019166.4832,-35
1607019166.4838,-35
1607019166.4852,-40
1607019166.4872,-38
1607019166.4892,-30
1607019166.4912,-33
1607019166.4932,-38
1607019166.4952,-30
1607019166.4972,-19
1607019166.4992,7
1607019166.5012,49
1607019166.5032,57
1607019166.5052,35
1607019166.5072,26
1607019166.5092,2
1607019166.5112,-28
1607019166.5132,-33
1607019166.5139,-33
1607019166.5152,-30
1607019166.5172,-21
1607019166.5192,-21
1607019166.5212,-21
1607019166.5232,-14
1607019166.5252,-16
1607019166.5272,-52
1607019166.5292,-133
1607019166.5312,-180
1607019166.5332,14
1607019166.5352,617
1607019166.5372,1437
1607019166.5392,1604
1607019166.5412,337
1607019166.5432,-1021
1607019166.9790,-793
1607019166.9800,-83
1607019166.9824,-61
1607019166.9842,-102
1607019166.9861,28
1607019166.9880,28
1607019166.9900,0
1607019166.9921,49
1607019166.9940,66
1607019166.9960,57
1607019166.9980,71
1607019167.0000,85
1607019167.0019,92
1607019167.0042,109
1607019167.0046,133
1607019167.0060,161
1607019167.0080,187
1607019167.0100,206
1607019167.0120,232
1607019167.0140,270
1607019167.0160,301
1607019167.0179,330
1607019167.0199,373
1607019167.0220,406
1607019167.0240,415
1607019167.0259,415
1607019167.0280,411
1607019167.0300,392
1607019167.0319,351
1607019167.0339,278
1607019167.0346,178
1607019167.0360,66
1607019167.0379,-40
1607019167.0400,-123
1607019167.0419,-173
1607019167.0439,-204
1607019167.0459,-228
1607019167.0481,-235
1607019167.0499,-225
1607019167.0520,-211
1607019167.0539,-199
1607019167.0559,-187
1607019167.0580,-173
1607019167.0599,-156
1607019167.0619,-142
1607019167.0639,-135
1607019167.0646,-130
1607019167.0659,-123
1607019167.0679,-116
1607019167.0699,-109
1607019167.0720,-102
1607019167.0739,-95
1607019167.0759,-87
1607019167.0779,-90
1607019167.0799,-92
1607019167.0819,-85
1607019167.0839,-83
1607019167.0859,-92
1607019167.0879,-90
1607019167.0899,-85
1607019167.0919,-85
1607019167.0939,-85
1607019167.0946,-90
1607019167.0960,-90
1607019167.0983,-83
1607019167.1000,-71
1607019167.1022,-71
1607019167.1040,-76
1607019167.1060,-73
1607019167.1079,-71
1607019167.1099,-76
1607019167.1119,-66
1607019167.1139,-57
1607019167.5185,-61
1607019167.5195,-66
1607019167.5219,-59
1607019167.5246,-45
1607019167.5266,-40
1607019167.5273,-52
1607019167.5286,-49
1607019167.5307,-28
1607019167.5326,-7
1607019167.5345,4
1607019167.5352,-2
1607019167.5375,-9
1607019167.5395,-28
1607019167.5416,-57
1607019167.5435,-61
1607019167.5455,-54
1607019167.5475,-57
1607019167.5495,-54
1607019167.5516,-45
1607019167.5535,-45
1607019167.5542,-45
1607019167.5555,-40
1607019167.5575,-52
1607019167.5595,-125
1607019167.5615,-230
1607019167.5635,-190
1607019167.5655,228
1607019167.5675,1104
1607019167.5695,1903
1607019167.5715,1356
1607019167.5735,-327
1607019167.5755,-919
1607019167.5775,-225
1607019167.5795,-2
1607019167.5815,-223
1607019167.5835,-137
1607019167.5841,-30
1607019167.5855,-83
1607019167.5875,-64
1607019167.5895,-7
1607019167.5915,-4
1607019167.5935,2
1607019167.5956,21
1607019167.5975,40
1607019167.5995,71
1607019167.6015,95
1607019167.6035,106
1607019167.6055,128
1607019167.6075,159
1607019167.6095,190
1607019167.6115,216
1607019167.6135,249
1607019167.6141,289
1607019167.6155,325
1607019167.6175,344
1607019167.6195,361
1607019167.6215,384
1607019167.6235,401
1607019167.6255,384
1607019167.6275,344
1607019167.6295,285
1607019167.6315,206
1607019167.6335,106
1607019167.6355,4
1607019167.6375,-85
1607019167.6395,-144
1607019167.6415,-178
1607019167.6435,-197
1607019167.6441,-206
1607019167.6455,-199
1607019167.6475,-192
1607019167.6495,-185
1607019167.6515,-171
1607019168.0588,-156
1607019168.0596,-149
1607019168.0620,-140
1607019168.0647,-125
1607019168.0666,-111
1607019168.0686,-106
1607019168.0706,-104
1607019168.0727,-97
1607019168.0809,-97
1607019168.0826,-97
1607019168.0846,-87
1607019168.0866,-83
1607019168.0886,-90
1607019168.0906,-85
1607019168.0926,-68
1607019168.0946,-61
1607019168.0966,-68
1607019168.0986,-76
1607019168.1006,-73
1607019168.1026,-68
1607019168.1048,-68
1607019168.1066,-66
1607019168.1086,-59
1607019168.1092,-61
1607019168.1106,-64
1607019168.1126,-59
1607019168.1146,-52
1607019168.1166,-47
1607019168.1186,-45
1607019168.1206,-47
1607019168.1226,-45
1607019168.1246,-47
1607019168.1266,-49
1607019168.1286,-40
1607019168.1306,-35
1607019168.1326,-38
1607019168.1346,-40
1607019168.1366,-35
1607019168.1386,-33
1607019168.1392,-40
1607019168.1406,-33
1607019168.1426,-9
1607019168.1447,23
1607019168.1466,35
1607019168.1486,23
1607019168.1506,19
1607019168.1526,11
1607019168.1546,-11
1607019168.1568,-30
1607019168.1586,-35
1607019168.1606,-40
1607019168.1626,-40
1607019168.1646,-38
1607019168.1666,-33
1607019168.1686,-28
1607019168.1692,-26
1607019168.1706,-42
1607019168.1726,-111
1607019168.1746,-187
1607019168.1766,-121
1607019168.1786,266
1607019168.1806,1040
1607019168.1826,1706
1607019168.1846,1109
1607019168.1866,-411
1607019168.1886,-824
1607019168.1906,-154
1607019168.1926,9
1607019168.1946,-187
1607019168.1966,-85
1607019168.1985,4
1607019168.1994,-52
1607019168.2006,-30
1607019168.6293,23
1607019168.6300,19
1607019168.6324,26
1607019168.6351,54
1607019168.6370,66
1607019168.6390,76
1607019168.6411,90
1607019168.6430,106
1607019168.6450,130
1607019168.6470,152
1607019168.6490,171
1607019168.6511,199
1607019168.6530,237
1607019168.6550,263
1607019168.6557,287
1607019168.6570,320
1607019168.6590,346
1607019168.6610,351
1607019168.6630,354
1607019168.6650,349
1607019168.6670,323
1607019168.6690,273
1607019168.6710,199
1607019168.6730,106
1607019168.6750,7
1607019168.6770,-76
1607019168.6790,-130
1607019168.6810,-161
1607019168.6830,-182
1607019168.6850,-194
1607019168.6857,-192
1607019168.6870,-182
1607019168.6890,-173
1607019168.6910,-159
1607019168.6930,-147
1607019168.6950,-135
1607019168.6970,-123
1607019168.6990,-116
1607019168.7010,-111
1607019168.7030,-102
1607019168.7050,-99
1607019168.7070,-97
1607019168.7090,-87
1607019168.7110,-80
1607019168.7130,-83
1607019168.7150,-85
1607019168.7157,-76
1607019168.7170,-68
1607019168.7190,-66
1607019168.7212,-66
1607019168.7230,-61
1607019168.7250,-59
1607019168.7270,-57
1607019168.7290,-59
1607019168.7311,-54
1607019168.7330,-49
1607019168.7350,-54
1607019168.7370,-57
1607019168.7390,-52
1607019168.7410,-47
1607019168.7430,-49
1607019168.7450,-47
1607019168.7456,-40
1607019168.7470,-35
1607019168.7490,-42
1607019168.7510,-38
1607019168.7530,-26
1607019168.7550,-23
1607019168.7570,-28
1607019168.7590,-26
1607019168.7610,-19
1607019168.7630,-23
1607019168.7650,-28
1607019169.1687,-26
1607019169.1694,-19
1607019169.1718,-14
1607019169.1730,-16
1607019169.1744,-16
1607019169.1765,-19
1607019169.1785,-26
1607019169.1805,-26
1607019169.1825,4
1607019169.1845,38
1607019169.1864,33
1607019169.1885,21
1607019169.1905,26
1607019169.1925,11
1607019169.1944,-16
1607019169.1964,-28
1607019169.1984,-28
1607019169.2004,-33
1607019169.2025,-33
1607019169.2030,-26
1607019169.2044,-21
1607019169.2064,-21
1607019169.2084,-28
1607019169.2104,-71
1607019169.2124,-156
1607019169.2144,-175
1607019169.2164,49
1607019169.2186,679
1607019169.2205,1556
1607019169.2224,1668
1607019169.2245,304
1607019169.2264,-905
1607019169.2284,-537
1607019169.2304,26
1607019169.2324,-123
1607019169.2330,-171
1607019169.2344,-14
1607019169.2364,-28
1607019169.2384,-54
1607019169.2404,9
1607019169.2424,33
1607019169.2444,23
1607019169.2464,45
1607019169.2484,68
1607019169.2504,80
1607019169.2524,99
1607019169.2544,123
1607019169.2564,144
1607019169.2584,168
1607019169.2604,199
1607019169.2624,228
1607019169.2630,251
1607019169.2644,280
1607019169.2665,318
1607019169.2684,351
1607019169.2704,377
1607019169.2724,401
1607019169.2744,403
1607019169.2764,394
1607019169.2784,384
1607019169.2804,358
1607019169.2825,294
1607019169.2844,197
1607019169.2864,95
1607019169.2884,-4
1607019169.2904,-87
1607019169.2924,-147
1607019169.2930,-180
1607019169.2944,-192
1607019169.2964,-201
1607019169.2985,-206
1607019169.3005,-194
1607019169.3025,-180
1607019169.7687,-171
1607019169.7694,-163
1607019169.7718,-144
1607019169.7745,-128
1607019169.7764,-128
1607019169.7787,-135
1607019169.7806,-121
1607019169.7825,-104
1607019169.7844,-106
1607019169.7851,-109
1607019169.7864,-106
1607019169.7884,-102
1607019169.7904,-99
1607019169.7924,-102
1607019169.7944,-95
1607019169.7964,-85
1607019169.7985,-83
1607019169.8004,-83
1607019169.8025,-80
1607019169.8044,-78
1607019169.8064,-76
1607019169.8084,-76
1607019169.8104,-73
1607019169.8125,-68
1607019169.8144,-66
1607019169.8150,-66
1607019169.8164,-66
1607019169.8184,-64
1607019169.8204,-59
1607019169.8225,-54
1607019169.8244,-49
1607019169.8264,-49
1607019169.8284,-49
1607019169.8304,-49
1607019169.8325,-45
1607019169.8344,-38
1607019169.8364,-38
1607019169.8384,-40
1607019169.8404,-40
1607019169.8424,-35
1607019169.8444,-33
1607019169.8450,-28
1607019169.8464,-26
1607019169.8484,-14
1607019169.8504,21
1607019169.8524,49
1607019169.8544,47
1607019169.8564,35
1607019169.8584,28
1607019169.8604,4
1607019169.8624,-23
1607019169.8644,-33
1607019169.8664,-23
1607019169.8684,-19
1607019169.8704,-23
1607019169.8724,-23
1607019169.8746,-14
1607019169.8751,-9
1607019169.8764,-21
1607019169.8784,-73
1607019169.8804,-154
1607019169.8825,-128
1607019169.8844,209
1607019169.8864,931
1607019169.8884,1670
1607019169.8904,1321
1607019169.8924,-251
1607019169.8944,-1052
1607019169.8964,-411
1607019169.8984,14
1607019169.9004,-128
1607019169.9024,-78
1607019169.9044,42
1607019170.3690,2
1607019170.3699,-4
1607019170.3724,42
1607019170.3750,42
1607019170.3770,38
1607019170.3790,61
1607019170.3811,80
1607019170.3830,92
1607019170.3850,114
1607019170.3870,128
1607019170.3889,142
1607019170.3909,168
1607019170.3930,201
1607019170.3951,230
1607019170.3957,254
1607019170.3970,285
1607019170.3990,325
1607019170.4010,349
1607019170.4029,363
1607019170.4049,380
1607019170.4069,387
1607019170.4089,373
1607019170.4109,346
1607019170.4129,308
1607019170.4149,242
1607019170.4169,144
1607019170.4189,38
1607019170.4209,-52
1607019170.4229,-116
1607019170.4249,-156
1607019170.4255,-185
1607019170.4269,-201
1607019170.4289,-209
1607019170.4309,-201
1607019170.4331,-185
1607019170.4350,-168
1607019170.4369,-154
1607019170.4389,-144
1607019170.4409,-135
1607019170.4429,-125
1607019170.4449,-123
1607019170.4469,-114
1607019170.4489,-97
1607019170.4509,-92
1607019170.4529,-92
1607019170.4549,-90
1607019170.4555,-87
1607019170.4569,-83
1607019170.4589,-80
1607019170.4609,-83
1607019170.4629,-80
1607019170.4649,-71
1607019170.4669,-68
1607019170.4689,-71
1607019170.4709,-71
1607019170.4729,-73
1607019170.4749,-73
1607019170.4769,-64
1607019170.4789,-52
1607019170.4809,-54
1607019170.4829,-64
1607019170.4849,-61
1607019170.4855,-49
1607019170.4869,-49
1607019170.4889,-49
1607019170.4909,-47
1607019170.4929,-45
1607019170.4949,-40
1607019170.4969,-38
1607019170.4989,-45
1607019170.5009,-47
1607019170.5029,-40
1607019170.5049,-38
1607019170.8784,-35
1607019170.8792,-30
1607019170.8807,-28
1607019170.8814,-28
1607019170.8827,-14
1607019170.8847,21
1607019170.8867,45
1607019170.8887,35
1607019170.8907,21
1607019170.8927,7
1607019170.8948,-19
1607019170.8967,-45
1607019170.8989,-52
1607019170.9007,-52
1607019170.9027,-54
1607019170.9047,-49
1607019170.9067,-38
1607019170.9087,-38
1607019170.9107,-47
1607019170.9113,-61
1607019170.9127,-114
1607019170.9147,-185
1607019170.9167,-121
1607019170.9187,268
1607019170.9207,1055
1607019170.9227,1741
1607019170.9247,1154
1607019170.9267,-451
1607019170.9287,-957
1607019170.9307,-251
1607019170.9327,-4
1607019170.9347,-178
1607019170.9367,-90
1607019170.9387,-2
1607019170.9407,-47
1607019170.9413,-28
1607019170.9427,9
1607019170.9447,0
1607019170.9467,11
1607019170.9487,40
1607019170.9507,52
1607019170.9527,73
1607019170.9547,99
1607019170.9567,114
1607019170.9587,130
1607019170.9607,152
1607019170.9627,180
1607019170.9647,218
1607019170.9667,249
1607019170.9687,278
1607019170.9707,311
1607019170.9714,342
1607019170.9727,361
1607019170.9747,373
1607019170.9767,380
1607019170.9787,373
1607019170.9807,349
1607019170.9827,308
1607019170.9847,232
1607019170.9867,140
1607019170.9887,40
1607019170.9907,-54
1607019170.9927,-118
1607019170.9949,-154
1607019170.9967,-178
1607019170.9987,-192
1607019171.0007,-192
1607019171.0013,-187
1607019171.0027,-178
1607019171.0048,-166
1607019171.0067,-154
1607019171.0087,-142
1607019171.0107,-130
1607019171.4182,-125
1607019171.4190,-121
1607019171.4215,-111
1607019171.4241,-106
1607019171.4260,-104
1607019171.4280,-97
1607019171.4302,-95
1607019171.4321,-99
1607019171.4340,-99
1607019171.4347,-95
1607019171.4360,-90
1607019171.4380,-92
1607019171.4400,-95
1607019171.4420,-95
1607019171.4440,-95
1607019171.4460,-95
1607019171.4481,-90
1607019171.4500,-85
1607019171.4520,-80
1607019171.4540,-80
1607019171.4560,-83
1607019171.4580,-76
1607019171.4600,-68
1607019171.4620,-66
1607019171.4640,-61
1607019171.4646,-59
1607019171.4660,-59
1607019171.4680,-54
1607019171.4700,-49
1607019171.4720,-49
1607019171.4740,-52
1607019171.4760,-40
1607019171.4780,-28
1607019171.4800,-40
1607019171.4820,-42
1607019171.4840,-21
1607019171.4860,16
1607019171.4880,38
1607019171.4900,30
1607019171.4920,28
1607019171.4940,21
1607019171.4948,-9
1607019171.4960,-40
1607019171.4980,-45
1607019171.5000,-35
1607019171.5020,-38
1607019171.5040,-45
1607019171.5060,-42
1607019171.5080,-28
1607019171.5100,-19
1607019171.5120,-38
1607019171.5140,-102
1607019171.5160,-190
1607019171.5180,-163
1607019171.5199,178
1607019171.5220,941
1607019171.5240,1732
1607019171.5246,1366
1607019171.5260,-220
1607019171.5280,-960
1607019171.5300,-335
1607019171.5320,-19
1607019171.5340,-213
1607019171.5360,-147
1607019171.5380,-11
1607019171.5400,-61
1607019171.5420,-71
1607019171.5440,-7
1607019171.5460,4
1607019171.5480,-2
1607019171.5500,19
1607019171.5520,33
1607019171.5526,42
1607019171.9883,71
1607019171.9893,99
1607019171.9917,121
1607019171.9944,149
1607019171.9964,180
1607019171.9984,197
1607019172.0004,220
1607019172.0023,259
1607019172.0043,289
1607019172.0063,313
1607019172.0083,351
1607019172.0103,377
1607019172.0123,375
1607019172.0129,358
1607019172.0143,339
1607019172.0163,308
1607019172.0183,242
1607019172.0203,140
1607019172.0223,30
1607019172.0245,-59
1607019172.0263,-121
1607019172.0283,-152
1607019172.0303,-173
1607019172.0323,-197
1607019172.0343,-194
1607019172.0363,-168
1607019172.0383,-156
1607019172.0403,-156
1607019172.0423,-147
1607019172.0429,-121
1607019172.0443,-95
1607019172.0463,-87
1607019172.0483,-92
1607019172.0503,-85
1607019172.0523,-71
1607019172.0543,-68
1607019172.0562,-68
1607019172.0582,-59
1607019172.0603,-54
1607019172.0623,-54
1607019172.0642,-52
1607019172.0662,-52
1607019172.0683,-52
1607019172.0702,-49
1607019172.0723,-45
1607019172.0729,-45
1607019172.0743,-47
1607019172.0762,-49
1607019172.0782,-52
1607019172.0802,-49
1607019172.0823,-47
1607019172.0843,-42
1607019172.0863,-42
1607019172.0882,-42
1607019172.0902,-40
1607019172.0923,-35
1607019172.0942,-33
1607019172.0963,-33
1607019172.0982,-30
1607019172.1002,-30
1607019172.1023,-26
1607019172.1029,-21
1607019172.1042,-16
1607019172.1063,-21
1607019172.1083,-21
1607019172.1102,-14
1607019172.1123,-14
1607019172.1142,-16
1607019172.1162,-4
1607019172.1182,28
1607019172.1204,59
1607019172.1223,59
1607019172.1242,47
1607019172.5286,45
1607019172.5293,26
1607019172.5317,-4
1607019172.5334,-19
1607019172.5340,-21
1607019172.5354,-21
1607019172.5374,-26
1607019172.5394,-28
1607019172.5414,-21
1607019172.5433,-21
1607019172.5453,-33
1607019172.5473,-78
1607019172.5493,-168
1607019172.5513,-199
1607019172.5533,38
1607019172.5553,710
1607019172.5573,1627
1607019172.5593,1715
1607019172.5614,313
1607019172.5633,-869
1607019172.5641,-489
1607019172.5653,26
1607019172.5673,-149
1607019172.5693,-182
1607019172.5714,-21
1607019172.5733,-45
1607019172.5753,-73
1607019172.5773,-4
1607019172.5793,9
1607019172.5814,-2
1607019172.5833,23
1607019172.5853,49
1607019172.5873,61
1607019172.5893,78
1607019172.5914,97
1607019172.5933,116
1607019172.5939,142
1607019172.5953,168
1607019172.5973,187
1607019172.5993,216
1607019172.6013,249
1607019172.6033,273
1607019172.6053,297
1607019172.6073,327
1607019172.6093,346
1607019172.6114,346
1607019172.6133,339
1607019172.6153,330
1607019172.6175,301
1607019172.6194,242
1607019172.6214,156
1607019172.6233,71
1607019172.6239,-11
1607019172.6254,-87
1607019172.6273,-135
1607019172.6293,-156
1607019172.6314,-173
1607019172.6333,-180
1607019172.6353,-171
1607019172.6373,-161
1607019172.6393,-152
1607019172.6414,-142
1607019172.6434,-130
1607019172.6453,-118
1607019172.6473,-106
1607019172.6493,-97
1607019172.6513,-85
1607019172.6534,-78
1607019172.6539,-83
1607019172.6553,-85
1607019172.6573,-78
1607019172.6593,-73
1607019172.6614,-71
1607019173.1281,-66
1607019173.1289,-66
1607019173.1313,-73
1607019173.1340,-78
1607019173.1359,-78
1607019173.1379,-66
1607019173.1400,-64
1607019173.1420,-68
1607019173.1426,-66
1607019173.1439,-64
1607019173.1459,-59
1607019173.1479,-57
1607019173.1499,-54
1607019173.1520,-47
1607019173.1539,-45
1607019173.1559,-49
1607019173.1579,-40
1607019173.1599,-30
1607019173.1620,-35
1607019173.1639,-38
1607019173.1659,-33
1607019173.1679,-30
1607019173.1699,-30
1607019173.1720,-28
1607019173.1725,-21
1607019173.1739,-19
1607019173.1761,-14
1607019173.1780,14
1607019173.1799,45
1607019173.1820,49
1607019173.1839,35
1607019173.1859,26
1607019173.1879,9
1607019173.1899,-16
1607019173.1919,-33
1607019173.1939,-33
1607019173.1959,-26
1607019173.1979,-21
1607019173.1999,-23
1607019173.2019,-26
1607019173.2025,-16
1607019173.2039,-21
1607019173.2059,-66
1607019173.2079,-156
1607019173.2099,-213
1607019173.2119,-47
1607019173.2139,537
1607019173.2159,1454
1607019173.2179,1820
1607019173.2199,684
1607019173.2219,-755
1607019173.2239,-686
1607019173.2259,-40
1607019173.2279,-80
1607019173.2299,-194
1607019173.2319,-47
1607019173.2325,-28
1607019173.2339,-76
1607019173.2361,-21
1607019173.2380,14
1607019173.2400,4
1607019173.2420,26
1607019173.2440,54
1607019173.2460,61
1607019173.2480,80
1607019173.2486,106
1607019173.2496,121
1607019173.2520,137
1607019173.2539,171
1607019173.2559,197
1607019173.2566,220
1607019173.2579,256
1607019173.2600,289
1607019173.6986,313
1607019173.6995,335
1607019173.7019,354
1607019173.7047,363
1607019173.7069,368
1607019173.7086,358
1607019173.7107,323
1607019173.7126,266
1607019173.7146,187
1607019173.7166,85
1607019173.7186,-4
1607019173.7206,-73
1607019173.7227,-130
1607019173.7235,-171
1607019173.7246,-187
1607019173.7266,-190
1607019173.7286,-185
1607019173.7306,-175
1607019173.7326,-161
1607019173.7346,-147
1607019173.7366,-137
1607019173.7386,-128
1607019173.7406,-121
1607019173.7426,-123
1607019173.7432,-121
1607019173.7447,-109
1607019173.7467,-99
1607019173.7486,-97
1607019173.7492,-92
1607019173.7506,-90
1607019173.7525,-87
1607019173.7545,-85
1607019173.7565,-87
1607019173.7586,-85
1607019173.7605,-73
1607019173.7627,-68
1607019173.7645,-71
1607019173.7665,-68
1607019173.7685,-66
1607019173.7705,-68
1607019173.7726,-66
1607019173.7745,-61
1607019173.7765,-57
1607019173.7785,-52
1607019173.7791,-57
1607019173.7805,-54
1607019173.7825,-45
1607019173.7845,-45
1607019173.7865,-47
1607019173.7885,-40
1607019173.7905,-35
1607019173.7925,-38
1607019173.7945,-38
1607019173.7965,-35
1607019173.7985,-26
1607019173.8007,-28
1607019173.8026,-38
1607019173.8045,-28
1607019173.8065,2
1607019173.8085,30
1607019173.8091,33
1607019173.8105,28
1607019173.8126,26
1607019173.8145,7
1607019173.8165,-21
1607019173.8185,-33
1607019173.8205,-35
1607019173.8225,-35
1607019173.8245,-33
1607019173.8265,-28
1607019173.8285,-21
1607019173.8305,-21
1607019173.8325,-30
1607019174.2687,-68
1607019174.2696,-163
1607019174.2721,-218
1607019174.2748,-19
1607019174.2768,598
1607019174.2788,1511
1607019174.2809,1767
1607019174.2827,513
1607019174.2847,-834
1607019174.2867,-622
1607019174.2887,-21
1607019174.2907,-125
1607019174.2928,-209
1607019174.2947,-61
1607019174.2967,-61
1607019174.2987,-102
1607019174.3007,-47
1607019174.3013,-19
1607019174.3026,-23
1607019174.3047,0
1607019174.3066,23
1607019174.3086,33
1607019174.3106,49
1607019174.3126,76
1607019174.3146,97
1607019174.3166,118
1607019174.3186,147
1607019174.3206,171
1607019174.3226,194
1607019174.3246,225
1607019174.3266,259
1607019174.3286,287
1607019174.3307,311
1607019174.3314,327
1607019174.3326,335
1607019174.3346,332
1607019174.3366,316
1607019174.3386,282
1607019174.3406,235
1607019174.3426,163
1607019174.3446,73
1607019174.3466,-14
1607019174.3486,-85
1607019174.3506,-135
1607019174.3526,-163
1607019174.3546,-171
1607019174.3566,-175
1607019174.3586,-178
1607019174.3606,-173
1607019174.3613,-159
1607019174.3626,-142
1607019174.3646,-130
1607019174.3666,-121
1607019174.3686,-114
1607019174.3706,-106
1607019174.3727,-102
1607019174.3746,-90
1607019174.3766,-83
1607019174.3786,-85
1607019174.3807,-85
1607019174.3826,-78
1607019174.3846,-78
1607019174.3866,-76
1607019174.3886,-73
1607019174.3906,-71
1607019174.3912,-64
1607019174.3926,-59
1607019174.3946,-54
1607019174.3966,-57
1607019174.3986,-64
1607019174.4006,-64
1607019174.4026,-57
1607019174.4046,-49
1607019174.8084,-45
1607019174.8091,-42
1607019174.8116,-38
1607019174.8142,-42
1607019174.8162,-42
1607019174.8182,-38
1607019174.8203,-33
1607019174.8208,-38
1607019174.8222,-42
1607019174.8242,-40
1607019174.8262,-35
1607019174.8284,-38
1607019174.8302,-42
1607019174.8321,-35
1607019174.8341,-30
1607019174.8362,-33
1607019174.8381,-21
1607019174.8401,14
1607019174.8422,42
1607019174.8441,35
1607019174.8461,26
1607019174.8481,19
1607019174.8501,-4
1607019174.8507,-28
1607019174.8522,-35
1607019174.8541,-38
1607019174.8561,-38
1607019174.8581,-28
1607019174.8601,-23
1607019174.8622,-28
1607019174.8641,-26
1607019174.8661,-28
1607019174.8681,-90
1607019174.8702,-194
1607019174.8722,-171
1607019174.8741,206
1607019174.8761,1009
1607019174.8781,1786
1607019174.8801,1363
1607019174.8807,-244
1607019174.8822,-969
1607019174.8841,-339
1607019174.8861,-4
1607019174.8881,-178
1607019174.8901,-123
1607019174.8923,-19
1607019174.8941,-66
1607019174.8961,-54
1607019174.8981,4
1607019174.9001,7
1607019174.9021,7
1607019174.9041,33
1607019174.9061,54
1607019174.9081,68
1607019174.9102,90
1607019174.9107,114
1607019174.9121,135
1607019174.9141,152
1607019174.9162,173
1607019174.9182,201
1607019174.9202,237
1607019174.9222,268
1607019174.9243,294
1607019174.9262,320
1607019174.9281,344
1607019174.9301,358
1607019174.9322,361
1607019174.9341,349
1607019174.9361,325
1607019174.9381,289
1607019174.9401,228
1607019174.9407,137
1607019174.9421,40
1607019175.3485,-49
1607019175.3495,-121
1607019175.3519,-159
1607019175.3536,-180
1607019175.3555,-197
1607019175.3575,-197
1607019175.3594,-185
1607019175.3616,-175
1607019175.3635,-173
1607019175.3655,-161
1607019175.3675,-147
1607019175.3695,-140
1607019175.3701,-133
1607019175.3715,-121
1607019175.3735,-114
1607019175.3754,-111
1607019175.3775,-104
1607019175.3795,-99
1607019175.3815,-95
1607019175.3834,-87
1607019175.3854,-85
1607019175.3874,-87
1607019175.3894,-90
1607019175.3914,-90
1607019175.3934,-85
1607019175.3954,-78
1607019175.3974,-73
1607019175.3994,-73
1607019175.4000,-76
1607019175.4014,-76
1607019175.4035,-76
1607019175.4054,-68
1607019175.4074,-66
1607019175.4094,-64
1607019175.4114,-59
1607019175.4134,-59
1607019175.4154,-59
1607019175.4174,-52
1607019175.4194,-49
1607019175.4215,-47
1607019175.4236,-38
1607019175.4255,-40
1607019175.4275,-47
1607019175.4281,-33
1607019175.4294,-4
1607019175.4316,30
1607019175.4334,42
1607019175.4354,28
1607019175.4374,14
1607019175.4394,4
1607019175.4414,-16
1607019175.4434,-35
1607019175.4454,-38
1607019175.4474,-33
1607019175.4494,-35
1607019175.4514,-38
1607019175.4535,-28
1607019175.4554,-21
1607019175.4574,-26
1607019175.4580,-61
1607019175.4594,-156
1607019175.4614,-228
1607019175.4634,-49
1607019175.4654,575
1607019175.4674,1499
1607019175.4694,1810
1607019175.4714,608
1607019175.4734,-843
1607019175.4754,-748
1607019175.4774,-85
1607019175.4794,-104
1607019175.4814,-201
1607019175.4834,-61
1607019175.9185,-35
1607019175.9193,-73
1607019175.9219,-30
1607019175.9244,0
1607019175.9264,-7
1607019175.9284,4
1607019175.9305,23
1607019175.9324,40
1607019175.9344,61
1607019175.9364,80
1607019175.9384,97
1607019175.9404,121
1607019175.9424,149
1607019175.9444,178
1607019175.9463,209
1607019175.9484,237
1607019175.9490,268
1607019175.9504,294
1607019175.9525,316
1607019175.9544,337
1607019175.9564,339
1607019175.9584,332
1607019175.9603,318
1607019175.9624,289
1607019175.9643,232
1607019175.9664,156
1607019175.9683,71
1607019175.9703,-14
1607019175.9724,-90
1607019175.9743,-140
1607019175.9763,-168
1607019175.9783,-180
1607019175.9789,-185
1607019175.9803,-182
1607019175.9824,-171
1607019175.9843,-156
1607019175.9863,-144
1607019175.9883,-135
1607019175.9903,-125
1607019175.9924,-116
1607019175.9943,-109
1607019175.9963,-99
1607019175.9983,-97
1607019176.0003,-95
1607019176.0023,-90
1607019176.0043,-83
1607019176.0064,-83
1607019176.0083,-80
1607019176.0089,-78
1607019176.0103,-76
1607019176.0124,-71
1607019176.0143,-68
1607019176.0163,-71
1607019176.0183,-76
1607019176.0203,-73
1607019176.0224,-66
1607019176.0243,-66
1607019176.0263,-66
1607019176.0283,-66
1607019176.0303,-68
1607019176.0324,-66
1607019176.0343,-59
1607019176.0363,-54
1607019176.0383,-59
1607019176.0389,-57
1607019176.0403,-49
1607019176.0423,-45
1607019176.0443,-52
1607019176.0463,-49
1607019176.0485,-35
1607019176.0504,-33
1607019176.0523,-40
1607019176.0543,-33
1607019176.5181,2
1607019176.5190,40
1607019176.5215,38
1607019176.5241,21
1607019176.5261,23
1607019176.5281,14
1607019176.5288,-23
1607019176.5302,-49
1607019176.5321,-49
1607019176.5341,-45
1607019176.5361,-47
1607019176.5381,-42
1607019176.5401,-38
1607019176.5420,-35
1607019176.5440,-40
1607019176.5460,-78
1607019176.5480,-173
1607019176.5500,-228
1607019176.5520,-38
1607019176.5540,579
1607019176.5560,1487
1607019176.5580,1748
1607019176.5586,520
1607019176.5600,-826
1607019176.5620,-634
1607019176.5640,-21
1607019176.5661,-109
1607019176.5680,-197
1607019176.5701,-49
1607019176.5720,-45
1607019176.5740,-80
1607019176.5760,-28
1607019176.5780,-4
1607019176.5800,-14
1607019176.5821,7
1607019176.5841,28
1607019176.5861,42
1607019176.5881,64
1607019176.5886,80
1607019176.5900,99
1607019176.5921,123
1607019176.5940,149
1607019176.5960,175
1607019176.5980,201
1607019176.6000,228
1607019176.6020,254
1607019176.6040,285
1607019176.6062,308
1607019176.6080,325
1607019176.6100,330
1607019176.6120,323
1607019176.6140,304
1607019176.6160,273
1607019176.6180,220
1607019176.6186,147
1607019176.6200,59
1607019176.6220,-28
1607019176.6240,-95
1607019176.6260,-137
1607019176.6280,-163
1607019176.6300,-180
1607019176.6320,-187
1607019176.6340,-180
1607019176.6360,-171
1607019176.6380,-161
1607019176.6400,-144
1607019176.6420,-130
1607019176.6440,-125
1607019176.6462,-121
1607019176.6481,-111
1607019176.6486,-106
1607019176.6500,-99
1607019176.6520,-95
1607019177.0880,-90
1607019177.0889,-87
1607019177.0914,-85
1607019177.0931,-90
1607019177.0951,-90
1607019177.0970,-83
1607019177.0990,-78
1607019177.1011,-73
1607019177.1030,-76
1607019177.1050,-76
1607019177.1070,-71
1607019177.1076,-76
1607019177.1090,-83
1607019177.1110,-76
1607019177.1130,-71
1607019177.1150,-71
1607019177.1170,-71
1607019177.1190,-64
1607019177.1210,-59
1607019177.1229,-59
1607019177.1249,-59
1607019177.1269,-54
1607019177.1289,-49
1607019177.1310,-47
1607019177.1329,-47
1607019177.1351,-42
1607019177.1370,-38
1607019177.1375,-42
1607019177.1390,-45
1607019177.1410,-38
1607019177.1429,-16
1607019177.1449,9
1607019177.1469,30
1607019177.1489,35
1607019177.1509,23
1607019177.1529,11
1607019177.1549,-4
1607019177.1569,-19
1607019177.1589,-33
1607019177.1610,-35
1607019177.1629,-35
1607019177.1649,-35
1607019177.1669,-30
1607019177.1675,-28
1607019177.1689,-35
1607019177.1710,-49
1607019177.1729,-104
1607019177.1749,-194
1607019177.1769,-171
1607019177.1789,168
1607019177.1809,917
1607019177.1829,1665
1607019177.1849,1302
1607019177.1869,-197
1607019177.1889,-905
1607019177.1910,-313
1607019177.1929,14
1607019177.1949,-173
1607019177.1969,-137
1607019177.1975,-21
1607019177.1989,-57
1607019177.2010,-59
1607019177.2029,-7
1607019177.2049,-4
1607019177.2069,-2
1607019177.2089,23
1607019177.2110,35
1607019177.2129,45
1607019177.2149,66
1607019177.2169,87
1607019177.2189,104
1607019177.2210,130
1607019177.2229,161
1607019177.6280,182
1607019177.6289,206
1607019177.6299,237
1607019177.6322,266
1607019177.6339,289
1607019177.6359,308
1607019177.6379,323
1607019177.6399,323
1607019177.6419,306
1607019177.6438,282
1607019177.6458,247
1607019177.6478,194
1607019177.6498,109
1607019177.6519,11
1607019177.6538,-59
1607019177.6558,-111
1607019177.6578,-156
1607019177.6584,-182
1607019177.6598,-187
1607019177.6619,-185
1607019177.6638,-182
1607019177.6658,-171
1607019177.6678,-156
1607019177.6698,-144
1607019177.6718,-135
1607019177.6738,-133
1607019177.6758,-125
1607019177.6778,-114
1607019177.6798,-109
1607019177.6818,-109
1607019177.6838,-104
1607019177.6858,-95
1607019177.6878,-92
1607019177.6884,-95
1607019177.6898,-90
1607019177.6919,-83
1607019177.6938,-83
1607019177.6958,-87
1607019177.6978,-87
1607019177.6998,-85
1607019177.7018,-80
1607019177.7038,-78
1607019177.7058,-73
1607019177.7078,-76
1607019177.7098,-76
1607019177.7118,-68
1607019177.7138,-64
1607019177.7158,-59
1607019177.7178,-57
1607019177.7184,-59
1607019177.7198,-54
1607019177.7218,-47
1607019177.7238,-47
1607019177.7258,-45
1607019177.7279,-40
1607019177.7298,-42
1607019177.7318,-42
1607019177.7338,-40
1607019177.7358,-40
1607019177.7378,-35
1607019177.7398,-33
1607019177.7418,-33
1607019177.7438,-28
1607019177.7458,-26
1607019177.7478,-30
1607019177.7484,-23
1607019177.7498,-4
1607019177.7518,28
1607019177.7538,52
1607019177.7558,42
1607019177.7578,30
1607019177.7598,23
1607019177.7618,-2
1607019178.1979,-23
1607019178.1988,-26
1607019178.2012,-26
1607019178.2029,-28
1607019178.2048,-28
1607019178.2068,-28
1607019178.2075,-30
1607019178.2089,-30
1607019178.2109,-42
1607019178.2128,-114
1607019178.2148,-211
1607019178.2168,-163
1607019178.2188,237
1607019178.2209,1040
1607019178.2228,1748
1607019178.2248,1204
1607019178.2268,-380
1607019178.2288,-936
1607019178.2309,-261
1607019178.2328,-4
1607019178.2348,-194
1607019178.2368,-125
1607019178.2374,-26
1607019178.2388,-73
1607019178.2408,-59
1607019178.2428,-4
1607019178.2448,-4
1607019178.2468,0
1607019178.2488,30
1607019178.2508,45
1607019178.2528,52
1607019178.2548,71
1607019178.2569,92
1607019178.2588,118
1607019178.2608,147
1607019178.2627,168
1607019178.2647,190
1607019178.2667,218
1607019178.2674,251
1607019178.2687,282
1607019178.2708,306
1607019178.2727,325
1607019178.2747,342
1607019178.2767,346
1607019178.2787,337
1607019178.2808,316
1607019178.2829,282
1607019178.2849,220
1607019178.2869,128
1607019178.2888,35
1607019178.2909,-40
1607019178.2928,-99
1607019178.2948,-147
1607019178.2967,-173
1607019178.2974,-185
1607019178.2987,-192
1607019178.3008,-182
1607019178.3027,-166
1607019178.3047,-154
1607019178.3067,-156
1607019178.3087,-147
1607019178.3108,-125
1607019178.3127,-114
1607019178.3148,-109
1607019178.3167,-104
1607019178.3188,-99
1607019178.3209,-97
1607019178.3228,-92
1607019178.3247,-90
1607019178.3267,-87
1607019178.3273,-85
1607019178.3287,-83
1607019178.3308,-85
1607019178.7379,-85
1607019178.7388,-78
1607019178.7413,-68
1607019178.7439,-71
1607019178.7459,-73
1607019178.7479,-71
1607019178.7499,-68
1607019178.7518,-68
1607019178.7538,-66
1607019178.7558,-61
1607019178.7580,-64
1607019178.7599,-76
1607019178.7618,-73
1607019178.7625,-61
1607019178.7638,-61
1607019178.7658,-64
1607019178.7678,-57
1607019178.7698,-54
1607019178.7719,-54
1607019178.7738,-49
1607019178.7758,-42
1607019178.7778,-42
1607019178.7798,-52
1607019178.7818,-52
1607019178.7838,-42
1607019178.7858,-42
1607019178.7878,-42
1607019178.7898,-21
1607019178.7918,19
1607019178.7924,40
1607019178.7938,28
1607019178.7958,19
1607019178.7978,14
1607019178.7998,-11
1607019178.8018,-40
1607019178.8038,-45
1607019178.8058,-38
1607019178.8078,-33
1607019178.8098,-35
1607019178.8118,-33
1607019178.8138,-28
1607019178.8158,-28
1607019178.8178,-42
1607019178.8198,-106
1607019178.8218,-201
1607019178.8224,-161
1607019178.8238,247
1607019178.8258,1066
1607019178.8278,1801
1607019178.8298,1276
1607019178.8318,-373
1607019178.8338,-1021
1607019178.8358,-342
1607019178.8378,-16
1607019178.8398,-171
1607019178.8418,-104
1607019178.8438,-4
1607019178.8458,-42
1607019178.8478,-33
1607019178.8498,11
1607019178.8518,11
1607019178.8525,16
1607019178.8538,45
1607019178.8558,64
1607019178.8578,73
1607019178.8598,90
1607019178.8618,111
1607019178.8638,140
1607019178.8658,166
1607019178.8678,185
1607019178.8698,206
1607019178.8718,235
1607019178.8738,263
1607019179.2779,287
1607019179.2787,316
1607019179.2798,342
1607019179.2818,349
1607019179.2838,339
1607019179.2858,323
1607019179.2878,304
1607019179.2899,263
1607019179.2918,194
1607019179.2937,104
1607019179.2957,9
1607019179.2977,-73
1607019179.2998,-133
1607019179.3017,-168
1607019179.3037,-192
1607019179.3057,-211
1607019179.3077,-213
1607019179.3084,-199
1607019179.3097,-185
1607019179.3119,-180
1607019179.3138,-171
1607019179.3157,-154
1607019179.3178,-144
1607019179.3197,-133
1607019179.3218,-123
1607019179.3237,-118
1607019179.3257,-114
1607019179.3277,-106
1607019179.3297,-104
1607019179.3317,-97
1607019179.3337,-92
1607019179.3357,-95
1607019179.3363,-95
1607019179.3377,-87
1607019179.3397,-85
1607019179.3418,-87
1607019179.3437,-85
1607019179.3457,-80
1607019179.3477,-78
1607019179.3499,-76
1607019179.3517,-76
1607019179.3537,-71
1607019179.3557,-66
1607019179.3577,-61
1607019179.3597,-64
1607019179.3617,-61
1607019179.3637,-61
1607019179.3657,-57
1607019179.3663,-47
1607019179.3677,-45
1607019179.3697,-47
1607019179.3717,-42
1607019179.3737,-40
1607019179.3757,-42
1607019179.3777,-40
1607019179.3797,-38
1607019179.3817,-38
1607019179.3837,-35
1607019179.3857,-35
1607019179.3877,-35
1607019179.3897,-28
1607019179.3917,-28
1607019179.3937,-33
1607019179.3957,-23
1607019179.3963,4
1607019179.3977,40
1607019179.3997,42
1607019179.4017,28
1607019179.4037,28
1607019179.4057,14
1607019179.4077,-16
1607019179.4097,-28
1607019179.4117,-26
1607019179.8776,-26
1607019179.8785,-28
1607019179.8799,-26
1607019179.8818,-21
1607019179.8838,-21
1607019179.8845,-33
1607019179.8858,-78
1607019179.8878,-168
1607019179.8898,-232
1607019179.8918,-78
1607019179.8938,503
1607019179.8958,1428
1607019179.8978,1801
1607019179.8998,653
1607019179.9018,-788
1607019179.9037,-696
1607019179.9057,-40
1607019179.9080,-97
1607019179.9098,-213
1607019179.9118,-59
1607019179.9137,-40
1607019179.9143,-87
1607019179.9157,-33
1607019179.9177,0
1607019179.9197,-9
1607019179.9218,9
1607019179.9237,33
1607019179.9257,42
1607019179.9276,64
1607019179.9297,90
1607019179.9317,109
1607019179.9337,130
1607019179.9357,154
1607019179.9377,180
1607019179.9397,206
1607019179.9417,237
1607019179.9437,266
1607019179.9443,294
1607019179.9450,318
1607019179.9467,335
1607019179.9487,346
1607019179.9507,349
1607019179.9527,335
1607019179.9547,304
1607019179.9567,251
1607019179.9587,178
1607019179.9608,90
1607019179.9627,2
1607019179.9647,-71
1607019179.9667,-121
1607019179.9687,-154
1607019179.9707,-175
1607019179.9713,-185
1607019179.9727,-182
1607019179.9747,-173
1607019179.9767,-166
1607019179.9787,-159
1607019179.9808,-149
1607019179.9827,-133
1607019179.9847,-123
1607019179.9867,-118
1607019179.9887,-111
1607019179.9907,-102
1607019179.9927,-97
1607019179.9947,-95
1607019179.9967,-87
1607019179.9987,-83
1607019180.0007,-83
1607019180.0015,-80
1607019180.0027,-73
1607019180.0052,-71
1607019180.0068,-73
1607019180.0093,-71
1607019180.4180,-68
1607019180.4189,-73
1607019180.4213,-76
1607019180.4240,-71
1607019180.4260,-66
1607019180.4266,-66
1607019180.4280,-64
1607019180.4300,-61
1607019180.4319,-59
1607019180.4339,-57
1607019180.4359,-61
1607019180.4379,-68
1607019180.4399,-66
1607019180.4419,-64
1607019180.4439,-66
1607019180.4459,-66
1607019180.4479,-59
1607019180.4499,-54
1607019180.4519,-49
1607019180.4539,-47
1607019180.4559,-49
1607019180.4565,-47
1607019180.4579,-42
1607019180.4599,-40
1607019180.4619,-40
1607019180.4639,-38
1607019180.4659,-38
1607019180.4679,-30
1607019180.4699,-23
1607019180.4719,-23
1607019180.4739,-26
1607019180.4759,-16
1607019180.4779,11
1607019180.4799,40
1607019180.4819,40
1607019180.4839,26
1607019180.4859,23
1607019180.4865,9
1607019180.4879,-16
1607019180.4899,-30
1607019180.4919,-30
1607019180.4939,-30
1607019180.4959,-33
1607019180.4979,-30
1607019180.4999,-23
1607019180.5019,-23
1607019180.5040,-28
1607019180.5059,-52
1607019180.5079,-128
1607019180.5099,-206
1607019180.5119,-90
1607019180.5139,418
1607019180.5159,1276
1607019180.5165,1756
1607019180.5179,831
1607019180.5198,-641
1607019180.5219,-739
1607019180.5239,-68
1607019180.5259,-38
1607019180.5279,-187
1607019180.5299,-59
1607019180.5319,-11
1607019180.5339,-64
1607019180.5359,-23
1607019180.5379,19
1607019180.5399,9
1607019180.5419,19
1607019180.5439,42
1607019180.5459,52
1607019180.5465,68
1607019180.5479,92
1607019180.5499,109
1607019180.5519,130
1607019180.9880,156
1607019180.9889,178
1607019180.9914,206
1607019180.9940,235
1607019180.9960,259
1607019180.9980,285
1607019181.0000,313
1607019181.0020,330
1607019181.0039,330
1607019181.0046,330
1607019181.0059,325
1607019181.0079,301
1607019181.0100,259
1607019181.0120,194
1607019181.0140,109
1607019181.0160,21
1607019181.0179,-52
1607019181.0199,-106
1607019181.0220,-147
1607019181.0239,-173
1607019181.0259,-178
1607019181.0279,-175
1607019181.0299,-171
1607019181.0319,-163
1607019181.0341,-149
1607019181.0345,-137
1607019181.0360,-128
1607019181.0379,-116
1607019181.0399,-109
1607019181.0420,-102
1607019181.0440,-97
1607019181.0460,-95
1607019181.0479,-90
1607019181.0499,-78
1607019181.0519,-73
1607019181.0539,-73
1607019181.0559,-73
1607019181.0579,-71
1607019181.0599,-68
1607019181.0619,-71
1607019181.0639,-68
1607019181.0645,-61
1607019181.0659,-64
1607019181.0679,-71
1607019181.0699,-66
1607019181.0719,-61
1607019181.0739,-64
1607019181.0759,-64
1607019181.0779,-54
1607019181.0799,-52
1607019181.0819,-52
1607019181.0839,-54
1607019181.0859,-52
1607019181.0879,-45
1607019181.0899,-42
1607019181.0920,-42
1607019181.0939,-42
1607019181.0945,-35
1607019181.0959,-35
1607019181.0979,-40
1607019181.0999,-38
1607019181.1019,-33
1607019181.1039,-35
1607019181.1059,-40
1607019181.1079,-35
1607019181.1099,-30
1607019181.1119,-35
1607019181.1139,-38
1607019181.1159,-35
1607019181.1179,-35
1607019181.1199,-33
1607019181.1219,-30
1607019181.1239,-33
1607019181.5279,-33
1607019181.5289,-28
1607019181.5316,-19
1607019181.5340,-16
1607019181.5360,-23
1607019181.5380,-14
1607019181.5400,16
1607019181.5420,52
1607019181.5439,54
1607019181.5459,28
1607019181.5479,19
1607019181.5499,9
1607019181.5519,-16
1607019181.5539,-30
1607019181.5559,-28
1607019181.5579,-26
1607019181.5585,-23
1607019181.5599,-21
1607019181.5619,-16
1607019181.5639,-14
1607019181.5659,-14
1607019181.5679,-42
1607019181.5699,-123
1607019181.5719,-187
1607019181.5739,-47
1607019181.5759,468
1607019181.5779,1304
1607019181.5799,1689
1607019181.5819,691
1607019181.5838,-686
1607019181.5859,-679
1607019181.5880,-45
1607019181.5885,-47
1607019181.5900,-173
1607019181.5919,-42
1607019181.5939,-9
1607019181.5960,-52
1607019181.5980,-11
1607019181.5999,26
1607019181.6019,21
1607019181.6038,33
1607019181.6058,59
1607019181.6078,66
1607019181.6098,78
1607019181.6119,104
1607019181.6138,128
1607019181.6158,147
1607019181.6178,168
1607019181.6185,190
1607019181.6198,216
1607019181.6218,242
1607019181.6239,268
1607019181.6258,292
1607019181.6280,313
1607019181.6299,330
1607019181.6319,344
1607019181.6338,349
1607019181.6359,344
1607019181.6379,320
1607019181.6399,280
1607019181.6418,218
1607019181.6438,137
1607019181.6458,47
1607019181.6479,-33
1607019181.6486,-97
1607019181.6499,-137
1607019181.6519,-156
1607019181.6539,-166
1607019181.6559,-171
1607019181.6580,-161
1607019181.6599,-149
1607019181.6619,-142
1607019181.6638,-135
1607019182.0983,-123
1607019182.0993,-111
1607019182.1017,-102
1607019182.1044,-97
1607019182.1064,-92
1607019182.1070,-92
1607019182.1084,-97
1607019182.1105,-99
1607019182.1123,-95
