Time,ECG
1605960970.0615,1074
1605960970.0640,3383
1605960970.0666,5507
1605960970.0692,6538
1605960970.0714,7436
1605960970.0735,8471
1605960970.0758,9167
1605960970.0780,9719
1605960970.0792,10307
1605960970.0810,10766
1605960970.0830,11132
1605960970.0850,11511
1605960970.0873,11833
1605960970.0894,12094
1605960970.0915,12353
1605960970.0936,12592
1605960970.0956,12780
1605960970.0976,12934
1605960970.0990,13095
1605960970.1010,13242
1605960970.1030,13347
1605960970.1050,13430
1605960970.1071,13498
1605960970.1090,13566
1605960970.1110,13623
1605960970.1130,13666
1605960970.1150,13725
1605960970.1170,13781
1605960970.1189,13798
1605960970.1209,13803
1605960970.1229,13830
1605960970.1249,13854
1605960970.1270,13862
1605960970.1289,13864
1605960970.1309,13862
1605960970.1329,13854
1605960970.1350,13859
1605960970.1370,13847
1605960970.1389,13823
1605960970.1409,13808
1605960970.1429,13764
1605960970.1449,13723
1605960970.1470,13708
1605960970.1489,13681
1605960970.1509,13627
1605960970.1529,13574
1605960970.1550,13540
1605960970.1570,13500
1605960970.1589,13435
1605960970.1609,13366
1605960970.1632,13322
1605960970.1650,13276
1605960970.1669,13205
1605960970.1688,13151
1605960970.1709,13103
1605960970.1729,13034
1605960970.1749,12956
1605960970.1769,12883
1605960970.1789,12824
1605960970.1808,12763
1605960970.1829,12678
1605960970.1849,12583
1605960970.1869,12492
1605960970.1888,12412
1605960970.1908,12341
1605960970.1928,12272
1605960970.1948,12202
1605960970.1969,12136
1605960970.1988,12072
1605960970.2008,11992
1605960970.2028,11892
1605960970.2048,11794
1605960970.2069,11708
1605960970.6297,11628
1605960970.6309,11550
1605960970.6334,11464
1605960970.6360,11311
1605960970.6381,10988
1605960970.6400,10637
1605960970.6420,10776
1605960970.6440,11479
1605960970.6460,11760
1605960970.6481,11198
1605960970.6500,10727
1605960970.6520,10688
1605960970.6540,10588
1605960970.6560,10419
1605960970.6581,10356
1605960970.6600,10288
1605960970.6620,10178
1605960970.6640,10083
1605960970.6660,9992
1605960970.6680,9909
1605960970.6699,9843
1605960970.6719,9746
1605960970.6740,9633
1605960970.6759,9550
1605960970.6780,9467
1605960970.6800,9372
1605960970.6819,9284
1605960970.6839,9194
1605960970.6862,9091
1605960970.6880,8986
1605960970.6899,8908
1605960970.6919,8835
1605960970.6939,8720
1605960970.6959,8605
1605960970.6980,8527
1605960970.6999,8444
1605960970.7019,8354
1605960970.7039,8281
1605960970.7059,8215
1605960970.7080,8134
1605960970.7099,8071
1605960970.7119,8017
1605960970.7139,7939
1605960970.7159,7866
1605960970.7179,7814
1605960970.7199,7758
1605960970.7219,7705
1605960970.7239,7639
1605960970.7259,7561
1605960970.7280,7507
1605960970.7299,7443
1605960970.7319,7348
1605960970.7339,7263
1605960970.7360,7180
1605960970.7380,7109
1605960970.7399,7053
1605960970.7419,6972
1605960970.7439,6870
1605960970.7459,6796
1605960970.7480,6748
1605960970.7499,6669
1605960970.7519,6579
1605960970.7539,6523
1605960970.7559,6462
1605960970.7579,6372
1605960970.7599,6296
1605960970.7619,6245
1605960970.7639,6188
1605960970.7660,6113
1605960970.7680,6042
1605960970.7699,5988
1605960970.7719,5930
1605960970.7739,5849
1605960971.2581,5781
1605960971.2591,5749
1605960971.2615,5708
1605960971.2641,5629
1605960971.2662,5566
1605960971.2682,5510
1605960971.2705,5437
1605960971.2722,5373
1605960971.2741,5317
1605960971.2761,5266
1605960971.2783,5205
1605960971.2801,5131
1605960971.2822,5075
1605960971.2841,5029
1605960971.2861,4965
1605960971.2881,4904
1605960971.2902,4860
1605960971.2921,4807
1605960971.2941,4746
1605960971.2961,4704
1605960971.2981,4653
1605960971.3001,4577
1605960971.3021,4519
1605960971.3042,4477
1605960971.3061,4426
1605960971.3081,4370
1605960971.3101,4326
1605960971.3121,4299
1605960971.3141,4260
1605960971.3161,4204
1605960971.3181,4167
1605960971.3200,4121
1605960971.3221,4055
1605960971.3241,4003
1605960971.3260,3950
1605960971.3281,3830
1605960971.3301,3566
1605960971.3320,3278
1605960971.3341,3459
1605960971.3361,4199
1605960971.3380,4528
1605960971.3400,3996
1605960971.3420,3571
1605960971.3441,3603
1605960971.3461,3552
1605960971.3482,3430
1605960971.3501,3420
1605960971.3520,3395
1605960971.3541,3339
1605960971.3560,3312
1605960971.3581,3276
1605960971.3601,3227
1605960971.3620,3188
1605960971.3642,3149
1605960971.3661,3103
1605960971.3681,3061
1605960971.3701,3037
1605960971.3722,3000
1605960971.3741,2954
1605960971.3760,2915
1605960971.3782,2871
1605960971.3801,2827
1605960971.3820,2792
1605960971.3840,2746
1605960971.3862,2707
1605960971.3880,2673
1605960971.3901,2634
1605960971.3920,2597
1605960971.3940,2573
1605960971.3960,2546
1605960971.3981,2521
1605960971.4000,2517
1605960971.4021,2497
1605960971.7092,2460
1605960971.7099,2446
1605960971.7123,2453
1605960971.7149,2451
1605960971.7170,2434
1605960971.7189,2419
1605960971.7210,2419
1605960971.7229,2407
1605960971.7249,2365
1605960971.7270,2338
1605960971.7289,2326
1605960971.7309,2292
1605960971.7329,2250
1605960971.7349,2216
1605960971.7369,2192
1605960971.7389,2158
1605960971.7409,2128
1605960971.7429,2114
1605960971.7449,2089
1605960971.7469,2050
1605960971.7489,2019
1605960971.7510,1999
1605960971.7530,1997
1605960971.7549,1977
1605960971.7570,1938
1605960971.7589,1918
1605960971.7609,1909
1605960971.7630,1889
1605960971.7649,1870
1605960971.7670,1860
1605960971.7689,1843
1605960971.7709,1821
1605960971.7729,1809
1605960971.7749,1794
1605960971.7770,1774
1605960971.7791,1755
1605960971.7810,1733
1605960971.7829,1716
1605960971.7849,1706
1605960971.7870,1687
1605960971.7889,1665
1605960971.7909,1647
1605960971.7929,1628
1605960971.7949,1606
1605960971.7970,1591
1605960971.7989,1584
1605960971.8009,1582
1605960971.8029,1567
1605960971.8049,1542
1605960971.8070,1518
1605960971.8089,1484
1605960971.8109,1447
1605960971.8129,1437
1605960971.8149,1445
1605960971.8169,1428
1605960971.8189,1403
1605960971.8209,1403
1605960971.8229,1406
1605960971.8249,1396
1605960971.8269,1389
1605960971.8289,1374
1605960971.8309,1350
1605960971.8329,1320
1605960971.8349,1296
1605960971.8370,1293
1605960971.8389,1225
1605960971.8409,957
1605960971.8429,686
1605960971.8449,988
1605960971.8470,1791
1605960971.8489,2021
1605960971.8509,1467
1605960971.8529,1154
1605960972.2798,1230
1605960972.2808,1169
1605960972.2832,1086
1605960972.2859,1120
1605960972.2879,1118
1605960972.2898,1074
1605960972.2918,1059
1605960972.2938,1052
1605960972.2958,1040
1605960972.2979,1032
1605960972.2998,1010
1605960972.3018,988
1605960972.3038,983
1605960972.3060,976
1605960972.3078,959
1605960972.3097,939
1605960972.3118,932
1605960972.3138,917
1605960972.3158,893
1605960972.3177,883
1605960972.3197,871
1605960972.3217,844
1605960972.3237,820
1605960972.3257,815
1605960972.3278,822
1605960972.3298,812
1605960972.3317,793
1605960972.3337,795
1605960972.3357,803
1605960972.3378,803
1605960972.3397,810
1605960972.3417,810
1605960972.3437,820
1605960972.3457,842
1605960972.3478,854
1605960972.3498,866
1605960972.3517,878
1605960972.3537,878
1605960972.3557,876
1605960972.3578,861
1605960972.3597,847
1605960972.3617,837
1605960972.3637,832
1605960972.3657,827
1605960972.3678,812
1605960972.3697,803
1605960972.3717,791
1605960972.3737,773
1605960972.3757,771
1605960972.3777,761
1605960972.3797,739
1605960972.3817,722
1605960972.3837,727
1605960972.3857,749
1605960972.3878,744
1605960972.3897,717
1605960972.3917,710
1605960972.3937,712
1605960972.3957,717
1605960972.3978,712
1605960972.4053,708
1605960972.4068,708
1605960972.4087,693
1605960972.4107,681
1605960972.4129,678
1605960972.4149,676
1605960972.4168,666
1605960972.4187,664
1605960972.4207,676
1605960972.4227,671
1605960972.4247,651
1605960972.4268,646
1605960972.4287,649
1605960972.8197,639
1605960972.8205,629
1605960972.8229,625
1605960972.8255,615
1605960972.8276,605
1605960972.8295,598
1605960972.8316,588
1605960972.8335,571
1605960972.8355,556
1605960972.8376,554
1605960972.8395,546
1605960972.8415,554
1605960972.8435,571
1605960972.8455,568
1605960972.8475,559
1605960972.8495,561
1605960972.8515,556
1605960972.8535,539
1605960972.8554,532
1605960972.8575,534
1605960972.8595,498
1605960972.8615,310
1605960972.8635,-4
1605960972.8655,12
1605960972.8675,717
1605960972.8695,1337
1605960972.8715,1027
1605960972.8735,520
1605960972.8755,507
1605960972.8775,534
1605960972.8795,424
1605960972.8815,429
1605960972.8835,468
1605960972.8855,432
1605960972.8875,415
1605960972.8895,432
1605960972.8915,429
1605960972.8935,424
1605960972.8956,419
1605960972.8975,412
1605960972.8995,412
1605960972.9015,407
1605960972.9037,400
1605960972.9056,393
1605960972.9075,368
1605960972.9094,341
1605960972.9115,341
1605960972.9135,344
1605960972.9156,332
1605960972.9175,317
1605960972.9195,314
1605960972.9215,305
1605960972.9235,292
1605960972.9255,292
1605960972.9275,283
1605960972.9295,275
1605960972.9315,290
1605960972.9334,312
1605960972.9355,319
1605960972.9375,334
1605960972.9395,354
1605960972.9415,358
1605960972.9435,375
1605960972.9455,410
1605960972.9475,422
1605960972.9495,422
1605960972.9515,434
1605960972.9535,446
1605960972.9555,441
1605960972.9575,424
1605960972.9595,422
1605960972.9615,427
1605960972.9635,410
1605960973.4199,393
1605960973.4206,395
1605960973.4231,393
1605960973.4257,373
1605960973.4277,358
1605960973.4296,361
1605960973.4318,358
1605960973.4336,341
1605960973.4356,334
1605960973.4377,344
1605960973.4396,356
1605960973.4416,363
1605960973.4436,358
1605960973.4456,351
1605960973.4477,356
1605960973.4496,351
1605960973.4516,341
1605960973.4536,339
1605960973.4556,349
1605960973.4577,351
1605960973.4598,341
1605960973.4617,346
1605960973.4636,351
1605960973.4656,346
1605960973.4676,351
1605960973.4696,356
1605960973.4716,346
1605960973.4736,341
1605960973.4756,336
1605960973.4776,327
1605960973.4797,322
1605960973.4816,317
1605960973.4836,312
1605960973.4856,317
1605960973.4877,322
1605960973.4896,317
1605960973.4916,319
1605960973.4936,334
1605960973.4956,336
1605960973.4977,336
1605960973.4996,327
1605960973.5016,310
1605960973.5036,305
1605960973.5057,295
1605960973.5076,239
1605960973.5096,26
1605960973.5116,-273
1605960973.5136,-102
1605960973.5156,722
1605960973.5177,1154
1605960973.5196,639
1605960973.5216,241
1605960973.5236,346
1605960973.5256,322
1605960973.5276,214
1605960973.5296,249
1605960973.5316,256
1605960973.5336,229
1605960973.5356,249
1605960973.5377,244
1605960973.5396,219
1605960973.5416,222
1605960973.5436,219
1605960973.5456,212
1605960973.5476,212
1605960973.5496,209
1605960973.5516,195
1605960973.5536,190
1605960973.5556,187
1605960973.5577,178
1605960973.5596,161
1605960973.5618,156
1605960973.5637,151
1605960974.0198,136
1605960974.0207,112
1605960974.0232,97
1605960974.0258,109
1605960974.0278,124
1605960974.0297,122
1605960974.0318,114
1605960974.0337,122
1605960974.0357,136
1605960974.0377,146
1605960974.0397,156
1605960974.0417,178
1605960974.0437,212
1605960974.0457,244
1605960974.0477,256
1605960974.0497,268
1605960974.0517,280
1605960974.0537,273
1605960974.0556,285
1605960974.0576,319
1605960974.0597,302
1605960974.0616,273
1605960974.0636,268
1605960974.0656,266
1605960974.0677,270
1605960974.0697,268
1605960974.0716,244
1605960974.0737,227
1605960974.0756,236
1605960974.0777,249
1605960974.0796,236
1605960974.0817,231
1605960974.0836,244
1605960974.0856,234
1605960974.0877,227
1605960974.0896,239
1605960974.0916,219
1605960974.0937,192
1605960974.0956,222
1605960974.0977,239
1605960974.0996,219
1605960974.1017,236
1605960974.1036,256
1605960974.1057,234
1605960974.1077,224
1605960974.1096,241
1605960974.1116,246
1605960974.1136,244
1605960974.1156,236
1605960974.1179,200
1605960974.1197,192
1605960974.1216,227
1605960974.1236,227
1605960974.1256,207
1605960974.1277,222
1605960974.1297,231
1605960974.1316,207
1605960974.1336,202
1605960974.1356,214
1605960974.1377,202
1605960974.1396,197
1605960974.1417,202
1605960974.1437,168
1605960974.1456,34
1605960974.1477,-261
1605960974.1497,-395
1605960974.1516,166
1605960974.1537,930
1605960974.1556,803
1605960974.1577,219
1605960974.1597,158
1605960974.1616,258
1605960974.1636,136
1605960974.5292,92
1605960974.5302,136
1605960974.5327,114
1605960974.5353,97
1605960974.5373,119
1605960974.5392,119
1605960974.5412,107
1605960974.5432,112
1605960974.5452,156
1605960974.5472,175
1605960974.5492,112
1605960974.5514,51
1605960974.5532,46
1605960974.5552,41
1605960974.5572,26
1605960974.5591,26
1605960974.5611,36
1605960974.5631,31
1605960974.5652,19
1605960974.5672,9
1605960974.5691,0
1605960974.5712,7
1605960974.5732,31
1605960974.5751,46
1605960974.5772,46
1605960974.5792,46
1605960974.5799,65
1605960974.5823,90
1605960974.5842,114
1605960974.5861,144
1605960974.5881,156
1605960974.5902,173
1605960974.5922,200
1605960974.5941,234
1605960974.5961,273
1605960974.5982,253
1605960974.6001,190
1605960974.6021,207
1605960974.6042,263
1605960974.6061,278
1605960974.6082,275
1605960974.6101,261
1605960974.6108,205
1605960974.6121,170
1605960974.6141,185
1605960974.6162,205
1605960974.6182,200
1605960974.6202,190
1605960974.6222,185
1605960974.6241,183
1605960974.6262,190
1605960974.6282,207
1605960974.6302,219
1605960974.6321,234
1605960974.6342,231
1605960974.6361,192
1605960974.6382,148
1605960974.6402,141
1605960974.6408,175
1605960974.6421,209
1605960974.6441,212
1605960974.6461,217
1605960974.6481,234
1605960974.6501,239
1605960974.6522,222
1605960974.6541,202
1605960974.6561,207
1605960974.6582,214
1605960974.6601,209
1605960974.6621,214
1605960974.6642,222
1605960974.6662,234
1605960974.6682,246
1605960975.0992,234
1605960975.1002,219
1605960975.1026,217
1605960975.1053,202
1605960975.1073,197
1605960975.1094,209
1605960975.1114,156
1605960975.1132,-102
1605960975.1152,-454
1605960975.1172,-268
1605960975.1191,644
1605960975.1211,1096
1605960975.1231,529
1605960975.1251,129
1605960975.1258,246
1605960975.1281,209
1605960975.1301,114
1605960975.1321,170
1605960975.1342,173
1605960975.1362,119
1605960975.1382,117
1605960975.1401,129
1605960975.1421,131
1605960975.1441,129
1605960975.1461,126
1605960975.1482,129
1605960975.1501,134
1605960975.1521,124
1605960975.1542,107
1605960975.1561,100
1605960975.1569,95
1605960975.1581,83
1605960975.1601,65
1605960975.1621,70
1605960975.1641,70
1605960975.1661,53
1605960975.1681,41
1605960975.1701,46
1605960975.1721,46
1605960975.1741,31
1605960975.1761,21
1605960975.1782,58
1605960975.1801,109
1605960975.1821,136
1605960975.1841,146
1605960975.1861,144
1605960975.1869,151
1605960975.1881,175
1605960975.1901,202
1605960975.1922,231
1605960975.1941,253
1605960975.1961,268
1605960975.1982,266
1605960975.2001,227
1605960975.2021,222
1605960975.2041,285
1605960975.2063,290
1605960975.2082,227
1605960975.2101,200
1605960975.2121,222
1605960975.2141,249
1605960975.2161,270
1605960975.2169,249
1605960975.2181,205
1605960975.2202,202
1605960975.2221,202
1605960975.2241,175
1605960975.2261,183
1605960975.2282,195
1605960975.2301,141
1605960975.2321,136
1605960975.2341,249
1605960975.2361,329
1605960975.6398,283
1605960975.6405,224
1605960975.6422,217
1605960975.6446,219
1605960975.6465,219
1605960975.6485,224
1605960975.6505,207
1605960975.6526,183
1605960975.6545,153
1605960975.6565,141
1605960975.6585,195
1605960975.6605,229
1605960975.6625,202
1605960975.6645,185
1605960975.6665,180
1605960975.6685,168
1605960975.6705,158
1605960975.6725,139
1605960975.6732,122
1605960975.6745,170
1605960975.6765,239
1605960975.6785,170
1605960975.6805,83
1605960975.6825,36
1605960975.6845,-229
1605960975.6865,-490
1605960975.6886,7
1605960975.6905,895
1605960975.6925,883
1605960975.6945,246
1605960975.6965,122
1605960975.6985,251
1605960975.7005,131
1605960975.7025,65
1605960975.7034,134
1605960975.7055,124
1605960975.7075,97
1605960975.7095,126
1605960975.7115,129
1605960975.7135,104
1605960975.7155,104
1605960975.7175,112
1605960975.7195,100
1605960975.7215,95
1605960975.7235,97
1605960975.7255,92
1605960975.7275,80
1605960975.7295,70
1605960975.7315,61
1605960975.7335,51
1605960975.7342,29
1605960975.7355,17
1605960975.7375,24
1605960975.7395,36
1605960975.7415,39
1605960975.7435,31
1605960975.7455,17
1605960975.7475,12
1605960975.7495,26
1605960975.7515,61
1605960975.7535,78
1605960975.7555,80
1605960975.7575,119
1605960975.7595,161
1605960975.7615,158
1605960975.7636,158
1605960975.7642,178
1605960975.7655,187
1605960975.7676,202
1605960975.7695,224
1605960975.7715,214
1605960975.7735,205
1605960975.7755,224
1605960976.1797,227
1605960976.1806,197
1605960976.1831,183
1605960976.1857,170
1605960976.1877,163
1605960976.1896,156
1605960976.1916,139
1605960976.1936,139
1605960976.1956,144
1605960976.1977,134
1605960976.1996,136
1605960976.2016,151
1605960976.2039,151
1605960976.2056,146
1605960976.2077,144
1605960976.2096,151
1605960976.2116,156
1605960976.2136,163
1605960976.2156,163
1605960976.2177,161
1605960976.2196,175
1605960976.2216,180
1605960976.2236,166
1605960976.2256,153
1605960976.2276,144
1605960976.2296,134
1605960976.2316,129
1605960976.2336,136
1605960976.2357,151
1605960976.2376,161
1605960976.2396,163
1605960976.2416,166
1605960976.2435,161
1605960976.2456,156
1605960976.2476,148
1605960976.2496,146
1605960976.2516,144
1605960976.2536,141
1605960976.2556,61
1605960976.2576,-231
1605960976.2596,-520
1605960976.2616,-146
1605960976.2636,729
1605960976.2656,891
1605960976.2676,300
1605960976.2696,80
1605960976.2715,197
1605960976.2736,117
1605960976.2756,65
1605960976.2776,141
1605960976.2796,136
1605960976.2816,87
1605960976.2837,83
1605960976.2857,95
1605960976.2877,90
1605960976.2897,80
1605960976.2916,87
1605960976.2936,92
1605960976.2956,83
1605960976.2976,78
1605960976.2996,73
1605960976.3016,58
1605960976.3036,48
1605960976.3057,41
1605960976.3077,31
1605960976.3096,19
1605960976.3116,7
1605960976.3136,2
1605960976.3156,-2
1605960976.3176,-9
1605960976.3196,-17
1605960976.3215,-19
1605960976.3236,-14
1605960976.7799,-4
1605960976.7808,17
1605960976.7833,34
1605960976.7859,39
1605960976.7880,63
1605960976.7899,90
1605960976.7920,107
1605960976.7939,148
1605960976.7959,185
1605960976.7979,185
1605960976.7998,180
1605960976.8019,183
1605960976.8038,180
1605960976.8058,175
1605960976.8079,173
1605960976.8099,178
1605960976.8119,180
1605960976.8138,163
1605960976.8158,141
1605960976.8178,144
1605960976.8199,161
1605960976.8218,163
1605960976.8238,156
1605960976.8258,148
1605960976.8278,144
1605960976.8298,144
1605960976.8318,136
1605960976.8338,131
1605960976.8358,144
1605960976.8378,153
1605960976.8398,151
1605960976.8418,153
1605960976.8438,158
1605960976.8458,161
1605960976.8479,166
1605960976.8498,168
1605960976.8518,161
1605960976.8538,144
1605960976.8558,134
1605960976.8578,129
1605960976.8598,126
1605960976.8620,131
1605960976.8639,141
1605960976.8658,163
1605960976.8678,170
1605960976.8698,153
1605960976.8718,151
1605960976.8738,170
1605960976.8758,175
1605960976.8778,151
1605960976.8798,131
1605960976.8818,144
1605960976.8839,53
1605960976.8859,-266
1605960976.8878,-490
1605960976.8898,-26
1605960976.8918,803
1605960976.8938,822
1605960976.8958,209
1605960976.8978,70
1605960976.8998,212
1605960976.9018,124
1605960976.9038,58
1605960976.9059,114
1605960976.9079,112
1605960976.9099,83
1605960976.9118,87
1605960976.9138,95
1605960976.9158,90
1605960976.9179,90
1605960976.9198,83
1605960976.9218,80
1605960976.9238,78
1605960977.3496,63
1605960977.3506,56
1605960977.3530,53
1605960977.3556,41
1605960977.3577,29
1605960977.3596,21
1605960977.3617,17
1605960977.3637,7
1605960977.3656,-17
1605960977.3677,-26
1605960977.3696,-24
1605960977.3716,-34
1605960977.3736,-34
1605960977.3756,-19
1605960977.3776,-7
1605960977.3796,4
1605960977.3816,17
1605960977.3836,31
1605960977.3856,56
1605960977.3878,90
1605960977.3896,117
1605960977.3915,131
1605960977.3936,146
1605960977.3956,158
1605960977.3976,161
1605960977.3996,175
1605960977.4016,183
1605960977.4036,168
1605960977.4056,158
1605960977.4076,168
1605960977.4096,163
1605960977.4115,151
1605960977.4135,156
1605960977.4155,158
1605960977.4176,148
1605960977.4195,144
1605960977.4215,146
1605960977.4236,148
1605960977.4256,153
1605960977.4276,151
1605960977.4295,146
1605960977.4315,144
1605960977.4336,146
1605960977.4355,153
1605960977.4376,151
1605960977.4395,153
1605960977.4415,163
1605960977.4435,166
1605960977.4455,161
1605960977.4476,141
1605960977.4495,122
1605960977.4515,122
1605960977.4535,122
1605960977.4555,122
1605960977.4575,139
1605960977.4595,163
1605960977.4615,173
1605960977.4635,158
1605960977.4655,141
1605960977.4676,139
1605960977.4696,144
1605960977.4716,153
1605960977.4735,151
1605960977.4755,146
1605960977.4776,90
1605960977.4795,-161
1605960977.4816,-480
1605960977.4835,-246
1605960977.4855,595
1605960977.4876,908
1605960977.4897,358
1605960977.4916,46
1605960977.4936,180
1605960977.8897,153
1605960977.8904,70
1605960977.8928,114
1605960977.8954,112
1605960977.8975,70
1605960977.8994,80
1605960977.9015,83
1605960977.9034,70
1605960977.9054,61
1605960977.9075,48
1605960977.9094,56
1605960977.9114,63
1605960977.9135,46
1605960977.9154,29
1605960977.9175,24
1605960977.9194,24
1605960977.9214,24
1605960977.9234,21
1605960977.9254,2
1605960977.9274,-19
1605960977.9294,-24
1605960977.9314,-26
1605960977.9334,-31
1605960977.9355,-31
1605960977.9375,-19
1605960977.9394,0
1605960977.9414,7
1605960977.9434,7
1605960977.9454,21
1605960977.9474,48
1605960977.9494,68
1605960977.9514,78
1605960977.9534,92
1605960977.9554,112
1605960977.9574,131
1605960977.9594,153
1605960977.9614,161
1605960977.9634,151
1605960977.9654,148
1605960977.9674,156
1605960977.9694,153
1605960977.9714,139
1605960977.9735,134
1605960977.9754,141
1605960977.9774,136
1605960977.9794,129
1605960977.9814,131
1605960977.9834,134
1605960977.9856,134
1605960977.9875,129
1605960977.9894,126
1605960977.9913,129
1605960977.9934,126
1605960977.9954,126
1605960977.9974,129
1605960977.9994,129
1605960978.0014,134
1605960978.0034,131
1605960978.0054,126
1605960978.0074,124
1605960978.0094,139
1605960978.0114,161
1605960978.0134,158
1605960978.0154,136
1605960978.0174,114
1605960978.0194,107
1605960978.0214,119
1605960978.0234,114
1605960978.0254,104
1605960978.0274,119
1605960978.0294,129
1605960978.0314,129
1605960978.0334,126
1605960978.4597,124
1605960978.4606,124
1605960978.4633,114
1605960978.4657,112
1605960978.4677,129
1605960978.4696,124
1605960978.4716,-29
1605960978.4736,-380
1605960978.4756,-512
1605960978.4777,109
1605960978.4796,866
1605960978.4816,690
1605960978.4836,122
1605960978.4856,78
1605960978.4876,168
1605960978.4896,63
1605960978.4916,43
1605960978.4936,95
1605960978.4956,68
1605960978.4976,51
1605960978.4996,73
1605960978.5016,68
1605960978.5036,56
1605960978.5056,53
1605960978.5076,53
1605960978.5096,53
1605960978.5117,43
1605960978.5136,34
1605960978.5156,31
1605960978.5176,36
1605960978.5196,26
1605960978.5216,7
1605960978.5236,-4
1605960978.5256,-9
1605960978.5276,-21
1605960978.5296,-29
1605960978.5316,-26
1605960978.5336,-29
1605960978.5356,-34
1605960978.5376,-26
1605960978.5396,-9
1605960978.5416,2
1605960978.5436,12
1605960978.5457,21
1605960978.5477,34
1605960978.5496,61
1605960978.5516,80
1605960978.5536,97
1605960978.5556,114
1605960978.5576,124
1605960978.5596,131
1605960978.5615,136
1605960978.5635,141
1605960978.5656,139
1605960978.5676,129
1605960978.5696,126
1605960978.5716,136
1605960978.5736,136
1605960978.5756,129
1605960978.5776,129
1605960978.5796,122
1605960978.5816,117
1605960978.5836,112
1605960978.5856,102
1605960978.5876,100
1605960978.5896,100
1605960978.5916,97
1605960978.5936,100
1605960978.5956,102
1605960978.5976,102
1605960978.5996,104
1605960978.6016,126
1605960978.6036,136
1605960978.9993,124
1605960979.0002,124
1605960979.0027,131
1605960979.0053,126
1605960979.0075,117
1605960979.0093,119
1605960979.0113,122
1605960979.0132,119
1605960979.0152,122
1605960979.0173,124
1605960979.0192,107
1605960979.0212,85
1605960979.0232,78
1605960979.0253,85
1605960979.0273,92
1605960979.0292,97
1605960979.0312,109
1605960979.0332,117
1605960979.0352,122
1605960979.0373,124
1605960979.0392,119
1605960979.0412,112
1605960979.0432,104
1605960979.0452,97
1605960979.0472,104
1605960979.0492,73
1605960979.0512,-134
1605960979.0532,-461
1605960979.0552,-412
1605960979.0572,339
1605960979.0592,932
1605960979.0612,568
1605960979.0632,80
1605960979.0652,109
1605960979.0672,144
1605960979.0692,46
1605960979.0712,51
1605960979.0732,85
1605960979.0752,61
1605960979.0772,53
1605960979.0792,65
1605960979.0812,61
1605960979.0832,46
1605960979.0852,43
1605960979.0873,43
1605960979.0892,41
1605960979.0913,31
1605960979.0932,26
1605960979.0952,24
1605960979.0972,14
1605960979.0992,7
1605960979.1013,0
1605960979.1032,-12
1605960979.1052,-21
1605960979.1072,-26
1605960979.1093,-26
1605960979.1112,-24
1605960979.1132,-26
1605960979.1152,-29
1605960979.1172,-24
1605960979.1192,-7
1605960979.1212,2
1605960979.1232,4
1605960979.1252,21
1605960979.1272,36
1605960979.1292,46
1605960979.1312,70
1605960979.1332,97
1605960979.1352,109
1605960979.1372,114
1605960979.1392,122
1605960979.1412,134
1605960979.1432,134
1605960979.5697,131
1605960979.5706,131
1605960979.5720,124
1605960979.5740,124
1605960979.5760,122
1605960979.5779,104
1605960979.5799,92
1605960979.5819,92
1605960979.5839,92
1605960979.5859,92
1605960979.5880,90
1605960979.5899,95
1605960979.5920,95
1605960979.5939,97
1605960979.5959,102
1605960979.5979,104
1605960979.5999,104
1605960979.6019,107
1605960979.6039,109
1605960979.6059,114
1605960979.6079,114
1605960979.6099,114
1605960979.6119,112
1605960979.6139,112
1605960979.6159,107
1605960979.6179,104
1605960979.6199,112
1605960979.6219,117
1605960979.6239,107
1605960979.6259,104
1605960979.6279,114
1605960979.6299,122
1605960979.6319,134
1605960979.6341,141
1605960979.6359,117
1605960979.6379,80
1605960979.6399,78
1605960979.6419,87
1605960979.6440,87
1605960979.6459,92
1605960979.6479,102
1605960979.6499,112
1605960979.6519,119
1605960979.6539,114
1605960979.6559,109
1605960979.6579,104
1605960979.6599,90
1605960979.6619,85
1605960979.6639,90
1605960979.6659,26
1605960979.6679,-224
1605960979.6699,-515
1605960979.6719,-280
1605960979.6739,541
1605960979.6759,891
1605960979.6779,375
1605960979.6799,26
1605960979.6819,126
1605960979.6839,104
1605960979.6859,9
1605960979.6879,43
1605960979.6899,58
1605960979.6919,29
1605960979.6939,39
1605960979.6959,51
1605960979.6979,31
1605960979.6999,21
1605960979.7019,24
1605960979.7040,21
1605960979.7059,14
1605960979.7079,12
1605960979.7099,12
1605960979.7119,4
1605960980.1704,-9
1605960980.1713,-24
1605960980.1737,-29
1605960980.1764,-31
1605960980.1784,-43
1605960980.1804,-58
1605960980.1824,-75
1605960980.1843,-83
1605960980.1864,-65
1605960980.1883,-51
1605960980.1903,-48
1605960980.1925,-41
1605960980.1944,-36
1605960980.1965,-26
1605960980.1984,2
1605960980.2005,24
1605960980.2024,29
1605960980.2044,46
1605960980.2063,70
1605960980.2083,87
1605960980.2104,100
1605960980.2123,114
1605960980.2143,129
1605960980.2163,131
1605960980.2183,129
1605960980.2202,119
1605960980.2223,107
1605960980.2242,104
1605960980.2262,112
1605960980.2282,117
1605960980.2302,109
1605960980.2322,102
1605960980.2342,100
1605960980.2363,97
1605960980.2383,92
1605960980.2402,90
1605960980.2423,92
1605960980.2442,95
1605960980.2462,95
1605960980.2482,97
1605960980.2502,95
1605960980.2522,100
1605960980.2542,109
1605960980.2562,107
1605960980.2582,104
1605960980.2603,104
1605960980.2623,107
1605960980.2643,109
1605960980.2662,109
1605960980.2682,107
1605960980.2702,104
1605960980.2722,104
1605960980.2742,107
1605960980.2762,107
1605960980.2783,109
1605960980.2802,122
1605960980.2822,124
1605960980.2842,117
1605960980.2862,95
1605960980.2883,80
1605960980.2903,85
1605960980.2923,85
1605960980.2944,83
1605960980.2963,95
1605960980.2982,107
1605960980.3002,109
1605960980.3022,112
1605960980.3042,114
1605960980.3062,109
1605960980.3082,100
1605960980.3102,102
1605960980.3122,102
1605960980.3143,83
1605960980.7094,-36
1605960980.7102,-339
1605960980.7126,-512
1605960980.7152,-7
1605960980.7173,798
1605960980.7192,793
1605960980.7212,200
1605960980.7232,43
1605960980.7252,141
1605960980.7272,53
1605960980.7292,4
1605960980.7312,46
1605960980.7332,34
1605960980.7352,21
1605960980.7372,31
1605960980.7391,24
1605960980.7412,19
1605960980.7431,21
1605960980.7452,19
1605960980.7472,7
1605960980.7491,4
1605960980.7511,17
1605960980.7531,9
1605960980.7551,-4
1605960980.7572,-4
1605960980.7591,-7
1605960980.7612,-21
1605960980.7631,-31
1605960980.7651,-36
1605960980.7672,-43
1605960980.7692,-46
1605960980.7711,-48
1605960980.7731,-48
1605960980.7751,-46
1605960980.7772,-36
1605960980.7791,-19
1605960980.7811,-2
1605960980.7832,7
1605960980.7851,14
1605960980.7872,31
1605960980.7893,53
1605960980.7912,80
1605960980.7932,97
1605960980.7952,114
1605960980.7972,134
1605960980.7993,139
1605960980.8011,144
1605960980.8032,153
1605960980.8052,144
1605960980.8058,136
1605960980.8072,131
1605960980.8091,124
1605960980.8111,122
1605960980.8131,122
1605960980.8151,114
1605960980.8172,107
1605960980.8192,109
1605960980.8211,112
1605960980.8231,112
1605960980.8251,112
1605960980.8272,107
1605960980.8291,102
1605960980.8312,100
1605960980.8331,104
1605960980.8351,112
1605960980.8358,114
1605960980.8372,119
1605960980.8391,124
1605960980.8411,124
1605960980.8431,114
1605960980.8451,124
1605960980.8472,131
1605960980.8491,124
1605960981.3097,122
1605960981.3106,119
1605960981.3130,117
1605960981.3147,119
1605960981.3167,119
1605960981.3186,122
1605960981.3207,129
1605960981.3213,131
1605960981.3226,117
1605960981.3246,90
1605960981.3267,73
1605960981.3286,75
1605960981.3306,80
1605960981.3326,78
1605960981.3347,78
1605960981.3366,92
1605960981.3386,104
1605960981.3406,102
1605960981.3428,95
1605960981.3447,85
1605960981.3469,78
1605960981.3487,83
1605960981.3507,87
1605960981.3513,85
1605960981.3526,9
1605960981.3546,-253
1605960981.3567,-534
1605960981.3586,-258
1605960981.3606,568
1605960981.3626,864
1605960981.3646,329
1605960981.3667,17
1605960981.3686,119
1605960981.3706,78
1605960981.3726,-4
1605960981.3746,43
1605960981.3766,58
1605960981.3786,24
1605960981.3806,29
1605960981.3813,41
1605960981.3826,31
1605960981.3846,29
1605960981.3867,26
1605960981.3886,19
1605960981.3906,19
1605960981.3926,21
1605960981.3946,17
1605960981.3967,4
1605960981.3986,0
1605960981.4006,-2
1605960981.4026,-14
1605960981.4046,-29
1605960981.4066,-31
1605960981.4086,-36
1605960981.4106,-46
1605960981.4113,-51
1605960981.4126,-48
1605960981.4146,-39
1605960981.4167,-29
1605960981.4186,-19
1605960981.4206,-4
1605960981.4227,4
1605960981.4246,17
1605960981.4266,36
1605960981.4286,63
1605960981.4306,85
1605960981.4326,95
1605960981.4346,104
1605960981.4367,124
1605960981.4388,134
1605960981.4406,136
1605960981.4413,139
1605960981.4426,139
1605960981.8194,136
1605960981.8200,131
1605960981.8224,124
1605960981.8251,119
1605960981.8271,117
1605960981.8290,114
1605960981.8311,104
1605960981.8330,102
1605960981.8350,107
1605960981.8371,102
1605960981.8378,97
1605960981.8391,100
1605960981.8410,100
1605960981.8430,92
1605960981.8450,90
1605960981.8471,97
1605960981.8490,97
1605960981.8510,97
1605960981.8530,100
1605960981.8550,102
1605960981.8571,102
1605960981.8590,100
1605960981.8610,95
1605960981.8630,90
1605960981.8650,87
1605960981.8671,90
1605960981.8677,97
1605960981.8691,100
1605960981.8710,97
1605960981.8730,90
1605960981.8750,87
1605960981.8771,95
1605960981.8790,107
1605960981.8810,104
1605960981.8831,85
1605960981.8850,58
1605960981.8870,53
1605960981.8890,63
1605960981.8910,61
1605960981.8930,63
1605960981.8950,75
1605960981.8971,85
1605960981.8977,85
1605960981.8990,83
1605960981.9010,83
1605960981.9030,80
1605960981.9050,78
1605960981.9073,75
1605960981.9091,70
1605960981.9110,51
1605960981.9130,-97
1605960981.9150,-412
1605960981.9171,-483
1605960981.9190,148
1605960981.9210,844
1605960981.9230,637
1605960981.9250,102
1605960981.9271,63
1605960981.9277,124
1605960981.9290,21
1605960981.9310,12
1605960981.9330,61
1605960981.9350,39
1605960981.9371,19
1605960981.9390,39
1605960981.9410,39
1605960981.9431,24
1605960981.9450,26
1605960981.9471,31
1605960981.9490,24
1605960981.9511,21
1605960981.9530,17
1605960981.9550,4
1605960982.3596,-4
1605960982.3605,-14
1605960982.3629,-24
1605960982.3656,-26
1605960982.3676,-26
1605960982.3695,-39
1605960982.3717,-53
1605960982.3735,-61
1605960982.3755,-70
1605960982.3776,-65
1605960982.3795,-53
1605960982.3815,-51
1605960982.3835,-46
1605960982.3855,-26
1605960982.3875,-4
1605960982.3895,12
1605960982.3902,24
1605960982.3915,46
1605960982.3935,73
1605960982.3956,85
1605960982.3975,95
1605960982.3995,109
1605960982.4015,114
1605960982.4035,119
1605960982.4055,119
1605960982.4077,124
1605960982.4095,124
1605960982.4115,117
1605960982.4135,114
1605960982.4155,109
1605960982.4175,97
1605960982.4195,87
1605960982.4203,90
1605960982.4216,90
1605960982.4235,85
1605960982.4255,87
1605960982.4275,90
1605960982.4295,85
1605960982.4315,85
1605960982.4335,92
1605960982.4355,97
1605960982.4375,102
1605960982.4395,95
1605960982.4415,92
1605960982.4435,97
1605960982.4455,100
1605960982.4475,100
1605960982.4495,97
1605960982.4515,95
1605960982.4535,95
1605960982.4555,100
1605960982.4575,107
1605960982.4595,100
1605960982.4615,85
1605960982.4635,85
1605960982.4655,87
1605960982.4675,80
1605960982.4695,78
1605960982.4715,78
1605960982.4735,87
1605960982.4755,97
1605960982.4775,78
1605960982.4795,56
1605960982.4815,56
1605960982.4835,58
1605960982.4855,53
1605960982.4875,56
1605960982.4895,70
1605960982.4915,80
1605960982.4935,85
1605960982.4955,85
1605960982.4975,80
1605960982.4995,83
1605960982.9295,80
1605960982.9304,75
1605960982.9329,70
1605960982.9358,-21
1605960982.9376,-310
1605960982.9395,-556
1605960982.9416,-195
1605960982.9435,627
1605960982.9455,808
1605960982.9476,251
1605960982.9495,0
1605960982.9515,100
1605960982.9535,53
1605960982.9555,-9
1605960982.9575,34
1605960982.9595,36
1605960982.9615,4
1605960982.9635,14
1605960982.9655,26
1605960982.9675,14
1605960982.9694,7
1605960982.9714,14
1605960982.9735,12
1605960982.9754,7
1605960982.9775,4
1605960982.9794,-2
1605960982.9814,-9
1605960982.9834,-17
1605960982.9854,-26
1605960982.9875,-36
1605960982.9894,-39
1605960982.9914,-46
1605960982.9934,-53
1605960982.9954,-58
1605960982.9975,-63
1605960982.9994,-61
1605960983.0014,-51
1605960983.0034,-41
1605960983.0054,-34
1605960983.0076,-24
1605960983.0094,-9
1605960983.0114,7
1605960983.0134,19
1605960983.0154,36
1605960983.0175,61
1605960983.0194,80
1605960983.0214,97
1605960983.0234,109
1605960983.0254,119
1605960983.0275,131
1605960983.0294,134
1605960983.0314,122
1605960983.0334,114
1605960983.0355,112
1605960983.0376,112
1605960983.0395,109
1605960983.0414,102
1605960983.0434,90
1605960983.0454,85
1605960983.0475,85
1605960983.0494,83
1605960983.0514,85
1605960983.0534,92
1605960983.0554,95
1605960983.0575,87
1605960983.0594,83
1605960983.0614,85
1605960983.0634,87
1605960983.0654,87
1605960983.0675,85
1605960983.0694,80
1605960983.0714,80
1605960983.0734,90
1605960983.5288,90
1605960983.5298,83
1605960983.5322,80
1605960983.5348,80
1605960983.5369,80
1605960983.5388,68
1605960983.5409,56
1605960983.5428,58
1605960983.5448,63
1605960983.5469,63
1605960983.5488,65
1605960983.5508,73
1605960983.5528,78
1605960983.5548,73
1605960983.5569,53
1605960983.5588,34
1605960983.5608,29
1605960983.5628,41
1605960983.5648,43
1605960983.5668,46
1605960983.5688,58
1605960983.5708,63
1605960983.5728,68
1605960983.5748,73
1605960983.5768,70
1605960983.5787,73
1605960983.5807,68
1605960983.5827,58
1605960983.5847,58
1605960983.5868,12
1605960983.5887,-217
1605960983.5907,-515
1605960983.5929,-317
1605960983.5948,488
1605960983.5968,874
1605960983.5987,383
1605960983.6008,14
1605960983.6027,97
1605960983.6047,83
1605960983.6068,-7
1605960983.6088,29
1605960983.6107,48
1605960983.6127,17
1605960983.6147,21
1605960983.6168,26
1605960983.6187,12
1605960983.6207,19
1605960983.6227,29
1605960983.6247,17
1605960983.6268,7
1605960983.6287,4
1605960983.6307,-2
1605960983.6327,-14
1605960983.6347,-14
1605960983.6368,-17
1605960983.6387,-34
1605960983.6407,-46
1605960983.6427,-48
1605960983.6447,-48
1605960983.6467,-48
1605960983.6487,-58
1605960983.6507,-68
1605960983.6527,-70
1605960983.6547,-70
1605960983.6568,-58
1605960983.6587,-41
1605960983.6607,-21
1605960983.6627,-9
1605960983.6647,0
1605960983.6668,24
1605960983.6687,46
1605960983.6707,63
1605960983.6727,80
1605960984.0698,97
1605960984.0707,112
1605960984.0732,119
1605960984.0759,117
1605960984.0777,112
1605960984.0797,114
1605960984.0817,114
1605960984.0837,100
1605960984.0857,87
1605960984.0877,85
1605960984.0899,78
1605960984.0917,68
1605960984.0937,68
1605960984.0957,65
1605960984.0978,58
1605960984.0997,58
1605960984.1017,58
1605960984.1037,58
1605960984.1057,58
1605960984.1077,63
1605960984.1097,65
1605960984.1117,63
1605960984.1137,63
1605960984.1157,68
1605960984.1177,78
1605960984.1197,80
1605960984.1217,70
1605960984.1237,75
1605960984.1257,83
1605960984.1277,78
1605960984.1297,70
1605960984.1317,68
1605960984.1337,68
1605960984.1357,61
1605960984.1377,61
1605960984.1397,70
1605960984.1417,73
1605960984.1437,65
1605960984.1457,73
1605960984.1477,75
1605960984.1498,63
1605960984.1517,43
1605960984.1537,36
1605960984.1557,41
1605960984.1577,39
1605960984.1596,34
1605960984.1617,51
1605960984.1637,65
1605960984.1657,68
1605960984.1677,63
1605960984.1697,63
1605960984.1716,68
1605960984.1737,65
1605960984.1757,61
1605960984.1777,56
1605960984.1797,41
1605960984.1817,-90
1605960984.1837,-410
1605960984.1856,-546
1605960984.1877,29
1605960984.1897,805
1605960984.1918,698
1605960984.1937,117
1605960984.1956,24
1605960984.1977,114
1605960984.1997,19
1605960984.2017,-2
1605960984.2037,46
1605960984.2057,17
1605960984.2077,-2
1605960984.2097,17
1605960984.2116,14
1605960984.2137,-2
1605960984.6395,4
1605960984.6404,14
1605960984.6429,2
1605960984.6455,-9
1605960984.6476,-4
1605960984.6495,-7
1605960984.6515,-19
1605960984.6535,-34
1605960984.6555,-56
1605960984.6575,-61
1605960984.6595,-53
1605960984.6615,-68
1605960984.6635,-87
1605960984.6655,-87
1605960984.6675,-80
1605960984.6694,-83
1605960984.6714,-83
1605960984.6734,-73
1605960984.6755,-65
1605960984.6775,-56
1605960984.6794,-36
1605960984.6814,-17
1605960984.6834,2
1605960984.6854,31
1605960984.6874,53
1605960984.6894,70
1605960984.6914,97
1605960984.6934,124
1605960984.6955,126
1605960984.6975,124
1605960984.6994,134
1605960984.7014,126
1605960984.7034,114
1605960984.7054,122
1605960984.7075,126
1605960984.7095,112
1605960984.7116,100
1605960984.7135,100
1605960984.7154,95
1605960984.7177,85
1605960984.7195,85
1605960984.7214,83
1605960984.7234,78
1605960984.7254,78
1605960984.7275,78
1605960984.7295,78
1605960984.7314,83
1605960984.7334,85
1605960984.7354,87
1605960984.7375,83
1605960984.7394,75
1605960984.7414,85
1605960984.7434,87
1605960984.7454,78
1605960984.7474,70
1605960984.7494,78
1605960984.7514,83
1605960984.7534,78
1605960984.7554,80
1605960984.7575,87
1605960984.7595,85
1605960984.7614,80
1605960984.7634,75
1605960984.7654,80
1605960984.7675,92
1605960984.7694,92
1605960984.7714,70
1605960984.7734,48
1605960984.7754,48
1605960984.7774,56
1605960984.7794,46
1605960984.7814,51
1605960984.7834,73
1605960985.2096,85
1605960985.2105,83
1605960985.2130,83
1605960985.2156,83
1605960985.2176,75
1605960985.2195,70
1605960985.2215,70
1605960985.2235,73
1605960985.2255,7
1605960985.2276,-249
1605960985.2295,-544
1605960985.2315,-302
1605960985.2335,534
1605960985.2355,893
1605960985.2375,366
1605960985.2395,2
1605960985.2415,104
1605960985.2437,78
1605960985.2456,-17
1605960985.2475,31
1605960985.2495,51
1605960985.2515,9
1605960985.2535,17
1605960985.2555,36
1605960985.2575,21
1605960985.2595,17
1605960985.2615,24
1605960985.2635,21
1605960985.2655,9
1605960985.2675,0
1605960985.2695,-4
1605960985.2715,-4
1605960985.2734,-7
1605960985.2755,-17
1605960985.2775,-21
1605960985.2794,-29
1605960985.2815,-43
1605960985.2834,-53
1605960985.2855,-56
1605960985.2875,-63
1605960985.2894,-73
1605960985.2914,-73
1605960985.2935,-63
1605960985.2954,-48
1605960985.2975,-39
1605960985.2994,-21
1605960985.3014,-4
1605960985.3035,9
1605960985.3055,34
1605960985.3075,61
1605960985.3094,83
1605960985.3114,107
1605960985.3134,124
1605960985.3154,129
1605960985.3175,131
1605960985.3194,136
1605960985.3214,134
1605960985.3234,131
1605960985.3255,134
1605960985.3275,129
1605960985.3294,117
1605960985.3314,114
1605960985.3334,107
1605960985.3355,100
1605960985.3375,97
1605960985.3394,95
1605960985.3415,90
1605960985.3434,87
1605960985.3456,90
1605960985.3475,92
1605960985.3494,85
1605960985.3514,85
1605960985.3535,92
1605960985.7488,92
1605960985.7495,92
1605960985.7519,97
1605960985.7546,97
1605960985.7566,95
1605960985.7586,85
1605960985.7606,75
1605960985.7626,68
1605960985.7646,73
1605960985.7667,80
1605960985.7686,70
1605960985.7706,53
1605960985.7726,53
1605960985.7746,61
1605960985.7766,61
1605960985.7785,58
1605960985.7805,68
1605960985.7825,78
1605960985.7847,70
1605960985.7866,58
1605960985.7886,39
1605960985.7906,36
1605960985.7926,51
1605960985.7946,46
1605960985.7966,43
1605960985.7985,63
1605960985.8005,80
1605960985.8025,80
1605960985.8045,75
1605960985.8066,75
1605960985.8085,73
1605960985.8105,65
1605960985.8125,58
1605960985.8145,53
1605960985.8166,4
1605960985.8185,-224
1605960985.8205,-537
1605960985.8225,-354
1605960985.8245,458
1605960985.8266,886
1605960985.8285,410
1605960985.8305,9
1605960985.8325,90
1605960985.8345,87
1605960985.8366,-9
1605960985.8385,24
1605960985.8407,43
1605960985.8426,7
1605960985.8446,9
1605960985.8466,21
1605960985.8486,17
1605960985.8505,14
1605960985.8525,14
1605960985.8545,7
1605960985.8566,2
1605960985.8585,4
1605960985.8605,4
1605960985.8625,-7
1605960985.8645,-12
1605960985.8666,-19
1605960985.8686,-31
1605960985.8705,-39
1605960985.8725,-43
1605960985.8745,-48
1605960985.8766,-61
1605960985.8786,-70
1605960985.8805,-70
1605960985.8825,-68
1605960985.8845,-58
1605960985.8866,-46
1605960985.8885,-34
1605960985.8905,-21
1605960985.8925,-14
1605960986.2894,2
1605960986.2902,39
1605960986.2925,65
1605960986.2953,73
1605960986.2973,83
1605960986.2992,100
1605960986.3013,117
1605960986.3032,114
1605960986.3052,112
1605960986.3072,112
1605960986.3092,107
1605960986.3112,104
1605960986.3132,104
1605960986.3152,100
1605960986.3172,95
1605960986.3192,87
1605960986.3212,85
1605960986.3232,87
1605960986.3252,83
1605960986.3272,73
1605960986.3292,75
1605960986.3312,80
1605960986.3332,70
1605960986.3352,65
1605960986.3374,75
1605960986.3393,73
1605960986.3411,65
1605960986.3432,73
1605960986.3453,78
1605960986.3472,73
1605960986.3492,70
1605960986.3512,68
1605960986.3532,65
1605960986.3552,65
1605960986.3572,65
1605960986.3592,68
1605960986.3612,63
1605960986.3632,65
1605960986.3652,75
1605960986.3672,78
1605960986.3692,70
1605960986.3712,68
1605960986.3732,68
1605960986.3752,63
1605960986.3772,70
1605960986.3792,83
1605960986.3812,78
1605960986.3832,61
1605960986.3852,46
1605960986.3872,41
1605960986.3892,48
1605960986.3912,51
1605960986.3932,53
1605960986.3952,65
1605960986.3972,78
1605960986.3992,83
1605960986.4011,78
1605960986.4032,73
1605960986.4052,75
1605960986.4072,75
1605960986.4092,61
1605960986.4112,61
1605960986.4132,26
1605960986.4152,-192
1605960986.4172,-505
1605960986.4192,-346
1605960986.4212,446
1605960986.4232,886
1605960986.4252,422
1605960986.4272,17
1605960986.4292,90
1605960986.4312,90
1605960986.4332,-2
1605960986.9194,29
1605960986.9203,56
1605960986.9231,24
1605960986.9255,19
1605960986.9274,21
1605960986.9293,4
1605960986.9315,7
1605960986.9333,12
1605960986.9354,4
1605960986.9374,-2
1605960986.9393,-4
1605960986.9413,-4
1605960986.9434,-9
1605960986.9453,-17
1605960986.9474,-21
1605960986.9493,-31
1605960986.9513,-39
1605960986.9533,-51
1605960986.9553,-63
1605960986.9574,-70
1605960986.9593,-83
1605960986.9613,-85
1605960986.9633,-75
1605960986.9653,-70
1605960986.9673,-61
1605960986.9693,-46
1605960986.9713,-34
1605960986.9733,-21
1605960986.9753,-7
1605960986.9773,12
1605960986.9793,41
1605960986.9813,65
1605960986.9833,78
1605960986.9853,92
1605960986.9874,109
1605960986.9893,117
1605960986.9913,119
1605960986.9933,126
1605960986.9953,119
1605960986.9973,109
1605960986.9993,109
1605960987.0013,107
1605960987.0033,97
1605960987.0053,90
1605960987.0073,85
1605960987.0093,87
1605960987.0113,90
1605960987.0133,78
1605960987.0153,70
1605960987.0173,73
1605960987.0193,78
1605960987.0214,73
1605960987.0233,78
1605960987.0255,80
1605960987.0274,78
1605960987.0293,78
1605960987.0313,75
1605960987.0388,73
1605960987.0403,78
1605960987.0423,78
1605960987.0443,70
1605960987.0464,70
1605960987.0483,70
1605960987.0503,73
1605960987.0523,73
1605960987.0543,75
1605960987.0564,73
1605960987.0583,68
1605960987.0603,68
1605960987.0623,68
1605960987.0643,68
1605960987.0663,73
1605960987.0683,73
1605960987.4894,73
1605960987.4901,78
1605960987.4925,80
1605960987.4952,80
1605960987.4972,70
1605960987.4992,48
1605960987.5013,41
1605960987.5032,51
1605960987.5052,51
1605960987.5072,43
1605960987.5091,48
1605960987.5111,65
1605960987.5132,73
1605960987.5151,65
1605960987.5172,53
1605960987.5178,56
1605960987.5191,63
1605960987.5211,53
1605960987.5231,46
1605960987.5251,41
1605960987.5272,-85
1605960987.5291,-393
1605960987.5311,-537
1605960987.5331,4
1605960987.5351,778
1605960987.5372,708
1605960987.5391,131
1605960987.5411,21
1605960987.5431,114
1605960987.5451,24
1605960987.5473,-7
1605960987.5482,46
1605960987.5502,34
1605960987.5521,4
1605960987.5541,12
1605960987.5561,14
1605960987.5581,12
1605960987.5601,24
1605960987.5621,24
1605960987.5641,7
1605960987.5661,2
1605960987.5681,4
1605960987.5701,0
1605960987.5721,-12
1605960987.5741,-19
1605960987.5761,-24
1605960987.5781,-31
1605960987.5788,-36
1605960987.5812,-48
1605960987.5831,-61
1605960987.5852,-68
1605960987.5872,-73
1605960987.5891,-70
1605960987.5911,-65
1605960987.5931,-56
1605960987.5951,-43
1605960987.5971,-39
1605960987.5991,-34
1605960987.6011,-9
1605960987.6031,17
1605960987.6052,36
1605960987.6071,56
1605960987.6091,78
1605960987.6098,95
1605960987.6121,102
1605960987.6141,107
1605960987.6161,119
1605960987.6181,126
1605960987.6201,124
1605960987.6221,114
1605960987.6242,109
1605960987.6261,112
1605960987.6281,104
1605960987.9988,97
1605960987.9995,97
1605960988.0018,90
1605960988.0046,78
1605960988.0053,73
1605960988.0076,73
1605960988.0096,68
1605960988.0117,63
1605960988.0135,61
1605960988.0157,65
1605960988.0176,65
1605960988.0195,53
1605960988.0215,46
1605960988.0235,51
1605960988.0255,48
1605960988.0275,36
1605960988.0295,36
1605960988.0315,39
1605960988.0335,46
1605960988.0355,48
1605960988.0362,43
1605960988.0385,43
1605960988.0405,46
1605960988.0426,43
1605960988.0445,48
1605960988.0466,53
1605960988.0485,51
1605960988.0505,43
1605960988.0525,41
1605960988.0545,43
1605960988.0565,46
1605960988.0585,43
1605960988.0605,41
1605960988.0625,48
1605960988.0645,61
1605960988.0665,68
1605960988.0672,70
1605960988.0695,46
1605960988.0715,12
1605960988.0735,12
1605960988.0755,29
1605960988.0775,17
1605960988.0795,12
1605960988.0815,31
1605960988.0835,53
1605960988.0855,61
1605960988.0876,51
1605960988.0895,48
1605960988.0915,56
1605960988.0935,56
1605960988.0955,56
1605960988.0975,63
1605960988.0982,58
1605960988.1005,-41
1605960988.1025,-324
1605960988.1045,-539
1605960988.1065,-139
1605960988.1085,644
1605960988.1105,737
1605960988.1125,183
1605960988.1147,-2
1605960988.1166,92
1605960988.1185,14
1605960988.1205,-26
1605960988.1225,31
1605960988.1245,29
1605960988.1265,-2
1605960988.1285,-4
1605960988.1292,-4
1605960988.1305,-12
1605960988.1325,-17
1605960988.1345,-21
1605960988.1365,-26
1605960988.5403,-26
1605960988.5411,-31
1605960988.5426,-46
1605960988.5446,-63
1605960988.5452,-68
1605960988.5466,-46
1605960988.5485,-46
1605960988.5504,-78
1605960988.5524,-97
1605960988.5544,-117
1605960988.5565,-134
1605960988.5584,-129
1605960988.5605,-122
1605960988.5624,-112
1605960988.5644,-114
1605960988.5665,-119
1605960988.5684,-109
1605960988.5704,-102
1605960988.5724,-87
1605960988.5744,-43
1605960988.5751,4
1605960988.5765,17
1605960988.5784,19
1605960988.5804,58
1605960988.5824,85
1605960988.5844,83
1605960988.5865,80
1605960988.5884,90
1605960988.5904,112
1605960988.5924,114
1605960988.5944,92
1605960988.5964,83
1605960988.5984,78
1605960988.6004,65
1605960988.6024,58
1605960988.6044,51
1605960988.6051,58
1605960988.6064,61
1605960988.6085,34
1605960988.6104,21
1605960988.6124,31
1605960988.6144,34
1605960988.6165,36
1605960988.6184,41
1605960988.6204,26
1605960988.6224,19
1605960988.6244,34
1605960988.6264,39
1605960988.6284,36
1605960988.6304,39
1605960988.6324,48
1605960988.6344,43
1605960988.6351,36
1605960988.6365,36
1605960988.6384,24
1605960988.6404,29
1605960988.6424,51
1605960988.6444,51
1605960988.6465,43
1605960988.6484,51
1605960988.6504,63
1605960988.6524,53
1605960988.6544,24
1605960988.6564,12
1605960988.6584,17
1605960988.6604,19
1605960988.6624,17
1605960988.6644,21
1605960988.6651,31
1605960988.6664,39
1605960988.6684,61
1605960988.6705,63
1605960988.6724,36
1605960989.1096,34
1605960989.1105,56
1605960989.1129,53
1605960989.1156,51
1605960989.1176,53
1605960989.1196,-68
1605960989.1216,-380
1605960989.1235,-554
1605960989.1255,-70
1605960989.1276,693
1605960989.1295,668
1605960989.1315,117
1605960989.1335,17
1605960989.1355,114
1605960989.1375,2
1605960989.1395,-26
1605960989.1417,36
1605960989.1435,12
1605960989.1455,-7
1605960989.1475,12
1605960989.1495,4
1605960989.1515,0
1605960989.1535,12
1605960989.1555,4
1605960989.1575,-19
1605960989.1594,-24
1605960989.1615,-7
1605960989.1635,-4
1605960989.1654,-24
1605960989.1675,-29
1605960989.1695,-34
1605960989.1715,-61
1605960989.1734,-75
1605960989.1754,-53
1605960989.1775,-56
1605960989.1795,-100
1605960989.1815,-117
1605960989.1834,-100
1605960989.1854,-85
1605960989.1875,-75
1605960989.1895,-65
1605960989.1915,-63
1605960989.1935,-70
1605960989.1954,-56
1605960989.1975,9
1605960989.1994,61
1605960989.2014,70
1605960989.2034,85
1605960989.2055,119
1605960989.2074,139
1605960989.2095,126
1605960989.2114,126
1605960989.2135,148
1605960989.2154,151
1605960989.2175,139
1605960989.2195,129
1605960989.2214,119
1605960989.2234,102
1605960989.2254,83
1605960989.2275,70
1605960989.2295,65
1605960989.2314,65
1605960989.2334,65
1605960989.2354,70
1605960989.2375,65
1605960989.2394,58
1605960989.2415,53
1605960989.2436,39
1605960989.2455,46
1605960989.2475,70
1605960989.2495,78
1605960989.2515,61
1605960989.2535,53
1605960989.6795,78
1605960989.6805,90
1605960989.6829,68
1605960989.6855,53
1605960989.6875,65
1605960989.6895,80
1605960989.6916,65
1605960989.6935,53
1605960989.6955,73
1605960989.6976,80
1605960989.6995,53
1605960989.7015,51
1605960989.7035,58
1605960989.7055,43
1605960989.7075,36
1605960989.7095,53
1605960989.7115,53
1605960989.7135,39
1605960989.7155,51
1605960989.7175,58
1605960989.7195,56
1605960989.7215,61
1605960989.7235,51
1605960989.7255,48
1605960989.7275,63
1605960989.7295,58
1605960989.7315,46
1605960989.7335,61
1605960989.7354,75
1605960989.7375,39
1605960989.7394,-129
1605960989.7414,-400
1605960989.7434,-466
1605960989.7454,78
1605960989.7475,727
1605960989.7494,541
1605960989.7514,53
1605960989.7534,61
1605960989.7555,124
1605960989.7575,7
1605960989.7595,9
1605960989.7614,51
1605960989.7634,12
1605960989.7654,2
1605960989.7675,31
1605960989.7696,29
1605960989.7715,9
1605960989.7734,12
1605960989.7754,7
1605960989.7775,-2
1605960989.7794,7
1605960989.7815,21
1605960989.7834,2
1605960989.7854,-43
1605960989.7874,-53
1605960989.7894,-36
1605960989.7914,-39
1605960989.7934,-51
1605960989.7954,-58
1605960989.7975,-70
1605960989.7994,-78
1605960989.8014,-80
1605960989.8034,-92
1605960989.8054,-97
1605960989.8075,-85
1605960989.8094,-73
1605960989.8114,-61
1605960989.8134,-36
1605960989.8154,-19
1605960989.8175,-9
1605960989.8194,21
1605960989.8214,68
1605960989.8234,100
1605960990.2497,112
1605960990.2509,117
1605960990.2533,124
1605960990.2559,126
1605960990.2580,122
1605960990.2599,119
1605960990.2620,117
1605960990.2639,107
1605960990.2660,83
1605960990.2680,68
1605960990.2699,80
1605960990.2720,85
1605960990.2740,75
1605960990.2759,75
1605960990.2780,75
1605960990.2799,65
1605960990.2819,53
1605960990.2839,48
1605960990.2860,51
1605960990.2879,58
1605960990.2899,61
1605960990.2919,51
1605960990.2939,51
1605960990.2961,61
1605960990.2979,58
1605960990.2999,56
1605960990.3019,68
1605960990.3039,68
1605960990.3059,63
1605960990.3078,61
1605960990.3099,65
1605960990.3118,68
1605960990.3139,58
1605960990.3159,58
1605960990.3179,75
1605960990.3198,73
1605960990.3219,53
1605960990.3239,53
1605960990.3259,68
1605960990.3279,65
1605960990.3299,43
1605960990.3319,21
1605960990.3339,7
1605960990.3359,17
1605960990.3378,41
1605960990.3398,41
1605960990.3419,39
1605960990.3438,63
1605960990.3459,80
1605960990.3478,65
1605960990.3498,43
1605960990.3518,39
1605960990.3538,41
1605960990.3558,36
1605960990.3578,34
1605960990.3598,12
1605960990.3618,-146
1605960990.3638,-441
1605960990.3658,-480
1605960990.3678,124
1605960990.3699,715
1605960990.3719,446
1605960990.3738,-2
1605960990.3758,48
1605960990.3778,114
1605960990.3798,7
1605960990.3818,7
1605960990.3839,48
1605960990.3858,17
1605960990.3878,-4
1605960990.3899,12
1605960990.3920,17
1605960990.3939,9
1605960990.8195,4
1605960990.8207,4
1605960990.8229,7
1605960990.8256,2
1605960990.8276,-14
1605960990.8295,-19
1605960990.8315,-4
1605960990.8336,2
1605960990.8355,-17
1605960990.8375,-36
1605960990.8394,-43
1605960990.8414,-58
1605960990.8435,-73
1605960990.8454,-73
1605960990.8475,-83
1605960990.8494,-95
1605960990.8514,-87
1605960990.8534,-65
1605960990.8556,-58
1605960990.8575,-56
1605960990.8594,-31
1605960990.8614,-9
1605960990.8634,2
1605960990.8654,39
1605960990.8675,75
1605960990.8694,83
1605960990.8714,90
1605960990.8734,102
1605960990.8754,102
1605960990.8775,100
1605960990.8794,109
1605960990.8814,114
1605960990.8835,100
1605960990.8854,87
1605960990.8875,80
1605960990.8894,95
1605960990.8914,102
1605960990.8934,70
1605960990.8954,53
1605960990.8975,78
1605960990.8994,75
1605960990.9014,58
1605960990.9034,65
1605960990.9054,75
1605960990.9076,65
1605960990.9094,53
1605960990.9114,56
1605960990.9134,61
1605960990.9154,53
1605960990.9175,53
1605960990.9194,58
1605960990.9214,53
1605960990.9236,51
1605960990.9254,48
1605960990.9274,53
1605960990.9294,58
1605960990.9314,56
1605960990.9334,51
1605960990.9354,53
1605960990.9375,58
1605960990.9394,51
1605960990.9414,43
1605960990.9434,51
1605960990.9454,58
1605960990.9475,51
1605960990.9494,43
1605960990.9514,61
1605960990.9534,73
1605960990.9554,63
1605960990.9575,48
1605960990.9594,41
1605960990.9614,34
1605960990.9634,36
1605960991.3594,41
1605960991.3602,34
1605960991.3626,39
1605960991.3652,56
1605960991.3673,58
1605960991.3692,56
1605960991.3715,68
1605960991.3732,70
1605960991.3752,53
1605960991.3773,43
1605960991.3792,39
1605960991.3812,12
1605960991.3832,-109
1605960991.3852,-366
1605960991.3872,-454
1605960991.3891,14
1605960991.3912,554
1605960991.3931,385
1605960991.3952,-19
1605960991.3972,21
1605960991.3992,124
1605960991.4012,31
1605960991.4032,12
1605960991.4052,65
1605960991.4072,56
1605960991.4091,34
1605960991.4112,39
1605960991.4131,31
1605960991.4152,24
1605960991.4172,34
1605960991.4194,36
1605960991.4212,31
1605960991.4232,26
1605960991.4251,24
1605960991.4272,21
1605960991.4292,21
1605960991.4312,21
1605960991.4332,17
1605960991.4351,9
1605960991.4372,-2
1605960991.4392,-17
1605960991.4412,-21
1605960991.4432,-29
1605960991.4452,-34
1605960991.4472,-19
1605960991.4493,-17
1605960991.4512,-19
1605960991.4531,-9
1605960991.4552,7
1605960991.4572,17
1605960991.4591,24
1605960991.4611,41
1605960991.4632,61
1605960991.4651,73
1605960991.4672,83
1605960991.4692,102
1605960991.4712,119
1605960991.4731,114
1605960991.4751,107
1605960991.4772,114
1605960991.4792,112
1605960991.4812,92
1605960991.4832,85
1605960991.4851,102
1605960991.4872,114
1605960991.4891,114
1605960991.4912,109
1605960991.4932,109
1605960991.4952,107
1605960991.4972,104
1605960991.4992,104
1605960991.5011,102
1605960991.5032,90
1605960991.9292,75
1605960991.9300,75
1605960991.9325,80
1605960991.9351,73
1605960991.9371,68
1605960991.9391,78
1605960991.9412,70
1605960991.9430,53
1605960991.9453,39
1605960991.9471,39
1605960991.9490,39
1605960991.9510,39
1605960991.9530,46
1605960991.9550,53
1605960991.9571,51
1605960991.9591,48
1605960991.9610,48
1605960991.9630,46
1605960991.9650,48
1605960991.9671,51
1605960991.9690,51
1605960991.9710,53
1605960991.9730,51
1605960991.9750,46
1605960991.9770,51
1605960991.9790,58
1605960991.9810,53
1605960991.9830,48
1605960991.9850,61
1605960991.9870,68
1605960991.9890,48
1605960991.9910,29
1605960991.9930,34
1605960991.9950,46
1605960991.9970,43
1605960991.9990,48
1605960992.0010,68
1605960992.0030,78
1605960992.0050,73
1605960992.0070,61
1605960992.0090,58
1605960992.0110,70
1605960992.0131,70
1605960992.0150,58
1605960992.0171,53
1605960992.0190,0
1605960992.0210,-217
1605960992.0230,-449
1605960992.0250,-190
1605960992.0271,502
1605960992.0290,686
1605960992.0310,200
1605960992.0330,-12
1605960992.0350,114
1605960992.0371,63
1605960992.0390,-4
1605960992.0410,56
1605960992.0430,58
1605960992.0450,9
1605960992.0472,26
1605960992.0491,46
1605960992.0510,29
1605960992.0530,21
1605960992.0550,34
1605960992.0570,31
1605960992.0591,17
1605960992.0610,19
1605960992.0630,21
1605960992.0650,9
1605960992.0671,-2
1605960992.0690,-9
1605960992.0710,-21
1605960992.0730,-19
1605960992.4693,-21
1605960992.4701,-34
1605960992.4725,-41
1605960992.4751,-39
1605960992.4773,-39
1605960992.4791,-43
1605960992.4811,-41
1605960992.4831,-29
1605960992.4851,-24
1605960992.4871,-21
1605960992.4891,-17
1605960992.4911,-2
1605960992.4931,17
1605960992.4951,31
1605960992.4971,53
1605960992.4991,78
1605960992.5011,95
1605960992.5031,104
1605960992.5051,102
1605960992.5071,95
1605960992.5091,97
1605960992.5111,100
1605960992.5131,97
1605960992.5151,95
1605960992.5171,95
1605960992.5191,100
1605960992.5211,92
1605960992.5231,80
1605960992.5251,87
1605960992.5272,92
1605960992.5291,83
1605960992.5311,75
1605960992.5331,78
1605960992.5351,78
1605960992.5372,65
1605960992.5391,61
1605960992.5411,65
1605960992.5433,70
1605960992.5451,73
1605960992.5471,70
1605960992.5491,70
1605960992.5511,78
1605960992.5531,80
1605960992.5551,78
1605960992.5571,75
1605960992.5591,78
1605960992.5611,78
1605960992.5631,73
1605960992.5651,68
1605960992.5671,70
1605960992.5691,73
1605960992.5711,70
1605960992.5731,68
1605960992.5751,73
1605960992.5771,73
1605960992.5791,68
1605960992.5811,73
1605960992.5831,78
1605960992.5851,70
1605960992.5871,68
1605960992.5891,73
1605960992.5911,83
1605960992.5931,85
1605960992.5951,78
1605960992.5971,73
1605960992.5991,63
1605960992.6011,39
1605960992.6031,31
1605960992.6051,48
1605960992.6071,61
1605960992.6091,51
1605960992.6111,53
1605960992.6131,63
1605960993.0088,65
1605960993.0096,73
1605960993.0121,83
1605960993.0146,73
1605960993.0168,61
1605960993.0186,51
1605960993.0206,43
1605960993.0226,14
1605960993.0246,-139
1605960993.0266,-407
1605960993.0286,-373
1605960993.0306,246
1605960993.0326,698
1605960993.0347,354
1605960993.0367,-24
1605960993.0388,58
1605960993.0407,95
1605960993.0426,2
1605960993.0440,17
1605960993.0457,53
1605960993.0476,34
1605960993.0497,26
1605960993.0517,24
1605960993.0537,14
1605960993.0556,26
1605960993.0577,31
1605960993.0597,9
1605960993.0618,4
1605960993.0636,12
1605960993.0656,0
1605960993.0676,-14
1605960993.0696,-17
1605960993.0716,-12
1605960993.0736,-12
1605960993.0756,-17
1605960993.0776,-24
1605960993.0796,-39
1605960993.0816,-53
1605960993.0836,-56
1605960993.0856,-48
1605960993.0876,-48
1605960993.0896,-46
1605960993.0916,-34
1605960993.0936,-17
1605960993.0956,-9
1605960993.0976,-9
1605960993.0996,4
1605960993.1016,21
1605960993.1036,36
1605960993.1056,51
1605960993.1076,65
1605960993.1096,83
1605960993.1116,92
1605960993.1136,97
1605960993.1156,102
1605960993.1176,100
1605960993.1196,87
1605960993.1216,85
1605960993.1236,92
1605960993.1256,90
1605960993.1276,73
1605960993.1296,58
1605960993.1316,48
1605960993.1336,48
1605960993.1356,65
1605960993.1376,70
1605960993.1398,61
1605960993.1416,63
1605960993.1436,68
1605960993.1456,63
1605960993.1476,56
1605960993.1496,53
1605960993.1516,58
1605960993.6091,63
1605960993.6099,65
1605960993.6123,63
1605960993.6149,46
1605960993.6169,39
1605960993.6189,58
1605960993.6209,73
1605960993.6229,61
1605960993.6249,46
1605960993.6269,56
1605960993.6288,61
1605960993.6308,51
1605960993.6328,48
1605960993.6349,56
1605960993.6369,53
1605960993.6388,53
1605960993.6408,58
1605960993.6428,68
1605960993.6448,65
1605960993.6469,56
1605960993.6488,56
1605960993.6508,58
1605960993.6528,58
1605960993.6548,61
1605960993.6569,68
1605960993.6588,78
1605960993.6608,65
1605960993.6628,36
1605960993.6648,26
1605960993.6669,36
1605960993.6688,39
1605960993.6708,34
1605960993.6728,41
1605960993.6748,61
1605960993.6768,73
1605960993.6788,70
1605960993.6808,68
1605960993.6828,70
1605960993.6848,58
1605960993.6869,41
1605960993.6889,48
1605960993.6909,61
1605960993.6930,-51
1605960993.6948,-324
1605960993.6971,-424
1605960993.6989,48
1605960993.7008,637
1605960993.7028,502
1605960993.7048,43
1605960993.7069,9
1605960993.7088,102
1605960993.7108,29
1605960993.7128,12
1605960993.7148,56
1605960993.7169,39
1605960993.7188,19
1605960993.7208,34
1605960993.7228,34
1605960993.7248,21
1605960993.7269,24
1605960993.7288,21
1605960993.7308,14
1605960993.7328,7
1605960993.7348,-7
1605960993.7369,-9
1605960993.7388,-12
1605960993.7395,-19
1605960993.7418,-17
1605960993.7438,-29
1605960993.7458,-48
1605960993.7478,-53
1605960993.7498,-51
1605960993.7518,-51
1605960994.1793,-61
1605960994.1801,-63
1605960994.1825,-58
1605960994.1852,-56
1605960994.1871,-51
1605960994.1891,-34
1605960994.1912,-17
1605960994.1933,-14
1605960994.1951,-19
1605960994.1972,-9
1605960994.1991,14
1605960994.2011,26
1605960994.2031,39
1605960994.2051,56
1605960994.2071,68
1605960994.2091,73
1605960994.2111,73
1605960994.2131,68
1605960994.2151,63
1605960994.2171,58
1605960994.2191,58
1605960994.2211,63
1605960994.2232,63
1605960994.2239,53
1605960994.2251,46
1605960994.2271,53
1605960994.2291,56
1605960994.2311,51
1605960994.2331,46
1605960994.2351,41
1605960994.2371,46
1605960994.2391,56
1605960994.2411,61
1605960994.2431,56
1605960994.2451,51
1605960994.2471,58
1605960994.2491,65
1605960994.2511,68
1605960994.2531,61
1605960994.2538,53
1605960994.2561,61
1605960994.2581,65
1605960994.2601,61
1605960994.2621,51
1605960994.2641,48
1605960994.2661,53
1605960994.2681,53
1605960994.2701,53
1605960994.2721,58
1605960994.2741,53
1605960994.2761,51
1605960994.2781,61
1605960994.2801,65
1605960994.2821,63
1605960994.2841,61
1605960994.2848,61
1605960994.2871,61
1605960994.2891,51
1605960994.2911,29
1605960994.2931,17
1605960994.2951,17
1605960994.2971,24
1605960994.2991,29
1605960994.3011,41
1605960994.3031,61
1605960994.3051,68
1605960994.3071,63
1605960994.3091,58
1605960994.3111,51
1605960994.3131,51
1605960994.3151,48
1605960994.3158,53
1605960994.3181,43
1605960994.7190,-100
1605960994.7199,-388
1605960994.7223,-412
1605960994.7249,161
1605960994.7269,671
1605960994.7289,395
1605960994.7309,-12
1605960994.7329,43
1605960994.7349,97
1605960994.7369,-7
1605960994.7388,-4
1605960994.7408,41
1605960994.7416,17
1605960994.7439,2
1605960994.7458,19
1605960994.7478,17
1605960994.7498,12
1605960994.7518,12
1605960994.7539,4
1605960994.7558,0
1605960994.7579,2
1605960994.7598,-14
1605960994.7618,-24
1605960994.7638,-19
1605960994.7658,-21
1605960994.7678,-31
1605960994.7698,-39
1605960994.7718,-41
1605960994.7725,-56
1605960994.7750,-68
1605960994.7769,-70
1605960994.7788,-75
1605960994.7809,-68
1605960994.7829,-56
1605960994.7848,-56
1605960994.7869,-53
1605960994.7888,-43
1605960994.7908,-36
1605960994.7928,-19
1605960994.7949,-4
1605960994.7969,9
1605960994.7988,29
1605960994.8008,46
1605960994.8028,58
1605960994.8035,70
1605960994.8058,78
1605960994.8078,80
1605960994.8098,80
1605960994.8118,78
1605960994.8138,70
1605960994.8158,65
1605960994.8180,65
1605960994.8199,63
1605960994.8218,58
1605960994.8238,58
1605960994.8258,56
1605960994.8278,48
1605960994.8298,43
1605960994.8318,53
1605960994.8338,56
1605960994.8346,48
1605960994.8369,46
1605960994.8388,43
1605960994.8409,46
1605960994.8428,53
1605960994.8448,51
1605960994.8469,56
1605960994.8488,61
1605960994.8510,53
1605960994.8530,51
1605960994.8548,53
1605960994.8569,56
1605960994.8588,53
1605960995.2893,58
1605960995.2901,65
1605960995.2917,58
1605960995.2941,46
1605960995.2962,46
1605960995.2981,48
1605960995.3001,48
1605960995.3021,48
1605960995.3041,53
1605960995.3061,53
1605960995.3080,36
1605960995.3100,17
1605960995.3120,17
1605960995.3140,29
1605960995.3160,36
1605960995.3181,34
1605960995.3200,36
1605960995.3221,48
1605960995.3227,53
1605960995.3251,48
1605960995.3271,48
1605960995.3290,46
1605960995.3310,41
1605960995.3330,41
1605960995.3350,51
1605960995.3371,9
1605960995.3390,-207
1605960995.3410,-478
1605960995.3430,-275
1605960995.3452,454
1605960995.3472,747
1605960995.3491,273
1605960995.3512,-9
1605960995.3531,95
1605960995.3537,56
1605960995.3560,-21
1605960995.3581,19
1605960995.3600,26
1605960995.3620,-2
1605960995.3640,7
1605960995.3660,21
1605960995.3680,7
1605960995.3700,-7
1605960995.3721,-7
1605960995.3740,-7
1605960995.3761,-14
1605960995.3780,-19
1605960995.3800,-21
1605960995.3820,-21
1605960995.3840,-29
1605960995.3847,-41
1605960995.3870,-48
1605960995.3890,-56
1605960995.3911,-65
1605960995.3930,-73
1605960995.3950,-80
1605960995.3970,-80
1605960995.3990,-80
1605960995.4010,-83
1605960995.4030,-73
1605960995.4050,-63
1605960995.4071,-56
1605960995.4090,-51
1605960995.4110,-39
1605960995.4130,-17
1605960995.4150,4
1605960995.4171,24
1605960995.4190,48
1605960995.4210,75
1605960995.4230,95
1605960995.4250,97
1605960995.4271,100
1605960995.4290,109
1605960995.8292,107
1605960995.8300,100
1605960995.8324,102
1605960995.8350,92
1605960995.8371,80
1605960995.8390,73
1605960995.8411,70
1605960995.8432,63
1605960995.8451,56
1605960995.8471,51
1605960995.8490,43
1605960995.8510,43
1605960995.8530,48
1605960995.8550,48
1605960995.8570,46
1605960995.8590,41
1605960995.8610,46
1605960995.8630,53
1605960995.8650,56
1605960995.8670,56
1605960995.8690,63
1605960995.8710,73
1605960995.8730,70
1605960995.8750,58
1605960995.8770,58
1605960995.8790,65
1605960995.8810,70
1605960995.8830,78
1605960995.8850,85
1605960995.8870,78
1605960995.8890,61
1605960995.8910,48
1605960995.8930,43
1605960995.8950,41
1605960995.8970,36
1605960995.8990,36
1605960995.9010,51
1605960995.9030,65
1605960995.9050,68
1605960995.9070,63
1605960995.9090,68
1605960995.9110,65
1605960995.9130,53
1605960995.9150,51
1605960995.9170,58
1605960995.9190,43
1605960995.9210,-90
1605960995.9230,-371
1605960995.9250,-429
1605960995.9270,124
1605960995.9290,705
1605960995.9310,485
1605960995.9330,26
1605960995.9350,36
1605960995.9370,107
1605960995.9390,9
1605960995.9410,12
1605960995.9430,61
1605960995.9452,36
1605960995.9470,17
1605960995.9490,29
1605960995.9510,26
1605960995.9530,19
1605960995.9550,29
1605960995.9570,24
1605960995.9590,7
1605960995.9610,7
1605960995.9630,4
1605960995.9650,-9
1605960995.9670,-17
1605960995.9690,-17
1605960995.9710,-17
1605960995.9730,-24
1605960996.3988,-41
1605960996.3996,-46
1605960996.4009,-46
1605960996.4029,-56
1605960996.4049,-70
1605960996.4069,-87
1605960996.4089,-87
1605960996.4109,-70
1605960996.4129,-53
1605960996.4149,-46
1605960996.4169,-36
1605960996.4189,-14
1605960996.4209,7
1605960996.4229,26
1605960996.4249,53
1605960996.4269,83
1605960996.4288,95
1605960996.4308,100
1605960996.4328,104
1605960996.4349,119
1605960996.4369,124
1605960996.4389,109
1605960996.4408,104
1605960996.4428,109
1605960996.4448,104
1605960996.4470,87
1605960996.4488,73
1605960996.4508,70
1605960996.4528,65
1605960996.4548,61
1605960996.4569,61
1605960996.4588,58
1605960996.4608,56
1605960996.4628,58
1605960996.4648,56
1605960996.4669,46
1605960996.4690,41
1605960996.4709,48
1605960996.4728,51
1605960996.4748,51
1605960996.4769,56
1605960996.4788,61
1605960996.4808,56
1605960996.4829,53
1605960996.4848,51
1605960996.4869,51
1605960996.4889,53
1605960996.4908,65
1605960996.4928,68
1605960996.4948,58
1605960996.4969,51
1605960996.4988,41
1605960996.5008,31
1605960996.5028,36
1605960996.5048,43
1605960996.5069,43
1605960996.5088,46
1605960996.5108,56
1605960996.5128,58
1605960996.5148,56
1605960996.5169,61
1605960996.5188,65
1605960996.5208,61
1605960996.5228,53
1605960996.5248,56
1605960996.5269,46
1605960996.5288,-90
1605960996.5308,-380
1605960996.5328,-449
1605960996.5348,87
1605960996.5369,649
1605960996.5389,437
1605960996.5408,4
1605960997.0294,36
1605960997.0304,114
1605960997.0328,14
1605960997.0355,14
1605960997.0374,65
1605960997.0395,36
1605960997.0415,9
1605960997.0434,14
1605960997.0454,9
1605960997.0474,7
1605960997.0494,12
1605960997.0514,9
1605960997.0534,2
1605960997.0554,-2
1605960997.0577,-2
1605960997.0594,-4
1605960997.0614,-12
1605960997.0634,-24
1605960997.0654,-31
1605960997.0674,-41
1605960997.0694,-56
1605960997.0714,-63
1605960997.0734,-63
1605960997.0754,-75
1605960997.0774,-80
1605960997.0794,-78
1605960997.0814,-83
1605960997.0834,-78
1605960997.0854,-58
1605960997.0874,-46
1605960997.0894,-36
1605960997.0914,-17
1605960997.0934,9
1605960997.0954,34
1605960997.0974,56
1605960997.0993,75
1605960997.1014,92
1605960997.1034,102
1605960997.1053,104
1605960997.1074,107
1605960997.1093,114
1605960997.1113,109
1605960997.1134,92
1605960997.1153,90
1605960997.1174,97
1605960997.1193,95
1605960997.1214,80
1605960997.1220,80
1605960997.1233,85
1605960997.1254,83
1605960997.1274,78
1605960997.1293,75
1605960997.1313,75
1605960997.1333,70
1605960997.1353,65
1605960997.1374,70
1605960997.1393,75
1605960997.1413,70
1605960997.1433,73
1605960997.1454,70
1605960997.1473,58
1605960997.1494,65
1605960997.1513,75
1605960997.1520,68
1605960997.1534,58
1605960997.1556,58
1605960997.1574,70
1605960997.1593,75
1605960997.1613,63
1605960997.1634,56
1605960997.1653,65
1605960997.1674,68
1605960997.1693,48
1605960997.5397,26
1605960997.5403,26
1605960997.5421,34
1605960997.5429,34
1605960997.5450,36
1605960997.5471,46
1605960997.5490,58
1605960997.5511,53
1605960997.5530,51
1605960997.5550,56
1605960997.5570,58
1605960997.5590,53
1605960997.5610,43
1605960997.5629,39
1605960997.5650,17
1605960997.5670,-151
1605960997.5690,-444
1605960997.5710,-427
1605960997.5730,185
1605960997.5736,656
1605960997.5749,332
1605960997.5770,-43
1605960997.5790,41
1605960997.5810,83
1605960997.5829,-14
1605960997.5850,4
1605960997.5870,41
1605960997.5890,7
1605960997.5910,-2
1605960997.5930,19
1605960997.5950,19
1605960997.5970,7
1605960997.5990,9
1605960997.6009,9
1605960997.6030,0
1605960997.6036,0
1605960997.6050,0
1605960997.6070,-17
1605960997.6090,-31
1605960997.6110,-26
1605960997.6130,-26
1605960997.6149,-39
1605960997.6170,-48
1605960997.6192,-51
1605960997.6210,-58
1605960997.6230,-68
1605960997.6250,-78
1605960997.6270,-75
1605960997.6289,-70
1605960997.6310,-68
1605960997.6330,-58
1605960997.6336,-43
1605960997.6349,-29
1605960997.6370,-9
1605960997.6389,12
1605960997.6409,41
1605960997.6429,61
1605960997.6450,68
1605960997.6470,85
1605960997.6490,100
1605960997.6510,107
1605960997.6530,109
1605960997.6549,109
1605960997.6570,112
1605960997.6589,114
1605960997.6610,104
1605960997.6629,95
1605960997.6636,87
1605960997.6649,85
1605960997.6670,87
1605960997.6691,78
1605960997.6710,73
1605960997.6730,75
1605960998.0792,75
1605960998.0800,73
1605960998.0824,80
1605960998.0851,78
1605960998.0871,65
1605960998.0890,56
1605960998.0911,61
1605960998.0930,63
1605960998.0950,48
1605960998.0970,43
1605960998.0977,46
1605960998.0990,51
1605960998.1010,53
1605960998.1032,53
1605960998.1050,53
1605960998.1070,51
1605960998.1090,48
1605960998.1110,48
1605960998.1130,46
1605960998.1150,43
1605960998.1170,41
1605960998.1192,48
1605960998.1210,56
1605960998.1229,51
1605960998.1250,51
1605960998.1270,58
1605960998.1276,58
1605960998.1290,41
1605960998.1310,17
1605960998.1330,19
1605960998.1349,26
1605960998.1370,14
1605960998.1390,17
1605960998.1409,41
1605960998.1430,51
1605960998.1449,41
1605960998.1470,41
1605960998.1489,48
1605960998.1510,46
1605960998.1530,41
1605960998.1550,43
1605960998.1570,43
1605960998.1576,12
1605960998.1589,-161
1605960998.1609,-441
1605960998.1630,-378
1605960998.1649,253
1605960998.1670,668
1605960998.1690,310
1605960998.1710,-36
1605960998.1729,63
1605960998.1750,92
1605960998.1770,-2
1605960998.1790,19
1605960998.1809,48
1605960998.1830,17
1605960998.1850,4
1605960998.1857,21
1605960998.1880,26
1605960998.1899,17
1605960998.1920,9
1605960998.1939,9
1605960998.1960,7
1605960998.1980,2
1605960998.2000,-4
1605960998.2019,-9
1605960998.2040,-14
1605960998.2060,-26
1605960998.2079,-36
1605960998.2099,-41
1605960998.2120,-46
1605960998.2139,-53
1605960998.2162,-70
1605960998.6492,-85
1605960998.6499,-80
1605960998.6518,-80
1605960998.6538,-85
1605960998.6557,-75
1605960998.6577,-65
1605960998.6597,-65
1605960998.6617,-53
1605960998.6637,-31
1605960998.6657,-9
1605960998.6677,14
1605960998.6697,41
1605960998.6717,63
1605960998.6724,78
1605960998.6737,85
1605960998.6757,92
1605960998.6777,100
1605960998.6797,95
1605960998.6817,90
1605960998.6837,92
1605960998.6858,90
1605960998.6877,80
1605960998.6897,78
1605960998.6917,80
1605960998.6937,75
1605960998.6957,70
1605960998.6977,70
1605960998.6997,73
1605960998.7017,68
1605960998.7024,65
1605960998.7037,61
1605960998.7057,58
1605960998.7077,56
1605960998.7097,56
1605960998.7117,61
1605960998.7137,61
1605960998.7157,58
1605960998.7177,65
1605960998.7197,65
1605960998.7217,63
1605960998.7237,63
1605960998.7257,61
1605960998.7277,56
1605960998.7297,58
1605960998.7317,61
1605960998.7324,58
1605960998.7337,53
1605960998.7357,53
1605960998.7377,53
1605960998.7397,56
1605960998.7419,56
1605960998.7438,51
1605960998.7457,46
1605960998.7477,46
1605960998.7497,43
1605960998.7517,46
1605960998.7537,48
1605960998.7557,48
1605960998.7577,53
1605960998.7597,48
1605960998.7617,26
1605960998.7624,7
1605960998.7637,12
1605960998.7657,24
1605960998.7677,14
1605960998.7697,12
1605960998.7717,29
1605960998.7737,39
1605960998.7757,36
1605960998.7777,36
1605960998.7797,36
1605960998.7817,31
1605960998.7837,24
1605960999.1889,21
1605960999.1897,29
1605960999.1921,36
1605960999.1932,-65
1605960999.1948,-356
1605960999.1968,-485
1605960999.1987,21
1605960999.2007,659
1605960999.2027,517
1605960999.2047,39
1605960999.2068,7
1605960999.2087,83
1605960999.2107,-14
1605960999.2127,-26
1605960999.2147,26
1605960999.2167,2
1605960999.2187,-17
1605960999.2207,4
1605960999.2227,4
1605960999.2234,-9
1605960999.2247,-4
1605960999.2267,0
1605960999.2287,-9
1605960999.2307,-24
1605960999.2327,-21
1605960999.2347,-24
1605960999.2369,-39
1605960999.2388,-43
1605960999.2408,-43
1605960999.2427,-46
1605960999.2447,-53
1605960999.2467,-70
1605960999.2487,-83
1605960999.2507,-83
1605960999.2527,-85
1605960999.2533,-95
1605960999.2547,-95
1605960999.2567,-87
1605960999.2587,-78
1605960999.2607,-68
1605960999.2627,-56
1605960999.2647,-39
1605960999.2667,-17
1605960999.2687,12
1605960999.2707,41
1605960999.2727,70
1605960999.2747,90
1605960999.2767,102
1605960999.2787,112
1605960999.2807,114
1605960999.2827,117
1605960999.2834,124
1605960999.2847,124
1605960999.2867,117
1605960999.2887,109
1605960999.2906,102
1605960999.2926,90
1605960999.2947,78
1605960999.2967,78
1605960999.2987,78
1605960999.3007,73
1605960999.3027,68
1605960999.3047,61
1605960999.3067,56
1605960999.3087,61
1605960999.3107,61
1605960999.3127,53
1605960999.3133,58
1605960999.3147,68
1605960999.3167,61
1605960999.3187,53
1605960999.3207,58
1605960999.3227,58
1605960999.7893,58
1605960999.7903,63
1605960999.7927,61
1605960999.7953,58
1605960999.7974,51
1605960999.7993,43
1605960999.8016,46
1605960999.8033,46
1605960999.8040,43
1605960999.8053,43
1605960999.8073,41
1605960999.8093,43
1605960999.8112,46
1605960999.8133,41
1605960999.8152,39
1605960999.8173,39
1605960999.8193,41
1605960999.8212,46
1605960999.8232,46
1605960999.8252,46
1605960999.8272,46
1605960999.8292,46
1605960999.8312,41
1605960999.8332,26
1605960999.8339,14
1605960999.8352,26
1605960999.8372,39
1605960999.8392,34
1605960999.8412,29
1605960999.8432,41
1605960999.8452,51
1605960999.8473,51
1605960999.8492,51
1605960999.8513,53
1605960999.8533,61
1605960999.8552,61
1605960999.8573,51
1605960999.8593,51
1605960999.8612,48
1605960999.8633,-83
1605960999.8639,-371
1605960999.8652,-437
1605960999.8673,107
1605960999.8692,666
1605960999.8712,446
1605960999.8732,14
1605960999.8752,29
1605960999.8772,92
1605960999.8792,4
1605960999.8812,4
1605960999.8832,39
1605960999.8852,7
1605960999.8873,-2
1605960999.8892,19
1605960999.8912,12
1605960999.8933,2
1605960999.8939,9
1605960999.8954,9
1605960999.8973,0
1605960999.8992,-7
1605960999.9012,-9
1605960999.9032,-9
1605960999.9052,-14
1605960999.9073,-21
1605960999.9092,-36
1605960999.9112,-51
1605960999.9132,-51
1605960999.9152,-53
1605960999.9173,-65
1605960999.9192,-75
1605960999.9212,-80
1605960999.9232,-85
1605960999.9239,-87
1605961000.3593,-78
1605961000.3602,-70
1605961000.3619,-65
1605961000.3639,-51
1605961000.3659,-34
1605961000.3678,-17
1605961000.3698,4
1605961000.3718,34
1605961000.3738,61
1605961000.3758,75
1605961000.3777,75
1605961000.3797,87
1605961000.3818,104
1605961000.3824,102
1605961000.3837,92
1605961000.3857,92
1605961000.3877,95
1605961000.3897,92
1605961000.3917,85
1605961000.3939,78
1605961000.3957,78
1605961000.3977,78
1605961000.3997,70
1605961000.4017,58
1605961000.4037,53
1605961000.4057,53
1605961000.4077,53
1605961000.4097,56
1605961000.4117,48
1605961000.4124,41
1605961000.4137,41
1605961000.4157,51
1605961000.4177,58
1605961000.4197,56
1605961000.4217,56
1605961000.4239,61
1605961000.4258,56
1605961000.4277,53
1605961000.4297,56
1605961000.4317,58
1605961000.4337,58
1605961000.4357,56
1605961000.4377,51
1605961000.4397,51
1605961000.4417,53
1605961000.4424,48
1605961000.4438,48
1605961000.4457,56
1605961000.4477,46
1605961000.4497,43
1605961000.4517,53
1605961000.4537,51
1605961000.4557,48
1605961000.4577,56
1605961000.4597,56
1605961000.4617,56
1605961000.4637,58
1605961000.4657,56
1605961000.4677,53
1605961000.4697,53
1605961000.4717,56
1605961000.4724,58
1605961000.4737,51
1605961000.4757,31
1605961000.4777,24
1605961000.4797,39
1605961000.4817,48
1605961000.4837,41
1605961000.4857,36
1605961000.4877,39
1605961000.4897,48
1605961000.4917,61
1605961000.4937,63
1605961000.8987,61
1605961000.8995,61
1605961000.9012,56
1605961000.9036,56
1605961000.9055,58
1605961000.9075,51
1605961000.9095,-53
1605961000.9116,-329
1605961000.9135,-471
1605961000.9155,-31
1605961000.9175,578
1605961000.9195,473
1605961000.9215,21
1605961000.9237,7
1605961000.9255,114
1605961000.9275,26
1605961000.9295,0
1605961000.9315,43
1605961000.9321,29
1605961000.9335,14
1605961000.9355,26
1605961000.9375,24
1605961000.9395,12
1605961000.9415,17
1605961000.9435,21
1605961000.9455,12
1605961000.9475,2
1605961000.9495,0
1605961000.9515,-7
1605961000.9535,-14
1605961000.9555,-21
1605961000.9575,-34
1605961000.9595,-36
1605961000.9615,-41
1605961000.9621,-56
1605961000.9635,-73
1605961000.9655,-87
1605961000.9675,-92
1605961000.9695,-100
1605961000.9715,-102
1605961000.9735,-95
1605961000.9755,-90
1605961000.9775,-87
1605961000.9795,-78
1605961000.9815,-58
1605961000.9835,-36
1605961000.9855,-17
1605961000.9875,12
1605961000.9895,41
1605961000.9915,58
1605961000.9922,73
1605961000.9935,85
1605961000.9955,90
1605961000.9975,90
1605961000.9995,87
1605961001.0015,92
1605961001.0035,90
1605961001.0055,83
1605961001.0075,83
1605961001.0095,85
1605961001.0115,75
1605961001.0135,65
1605961001.0155,68
1605961001.0175,70
1605961001.0197,63
1605961001.0215,58
1605961001.0222,56
1605961001.0235,58
1605961001.0255,61
1605961001.0275,56
1605961001.0295,53
1605961001.0315,61
1605961001.0335,61
1605961001.4989,58
1605961001.4999,53
1605961001.5023,48
1605961001.5050,58
1605961001.5071,63
1605961001.5090,58
1605961001.5110,58
1605961001.5130,56
1605961001.5150,48
1605961001.5156,46
1605961001.5169,56
1605961001.5189,56
1605961001.5209,46
1605961001.5229,46
1605961001.5249,48
1605961001.5269,46
1605961001.5289,51
1605961001.5309,51
1605961001.5329,48
1605961001.5349,41
1605961001.5369,36
1605961001.5388,41
1605961001.5409,48
1605961001.5428,46
1605961001.5448,43
1605961001.5455,43
1605961001.5469,46
1605961001.5488,39
1605961001.5508,36
1605961001.5528,48
1605961001.5549,58
1605961001.5569,48
1605961001.5588,39
1605961001.5608,29
1605961001.5629,19
1605961001.5648,14
1605961001.5669,24
1605961001.5688,31
1605961001.5709,26
1605961001.5729,31
1605961001.5749,46
1605961001.5755,51
1605961001.5770,53
1605961001.5789,56
1605961001.5808,56
1605961001.5829,48
1605961001.5848,43
1605961001.5869,46
1605961001.5888,56
1605961001.5908,26
1605961001.5928,-158
1605961001.5949,-441
1605961001.5969,-363
1605961001.5989,253
1605961001.6008,627
1605961001.6029,268
1605961001.6050,-36
1605961001.6057,70
1605961001.6070,90
1605961001.6089,2
1605961001.6108,31
1605961001.6128,56
1605961001.6149,14
1605961001.6169,9
1605961001.6189,31
1605961001.6208,26
1605961001.6229,14
1605961001.6248,12
1605961001.6268,9
1605961001.6288,-2
1605961001.6309,-4
1605961001.6329,-7
1605961001.6348,-21
1605961002.0091,-31
1605961002.0099,-39
1605961002.0123,-41
1605961002.0150,-41
1605961002.0170,-51
1605961002.0189,-63
1605961002.0209,-75
1605961002.0229,-85
1605961002.0249,-87
1605961002.0269,-95
1605961002.0289,-104
1605961002.0309,-97
1605961002.0329,-87
1605961002.0336,-85
1605961002.0349,-78
1605961002.0370,-58
1605961002.0389,-36
1605961002.0409,-17
1605961002.0429,7
1605961002.0449,31
1605961002.0471,51
1605961002.0489,65
1605961002.0509,75
1605961002.0529,85
1605961002.0549,90
1605961002.0569,87
1605961002.0589,85
1605961002.0609,78
1605961002.0616,73
1605961002.0639,75
1605961002.0659,83
1605961002.0679,80
1605961002.0699,65
1605961002.0719,61
1605961002.0739,70
1605961002.0759,68
1605961002.0779,63
1605961002.0799,63
1605961002.0818,58
1605961002.0839,53
1605961002.0859,56
1605961002.0879,56
1605961002.0899,53
1605961002.0919,48
1605961002.0925,53
1605961002.0939,61
1605961002.0959,58
1605961002.0979,58
1605961002.0999,51
1605961002.1019,46
1605961002.1039,56
1605961002.1059,61
1605961002.1079,58
1605961002.1099,56
1605961002.1119,58
1605961002.1139,63
1605961002.1159,58
1605961002.1180,56
1605961002.1199,58
1605961002.1205,53
1605961002.1219,51
1605961002.1238,53
1605961002.1259,56
1605961002.1279,53
1605961002.1298,51
1605961002.1319,58
1605961002.1339,63
1605961002.1359,56
1605961002.1379,48
1605961002.1398,51
1605961002.1418,56
1605961002.1441,51
1605961002.1460,43
1605961002.6091,51
1605961002.6100,51
1605961002.6117,46
1605961002.6136,46
1605961002.6156,46
1605961002.6176,46
1605961002.6196,41
1605961002.6216,34
1605961002.6236,26
1605961002.6256,12
1605961002.6276,2
1605961002.6297,9
1605961002.6316,14
1605961002.6336,12
1605961002.6356,4
1605961002.6376,17
1605961002.6382,39
1605961002.6395,41
1605961002.6416,39
1605961002.6435,41
1605961002.6456,31
1605961002.6475,24
1605961002.6495,26
1605961002.6515,36
1605961002.6536,17
1605961002.6555,-151
1605961002.6576,-432
1605961002.6595,-402
1605961002.6615,185
1605961002.6635,612
1605961002.6655,290
1605961002.6675,-51
1605961002.6681,39
1605961002.6695,70
1605961002.6715,-24
1605961002.6735,-4
1605961002.6755,34
1605961002.6775,4
1605961002.6795,-4
1605961002.6816,9
1605961002.6835,4
1605961002.6856,0
1605961002.6876,4
1605961002.6895,-2
1605961002.6916,-14
1605961002.6936,-21
1605961002.6955,-26
1605961002.6976,-24
1605961002.6982,-24
1605961002.6997,-31
1605961002.7016,-36
1605961002.7035,-39
1605961002.7055,-48
1605961002.7075,-63
1605961002.7095,-73
1605961002.7115,-80
1605961002.7135,-90
1605961002.7155,-92
1605961002.7175,-95
1605961002.7195,-97
1605961002.7215,-83
1605961002.7235,-68
1605961002.7255,-58
1605961002.7275,-39
1605961002.7282,-21
1605961002.7295,-7
1605961002.7315,19
1605961002.7335,46
1605961002.7355,63
1605961002.7376,68
1605961002.7395,75
1605961002.7415,92
1605961002.7435,102
1605961003.1191,100
1605961003.1196,95
1605961003.1206,95
1605961003.1225,85
1605961003.1246,73
1605961003.1266,73
1605961003.1286,75
1605961003.1306,63
1605961003.1326,48
1605961003.1346,43
1605961003.1366,41
1605961003.1372,34
1605961003.1386,26
1605961003.1406,31
1605961003.1426,34
1605961003.1446,26
1605961003.1466,24
1605961003.1485,29
1605961003.1506,36
1605961003.1526,39
1605961003.1546,43
1605961003.1566,46
1605961003.1586,39
1605961003.1606,31
1605961003.1626,29
1605961003.1646,34
1605961003.1666,48
1605961003.1674,51
1605961003.1686,41
1605961003.1706,41
1605961003.1726,41
1605961003.1746,41
1605961003.1766,39
1605961003.1786,41
1605961003.1806,41
1605961003.1825,39
1605961003.1846,41
1605961003.1866,43
1605961003.1886,46
1605961003.1906,46
1605961003.1926,41
1605961003.1946,39
1605961003.1966,41
1605961003.1972,41
1605961003.1986,43
1605961003.2006,51
1605961003.2026,41
1605961003.2046,39
1605961003.2066,48
1605961003.2086,48
1605961003.2106,36
1605961003.2126,31
1605961003.2146,39
1605961003.2166,48
1605961003.2186,53
1605961003.2206,43
1605961003.2226,26
1605961003.2246,9
1605961003.2266,-2
1605961003.2272,2
1605961003.2286,19
1605961003.2305,24
1605961003.2326,17
1605961003.2346,12
1605961003.2366,19
1605961003.2386,36
1605961003.2406,39
1605961003.2426,24
1605961003.2446,21
1605961003.2466,19
1605961003.2486,4
1605961003.2506,7
1605961003.2526,19
1605961003.7189,-97
1605961003.7199,-395
1605961003.7224,-500
1605961003.7250,14
1605961003.7269,634
1605961003.7291,493
1605961003.7310,21
1605961003.7329,-4
1605961003.7349,65
1605961003.7369,-36
1605961003.7390,-39
1605961003.7409,17
1605961003.7429,-12
1605961003.7449,-24
1605961003.7469,-9
1605961003.7476,-26
1605961003.7489,-36
1605961003.7509,-21
1605961003.7529,-12
1605961003.7549,-24
1605961003.7569,-36
1605961003.7588,-39
1605961003.7608,-43
1605961003.7628,-48
1605961003.7648,-46
1605961003.7669,-48
1605961003.7689,-56
1605961003.7708,-70
1605961003.7729,-90
1605961003.7748,-95
1605961003.7768,-87
1605961003.7774,-92
1605961003.7788,-109
1605961003.7809,-114
1605961003.7828,-112
1605961003.7848,-109
1605961003.7869,-87
1605961003.7888,-63
1605961003.7908,-58
1605961003.7928,-51
1605961003.7948,-24
1605961003.7969,19
1605961003.7988,48
1605961003.8008,63
1605961003.8029,80
1605961003.8048,92
1605961003.8068,102
1605961003.8074,114
1605961003.8088,114
1605961003.8108,107
1605961003.8128,109
1605961003.8149,102
1605961003.8169,95
1605961003.8188,100
1605961003.8208,97
1605961003.8228,85
1605961003.8250,73
1605961003.8269,70
1605961003.8288,73
1605961003.8308,73
1605961003.8328,61
1605961003.8348,51
1605961003.8369,53
1605961003.8374,53
1605961003.8388,41
1605961003.8408,48
1605961003.8428,63
1605961003.8448,56
1605961003.8469,56
1605961003.8488,65
1605961003.8508,63
1605961003.8528,51
1605961003.8548,56
1605961004.2588,70
1605961004.2596,65
1605961004.2619,61
1605961004.2636,63
1605961004.2656,61
1605961004.2676,58
1605961004.2682,56
1605961004.2696,53
1605961004.2716,58
1605961004.2736,58
1605961004.2756,46
1605961004.2776,36
1605961004.2796,46
1605961004.2816,56
1605961004.2836,51
1605961004.2856,43
1605961004.2876,43
1605961004.2896,46
1605961004.2915,46
1605961004.2936,46
1605961004.2956,43
1605961004.2976,41
1605961004.2982,43
1605961004.2995,51
1605961004.3016,53
1605961004.3036,48
1605961004.3056,48
1605961004.3075,46
1605961004.3095,31
1605961004.3115,9
1605961004.3135,7
1605961004.3155,21
1605961004.3175,24
1605961004.3195,19
1605961004.3217,21
1605961004.3236,31
1605961004.3255,41
1605961004.3275,41
1605961004.3282,34
1605961004.3297,34
1605961004.3315,34
1605961004.3336,24
1605961004.3355,24
1605961004.3375,39
1605961004.3395,-41
1605961004.3415,-312
1605961004.3436,-507
1605961004.3455,-144
1605961004.3475,532
1605961004.3495,578
1605961004.3515,95
1605961004.3535,-21
1605961004.3555,104
1605961004.3575,29
1605961004.3582,-31
1605961004.3595,24
1605961004.3615,21
1605961004.3635,-9
1605961004.3655,0
1605961004.3675,9
1605961004.3695,7
1605961004.3715,2
1605961004.3735,-2
1605961004.3755,-2
1605961004.3775,4
1605961004.3795,-2
1605961004.3815,-19
1605961004.3835,-26
1605961004.3855,-26
1605961004.3875,-31
1605961004.3881,-39
1605961004.3895,-48
1605961004.3915,-58
1605961004.8290,-68
1605961004.8299,-78
1605961004.8323,-85
1605961004.8350,-90
1605961004.8370,-95
1605961004.8390,-95
1605961004.8410,-92
1605961004.8430,-85
1605961004.8450,-78
1605961004.8470,-68
1605961004.8489,-51
1605961004.8495,-26
1605961004.8511,0
1605961004.8530,31
1605961004.8549,53
1605961004.8571,70
1605961004.8590,87
1605961004.8609,100
1605961004.8629,97
1605961004.8650,95
1605961004.8669,100
1605961004.8690,104
1605961004.8709,100
1605961004.8729,100
1605961004.8749,97
1605961004.8769,90
1605961004.8789,90
1605961004.8795,80
1605961004.8809,63
1605961004.8829,58
1605961004.8849,58
1605961004.8869,61
1605961004.8889,58
1605961004.8909,58
1605961004.8929,56
1605961004.8949,56
1605961004.8969,58
1605961004.8989,58
1605961004.9009,56
1605961004.9029,56
1605961004.9049,53
1605961004.9069,58
1605961004.9089,65
1605961004.9095,63
1605961004.9109,53
1605961004.9129,51
1605961004.9149,56
1605961004.9169,58
1605961004.9189,61
1605961004.9209,51
1605961004.9229,46
1605961004.9249,51
1605961004.9269,58
1605961004.9289,53
1605961004.9309,53
1605961004.9329,56
1605961004.9349,58
1605961004.9369,48
1605961004.9389,48
1605961004.9395,58
1605961004.9409,58
1605961004.9429,43
1605961004.9449,39
1605961004.9471,48
1605961004.9490,51
1605961004.9509,48
1605961004.9529,46
1605961004.9549,48
1605961004.9569,48
1605961004.9589,39
1605961004.9609,24
1605961004.9629,19
1605961004.9649,24
1605961005.3690,29
1605961005.3699,26
1605961005.3723,24
1605961005.3750,24
1605961005.3769,34
1605961005.3789,43
1605961005.3809,41
1605961005.3829,31
1605961005.3849,24
1605961005.3869,21
1605961005.3889,21
1605961005.3909,19
1605961005.3929,-12
1605961005.3949,-185
1605961005.3969,-466
1605961005.3989,-402
1605961005.4009,214
1605961005.4015,603
1605961005.4029,256
1605961005.4049,-48
1605961005.4069,63
1605961005.4089,80
1605961005.4109,-14
1605961005.4128,12
1605961005.4149,34
1605961005.4169,-4
1605961005.4188,0
1605961005.4208,24
1605961005.4228,19
1605961005.4248,9
1605961005.4268,7
1605961005.4288,7
1605961005.4309,0
1605961005.4314,-2
1605961005.4328,-4
1605961005.4348,-17
1605961005.4369,-24
1605961005.4388,-24
1605961005.4408,-29
1605961005.4428,-34
1605961005.4448,-46
1605961005.4471,-56
1605961005.4489,-63
1605961005.4508,-78
1605961005.4528,-90
1605961005.4548,-87
1605961005.4568,-85
1605961005.4588,-87
1605961005.4608,-85
1605961005.4614,-68
1605961005.4629,-46
1605961005.4648,-29
1605961005.4669,-9
1605961005.4688,4
1605961005.4708,24
1605961005.4728,46
1605961005.4748,65
1605961005.4768,78
1605961005.4788,87
1605961005.4808,97
1605961005.4828,102
1605961005.4848,100
1605961005.4868,100
1605961005.4888,102
1605961005.4908,102
1605961005.4914,95
1605961005.4928,83
1605961005.4949,80
1605961005.4969,83
1605961005.4988,80
1605961005.5008,78
1605961005.5028,73
1605961005.5048,70
1605961005.9393,73
1605961005.9402,65
1605961005.9426,61
1605961005.9453,63
1605961005.9473,61
1605961005.9493,48
1605961005.9500,39
1605961005.9514,46
1605961005.9533,58
1605961005.9553,56
1605961005.9572,53
1605961005.9592,53
1605961005.9613,46
1605961005.9633,43
1605961005.9652,51
1605961005.9673,56
1605961005.9692,51
1605961005.9712,46
1605961005.9732,51
1605961005.9755,48
1605961005.9773,48
1605961005.9792,48
1605961005.9798,51
1605961005.9812,53
1605961005.9833,53
1605961005.9852,48
1605961005.9872,48
1605961005.9892,48
1605961005.9912,53
1605961005.9933,53
1605961005.9952,46
1605961005.9973,43
1605961005.9992,46
1605961006.0012,51
1605961006.0032,46
1605961006.0052,34
1605961006.0072,21
1605961006.0092,17
1605961006.0098,24
1605961006.0112,29
1605961006.0132,19
1605961006.0152,12
1605961006.0172,29
1605961006.0192,53
1605961006.0212,53
1605961006.0232,34
1605961006.0252,36
1605961006.0272,39
1605961006.0292,31
1605961006.0312,34
1605961006.0332,39
1605961006.0353,0
1605961006.0372,-187
1605961006.0378,-461
1605961006.0392,-368
1605961006.0411,256
1605961006.0432,617
1605961006.0452,249
1605961006.0472,-53
1605961006.0492,61
1605961006.0512,83
1605961006.0532,-12
1605961006.0552,14
1605961006.0572,41
1605961006.0592,4
1605961006.0612,0
1605961006.0632,17
1605961006.0652,12
1605961006.0672,2
1605961006.0678,4
1605961006.0693,4
1605961006.0713,0
1605961006.0732,0
1605961006.4794,-4
1605961006.4805,-14
1605961006.4820,-19
1605961006.4840,-29
1605961006.4860,-41
1605961006.4878,-39
1605961006.4916,-48
1605961006.4930,-73
1605961006.4948,-87
1605961006.4967,-85
1605961006.4987,-85
1605961006.5007,-97
1605961006.5027,-97
1605961006.5048,-90
1605961006.5068,-90
1605961006.5088,-85
1605961006.5109,-63
1605961006.5127,-46
1605961006.5148,-24
1605961006.5155,9
1605961006.5168,39
1605961006.5187,51
1605961006.5207,65
1605961006.5227,83
1605961006.5247,90
1605961006.5268,87
1605961006.5288,87
1605961006.5308,90
1605961006.5328,85
1605961006.5347,83
1605961006.5368,87
1605961006.5387,87
1605961006.5409,78
1605961006.5427,75
1605961006.5447,70
1605961006.5454,65
1605961006.5468,63
1605961006.5488,56
1605961006.5509,56
1605961006.5527,65
1605961006.5547,68
1605961006.5568,56
1605961006.5588,51
1605961006.5607,53
1605961006.5627,48
1605961006.5648,48
1605961006.5667,58
1605961006.5687,61
1605961006.5709,56
1605961006.5728,61
1605961006.5747,61
1605961006.5754,58
1605961006.5767,58
1605961006.5787,58
1605961006.5808,56
1605961006.5828,51
1605961006.5847,56
1605961006.5867,63
1605961006.5888,61
1605961006.5907,58
1605961006.5927,58
1605961006.5947,51
1605961006.5968,53
1605961006.5988,53
1605961006.6007,53
1605961006.6027,53
1605961006.6047,48
1605961006.6055,46
1605961006.6068,48
1605961006.6087,51
1605961006.6109,58
1605961006.6128,63
1605961006.6148,51
1605961007.0788,21
1605961007.0797,12
1605961007.0821,29
1605961007.0831,29
1605961007.0847,12
1605961007.0868,12
1605961007.0887,24
1605961007.0908,41
1605961007.0927,53
1605961007.0947,43
1605961007.0967,34
1605961007.0987,39
1605961007.1007,39
1605961007.1027,31
1605961007.1047,34
1605961007.1067,4
1605961007.1087,-185
1605961007.1108,-451
1605961007.1127,-344
1605961007.1132,280
1605961007.1146,634
1605961007.1167,253
1605961007.1187,-56
1605961007.1207,51
1605961007.1226,65
1605961007.1247,-24
1605961007.1269,-2
1605961007.1287,17
1605961007.1307,-19
1605961007.1326,-19
1605961007.1346,7
1605961007.1366,-2
1605961007.1386,-14
1605961007.1406,-7
1605961007.1426,-12
1605961007.1432,-24
1605961007.1446,-21
1605961007.1466,-24
1605961007.1486,-29
1605961007.1506,-36
1605961007.1526,-43
1605961007.1546,-43
1605961007.1566,-58
1605961007.1586,-70
1605961007.1606,-70
1605961007.1626,-83
1605961007.1646,-95
1605961007.1667,-95
1605961007.1686,-95
1605961007.1706,-100
1605961007.1726,-95
1605961007.1733,-87
1605961007.1746,-78
1605961007.1766,-63
1605961007.1786,-41
1605961007.1806,-24
1605961007.1826,-2
1605961007.1846,24
1605961007.1867,41
1605961007.1887,58
1605961007.1906,73
1605961007.1926,85
1605961007.1946,90
1605961007.1967,87
1605961007.1986,90
1605961007.2006,97
1605961007.2026,97
1605961007.2032,83
1605961007.2046,70
1605961007.2066,68
1605961007.2086,75
1605961007.2107,70
1605961007.2126,61
1605961007.6492,53
1605961007.6501,56
1605961007.6525,56
1605961007.6542,53
1605961007.6565,56
1605961007.6582,58
1605961007.6602,53
1605961007.6622,56
1605961007.6628,46
1605961007.6642,31
1605961007.6662,39
1605961007.6681,48
1605961007.6701,39
1605961007.6721,26
1605961007.6741,29
1605961007.6762,31
1605961007.6781,31
1605961007.6801,36
1605961007.6821,41
1605961007.6842,36
1605961007.6863,31
1605961007.6881,34
1605961007.6901,39
1605961007.6921,41
1605961007.6928,43
1605961007.6941,36
1605961007.6962,29
1605961007.6981,34
1605961007.7001,43
1605961007.7021,41
1605961007.7041,36
1605961007.7061,36
1605961007.7081,39
1605961007.7101,46
1605961007.7121,46
1605961007.7141,34
1605961007.7162,14
1605961007.7181,7
1605961007.7201,17
1605961007.7222,21
1605961007.7241,24
1605961007.7261,31
1605961007.7282,39
1605961007.7301,41
1605961007.7321,41
1605961007.7341,53
1605961007.7362,56
1605961007.7381,43
1605961007.7401,43
1605961007.7421,46
1605961007.7442,48
1605961007.7462,-4
1605961007.7481,-244
1605961007.7501,-502
1605961007.7521,-246
1605961007.7529,488
1605961007.7541,715
1605961007.7561,224
1605961007.7581,-19
1605961007.7601,90
1605961007.7621,34
1605961007.7641,-41
1605961007.7661,14
1605961007.7681,29
1605961007.7701,0
1605961007.7721,0
1605961007.7741,2
1605961007.7761,-9
1605961007.7781,-12
1605961007.7801,-9
1605961007.7821,-17
1605961007.7827,-24
1605961007.7841,-26
1605961008.1893,-36
1605961008.1902,-53
1605961008.1926,-63
1605961008.1943,-68
1605961008.1962,-78
1605961008.1982,-85
1605961008.2002,-85
1605961008.2023,-92
1605961008.2042,-114
1605961008.2062,-141
1605961008.2082,-153
1605961008.2102,-146
1605961008.2122,-141
1605961008.2143,-141
1605961008.2150,-126
1605961008.2163,-109
1605961008.2182,-107
1605961008.2202,-85
1605961008.2222,-56
1605961008.2242,-29
1605961008.2263,2
1605961008.2282,31
1605961008.2302,48
1605961008.2322,68
1605961008.2342,83
1605961008.2362,87
1605961008.2382,85
1605961008.2402,87
1605961008.2422,95
1605961008.2442,87
1605961008.2448,78
1605961008.2462,70
1605961008.2482,63
1605961008.2504,65
1605961008.2522,70
1605961008.2542,65
1605961008.2561,48
1605961008.2581,39
1605961008.2601,46
1605961008.2622,46
1605961008.2642,39
1605961008.2662,41
1605961008.2681,41
1605961008.2701,39
1605961008.2721,46
1605961008.2742,46
1605961008.2748,51
1605961008.2762,56
1605961008.2781,53
1605961008.2801,51
1605961008.2821,56
1605961008.2841,56
1605961008.2862,53
1605961008.2882,58
1605961008.2901,61
1605961008.2921,56
1605961008.2941,58
1605961008.2962,61
1605961008.2982,63
1605961008.3001,61
1605961008.3021,56
1605961008.3041,53
1605961008.3048,58
1605961008.3061,70
1605961008.3081,73
1605961008.3102,53
1605961008.3121,31
1605961008.3141,29
1605961008.3162,39
1605961008.3181,39
1605961008.3201,31
1605961008.3222,34
1605961008.3241,48
1605961008.7592,48
1605961008.7602,46
1605961008.7619,53
1605961008.7630,46
1605961008.7653,39
1605961008.7672,41
1605961008.7692,46
1605961008.7713,26
1605961008.7732,-124
1605961008.7752,-412
1605961008.7772,-444
1605961008.7794,156
1605961008.7812,725
1605961008.7832,451
1605961008.7852,-2
1605961008.7873,41
1605961008.7892,97
1605961008.7898,-9
1605961008.7912,-7
1605961008.7932,31
1605961008.7952,7
1605961008.7972,7
1605961008.7992,24
1605961008.8012,7
1605961008.8032,-2
1605961008.8052,9
1605961008.8072,4
1605961008.8092,-4
1605961008.8112,-7
1605961008.8133,-12
1605961008.8152,-21
1605961008.8172,-29
1605961008.8192,-36
1605961008.8198,-43
1605961008.8211,-56
1605961008.8231,-70
1605961008.8251,-78
1605961008.8271,-80
1605961008.8291,-92
1605961008.8312,-109
1605961008.8331,-112
1605961008.8351,-109
1605961008.8372,-114
1605961008.8391,-104
1605961008.8411,-87
1605961008.8432,-83
1605961008.8451,-68
1605961008.8472,-31
1605961008.8491,2
1605961008.8498,26
1605961008.8511,51
1605961008.8531,73
1605961008.8552,83
1605961008.8571,97
1605961008.8591,107
1605961008.8612,104
1605961008.8632,104
1605961008.8651,104
1605961008.8672,92
1605961008.8691,87
1605961008.8711,97
1605961008.8731,100
1605961008.8753,83
1605961008.8772,61
1605961008.8792,61
1605961008.8798,58
1605961008.8811,46
1605961008.8831,43
1605961008.8851,46
1605961008.8871,46
1605961008.8891,43
1605961008.8911,43
1605961008.8931,48
1605961009.2988,48
1605961009.2997,51
1605961009.3022,56
1605961009.3039,61
1605961009.3059,63
1605961009.3078,58
1605961009.3098,58
1605961009.3119,58
1605961009.3126,53
1605961009.3138,53
1605961009.3159,51
1605961009.3177,48
1605961009.3197,46
1605961009.3217,43
1605961009.3237,48
1605961009.3259,51
1605961009.3277,41
1605961009.3297,43
1605961009.3317,56
1605961009.3337,58
1605961009.3358,56
1605961009.3377,51
1605961009.3397,34
1605961009.3417,19
1605961009.3423,19
1605961009.3437,26
1605961009.3458,29
1605961009.3478,34
1605961009.3497,43
1605961009.3517,48
1605961009.3537,46
1605961009.3558,48
1605961009.3577,51
1605961009.3597,46
1605961009.3617,36
1605961009.3637,39
1605961009.3658,34
1605961009.3677,-85
1605961009.3697,-366
1605961009.3717,-466
1605961009.3725,34
1605961009.3737,620
1605961009.3758,441
1605961009.3777,0
1605961009.3797,19
1605961009.3817,119
1605961009.3837,24
1605961009.3858,0
1605961009.3877,43
1605961009.3897,26
1605961009.3917,12
1605961009.3937,31
1605961009.3958,34
1605961009.3977,24
1605961009.3997,12
1605961009.4017,-2
1605961009.4023,-7
1605961009.4037,-9
1605961009.4057,-7
1605961009.4077,-12
1605961009.4097,-26
1605961009.4117,-34
1605961009.4137,-24
1605961009.4159,-26
1605961009.4177,-46
1605961009.4197,-58
1605961009.4217,-61
1605961009.4237,-83
1605961009.4258,-102
1605961009.4277,-92
1605961009.4297,-83
1605961009.4317,-87
1605961009.4323,-87
1605961009.8393,-73
1605961009.8402,-58
1605961009.8426,-48
1605961009.8443,-31
1605961009.8463,0
1605961009.8483,21
1605961009.8503,26
1605961009.8523,41
1605961009.8543,63
1605961009.8562,80
1605961009.8582,83
1605961009.8602,85
1605961009.8622,87
1605961009.8629,90
1605961009.8643,87
1605961009.8663,70
1605961009.8683,61
1605961009.8702,65
1605961009.8725,65
1605961009.8743,58
1605961009.8763,58
1605961009.8782,58
1605961009.8802,56
1605961009.8822,58
1605961009.8843,56
1605961009.8863,46
1605961009.8882,36
1605961009.8902,41
1605961009.8922,43
1605961009.8929,43
1605961009.8942,48
1605961009.8962,48
1605961009.8982,51
1605961009.9002,61
1605961009.9022,53
1605961009.9042,48
1605961009.9062,56
1605961009.9082,53
1605961009.9102,48
1605961009.9122,53
1605961009.9142,58
1605961009.9162,56
1605961009.9182,48
1605961009.9202,48
1605961009.9222,53
1605961009.9228,51
1605961009.9242,48
1605961009.9263,43
1605961009.9282,39
1605961009.9302,46
1605961009.9322,58
1605961009.9343,53
1605961009.9363,29
1605961009.9382,12
1605961009.9402,21
1605961009.9422,29
1605961009.9442,24
1605961009.9463,19
1605961009.9483,29
1605961009.9503,46
1605961009.9522,58
1605961009.9528,61
1605961009.9543,51
1605961009.9563,46
1605961009.9583,56
1605961009.9603,51
1605961009.9623,41
1605961009.9643,14
1605961009.9663,-163
1605961009.9684,-444
1605961009.9703,-361
1605961009.9722,263
1605961009.9742,649
1605961010.4691,288
1605961010.4703,-31
1605961010.4728,68
1605961010.4739,80
1605961010.4754,-14
1605961010.4774,7
1605961010.4794,41
1605961010.4815,12
1605961010.4834,-2
1605961010.4854,4
1605961010.4874,0
1605961010.4895,0
1605961010.4914,9
1605961010.4934,2
1605961010.4954,-2
1605961010.4974,-2
1605961010.4994,-7
1605961010.5013,-14
1605961010.5034,-29
1605961010.5040,-34
1605961010.5053,-31
1605961010.5074,-41
1605961010.5093,-53
1605961010.5114,-61
1605961010.5134,-73
1605961010.5154,-90
1605961010.5174,-95
1605961010.5193,-87
1605961010.5213,-85
1605961010.5233,-80
1605961010.5253,-73
1605961010.5273,-78
1605961010.5293,-75
1605961010.5313,-53
1605961010.5333,-29
1605961010.5339,-7
1605961010.5354,26
1605961010.5373,53
1605961010.5394,68
1605961010.5413,73
1605961010.5433,78
1605961010.5453,87
1605961010.5473,90
1605961010.5494,73
1605961010.5513,61
1605961010.5533,65
1605961010.5553,65
1605961010.5575,61
1605961010.5593,61
1605961010.5613,48
1605961010.5633,48
1605961010.5639,58
1605961010.5653,48
1605961010.5673,36
1605961010.5693,41
1605961010.5713,48
1605961010.5733,43
1605961010.5753,29
1605961010.5773,29
1605961010.5793,43
1605961010.5813,46
1605961010.5833,34
1605961010.5853,29
1605961010.5874,36
1605961010.5893,48
1605961010.5913,51
1605961010.5933,46
1605961010.5939,41
1605961010.5953,39
1605961010.5973,36
1605961010.5993,39
1605961010.6013,46
1605961010.6034,53
1605961011.0094,51
1605961011.0106,41
1605961011.0131,29
1605961011.0158,34
1605961011.0177,46
1605961011.0197,43
1605961011.0217,41
1605961011.0237,48
1605961011.0245,34
1605961011.0257,19
1605961011.0277,31
1605961011.0297,39
1605961011.0317,29
1605961011.0337,24
1605961011.0358,29
1605961011.0377,19
1605961011.0397,0
1605961011.0417,-2
1605961011.0437,9
1605961011.0457,14
1605961011.0476,4
1605961011.0496,12
1605961011.0516,34
1605961011.0536,39
1605961011.0542,31
1605961011.0560,34
1605961011.0576,43
1605961011.0596,39
1605961011.0616,24
1605961011.0636,26
1605961011.0657,46
1605961011.0676,-7
1605961011.0696,-234
1605961011.0716,-485
1605961011.0736,-288
1605961011.0756,373
1605961011.0776,598
1605961011.0796,158
1605961011.0816,-58
1605961011.0836,80
1605961011.0842,68
1605961011.0857,-7
1605961011.0876,26
1605961011.0896,34
1605961011.0916,2
1605961011.0936,9
1605961011.0957,24
1605961011.0976,12
1605961011.0996,4
1605961011.1016,4
1605961011.1036,4
1605961011.1056,0
1605961011.1076,-7
1605961011.1096,-9
1605961011.1116,-14
1605961011.1136,-24
1605961011.1142,-29
1605961011.1157,-31
1605961011.1176,-39
1605961011.1196,-51
1605961011.1216,-58
1605961011.1236,-65
1605961011.1256,-78
1605961011.1276,-87
1605961011.1296,-87
1605961011.1316,-87
1605961011.1336,-90
1605961011.1356,-87
1605961011.1376,-70
1605961011.1396,-46
1605961011.1416,-34
1605961011.1436,-21
1605961011.1442,4
1605961011.5790,36
1605961011.5800,58
1605961011.5815,70
1605961011.5838,78
1605961011.5855,83
1605961011.5875,87
1605961011.5895,90
1605961011.5915,83
1605961011.5935,80
1605961011.5955,70
1605961011.5975,56
1605961011.5995,65
1605961011.6001,73
1605961011.6015,61
1605961011.6035,56
1605961011.6055,56
1605961011.6075,48
1605961011.6095,41
1605961011.6115,36
1605961011.6135,31
1605961011.6155,34
1605961011.6176,39
1605961011.6195,39
1605961011.6215,36
1605961011.6234,39
1605961011.6254,36
1605961011.6274,31
1605961011.6280,31
1605961011.6294,31
1605961011.6315,34
1605961011.6334,39
1605961011.6354,41
1605961011.6374,41
1605961011.6394,43
1605961011.6414,48
1605961011.6434,51
1605961011.6454,46
1605961011.6474,41
1605961011.6494,39
1605961011.6514,43
1605961011.6534,46
1605961011.6554,46
1605961011.6574,41
1605961011.6580,39
1605961011.6594,39
1605961011.6614,43
1605961011.6635,48
1605961011.6654,46
1605961011.6674,39
1605961011.6694,46
1605961011.6714,51
1605961011.6734,39
1605961011.6754,36
1605961011.6774,48
1605961011.6796,46
1605961011.6815,39
1605961011.6835,29
1605961011.6854,17
1605961011.6874,17
1605961011.6880,26
1605961011.6894,21
1605961011.6914,21
1605961011.6935,36
1605961011.6954,48
1605961011.6974,53
1605961011.6994,51
1605961011.7014,53
1605961011.7034,51
1605961011.7054,43
1605961011.7074,39
1605961011.7094,46
1605961011.7114,51
1605961011.7134,-58
1605961012.1192,-344
1605961012.1201,-471
1605961012.1219,2
1605961012.1242,627
1605961012.1263,510
1605961012.1282,41
1605961012.1302,4
1605961012.1322,87
1605961012.1342,-2
1605961012.1363,-17
1605961012.1382,21
1605961012.1402,-7
1605961012.1422,-26
1605961012.1442,-7
1605961012.1462,-7
1605961012.1482,-19
1605961012.1502,-17
1605961012.1522,-21
1605961012.1528,-26
1605961012.1542,-26
1605961012.1562,-34
1605961012.1581,-43
1605961012.1601,-43
1605961012.1621,-48
1605961012.1641,-63
1605961012.1662,-70
1605961012.1681,-70
1605961012.1701,-78
1605961012.1721,-92
1605961012.1741,-95
1605961012.1762,-100
1605961012.1781,-114
1605961012.1803,-112
1605961012.1822,-109
1605961012.1827,-117
1605961012.1842,-117
1605961012.1862,-100
1605961012.1881,-80
1605961012.1901,-65
1605961012.1921,-39
1605961012.1942,-9
1605961012.1961,7
1605961012.1981,31
1605961012.2001,68
1605961012.2021,85
1605961012.2041,83
1605961012.2061,85
1605961012.2081,92
1605961012.2101,97
1605961012.2121,90
1605961012.2127,85
1605961012.2141,85
1605961012.2162,80
1605961012.2181,70
1605961012.2201,61
1605961012.2221,58
1605961012.2241,58
1605961012.2261,58
1605961012.2281,61
1605961012.2301,56
1605961012.2321,53
1605961012.2341,56
1605961012.2362,51
1605961012.2381,48
1605961012.2401,48
1605961012.2421,51
1605961012.2427,51
1605961012.2441,46
1605961012.2461,48
1605961012.2481,53
1605961012.2501,58
1605961012.2521,58
1605961012.2541,51
1605961012.6588,56
1605961012.6597,65
1605961012.6621,58
1605961012.6648,53
1605961012.6669,56
1605961012.6688,51
1605961012.6709,51
1605961012.6715,51
1605961012.6729,41
1605961012.6748,36
1605961012.6770,43
1605961012.6788,46
1605961012.6807,34
1605961012.6827,31
1605961012.6847,43
1605961012.6867,46
1605961012.6888,43
1605961012.6907,46
1605961012.6927,46
1605961012.6947,29
1605961012.6967,12
1605961012.6987,14
1605961012.7007,26
1605961012.7013,31
1605961012.7027,41
1605961012.7047,43
1605961012.7067,43
1605961012.7087,53
1605961012.7107,56
1605961012.7127,53
1605961012.7147,53
1605961012.7168,48
1605961012.7187,41
1605961012.7207,43
1605961012.7227,26
1605961012.7247,-144
1605961012.7267,-432
1605961012.7287,-375
1605961012.7307,268
1605961012.7313,722
1605961012.7327,371
1605961012.7347,-19
1605961012.7367,61
1605961012.7387,97
1605961012.7407,-4
1605961012.7428,9
1605961012.7447,43
1605961012.7467,17
1605961012.7487,7
1605961012.7507,17
1605961012.7527,14
1605961012.7547,9
1605961012.7567,9
1605961012.7587,4
1605961012.7607,-2
1605961012.7613,-4
1605961012.7627,-7
1605961012.7647,-9
1605961012.7667,-12
1605961012.7687,-29
1605961012.7707,-39
1605961012.7729,-41
1605961012.7747,-56
1605961012.7767,-75
1605961012.7787,-85
1605961012.7807,-90
1605961012.7827,-92
1605961012.7847,-102
1605961012.7867,-114
1605961012.7887,-109
1605961012.7907,-92
1605961012.7913,-87
1605961012.7927,-87
1605961013.2289,-65
1605961013.2299,-36
1605961013.2323,-12
1605961013.2350,21
1605961013.2370,41
1605961013.2389,48
1605961013.2411,61
1605961013.2431,75
1605961013.2450,83
1605961013.2469,90
1605961013.2489,90
1605961013.2509,87
1605961013.2529,83
1605961013.2535,83
1605961013.2549,85
1605961013.2569,80
1605961013.2589,75
1605961013.2609,70
1605961013.2629,61
1605961013.2649,56
1605961013.2669,63
1605961013.2688,65
1605961013.2708,51
1605961013.2728,48
1605961013.2748,53
1605961013.2769,43
1605961013.2788,41
1605961013.2808,48
1605961013.2829,46
1605961013.2835,48
1605961013.2848,56
1605961013.2869,58
1605961013.2888,56
1605961013.2908,53
1605961013.2928,61
1605961013.2948,70
1605961013.2968,63
1605961013.2988,61
1605961013.3008,56
1605961013.3030,51
1605961013.3049,53
1605961013.3068,63
1605961013.3088,68
1605961013.3108,63
1605961013.3128,56
1605961013.3134,58
1605961013.3148,61
1605961013.3169,58
1605961013.3188,58
1605961013.3208,58
1605961013.3228,63
1605961013.3249,61
1605961013.3269,53
1605961013.3288,51
1605961013.3308,63
1605961013.3328,73
1605961013.3348,70
1605961013.3368,61
1605961013.3388,43
1605961013.3408,26
1605961013.3428,29
1605961013.3434,39
1605961013.3448,34
1605961013.3468,31
1605961013.3488,48
1605961013.3508,65
1605961013.3528,65
1605961013.3548,61
1605961013.3568,58
1605961013.3588,43
1605961013.3608,39
1605961013.3628,43
1605961013.3648,36
1605961013.8288,-9
1605961013.8298,-209
1605961013.8315,-466
1605961013.8338,-290
1605961013.8359,371
1605961013.8378,612
1605961013.8398,168
1605961013.8418,-58
1605961013.8438,83
1605961013.8459,63
1605961013.8478,-21
1605961013.8498,19
1605961013.8518,41
1605961013.8538,12
1605961013.8559,9
1605961013.8578,17
1605961013.8598,4
1605961013.8620,7
1605961013.8625,14
1605961013.8638,2
1605961013.8659,-14
1605961013.8678,-21
1605961013.8698,-24
1605961013.8718,-26
1605961013.8738,-24
1605961013.8758,-36
1605961013.8778,-46
1605961013.8798,-48
1605961013.8817,-51
1605961013.8837,-56
1605961013.8858,-70
1605961013.8877,-90
1605961013.8897,-97
1605961013.8917,-95
1605961013.8923,-92
1605961013.8937,-87
1605961013.8958,-75
1605961013.8977,-65
1605961013.8997,-63
1605961013.9017,-46
1605961013.9037,-17
1605961013.9058,7
1605961013.9077,34
1605961013.9097,56
1605961013.9117,65
1605961013.9137,73
1605961013.9158,87
1605961013.9177,92
1605961013.9197,90
1605961013.9217,90
1605961013.9223,90
1605961013.9237,85
1605961013.9258,85
1605961013.9277,87
1605961013.9298,83
1605961013.9317,75
1605961013.9337,70
1605961013.9357,70
1605961013.9377,75
1605961013.9397,68
1605961013.9417,58
1605961013.9437,53
1605961013.9458,51
1605961013.9477,51
1605961013.9498,53
1605961013.9517,48
1605961013.9523,43
1605961013.9537,48
1605961013.9560,58
1605961013.9577,58
1605961013.9597,51
1605961013.9617,56
1605961013.9637,61
1605961014.3690,51
1605961014.3699,48
1605961014.3724,56
1605961014.3750,56
1605961014.3770,56
1605961014.3790,61
1605961014.3811,58
1605961014.3830,51
1605961014.3850,46
1605961014.3858,43
1605961014.3870,46
1605961014.3891,43
1605961014.3910,34
1605961014.3930,34
1605961014.3950,34
1605961014.3970,34
1605961014.3989,39
1605961014.4009,41
1605961014.4030,41
1605961014.4050,39
1605961014.4070,36
1605961014.4090,43
1605961014.4110,46
1605961014.4130,46
1605961014.4149,48
1605961014.4157,36
1605961014.4169,9
1605961014.4189,7
1605961014.4209,26
1605961014.4229,31
1605961014.4249,19
1605961014.4269,24
1605961014.4289,46
1605961014.4309,53
1605961014.4329,48
1605961014.4349,46
1605961014.4370,48
1605961014.4389,43
1605961014.4409,36
1605961014.4429,39
1605961014.4449,46
1605961014.4456,-7
1605961014.4469,-231
1605961014.4489,-480
1605961014.4509,-266
1605961014.4529,390
1605961014.4551,590
1605961014.4569,151
1605961014.4589,-46
1605961014.4609,87
1605961014.4630,56
1605961014.4649,-14
1605961014.4670,31
1605961014.4689,36
1605961014.4709,-2
1605961014.4729,4
1605961014.4749,17
1605961014.4756,2
1605961014.4769,-2
1605961014.4789,0
1605961014.4809,-7
1605961014.4829,-19
1605961014.4849,-21
1605961014.4869,-21
1605961014.4889,-31
1605961014.4909,-36
1605961014.4929,-39
1605961014.4949,-46
1605961014.4969,-56
1605961014.4989,-63
1605961014.5009,-70
1605961014.5029,-75
1605961014.5049,-80
1605961014.9087,-90
1605961014.9094,-100
1605961014.9117,-100
1605961014.9145,-90
1605961014.9165,-83
1605961014.9184,-73
1605961014.9205,-63
1605961014.9224,-51
1605961014.9244,-29
1605961014.9265,-12
1605961014.9284,9
1605961014.9304,41
1605961014.9324,51
1605961014.9331,56
1605961014.9344,75
1605961014.9364,85
1605961014.9384,78
1605961014.9404,78
1605961014.9424,85
1605961014.9444,83
1605961014.9464,78
1605961014.9484,80
1605961014.9504,80
1605961014.9524,70
1605961014.9546,65
1605961014.9564,65
1605961014.9584,61
1605961014.9604,53
1605961014.9624,56
1605961014.9631,56
1605961014.9644,51
1605961014.9664,53
1605961014.9684,51
1605961014.9704,41
1605961014.9724,51
1605961014.9744,58
1605961014.9764,51
1605961014.9784,46
1605961014.9804,46
1605961014.9824,48
1605961014.9844,53
1605961014.9864,61
1605961014.9884,58
1605961014.9904,48
1605961014.9924,48
1605961014.9930,53
1605961014.9944,56
1605961014.9964,46
1605961014.9984,36
1605961015.0004,41
1605961015.0024,46
1605961015.0037,46
1605961015.0054,48
1605961015.0074,48
1605961015.0094,48
1605961015.0114,48
1605961015.0134,43
1605961015.0154,46
1605961015.0174,43
1605961015.0194,41
1605961015.0200,43
1605961015.0214,48
1605961015.0234,48
1605961015.0254,48
1605961015.0274,56
1605961015.0294,53
1605961015.0314,29
1605961015.0334,4
1605961015.0354,7
1605961015.0374,21
1605961015.0394,21
1605961015.0414,21
1605961015.0434,36
1605961015.4792,51
1605961015.4803,56
1605961015.4822,56
1605961015.4844,53
1605961015.4864,43
1605961015.4883,39
1605961015.4903,26
1605961015.4923,21
1605961015.4943,34
1605961015.4963,-36
1605961015.4983,-278
1605961015.5003,-480
1605961015.5023,-175
1605961015.5043,478
1605961015.5063,568
1605961015.5083,104
1605961015.5103,-39
1605961015.5123,87
1605961015.5205,34
1605961015.5223,-29
1605961015.5242,17
1605961015.5263,24
1605961015.5282,0
1605961015.5302,12
1605961015.5323,12
1605961015.5342,-4
1605961015.5363,-9
1605961015.5382,-9
1605961015.5402,-14
1605961015.5422,-21
1605961015.5442,-24
1605961015.5462,-24
1605961015.5482,-26
1605961015.5488,-34
1605961015.5502,-46
1605961015.5522,-56
1605961015.5542,-51
1605961015.5563,-58
1605961015.5582,-68
1605961015.5602,-75
1605961015.5622,-95
1605961015.5642,-112
1605961015.5663,-109
1605961015.5682,-102
1605961015.5702,-95
1605961015.5722,-83
1605961015.5742,-70
1605961015.5762,-58
1605961015.5782,-43
1605961015.5788,-24
1605961015.5802,0
1605961015.5822,24
1605961015.5842,41
1605961015.5865,53
1605961015.5883,63
1605961015.5902,75
1605961015.5922,90
1605961015.5942,92
1605961015.5962,87
1605961015.5982,80
1605961015.6002,80
1605961015.6022,80
1605961015.6042,80
1605961015.6062,70
1605961015.6082,63
1605961015.6089,58
1605961015.6102,53
1605961015.6122,58
1605961015.6142,61
1605961015.6163,51
1605961015.6182,48
1605961015.6202,53
1605961015.6222,46
1605961016.0190,46
1605961016.0199,53
1605961016.0224,53
1605961016.0250,53
1605961016.0270,53
1605961016.0290,48
1605961016.0296,46
1605961016.0311,46
1605961016.0329,43
1605961016.0349,39
1605961016.0370,41
1605961016.0389,43
1605961016.0409,43
1605961016.0429,39
1605961016.0449,31
1605961016.0469,31
1605961016.0489,43
1605961016.0509,41
1605961016.0529,34
1605961016.0549,39
1605961016.0569,48
1605961016.0589,43
1605961016.0596,29
1605961016.0609,29
1605961016.0629,39
1605961016.0649,41
1605961016.0669,36
1605961016.0689,34
1605961016.0709,39
1605961016.0730,39
1605961016.0749,41
1605961016.0771,46
1605961016.0790,36
1605961016.0809,24
1605961016.0829,17
1605961016.0849,7
1605961016.0869,2
1605961016.0889,9
1605961016.0896,14
1605961016.0909,14
1605961016.0929,14
1605961016.0949,24
1605961016.0969,43
1605961016.0989,46
1605961016.1009,39
1605961016.1029,36
1605961016.1049,34
1605961016.1069,24
1605961016.1089,29
1605961016.1109,36
1605961016.1129,-70
1605961016.1149,-354
1605961016.1170,-490
1605961016.1189,-36
1605961016.1195,593
1605961016.1209,507
1605961016.1229,41
1605961016.1249,-7
1605961016.1269,92
1605961016.1289,14
1605961016.1309,-19
1605961016.1329,17
1605961016.1349,2
1605961016.1369,-19
1605961016.1389,-7
1605961016.1409,-2
1605961016.1429,-19
1605961016.1449,-19
1605961016.1469,-14
1605961016.1489,-24
1605961016.1495,-26
1605961016.1509,-21
1605961016.1529,-29
1605961016.5887,-36
1605961016.5897,-46
1605961016.5921,-56
1605961016.5948,-65
1605961016.5968,-75
1605961016.5988,-90
1605961016.6009,-102
1605961016.6028,-112
1605961016.6048,-114
1605961016.6069,-109
1605961016.6074,-112
1605961016.6087,-119
1605961016.6107,-109
1605961016.6127,-92
1605961016.6147,-80
1605961016.6169,-68
1605961016.6187,-61
1605961016.6207,-36
1605961016.6227,2
1605961016.6249,24
1605961016.6267,36
1605961016.6288,53
1605961016.6308,70
1605961016.6327,83
1605961016.6347,87
1605961016.6367,85
1605961016.6373,83
1605961016.6387,80
1605961016.6407,75
1605961016.6427,73
1605961016.6447,80
1605961016.6467,73
1605961016.6487,53
1605961016.6507,43
1605961016.6527,46
1605961016.6547,43
1605961016.6567,43
1605961016.6587,51
1605961016.6607,53
1605961016.6627,39
1605961016.6647,29
1605961016.6667,43
1605961016.6673,53
1605961016.6687,46
1605961016.6707,43
1605961016.6727,51
1605961016.6747,51
1605961016.6767,53
1605961016.6787,56
1605961016.6807,51
1605961016.6827,46
1605961016.6848,53
1605961016.6867,56
1605961016.6887,56
1605961016.6907,61
1605961016.6927,58
1605961016.6947,48
1605961016.6967,51
1605961016.6973,56
1605961016.6987,51
1605961016.7008,41
1605961016.7027,43
1605961016.7047,56
1605961016.7067,56
1605961016.7087,48
1605961016.7107,43
1605961016.7127,43
1605961016.7147,43
1605961016.7167,43
1605961016.7187,48
1605961016.7207,43
1605961016.7227,24
1605961016.7247,12
1605961017.1891,14
1605961017.1901,24
1605961017.1924,26
1605961017.1942,26
1605961017.1962,39
1605961017.1981,43
1605961017.2001,31
1605961017.2021,34
1605961017.2041,36
1605961017.2061,26
1605961017.2081,24
1605961017.2101,31
1605961017.2121,41
1605961017.2141,36
1605961017.2162,-73
1605961017.2181,-351
1605961017.2201,-488
1605961017.2207,-19
1605961017.2221,644
1605961017.2241,563
1605961017.2261,65
1605961017.2281,-7
1605961017.2301,78
1605961017.2321,-9
1605961017.2341,-34
1605961017.2361,17
1605961017.2381,-4
1605961017.2401,-26
1605961017.2421,-12
1605961017.2441,-17
1605961017.2460,-24
1605961017.2481,-14
