Time,ECG
1602662316.1839,141
1602662316.1864,806
1602662316.1890,2027
1602662316.1916,2978
1602662316.1936,3497
1602662316.1956,4063
1602662316.1978,4616
1602662316.1997,5011
1602662316.2017,5384
1602662316.2037,5754
1602662316.2054,6061
1602662316.2074,6354
1602662316.2094,6639
1602662316.2114,6883
1602662316.2134,7114
1602662316.2154,7341
1602662316.2174,7545
1602662316.2193,7728
1602662316.2214,7899
1602662316.2234,8072
1602662316.2254,8245
1602662316.2274,8384
1602662316.2294,8506
1602662316.2314,8650
1602662316.2334,8784
1602662316.2355,8886
1602662316.2374,8984
1602662316.2394,9096
1602662316.2414,9196
1602662316.2434,9269
1602662316.2453,9339
1602662316.2473,9427
1602662316.2493,9493
1602662316.2513,9537
1602662316.2533,9590
1602662316.2553,9654
1602662316.2573,9700
1602662316.2593,9737
1602662316.2613,9778
1602662316.2633,9812
1602662316.2653,9837
1602662316.2673,9863
1602662316.2693,9885
1602662316.2713,9902
1602662316.2733,9917
1602662316.2753,9919
1602662316.2773,9924
1602662316.2793,9941
1602662316.2813,9937
1602662316.2833,9917
1602662316.2860,9924
1602662316.2873,9934
1602662316.2892,9902
1602662316.2912,9863
1602662316.2932,9851
1602662316.2953,9837
1602662316.2972,9810
1602662316.2992,9781
1602662316.3012,9749
1602662316.3033,9720
1602662316.3053,9688
1602662316.3072,9644
1602662316.3092,9610
1602662316.3112,9588
1602662316.3132,9559
1602662316.3153,9529
1602662316.3172,9493
1602662316.3192,9437
1602662316.3212,9381
1602662316.3232,9330
1602662316.3253,9269
1602662316.3272,9205
1602662316.3292,9147
1602662316.7214,9096
1602662316.7222,9047
1602662316.7247,8988
1602662316.7274,8927
1602662316.7293,8876
1602662316.7313,8823
1602662316.7333,8742
1602662316.7353,8689
1602662316.7373,8825
1602662316.7393,9127
1602662316.7413,9088
1602662316.7433,8403
1602662316.7452,7872
1602662316.7472,8096
1602662316.7492,8311
1602662316.7512,8140
1602662316.7532,8072
1602662316.7553,8096
1602662316.7572,8001
1602662316.7592,7911
1602662316.7612,7872
1602662316.7632,7804
1602662316.7653,7731
1602662316.7672,7677
1602662316.7692,7619
1602662316.7712,7553
1602662316.7733,7489
1602662316.7753,7424
1602662316.7774,7358
1602662316.7793,7299
1602662316.7812,7238
1602662316.7832,7177
1602662316.7852,7119
1602662316.7872,7051
1602662316.7892,6985
1602662316.7912,6934
1602662316.7932,6885
1602662316.7952,6824
1602662316.7972,6758
1602662316.7992,6695
1602662316.8012,6641
1602662316.8032,6592
1602662316.8052,6534
1602662316.8072,6478
1602662316.8092,6412
1602662316.8112,6334
1602662316.8132,6268
1602662316.8152,6205
1602662316.8172,6129
1602662316.8192,6059
1602662316.8212,5976
1602662316.8232,5883
1602662316.8252,5798
1602662316.8272,5717
1602662316.8292,5635
1602662316.8312,5559
1602662316.8332,5491
1602662316.8353,5420
1602662316.8372,5352
1602662316.8392,5289
1602662316.8412,5237
1602662316.8432,5191
1602662316.8452,5137
1602662316.8472,5081
1602662316.8492,5028
1602662316.8512,4977
1602662316.8532,4928
1602662316.8552,4881
1602662316.8572,4830
1602662316.8592,4779
1602662316.8612,4730
1602662316.8632,4684
1602662316.8652,4638
1602662317.2915,4589
1602662317.2921,4533
1602662317.2947,4474
1602662317.2972,4421
1602662317.2992,4365
1602662317.3012,4321
1602662317.3034,4289
1602662317.3053,4243
1602662317.3072,4167
1602662317.3092,4104
1602662317.3113,4060
1602662317.3132,4021
1602662317.3152,3972
1602662317.3172,3914
1602662317.3192,3868
1602662317.3212,3831
1602662317.3232,3785
1602662317.3252,3736
1602662317.3272,3702
1602662317.3292,3660
1602662317.3312,3609
1602662317.3332,3568
1602662317.3353,3534
1602662317.3372,3487
1602662317.3393,3436
1602662317.3413,3400
1602662317.3432,3373
1602662317.3452,3336
1602662317.3473,3290
1602662317.3491,3251
1602662317.3512,3212
1602662317.3531,3161
1602662317.3552,3117
1602662317.3571,3092
1602662317.3592,3066
1602662317.3611,3034
1602662317.3631,3012
1602662317.3652,2980
1602662317.3671,2934
1602662317.3691,2890
1602662317.3711,2861
1602662317.3731,2832
1602662317.3751,2783
1602662317.3771,2729
1602662317.3792,2688
1602662317.3811,2666
1602662317.3832,2639
1602662317.3852,2607
1602662317.3872,2578
1602662317.3892,2551
1602662317.3911,2520
1602662317.3931,2473
1602662317.3952,2517
1602662317.3971,2790
1602662317.3992,3049
1602662317.4011,2710
1602662317.4031,1979
1602662317.4053,1847
1602662317.4071,2239
1602662317.4091,2298
1602662317.4111,2161
1602662317.4131,2210
1602662317.4152,2220
1602662317.4171,2139
1602662317.4191,2130
1602662317.4211,2125
1602662317.4231,2081
1602662317.4252,2066
1602662317.4271,2057
1602662317.4291,2027
1602662317.4311,2005
1602662317.4332,1993
1602662317.4352,1971
1602662317.8312,1947
1602662317.8319,1935
1602662317.8343,1913
1602662317.8369,1888
1602662317.8389,1874
1602662317.8409,1859
1602662317.8429,1847
1602662317.8450,1837
1602662317.8469,1815
1602662317.8489,1789
1602662317.8509,1779
1602662317.8529,1776
1602662317.8549,1754
1602662317.8569,1737
1602662317.8589,1730
1602662317.8609,1723
1602662317.8629,1703
1602662317.8649,1676
1602662317.8669,1654
1602662317.8688,1633
1602662317.8708,1598
1602662317.8729,1557
1602662317.8749,1513
1602662317.8769,1472
1602662317.8789,1430
1602662317.8808,1391
1602662317.8828,1355
1602662317.8849,1328
1602662317.8868,1311
1602662317.8889,1286
1602662317.8909,1260
1602662317.8928,1245
1602662317.8949,1238
1602662317.8968,1225
1602662317.8988,1204
1602662317.9010,1191
1602662317.9029,1186
1602662317.9049,1177
1602662317.9068,1174
1602662317.9088,1165
1602662317.9108,1155
1602662317.9128,1147
1602662317.9149,1138
1602662317.9168,1123
1602662317.9188,1108
1602662317.9208,1101
1602662317.9228,1094
1602662317.9249,1082
1602662317.9269,1069
1602662317.9288,1057
1602662317.9308,1048
1602662317.9328,1035
1602662317.9349,1011
1602662317.9369,999
1602662317.9389,994
1602662317.9408,979
1602662317.9428,960
1602662317.9449,952
1602662317.9468,945
1602662317.9488,931
1602662317.9508,923
1602662317.9528,914
1602662317.9549,899
1602662317.9568,889
1602662317.9588,879
1602662317.9608,870
1602662317.9628,855
1602662317.9649,843
1602662317.9668,838
1602662317.9688,836
1602662317.9708,823
1602662317.9728,814
1602662317.9748,809
1602662318.4015,801
1602662318.4021,787
1602662318.4036,775
1602662318.4056,762
1602662318.4076,745
1602662318.4096,738
1602662318.4116,740
1602662318.4136,750
1602662318.4155,750
1602662318.4176,731
1602662318.4196,719
1602662318.4215,714
1602662318.4236,704
1602662318.4257,684
1602662318.4276,665
1602662318.4295,653
1602662318.4315,648
1602662318.4335,643
1602662318.4355,638
1602662318.4375,633
1602662318.4395,631
1602662318.4415,611
1602662318.4435,584
1602662318.4455,667
1602662318.4475,955
1602662318.4495,1196
1602662318.4515,901
1602662318.4535,272
1602662318.4555,180
1602662318.4575,538
1602662318.4595,599
1602662318.4615,494
1602662318.4635,550
1602662318.4655,570
1602662318.4675,519
1602662318.4695,533
1602662318.4715,555
1602662318.4735,528
1602662318.4755,521
1602662318.4775,538
1602662318.4795,536
1602662318.4815,526
1602662318.4835,526
1602662318.4856,528
1602662318.4875,526
1602662318.4895,526
1602662318.4915,528
1602662318.4935,526
1602662318.4955,526
1602662318.4975,533
1602662318.4995,543
1602662318.5015,541
1602662318.5035,533
1602662318.5055,538
1602662318.5075,548
1602662318.5095,550
1602662318.5115,553
1602662318.5135,558
1602662318.5155,555
1602662318.5175,548
1602662318.5195,548
1602662318.5215,543
1602662318.5235,533
1602662318.5255,531
1602662318.5276,509
1602662318.5295,467
1602662318.5315,443
1602662318.5335,428
1602662318.5355,397
1602662318.5375,370
1602662318.5395,358
1602662318.5415,346
1602662318.5435,331
1602662318.9408,324
1602662318.9414,326
1602662318.9432,324
1602662318.9452,316
1602662318.9472,316
1602662318.9492,321
1602662318.9512,314
1602662318.9532,302
1602662318.9552,302
1602662318.9571,311
1602662318.9591,316
1602662318.9612,311
1602662318.9631,307
1602662318.9651,307
1602662318.9671,309
1602662318.9691,311
1602662318.9711,309
1602662318.9731,307
1602662318.9751,307
1602662318.9772,307
1602662318.9791,302
1602662318.9811,304
1602662318.9832,304
1602662318.9852,302
1602662318.9871,299
1602662318.9892,292
1602662318.9911,287
1602662318.9931,285
1602662318.9952,285
1602662318.9971,287
1602662318.9991,285
1602662319.0012,280
1602662319.0032,277
1602662319.0052,275
1602662319.0072,275
1602662319.0092,277
1602662319.0112,272
1602662319.0132,270
1602662319.0152,268
1602662319.0172,265
1602662319.0192,268
1602662319.0211,263
1602662319.0233,255
1602662319.0252,260
1602662319.0271,270
1602662319.0291,265
1602662319.0311,260
1602662319.0332,251
1602662319.0352,246
1602662319.0371,258
1602662319.0392,280
1602662319.0412,285
1602662319.0432,260
1602662319.0452,248
1602662319.0471,260
1602662319.0491,263
1602662319.0512,246
1602662319.0531,229
1602662319.0552,216
1602662319.0571,214
1602662319.0592,216
1602662319.0612,214
1602662319.0632,221
1602662319.0651,226
1602662319.0671,219
1602662319.0691,199
1602662319.0712,199
1602662319.0732,353
1602662319.0752,684
1602662319.0772,784
1602662319.0792,280
1602662319.0812,-224
1602662319.0832,-38
1602662319.5413,268
1602662319.5421,194
1602662319.5446,141
1602662319.5472,221
1602662319.5492,209
1602662319.5512,173
1602662319.5534,192
1602662319.5552,192
1602662319.5572,168
1602662319.5592,177
1602662319.5611,197
1602662319.5632,197
1602662319.5652,197
1602662319.5671,202
1602662319.5691,204
1602662319.5711,209
1602662319.5731,221
1602662319.5752,224
1602662319.5771,221
1602662319.5791,229
1602662319.5813,231
1602662319.5832,233
1602662319.5851,248
1602662319.5871,260
1602662319.5891,260
1602662319.5911,265
1602662319.5931,275
1602662319.5952,277
1602662319.5971,280
1602662319.5991,290
1602662319.6011,294
1602662319.6031,294
1602662319.6051,294
1602662319.6071,285
1602662319.6091,272
1602662319.6111,260
1602662319.6132,233
1602662319.6152,202
1602662319.6171,175
1602662319.6191,151
1602662319.6211,129
1602662319.6231,116
1602662319.6251,116
1602662319.6271,112
1602662319.6291,104
1602662319.6311,104
1602662319.6332,107
1602662319.6352,107
1602662319.6371,109
1602662319.6391,112
1602662319.6411,112
1602662319.6431,114
1602662319.6452,114
1602662319.6471,119
1602662319.6491,126
1602662319.6511,129
1602662319.6531,129
1602662319.6551,131
1602662319.6571,141
1602662319.6591,148
1602662319.6611,153
1602662319.6631,153
1602662319.6652,146
1602662319.6671,138
1602662319.6691,143
1602662319.6711,143
1602662319.6731,141
1602662319.6752,146
1602662319.6771,148
1602662319.6791,143
1602662319.6811,138
1602662319.6833,131
1602662319.6852,126
1602662320.1107,134
1602662320.1113,136
1602662320.1138,129
1602662320.1164,126
1602662320.1185,134
1602662320.1204,138
1602662320.1224,131
1602662320.1245,126
1602662320.1264,126
1602662320.1283,116
1602662320.1303,107
1602662320.1323,109
1602662320.1344,116
1602662320.1364,114
1602662320.1383,112
1602662320.1404,112
1602662320.1424,119
1602662320.1444,129
1602662320.1464,124
1602662320.1484,116
1602662320.1504,121
1602662320.1524,146
1602662320.1545,165
1602662320.1564,153
1602662320.1583,138
1602662320.1604,148
1602662320.1623,148
1602662320.1644,126
1602662320.1665,109
1602662320.1684,99
1602662320.1703,102
1602662320.1723,104
1602662320.1744,104
1602662320.1764,107
1602662320.1784,114
1602662320.1803,112
1602662320.1824,90
1602662320.1844,87
1602662320.1863,263
1602662320.1883,623
1602662320.1904,711
1602662320.1924,121
1602662320.1944,-436
1602662320.1963,-204
1602662320.1984,146
1602662320.2004,82
1602662320.2023,53
1602662320.2043,141
1602662320.2064,121
1602662320.2085,97
1602662320.2104,129
1602662320.2124,126
1602662320.2144,116
1602662320.2163,129
1602662320.2184,138
1602662320.2203,138
1602662320.2223,141
1602662320.2244,141
1602662320.2263,151
1602662320.2284,158
1602662320.2303,151
1602662320.2324,151
1602662320.2344,170
1602662320.2364,182
1602662320.2384,168
1602662320.2403,165
1602662320.2424,182
1602662320.2444,192
1602662320.2464,197
1602662320.2484,207
1602662320.2504,216
1602662320.2523,221
1602662320.2544,226
1602662320.6518,238
1602662320.6526,251
1602662320.6551,253
1602662320.6577,243
1602662320.6597,238
1602662320.6617,231
1602662320.6639,207
1602662320.6656,173
1602662320.6677,148
1602662320.6697,126
1602662320.6717,95
1602662320.6736,65
1602662320.6756,53
1602662320.6776,46
1602662320.6796,38
1602662320.6816,38
1602662320.6836,41
1602662320.6856,36
1602662320.6863,34
1602662320.6886,38
1602662320.6906,46
1602662320.6926,51
1602662320.6946,58
1602662320.6966,60
1602662320.6986,63
1602662320.7006,75
1602662320.7026,85
1602662320.7048,92
1602662320.7066,92
1602662320.7086,85
1602662320.7106,92
1602662320.7126,102
1602662320.7146,102
1602662320.7166,102
1602662320.7173,102
1602662320.7196,95
1602662320.7216,95
1602662320.7236,102
1602662320.7256,102
1602662320.7276,99
1602662320.7296,104
1602662320.7316,107
1602662320.7336,102
1602662320.7357,95
1602662320.7376,87
1602662320.7396,85
1602662320.7416,104
1602662320.7436,121
1602662320.7455,102
1602662320.7476,85
1602662320.7483,97
1602662320.7506,109
1602662320.7526,104
1602662320.7546,102
1602662320.7566,104
1602662320.7587,102
1602662320.7606,102
1602662320.7626,97
1602662320.7646,87
1602662320.7666,97
1602662320.7686,114
1602662320.7706,99
1602662320.7726,80
1602662320.7746,90
1602662320.7766,99
1602662320.7786,99
1602662320.7870,109
1602662320.7886,126
1602662320.7906,124
1602662320.7925,109
1602662320.7946,99
1602662320.7966,109
1602662320.7986,116
1602662321.1911,107
1602662321.1916,95
1602662321.1932,87
1602662321.1953,82
1602662321.1973,80
1602662321.1994,75
1602662321.2014,82
1602662321.2033,90
1602662321.2053,51
1602662321.2073,43
1602662321.2093,253
1602662321.2113,633
1602662321.2133,672
1602662321.2141,82
1602662321.2163,-382
1602662321.2183,-129
1602662321.2203,155
1602662321.2223,56
1602662321.2243,14
1602662321.2263,82
1602662321.2283,68
1602662321.2303,73
1602662321.2323,116
1602662321.2343,107
1602662321.2363,92
1602662321.2383,109
1602662321.2403,114
1602662321.2423,97
1602662321.2443,109
1602662321.2450,121
1602662321.2473,112
1602662321.2494,109
1602662321.2513,126
1602662321.2533,134
1602662321.2553,136
1602662321.2573,153
1602662321.2593,168
1602662321.2614,160
1602662321.2633,151
1602662321.2653,168
1602662321.2673,185
1602662321.2693,187
1602662321.2713,197
1602662321.2733,204
1602662321.2754,204
1602662321.2760,216
1602662321.2773,226
1602662321.2793,212
1602662321.2813,212
1602662321.2833,224
1602662321.2853,194
1602662321.2873,158
1602662321.2893,146
1602662321.2913,121
1602662321.2933,82
1602662321.2953,60
1602662321.2974,56
1602662321.2993,46
1602662321.3013,34
1602662321.3033,24
1602662321.3053,26
1602662321.3060,29
1602662321.3073,26
1602662321.3093,24
1602662321.3113,26
1602662321.3133,34
1602662321.3153,36
1602662321.3173,34
1602662321.3193,51
1602662321.3213,68
1602662321.3233,58
1602662321.3253,63
1602662321.3273,87
1602662321.7615,90
1602662321.7624,75
1602662321.7649,70
1602662321.7675,73
1602662321.7681,75
1602662321.7705,73
1602662321.7725,68
1602662321.7744,70
1602662321.7764,70
1602662321.7784,58
1602662321.7804,60
1602662321.7824,85
1602662321.7844,95
1602662321.7864,77
1602662321.7883,65
1602662321.7903,73
1602662321.7923,80
1602662321.7944,77
1602662321.7963,77
1602662321.7984,77
1602662321.7991,73
1602662321.8003,80
1602662321.8024,90
1602662321.8044,85
1602662321.8063,77
1602662321.8084,80
1602662321.8104,80
1602662321.8125,80
1602662321.8144,75
1602662321.8163,75
1602662321.8184,85
1602662321.8204,90
1602662321.8224,85
1602662321.8244,77
1602662321.8265,82
1602662321.8284,87
1602662321.8291,75
1602662321.8314,70
1602662321.8334,80
1602662321.8354,87
1602662321.8374,82
1602662321.8393,75
1602662321.8414,85
1602662321.8434,109
1602662321.8454,126
1602662321.8473,119
1602662321.8494,90
1602662321.8514,77
1602662321.8534,99
1602662321.8554,109
1602662321.8574,80
1602662321.8581,58
1602662321.8594,60
1602662321.8614,63
1602662321.8633,60
1602662321.8654,58
1602662321.8673,56
1602662321.8694,73
1602662321.8714,73
1602662321.8734,58
1602662321.8753,165
1602662321.8774,467
1602662321.8794,660
1602662321.8814,297
1602662321.8834,-277
1602662321.8854,-251
1602662321.8874,97
1602662321.8881,95
1602662321.8894,0
1602662321.8914,70
1602662321.8935,92
1602662321.8954,51
1602662321.8973,68
1602662322.3012,87
1602662322.3021,77
1602662322.3045,82
1602662322.3071,90
1602662322.3091,90
1602662322.3112,87
1602662322.3132,80
1602662322.3138,80
1602662322.3160,97
1602662322.3180,109
1602662322.3202,102
1602662322.3221,99
1602662322.3242,109
1602662322.3260,119
1602662322.3280,124
1602662322.3300,129
1602662322.3320,141
1602662322.3341,151
1602662322.3361,165
1602662322.3381,173
1602662322.3400,180
1602662322.3421,185
1602662322.3441,187
1602662322.3460,187
1602662322.3481,185
1602662322.3500,187
1602662322.3520,190
1602662322.3540,177
1602662322.3560,158
1602662322.3580,141
1602662322.3600,114
1602662322.3620,82
1602662322.3640,56
1602662322.3660,36
1602662322.3680,19
1602662322.3700,12
1602662322.3720,12
1602662322.3740,4
1602662322.3760,4
1602662322.3780,9
1602662322.3800,4
1602662322.3820,4
1602662322.3840,21
1602662322.3860,38
1602662322.3880,38
1602662322.3900,26
1602662322.3920,24
1602662322.3941,34
1602662322.3960,43
1602662322.3980,43
1602662322.4000,41
1602662322.4020,38
1602662322.4040,48
1602662322.4060,70
1602662322.4080,77
1602662322.4100,70
1602662322.4120,65
1602662322.4141,65
1602662322.4160,60
1602662322.4180,56
1602662322.4200,56
1602662322.4220,56
1602662322.4241,60
1602662322.4262,60
1602662322.4281,56
1602662322.4300,56
1602662322.4320,56
1602662322.4341,48
1602662322.4360,46
1602662322.4380,48
1602662322.4400,48
1602662322.4420,51
1602662322.4440,51
1602662322.9602,48
1602662322.9610,53
1602662322.9628,60
1602662322.9648,56
1602662322.9668,38
1602662322.9688,36
1602662322.9708,43
1602662322.9728,41
1602662322.9749,41
1602662322.9768,46
1602662322.9788,46
1602662322.9808,46
1602662322.9828,56
1602662322.9848,63
1602662322.9867,53
1602662322.9887,48
1602662322.9907,58
1602662322.9927,51
1602662322.9948,38
1602662322.9968,46
1602662322.9987,65
1602662323.0008,82
1602662323.0028,90
1602662323.0047,80
1602662323.0067,70
1602662323.0087,73
1602662323.0107,65
1602662323.0127,48
1602662323.0147,43
1602662323.0167,51
1602662323.0187,48
1602662323.0207,29
1602662323.0227,26
1602662323.0247,51
1602662323.0267,58
1602662323.0287,48
1602662323.0307,29
1602662323.0327,63
1602662323.0347,299
1602662323.0367,650
1602662323.0387,575
1602662323.0408,-97
1602662323.0427,-485
1602662323.0447,-141
1602662323.0467,104
1602662323.0487,-2
1602662323.0507,9
1602662323.0527,90
1602662323.0547,65
1602662323.0567,38
1602662323.0587,53
1602662323.0607,56
1602662323.0627,53
1602662323.0647,63
1602662323.0667,70
1602662323.0687,77
1602662323.0707,85
1602662323.0727,77
1602662323.0747,73
1602662323.0767,87
1602662323.0787,99
1602662323.0807,102
1602662323.0827,109
1602662323.0847,121
1602662323.0867,129
1602662323.0887,129
1602662323.0907,131
1602662323.0927,146
1602662323.0947,163
1602662323.0967,165
1602662323.0987,168
1602662323.1007,182
1602662323.1027,202
1602662323.4708,207
1602662323.4715,204
1602662323.4740,204
1602662323.4765,202
1602662323.4785,199
1602662323.4805,194
1602662323.4829,165
1602662323.4847,124
1602662323.4866,102
1602662323.4885,77
1602662323.4905,46
1602662323.4925,26
1602662323.4946,19
1602662323.4965,0
1602662323.4986,-12
1602662323.5005,-12
1602662323.5025,-19
1602662323.5045,-21
1602662323.5065,-19
1602662323.5087,-19
1602662323.5106,-21
1602662323.5125,-17
1602662323.5146,-2
1602662323.5165,7
1602662323.5185,14
1602662323.5205,24
1602662323.5225,29
1602662323.5246,31
1602662323.5265,36
1602662323.5285,43
1602662323.5305,48
1602662323.5325,51
1602662323.5345,53
1602662323.5365,60
1602662323.5385,63
1602662323.5405,58
1602662323.5425,53
1602662323.5445,51
1602662323.5465,56
1602662323.5485,65
1602662323.5505,65
1602662323.5525,56
1602662323.5545,51
1602662323.5565,53
1602662323.5585,51
1602662323.5605,53
1602662323.5625,53
1602662323.5645,48
1602662323.5666,48
1602662323.5685,56
1602662323.5705,63
1602662323.5725,60
1602662323.5745,51
1602662323.5765,58
1602662323.5785,63
1602662323.5805,56
1602662323.5825,63
1602662323.5845,70
1602662323.5865,65
1602662323.5885,60
1602662323.5905,65
1602662323.5925,70
1602662323.5945,65
1602662323.5965,58
1602662323.5985,53
1602662323.6005,53
1602662323.6025,63
1602662323.6045,73
1602662323.6065,73
1602662323.6085,90
1602662323.6107,99
1602662323.6126,87
1602662323.6145,80
1602662324.0109,85
1602662324.0116,75
1602662324.0141,58
1602662324.0167,48
1602662324.0188,53
1602662324.0207,58
1602662324.0227,51
1602662324.0247,46
1602662324.0266,53
1602662324.0286,56
1602662324.0306,34
1602662324.0326,12
1602662324.0346,90
1602662324.0366,385
1602662324.0386,675
1602662324.0406,424
1602662324.0426,-241
1602662324.0446,-380
1602662324.0466,9
1602662324.0486,99
1602662324.0506,-26
1602662324.0526,24
1602662324.0546,70
1602662324.0566,29
1602662324.0586,38
1602662324.0606,73
1602662324.0626,65
1602662324.0646,65
1602662324.0666,73
1602662324.0686,65
1602662324.0706,70
1602662324.0726,82
1602662324.0746,77
1602662324.0766,73
1602662324.0786,87
1602662324.0806,102
1602662324.0826,104
1602662324.0846,102
1602662324.0866,104
1602662324.0886,114
1602662324.0906,129
1602662324.0926,131
1602662324.0946,129
1602662324.0966,146
1602662324.0986,165
1602662324.1006,170
1602662324.1026,180
1602662324.1046,194
1602662324.1069,199
1602662324.1086,187
1602662324.1106,182
1602662324.1126,192
1602662324.1146,192
1602662324.1166,170
1602662324.1186,141
1602662324.1206,112
1602662324.1226,85
1602662324.1246,63
1602662324.1266,41
1602662324.1286,21
1602662324.1306,9
1602662324.1326,7
1602662324.1346,4
1602662324.1366,-2
1602662324.1386,-4
1602662324.1406,0
1602662324.1426,4
1602662324.1446,2
1602662324.1466,7
1602662324.1486,12
1602662324.1506,17
1602662324.1526,21
1602662324.1546,26
1602662324.5807,24
1602662324.5815,26
1602662324.5840,38
1602662324.5865,51
1602662324.5885,48
1602662324.5905,41
1602662324.5926,46
1602662324.5946,41
1602662324.5965,31
1602662324.5985,38
1602662324.6005,48
1602662324.6025,43
1602662324.6044,38
1602662324.6065,36
1602662324.6085,36
1602662324.6104,36
1602662324.6124,38
1602662324.6144,43
1602662324.6164,38
1602662324.6185,36
1602662324.6204,41
1602662324.6224,46
1602662324.6245,43
1602662324.6264,38
1602662324.6284,38
1602662324.6305,43
1602662324.6326,43
1602662324.6345,41
1602662324.6364,46
1602662324.6384,51
1602662324.6404,48
1602662324.6425,46
1602662324.6444,51
1602662324.6464,48
1602662324.6484,46
1602662324.6504,43
1602662324.6524,43
1602662324.6545,53
1602662324.6564,51
1602662324.6584,43
1602662324.6605,48
1602662324.6625,51
1602662324.6645,43
1602662324.6665,46
1602662324.6684,46
1602662324.6704,46
1602662324.6724,56
1602662324.6745,63
1602662324.6764,80
1602662324.6785,99
1602662324.6804,87
1602662324.6824,65
1602662324.6845,77
1602662324.6864,87
1602662324.6884,70
1602662324.6904,51
1602662324.6925,43
1602662324.6945,43
1602662324.6964,48
1602662324.6984,46
1602662324.7005,41
1602662324.7025,56
1602662324.7044,58
1602662324.7064,31
1602662324.7084,56
1602662324.7104,260
1602662324.7124,597
1602662324.7144,611
1602662324.7164,34
1602662324.7184,-402
1602662324.7204,-138
1602662324.7225,114
1602662324.7245,9
1602662325.1512,-7
1602662325.1519,70
1602662325.1543,51
1602662325.1570,36
1602662325.1592,56
1602662325.1610,56
1602662325.1630,53
1602662325.1650,65
1602662325.1669,63
1602662325.1689,53
1602662325.1709,56
1602662325.1729,63
1602662325.1749,73
1602662325.1769,77
1602662325.1789,80
1602662325.1809,80
1602662325.1829,87
1602662325.1850,95
1602662325.1870,99
1602662325.1889,107
1602662325.1909,109
1602662325.1929,116
1602662325.1950,134
1602662325.1969,143
1602662325.1989,143
1602662325.2010,148
1602662325.2030,165
1602662325.2049,173
1602662325.2069,165
1602662325.2089,165
1602662325.2109,175
1602662325.2129,170
1602662325.2150,155
1602662325.2169,138
1602662325.2189,121
1602662325.2209,95
1602662325.2229,65
1602662325.2250,43
1602662325.2269,26
1602662325.2289,4
1602662325.2309,-4
1602662325.2329,-2
1602662325.2349,-2
1602662325.2369,-2
1602662325.2389,-2
1602662325.2409,-4
1602662325.2429,-2
1602662325.2450,2
1602662325.2469,4
1602662325.2489,9
1602662325.2509,12
1602662325.2529,9
1602662325.2549,14
1602662325.2569,21
1602662325.2589,29
1602662325.2611,31
1602662325.2630,31
1602662325.2649,38
1602662325.2669,41
1602662325.2689,34
1602662325.2709,34
1602662325.2729,36
1602662325.2750,29
1602662325.2769,26
1602662325.2789,31
1602662325.2809,34
1602662325.2829,34
1602662325.2850,31
1602662325.2869,29
1602662325.2889,34
1602662325.2909,31
1602662325.2929,24
1602662325.2950,21
1602662325.6913,31
1602662325.6923,34
1602662325.6947,34
1602662325.6974,34
1602662325.6994,29
1602662325.7014,21
1602662325.7035,24
1602662325.7053,24
1602662325.7073,21
1602662325.7093,14
1602662325.7113,7
1602662325.7133,12
1602662325.7153,19
1602662325.7172,14
1602662325.7192,12
1602662325.7212,19
1602662325.7233,21
1602662325.7253,21
1602662325.7272,19
1602662325.7293,21
1602662325.7313,24
1602662325.7333,24
1602662325.7352,26
1602662325.7373,29
1602662325.7393,21
1602662325.7412,24
1602662325.7433,38
1602662325.7452,36
1602662325.7472,31
1602662325.7493,60
1602662325.7513,87
1602662325.7533,70
1602662325.7553,48
1602662325.7574,48
1602662325.7593,58
1602662325.7612,58
1602662325.7632,48
1602662325.7652,31
1602662325.7672,24
1602662325.7693,31
1602662325.7712,34
1602662325.7733,31
1602662325.7752,36
1602662325.7773,43
1602662325.7793,26
1602662325.7813,31
1602662325.7834,209
1602662325.7854,567
1602662325.7872,633
1602662325.7893,48
1602662325.7913,-470
1602662325.7932,-226
1602662325.7953,87
1602662325.7972,7
1602662325.7992,-17
1602662325.8013,60
1602662325.8033,38
1602662325.8053,21
1602662325.8073,48
1602662325.8093,46
1602662325.8113,41
1602662325.8133,53
1602662325.8152,60
1602662325.8173,58
1602662325.8192,60
1602662325.8212,65
1602662325.8233,68
1602662325.8253,73
1602662325.8273,82
1602662325.8293,85
1602662325.8313,85
1602662325.8333,90
1602662325.8353,104
1602662326.2913,109
1602662326.2922,107
1602662326.2947,119
1602662326.2972,129
1602662326.2992,134
1602662326.3013,143
1602662326.3034,151
1602662326.3052,148
1602662326.3072,158
1602662326.3092,170
1602662326.3112,165
1602662326.3135,160
1602662326.3153,160
1602662326.3172,155
1602662326.3192,138
1602662326.3212,109
1602662326.3232,82
1602662326.3252,56
1602662326.3272,31
1602662326.3292,17
1602662326.3312,7
1602662326.3332,-4
1602662326.3352,-14
1602662326.3372,-14
1602662326.3392,-17
1602662326.3412,-21
1602662326.3432,-21
1602662326.3452,-19
1602662326.3472,-19
1602662326.3492,-12
1602662326.3512,-2
1602662326.3532,7
1602662326.3552,7
1602662326.3572,2
1602662326.3592,4
1602662326.3612,17
1602662326.3633,26
1602662326.3652,24
1602662326.3672,24
1602662326.3692,31
1602662326.3712,36
1602662326.3732,31
1602662326.3752,26
1602662326.3772,29
1602662326.3792,31
1602662326.3812,34
1602662326.3832,31
1602662326.3852,24
1602662326.3872,24
1602662326.3892,24
1602662326.3912,14
1602662326.3931,19
1602662326.3952,29
1602662326.3972,26
1602662326.3992,29
1602662326.4012,38
1602662326.4032,29
1602662326.4053,14
1602662326.4073,19
1602662326.4093,31
1602662326.4113,26
1602662326.4132,14
1602662326.4154,12
1602662326.4173,19
1602662326.4192,26
1602662326.4212,29
1602662326.4232,31
1602662326.4252,34
1602662326.4272,36
1602662326.4292,31
1602662326.4312,24
1602662326.4332,26
1602662326.4352,36
1602662326.8311,41
1602662326.8318,36
1602662326.8343,34
1602662326.8369,46
1602662326.8389,53
1602662326.8408,68
1602662326.8430,87
1602662326.8449,77
1602662326.8468,63
1602662326.8489,70
1602662326.8509,73
1602662326.8528,51
1602662326.8549,31
1602662326.8568,26
1602662326.8588,29
1602662326.8609,26
1602662326.8628,31
1602662326.8648,43
1602662326.8669,51
1602662326.8688,38
1602662326.8708,14
1602662326.8728,36
1602662326.8749,248
1602662326.8768,606
1602662326.8789,609
1602662326.8808,-24
1602662326.8828,-477
1602662326.8848,-173
1602662326.8868,114
1602662326.8889,4
1602662326.8909,-12
1602662326.8928,73
1602662326.8949,46
1602662326.8968,26
1602662326.8988,63
1602662326.9008,68
1602662326.9029,51
1602662326.9048,53
1602662326.9069,63
1602662326.9088,70
1602662326.9110,75
1602662326.9129,77
1602662326.9149,80
1602662326.9168,77
1602662326.9188,82
1602662326.9208,92
1602662326.9228,97
1602662326.9249,102
1602662326.9269,116
1602662326.9288,121
1602662326.9308,119
1602662326.9328,126
1602662326.9348,136
1602662326.9368,148
1602662326.9389,165
1602662326.9408,170
1602662326.9428,173
1602662326.9449,185
1602662326.9468,187
1602662326.9488,180
1602662326.9508,180
1602662326.9528,182
1602662326.9548,170
1602662326.9568,146
1602662326.9588,119
1602662326.9609,92
1602662326.9628,63
1602662326.9649,41
1602662326.9668,21
1602662326.9688,9
1602662326.9708,-4
1602662326.9728,-9
1602662326.9749,-12
1602662327.3711,-12
1602662327.3718,-7
1602662327.3737,-2
1602662327.3755,-2
1602662327.3775,-2
1602662327.3795,-2
1602662327.3815,2
1602662327.3835,9
1602662327.3854,9
1602662327.3875,9
1602662327.3894,12
1602662327.3914,14
1602662327.3935,19
1602662327.3941,19
1602662327.3964,24
1602662327.3984,31
1602662327.4005,34
1602662327.4024,34
1602662327.4046,34
1602662327.4065,31
1602662327.4084,31
1602662327.4104,36
1602662327.4124,38
1602662327.4145,31
1602662327.4164,26
1602662327.4185,31
1602662327.4204,36
1602662327.4224,38
1602662327.4245,38
1602662327.4251,36
1602662327.4274,34
1602662327.4295,31
1602662327.4314,24
1602662327.4335,21
1602662327.4354,34
1602662327.4374,38
1602662327.4394,31
1602662327.4414,26
1602662327.4435,34
1602662327.4454,36
1602662327.4474,29
1602662327.4494,29
1602662327.4514,31
1602662327.4534,24
1602662327.4555,19
1602662327.4562,26
1602662327.4584,34
1602662327.4604,34
1602662327.4624,31
1602662327.4645,34
1602662327.4665,36
1602662327.4684,38
1602662327.4704,36
1602662327.4725,36
1602662327.4745,46
1602662327.4764,60
1602662327.4784,77
1602662327.4804,80
1602662327.4825,63
1602662327.4844,53
1602662327.4865,63
1602662327.4872,68
1602662327.4884,56
1602662327.4904,41
1602662327.4924,36
1602662327.4944,43
1602662327.4964,48
1602662327.4984,38
1602662327.5004,34
1602662327.5026,48
1602662327.5045,41
1602662327.5064,24
1602662327.5084,131
1602662327.9411,455
1602662327.9422,682
1602662327.9437,314
1602662327.9456,-309
1602662327.9476,-311
1602662327.9496,48
1602662327.9516,56
1602662327.9535,-48
1602662327.9555,24
1602662327.9575,48
1602662327.9595,12
1602662327.9615,29
1602662327.9636,43
1602662327.9655,36
1602662327.9674,43
1602662327.9695,51
1602662327.9715,53
1602662327.9722,60
1602662327.9745,65
1602662327.9765,70
1602662327.9785,68
1602662327.9805,73
1602662327.9825,87
1602662327.9845,90
1602662327.9865,87
1602662327.9885,92
1602662327.9905,97
1602662327.9927,102
1602662327.9945,112
1602662327.9965,119
1602662327.9985,126
1602662328.0005,136
1602662328.0012,143
1602662328.0036,153
1602662328.0055,155
1602662328.0075,160
1602662328.0095,170
1602662328.0115,168
1602662328.0135,155
1602662328.0155,148
1602662328.0175,141
1602662328.0195,116
1602662328.0214,90
1602662328.0235,68
1602662328.0255,48
1602662328.0274,29
1602662328.0295,12
1602662328.0317,-7
1602662328.0323,-17
1602662328.0336,-17
1602662328.0355,-12
1602662328.0375,-4
1602662328.0395,0
1602662328.0414,-4
1602662328.0435,-9
1602662328.0455,-2
1602662328.0474,4
1602662328.0495,4
1602662328.0514,2
1602662328.0535,9
1602662328.0554,17
1602662328.0574,19
1602662328.0594,24
1602662328.0615,36
1602662328.0621,38
1602662328.0636,31
1602662328.0654,29
1602662328.0674,36
1602662328.0695,38
1602662328.0715,31
1602662328.0736,29
1602662328.0754,34
1602662328.0774,38
1602662328.4807,38
1602662328.4818,38
1602662328.4841,41
1602662328.4867,41
1602662328.4887,38
1602662328.4907,41
1602662328.4928,36
1602662328.4937,21
1602662328.4958,14
1602662328.4977,17
1602662328.4997,17
1602662328.5017,9
1602662328.5038,12
1602662328.5057,19
1602662328.5077,29
1602662328.5097,31
1602662328.5117,24
1602662328.5137,17
1602662328.5157,17
1602662328.5177,19
1602662328.5197,24
1602662328.5217,24
1602662328.5237,17
1602662328.5244,17
1602662328.5257,26
1602662328.5279,21
1602662328.5298,17
1602662328.5317,24
1602662328.5336,24
1602662328.5357,21
1602662328.5377,26
1602662328.5397,29
1602662328.5417,29
1602662328.5437,31
1602662328.5457,46
1602662328.5477,68
1602662328.5497,70
1602662328.5517,56
1602662328.5538,48
1602662328.5544,60
1602662328.5557,60
1602662328.5577,41
1602662328.5597,19
1602662328.5617,17
1602662328.5637,29
1602662328.5657,36
1602662328.5677,38
1602662328.5697,36
1602662328.5717,36
1602662328.5737,26
1602662328.5757,12
1602662328.5777,114
1602662328.5797,433
1602662328.5817,677
1602662328.5837,324
1602662328.5844,-316
1602662328.5857,-346
1602662328.5877,24
1602662328.5897,53
1602662328.5917,-43
1602662328.5938,24
1602662328.5957,53
1602662328.5977,17
1602662328.5997,31
1602662328.6017,48
1602662328.6037,31
1602662328.6057,36
1602662328.6077,51
1602662328.6097,48
1602662328.6117,56
1602662328.6138,65
1602662328.6157,63
1602662328.6177,65
1602662329.0808,75
1602662329.0816,80
1602662329.0841,85
1602662329.0870,90
1602662329.0888,75
1602662329.0908,65
1602662329.0928,87
1602662329.0948,112
1602662329.0967,116
1602662329.0988,112
1602662329.1007,121
1602662329.1027,134
1602662329.1047,131
1602662329.1067,131
1602662329.1087,146
1602662329.1107,153
1602662329.1127,141
1602662329.1147,134
1602662329.1167,134
1602662329.1187,121
1602662329.1207,99
1602662329.1227,80
1602662329.1247,58
1602662329.1266,34
1602662329.1286,14
1602662329.1306,4
1602662329.1326,-14
1602662329.1346,-43
1602662329.1366,-65
1602662329.1386,-58
1602662329.1407,-26
1602662329.1426,-12
1602662329.1447,-14
1602662329.1466,-4
1602662329.1487,4
1602662329.1506,0
1602662329.1526,-2
1602662329.1546,4
1602662329.1566,4
1602662329.1587,2
1602662329.1606,4
1602662329.1626,12
1602662329.1646,12
1602662329.1666,14
1602662329.1686,19
1602662329.1706,24
1602662329.1726,24
1602662329.1747,21
1602662329.1767,19
1602662329.1786,21
1602662329.1806,21
1602662329.1826,19
1602662329.1846,9
1602662329.1866,2
1602662329.1888,14
1602662329.1907,31
1602662329.1926,38
1602662329.1946,43
1602662329.1966,31
1602662329.1986,12
1602662329.2006,9
1602662329.2026,19
1602662329.2046,19
1602662329.2066,12
1602662329.2087,4
1602662329.2106,2
1602662329.2126,14
1602662329.2147,29
1602662329.2166,24
1602662329.2186,21
1602662329.2206,21
1602662329.2226,14
1602662329.2246,21
1602662329.6511,38
1602662329.6520,34
1602662329.6544,24
1602662329.6571,21
1602662329.6591,21
1602662329.6611,29
1602662329.6632,26
1602662329.6650,17
1602662329.6670,34
1602662329.6690,58
1602662329.6710,48
1602662329.6730,34
1602662329.6751,38
1602662329.6770,41
1602662329.6790,41
1602662329.6810,36
1602662329.6830,31
1602662329.6850,29
1602662329.6870,29
1602662329.6890,21
1602662329.6910,14
1602662329.6930,29
1602662329.6950,43
1602662329.6970,29
1602662329.6990,51
1602662329.7010,265
1602662329.7030,616
1602662329.7050,604
1602662329.7070,-26
1602662329.7090,-477
1602662329.7110,-190
1602662329.7130,63
1602662329.7152,-65
1602662329.7170,-48
1602662329.7190,87
1602662329.7210,68
1602662329.7230,29
1602662329.7250,63
1602662329.7270,73
1602662329.7290,51
1602662329.7310,53
1602662329.7330,70
1602662329.7350,73
1602662329.7370,73
1602662329.7389,73
1602662329.7410,70
1602662329.7430,87
1602662329.7450,107
1602662329.7470,102
1602662329.7490,102
1602662329.7510,124
1602662329.7530,131
1602662329.7550,124
1602662329.7569,126
1602662329.7590,136
1602662329.7610,155
1602662329.7630,177
1602662329.7650,173
1602662329.7670,153
1602662329.7690,165
1602662329.7710,185
1602662329.7730,173
1602662329.7750,173
1602662329.7770,182
1602662329.7790,175
1602662329.7810,153
1602662329.7830,143
1602662329.7850,131
1602662329.7869,90
1602662329.7890,38
1602662329.7910,14
1602662329.7930,0
1602662329.7950,-14
1602662330.1910,-17
1602662330.1917,-19
1602662330.1942,-26
1602662330.1968,-31
1602662330.1987,-31
1602662330.2009,-14
1602662330.2028,-4
1602662330.2048,-19
1602662330.2068,-29
1602662330.2087,-14
1602662330.2110,-4
1602662330.2128,-4
1602662330.2147,2
1602662330.2168,12
1602662330.2187,14
1602662330.2207,17
1602662330.2227,17
1602662330.2247,14
1602662330.2267,24
1602662330.2287,34
1602662330.2307,36
1602662330.2327,34
1602662330.2347,21
1602662330.2367,14
1602662330.2387,17
1602662330.2407,17
1602662330.2427,17
1602662330.2448,21
1602662330.2467,31
1602662330.2487,34
1602662330.2507,24
1602662330.2527,24
1602662330.2547,29
1602662330.2567,19
1602662330.2588,19
1602662330.2607,26
1602662330.2627,21
1602662330.2647,21
1602662330.2668,31
1602662330.2687,26
1602662330.2707,19
1602662330.2727,21
1602662330.2747,21
1602662330.2767,14
1602662330.2787,14
1602662330.2807,24
1602662330.2827,41
1602662330.2847,58
1602662330.2867,65
1602662330.2887,53
1602662330.2907,48
1602662330.2927,63
1602662330.2948,48
1602662330.2967,21
1602662330.2987,17
1602662330.3008,21
1602662330.3027,24
1602662330.3047,29
1602662330.3067,21
1602662330.3087,21
1602662330.3107,29
1602662330.3129,7
1602662330.3148,0
1602662330.3168,158
1602662330.3187,502
1602662330.3207,623
1602662330.3227,146
1602662330.3248,-385
1602662330.3267,-241
1602662330.3287,68
1602662330.3307,7
1602662330.3327,-38
1602662330.3347,48
1602662330.7606,38
1602662330.7615,2
1602662330.7641,26
1602662330.7666,41
1602662330.7686,31
1602662330.7706,38
1602662330.7727,53
1602662330.7746,53
1602662330.7766,43
1602662330.7786,41
1602662330.7806,51
1602662330.7826,58
1602662330.7846,53
1602662330.7866,56
1602662330.7886,65
1602662330.7906,73
1602662330.7926,77
1602662330.7946,87
1602662330.7966,99
1602662330.7986,112
1602662330.8006,119
1602662330.8025,119
1602662330.8045,119
1602662330.8065,138
1602662330.8086,158
1602662330.8105,155
1602662330.8125,148
1602662330.8146,155
1602662330.8165,160
1602662330.8185,151
1602662330.8205,141
1602662330.8225,119
1602662330.8246,92
1602662330.8265,73
1602662330.8285,41
1602662330.8305,4
1602662330.8326,-7
1602662330.8345,-9
1602662330.8365,-21
1602662330.8387,-29
1602662330.8406,-24
1602662330.8425,-24
1602662330.8445,-26
1602662330.8465,-26
1602662330.8485,-24
1602662330.8505,-21
1602662330.8525,-21
1602662330.8545,-17
1602662330.8565,-2
1602662330.8585,7
1602662330.8605,9
1602662330.8625,4
1602662330.8646,0
1602662330.8665,4
1602662330.8685,4
1602662330.8705,-4
1602662330.8725,12
1602662330.8745,29
1602662330.8765,21
1602662330.8785,19
1602662330.8805,31
1602662330.8826,24
1602662330.8846,9
1602662330.8865,14
1602662330.8885,21
1602662330.8905,17
1602662330.8926,14
1602662330.8946,21
1602662330.8965,29
1602662330.8985,26
1602662330.9005,14
1602662330.9025,9
1602662330.9045,21
1602662331.3012,29
1602662331.3021,19
1602662331.3045,14
1602662331.3071,17
1602662331.3091,14
1602662331.3111,17
1602662331.3133,34
1602662331.3151,65
1602662331.3182,80
1602662331.3201,53
1602662331.3221,24
1602662331.3242,24
1602662331.3261,29
1602662331.3281,17
1602662331.3301,7
1602662331.3321,2
1602662331.3341,2
1602662331.3363,7
1602662331.3381,7
1602662331.3401,4
1602662331.3421,0
1602662331.3442,-9
1602662331.3461,-24
1602662331.3481,43
1602662331.3501,307
1602662331.3521,580
1602662331.3540,368
1602662331.3560,-233
1602662331.3580,-385
1602662331.3600,-29
1602662331.3621,73
1602662331.3641,-38
1602662331.3661,-7
1602662331.3680,29
1602662331.3700,-7
1602662331.3720,0
1602662331.3740,26
1602662331.3760,19
1602662331.3780,19
1602662331.3800,31
1602662331.3820,36
1602662331.3840,38
1602662331.3860,38
1602662331.3881,36
1602662331.3900,48
1602662331.3920,53
1602662331.3941,43
1602662331.3960,46
1602662331.3980,56
1602662331.4000,65
1602662331.4020,73
1602662331.4040,77
1602662331.4062,87
1602662331.4081,97
1602662331.4101,109
1602662331.4122,121
1602662331.4142,126
1602662331.4161,134
1602662331.4180,143
1602662331.4200,146
1602662331.4220,146
1602662331.4241,143
1602662331.4260,141
1602662331.4280,131
1602662331.4300,116
1602662331.4320,97
1602662331.4341,77
1602662331.4360,53
1602662331.4382,19
1602662331.4401,-7
1602662331.4420,-12
1602662331.4441,-17
1602662331.4460,-31
1602662331.8784,-38
1602662331.8793,-34
1602662331.8818,-29
1602662331.8844,-29
1602662331.8864,-26
1602662331.8884,-21
1602662331.8905,-26
1602662331.8924,-34
1602662331.8944,-24
1602662331.8963,-19
1602662331.8984,-26
1602662331.9003,-19
1602662331.9024,-2
1602662331.9044,2
1602662331.9063,0
1602662331.9083,7
1602662331.9103,14
1602662331.9124,17
1602662331.9143,19
1602662331.9164,21
1602662331.9183,19
1602662331.9203,19
1602662331.9223,19
1602662331.9244,19
1602662331.9263,21
1602662331.9283,19
1602662331.9303,17
1602662331.9323,19
1602662331.9343,17
1602662331.9364,14
1602662331.9383,17
1602662331.9403,24
1602662331.9423,29
1602662331.9444,29
1602662331.9463,21
1602662331.9483,9
1602662331.9503,4
1602662331.9523,14
1602662331.9544,36
1602662331.9563,60
1602662331.9583,58
1602662331.9603,36
1602662331.9623,36
1602662331.9643,43
1602662331.9663,31
1602662331.9683,19
1602662331.9705,12
1602662331.9724,9
1602662331.9744,14
1602662331.9764,9
1602662331.9783,-4
1602662331.9803,4
1602662331.9823,21
1602662331.9843,7
1602662331.9863,-7
1602662331.9883,131
1602662331.9903,487
1602662331.9923,653
1602662331.9943,141
1602662331.9963,-492
1602662331.9984,-355
1602662332.0003,48
1602662332.0023,24
1602662332.0043,-51
1602662332.0063,29
1602662332.0083,38
1602662332.0104,9
1602662332.0123,36
1602662332.0144,41
1602662332.0163,24
1602662332.0183,29
1602662332.0203,36
1602662332.0223,31
1602662332.4107,36
1602662332.4116,46
1602662332.4141,46
1602662332.4166,48
1602662332.4186,58
1602662332.4207,70
1602662332.4227,75
1602662332.4246,70
1602662332.4266,65
1602662332.4286,75
1602662332.4306,82
1602662332.4326,85
1602662332.4346,90
1602662332.4366,99
1602662332.4386,116
1602662332.4406,134
1602662332.4426,146
1602662332.4447,153
1602662332.4466,155
1602662332.4486,158
1602662332.4506,168
1602662332.4526,165
1602662332.4546,141
1602662332.4566,112
1602662332.4588,82
1602662332.4606,53
1602662332.4626,26
1602662332.4646,-2
1602662332.4666,-21
1602662332.4686,-31
1602662332.4706,-41
1602662332.4726,-51
1602662332.4746,-58
1602662332.4766,-46
1602662332.4786,-41
1602662332.4806,-46
1602662332.4826,-41
1602662332.4846,-34
1602662332.4866,-34
1602662332.4886,-24
1602662332.4906,-7
1602662332.4925,-2
1602662332.4946,-7
1602662332.4966,-2
1602662332.4986,7
1602662332.5006,12
1602662332.5026,14
1602662332.5046,19
1602662332.5066,24
1602662332.5086,26
1602662332.5106,21
1602662332.5125,19
1602662332.5146,26
1602662332.5165,31
1602662332.5186,26
1602662332.5206,26
1602662332.5226,34
1602662332.5246,31
1602662332.5266,19
1602662332.5286,17
1602662332.5306,29
1602662332.5326,34
1602662332.5346,29
1602662332.5365,21
1602662332.5386,21
1602662332.5406,21
1602662332.5426,21
1602662332.5447,26
1602662332.5465,48
1602662332.5486,70
1602662332.5506,68
1602662332.5525,53
1602662332.5546,53
1602662333.0105,63
1602662333.0114,58
1602662333.0143,43
1602662333.0166,34
1602662333.0185,29
1602662333.0205,14
1602662333.0226,4
1602662333.0244,19
1602662333.0264,36
1602662333.0284,31
1602662333.0304,7
1602662333.0324,9
1602662333.0344,165
1602662333.0364,509
1602662333.0384,641
1602662333.0404,121
1602662333.0424,-453
1602662333.0445,-282
1602662333.0465,73
1602662333.0484,26
1602662333.0504,-21
1602662333.0524,60
1602662333.0544,41
1602662333.0564,7
1602662333.0585,38
1602662333.0604,48
1602662333.0625,26
1602662333.0645,29
1602662333.0664,41
1602662333.0684,43
1602662333.0704,56
1602662333.0724,65
1602662333.0745,60
1602662333.0764,58
1602662333.0784,65
1602662333.0804,68
1602662333.0824,75
1602662333.0844,87
1602662333.0865,95
1602662333.0885,95
1602662333.0904,102
1602662333.0923,114
1602662333.0945,126
1602662333.0964,136
1602662333.0983,143
1602662333.1003,153
1602662333.1024,160
1602662333.1044,165
1602662333.1064,160
1602662333.1084,148
1602662333.1104,146
1602662333.1124,148
1602662333.1144,131
1602662333.1166,102
1602662333.1184,82
1602662333.1204,51
1602662333.1224,12
1602662333.1244,-7
1602662333.1263,-14
1602662333.1283,-31
1602662333.1304,-43
1602662333.1323,-36
1602662333.1343,-31
1602662333.1364,-41
1602662333.1385,-41
1602662333.1404,-34
1602662333.1424,-31
1602662333.1445,-31
1602662333.1464,-34
1602662333.1483,-24
1602662333.1504,-9
1602662333.1523,-7
1602662333.1544,-9
1602662333.5508,0
1602662333.5517,4
1602662333.5542,4
1602662333.5568,14
1602662333.5587,24
1602662333.5607,19
1602662333.5629,17
1602662333.5647,26
1602662333.5667,31
1602662333.5687,14
1602662333.5707,0
1602662333.5727,9
1602662333.5748,17
1602662333.5767,9
1602662333.5787,4
1602662333.5807,7
1602662333.5827,12
1602662333.5847,9
1602662333.5867,2
1602662333.5887,2
1602662333.5907,9
1602662333.5926,7
1602662333.5947,7
1602662333.5967,14
1602662333.5987,21
1602662333.6007,17
1602662333.6027,17
1602662333.6047,19
1602662333.6067,14
1602662333.6087,14
1602662333.6107,29
1602662333.6129,53
1602662333.6147,65
1602662333.6166,58
1602662333.6186,46
1602662333.6206,53
1602662333.6226,53
1602662333.6246,36
1602662333.6266,21
1602662333.6287,21
1602662333.6307,17
1602662333.6327,17
1602662333.6347,14
1602662333.6368,17
1602662333.6386,26
1602662333.6407,19
1602662333.6427,0
1602662333.6447,63
1602662333.6467,324
1602662333.6487,626
1602662333.6493,455
1602662333.6506,-185
1602662333.6527,-416
1602662333.6546,-56
1602662333.6566,90
1602662333.6587,-31
1602662333.6607,2
1602662333.6627,58
1602662333.6647,17
1602662333.6667,14
1602662333.6686,48
1602662333.6707,41
1602662333.6727,31
1602662333.6746,41
1602662333.6767,56
1602662333.6786,58
1602662333.6793,53
1602662333.6806,60
1602662333.6826,70
1602662333.6847,65
1602662333.6866,68
1602662333.6886,80
1602662333.6906,82
1602662334.1212,75
1602662334.1220,82
1602662334.1236,97
1602662334.1256,104
1602662334.1276,109
1602662334.1296,119
1602662334.1303,126
1602662334.1317,121
1602662334.1336,119
1602662334.1358,129
1602662334.1376,134
1602662334.1396,131
1602662334.1416,131
1602662334.1437,131
1602662334.1456,124
1602662334.1475,109
1602662334.1496,87
1602662334.1516,58
1602662334.1535,24
1602662334.1555,0
1602662334.1576,-14
1602662334.1595,-29
1602662334.1601,-41
1602662334.1615,-51
1602662334.1636,-48
1602662334.1655,-41
1602662334.1675,-36
1602662334.1695,-41
1602662334.1715,-46
1602662334.1736,-36
1602662334.1755,-29
1602662334.1775,-34
1602662334.1795,-31
1602662334.1816,-24
1602662334.1835,-19
1602662334.1855,-12
1602662334.1875,-7
1602662334.1895,-9
1602662334.1901,-4
1602662334.1915,4
1602662334.1935,9
1602662334.1955,12
1602662334.1975,12
1602662334.1995,7
1602662334.2015,12
1602662334.2036,19
1602662334.2055,17
1602662334.2075,17
1602662334.2095,24
1602662334.2115,19
1602662334.2136,12
1602662334.2155,17
1602662334.2175,26
1602662334.2195,21
1602662334.2201,12
1602662334.2215,14
1602662334.2236,24
1602662334.2256,24
1602662334.2275,19
1602662334.2295,24
1602662334.2317,29
1602662334.2336,26
1602662334.2355,21
1602662334.2375,21
1602662334.2395,29
1602662334.2415,31
1602662334.2435,26
1602662334.2455,19
1602662334.2475,21
1602662334.2495,21
1602662334.2501,21
1602662334.2515,34
1602662334.2536,58
1602662334.6609,70
1602662334.6617,53
1602662334.6641,41
1602662334.6667,53
1602662334.6687,48
1602662334.6707,24
1602662334.6727,17
1602662334.6747,17
1602662334.6768,7
1602662334.6787,0
1602662334.6807,9
1602662334.6827,9
1602662334.6848,9
1602662334.6854,14
1602662334.6867,-2
1602662334.6887,17
1602662334.6907,238
1602662334.6927,580
1602662334.6947,524
1602662334.6966,-99
1602662334.6988,-463
1602662334.7007,-143
1602662334.7027,77
1602662334.7048,-34
1602662334.7067,-26
1602662334.7087,48
1602662334.7107,19
1602662334.7127,0
1602662334.7147,26
1602662334.7153,31
1602662334.7167,24
1602662334.7186,36
1602662334.7207,38
1602662334.7227,36
1602662334.7247,48
1602662334.7267,51
1602662334.7287,46
1602662334.7307,56
1602662334.7328,65
1602662334.7347,65
1602662334.7367,70
1602662334.7387,77
1602662334.7407,80
1602662334.7427,85
1602662334.7447,90
1602662334.7452,95
1602662334.7467,112
1602662334.7487,119
1602662334.7507,119
1602662334.7527,131
1602662334.7547,141
1602662334.7567,141
1602662334.7587,143
1602662334.7607,143
1602662334.7626,138
1602662334.7647,131
1602662334.7667,124
1602662334.7687,102
1602662334.7707,70
1602662334.7726,41
1602662334.7747,21
1602662334.7753,0
1602662334.7767,-21
1602662334.7786,-31
1602662334.7807,-31
1602662334.7827,-36
1602662334.7847,-48
1602662334.7866,-53
1602662334.7887,-53
1602662334.7907,-51
1602662334.7927,-46
1602662334.7946,-43
1602662334.7966,-41
1602662335.2309,-29
1602662335.2317,-21
1602662335.2341,-24
1602662335.2368,-19
1602662335.2387,-2
1602662335.2407,-7
1602662335.2427,-14
1602662335.2447,-9
1602662335.2467,-4
1602662335.2487,-4
1602662335.2507,-7
1602662335.2527,0
1602662335.2547,9
1602662335.2567,4
1602662335.2587,2
1602662335.2607,0
1602662335.2629,0
1602662335.2634,2
1602662335.2647,4
1602662335.2667,4
1602662335.2687,12
1602662335.2707,12
1602662335.2726,2
1602662335.2748,4
1602662335.2767,14
1602662335.2787,9
1602662335.2807,7
1602662335.2827,12
1602662335.2846,12
1602662335.2867,7
1602662335.2886,19
1602662335.2906,29
1602662335.2926,24
1602662335.2933,21
1602662335.2947,17
1602662335.2966,14
1602662335.2987,21
1602662335.3007,36
1602662335.3027,53
1602662335.3047,65
1602662335.3067,56
1602662335.3088,41
1602662335.3107,48
1602662335.3127,56
1602662335.3147,48
1602662335.3167,36
1602662335.3187,19
1602662335.3206,9
1602662335.3227,19
1602662335.3303,31
1602662335.3317,29
1602662335.3337,26
1602662335.3357,29
1602662335.3377,9
1602662335.3397,38
1602662335.3417,285
1602662335.3437,636
1602662335.3457,531
1602662335.3477,-175
1602662335.3497,-548
1602662335.3517,-168
1602662335.3537,85
1602662335.3557,-24
1602662335.3577,2
1602662335.3597,77
1602662335.3616,29
1602662335.3637,19
1602662335.3659,58
1602662335.3677,53
1602662335.3697,41
1602662335.3717,51
1602662335.3737,56
1602662335.3757,53
1602662335.7710,60
1602662335.7717,63
1602662335.7741,65
1602662335.7769,75
1602662335.7787,85
1602662335.7807,85
1602662335.7828,80
1602662335.7847,77
1602662335.7867,80
1602662335.7887,90
1602662335.7907,102
1602662335.7927,112
1602662335.7947,109
1602662335.7967,119
1602662335.7987,136
1602662335.8007,143
1602662335.8027,151
1602662335.8047,165
1602662335.8067,160
1602662335.8087,148
1602662335.8107,151
1602662335.8127,153
1602662335.8147,134
1602662335.8167,99
1602662335.8187,77
1602662335.8207,58
1602662335.8227,24
1602662335.8247,-2
1602662335.8267,-14
1602662335.8287,-29
1602662335.8307,-38
1602662335.8327,-36
1602662335.8347,-31
1602662335.8367,-31
1602662335.8387,-41
1602662335.8407,-46
1602662335.8427,-31
1602662335.8447,-17
1602662335.8467,-17
1602662335.8487,-17
1602662335.8507,-7
1602662335.8527,2
1602662335.8547,7
1602662335.8567,12
1602662335.8587,19
1602662335.8609,19
1602662335.8627,19
1602662335.8647,29
1602662335.8667,36
1602662335.8687,31
1602662335.8707,29
1602662335.8727,34
1602662335.8748,31
1602662335.8767,21
1602662335.8787,21
1602662335.8807,21
1602662335.8827,17
1602662335.8847,17
1602662335.8867,24
1602662335.8888,26
1602662335.8907,29
1602662335.8928,29
1602662335.8947,29
1602662335.8967,26
1602662335.8987,29
1602662335.9007,31
1602662335.9027,31
1602662335.9047,34
1602662335.9067,38
1602662335.9087,31
1602662335.9107,31
1602662335.9127,41
1602662335.9147,36
1602662336.3711,26
1602662336.3720,31
1602662336.3744,41
1602662336.3771,34
1602662336.3791,21
1602662336.3811,21
1602662336.3833,41
1602662336.3851,65
1602662336.3871,70
1602662336.3891,53
1602662336.3911,51
1602662336.3931,53
1602662336.3950,48
1602662336.3970,38
1602662336.3990,31
1602662336.4010,24
1602662336.4030,24
1602662336.4050,29
1602662336.4070,34
1602662336.4090,34
1602662336.4110,29
1602662336.4131,17
1602662336.4150,14
1602662336.4172,141
1602662336.4190,463
1602662336.4211,653
1602662336.4231,233
1602662336.4250,-372
1602662336.4270,-314
1602662336.4290,51
1602662336.4310,41
1602662336.4330,-43
1602662336.4350,26
1602662336.4370,34
1602662336.4390,-2
1602662336.4410,29
1602662336.4430,46
1602662336.4451,34
1602662336.4470,38
1602662336.4490,46
1602662336.4510,41
1602662336.4530,46
1602662336.4550,51
1602662336.4570,56
1602662336.4590,56
1602662336.4610,53
1602662336.4630,58
1602662336.4650,65
1602662336.4670,70
1602662336.4690,75
1602662336.4710,80
1602662336.4730,80
1602662336.4750,85
1602662336.4770,97
1602662336.4790,109
1602662336.4810,109
1602662336.4830,112
1602662336.4850,126
1602662336.4870,131
1602662336.4890,126
1602662336.4910,126
1602662336.4930,126
1602662336.4950,121
1602662336.4970,114
1602662336.4990,95
1602662336.5010,77
1602662336.5030,56
1602662336.5050,24
1602662336.5070,-2
1602662336.5090,-14
1602662336.5110,-29
1602662336.5130,-46
1602662336.5150,-43
1602662336.9711,-38
1602662336.9722,-38
1602662336.9745,-38
1602662336.9770,-36
1602662336.9791,-38
1602662336.9811,-36
1602662336.9830,-26
1602662336.9850,-21
1602662336.9870,-24
1602662336.9890,-21
1602662336.9910,-19
1602662336.9930,-12
1602662336.9950,-2
1602662336.9970,-2
1602662336.9990,-9
1602662337.0010,0
1602662337.0030,12
1602662337.0050,9
1602662337.0070,7
1602662337.0090,9
1602662337.0110,4
1602662337.0130,12
1602662337.0150,24
1602662337.0170,14
1602662337.0190,7
1602662337.0210,7
1602662337.0230,9
1602662337.0250,9
1602662337.0270,9
1602662337.0290,12
1602662337.0310,14
1602662337.0331,19
1602662337.0349,17
1602662337.0369,14
1602662337.0389,17
1602662337.0409,21
1602662337.0429,21
1602662337.0450,19
1602662337.0469,14
1602662337.0489,17
1602662337.0509,19
1602662337.0529,17
1602662337.0549,14
1602662337.0569,21
1602662337.0589,26
1602662337.0609,24
1602662337.0629,19
1602662337.0649,21
1602662337.0670,26
1602662337.0690,24
1602662337.0709,29
1602662337.0729,46
1602662337.0751,60
1602662337.0770,56
1602662337.0790,41
1602662337.0809,43
1602662337.0829,51
1602662337.0850,43
1602662337.0869,21
1602662337.0889,4
1602662337.0910,7
1602662337.0929,17
1602662337.0949,17
1602662337.0970,12
1602662337.0989,14
1602662337.1009,19
1602662337.1030,-2
1602662337.1049,31
1602662337.1069,270
1602662337.1089,582
1602662337.1109,480
1602662337.1130,-116
1602662337.1149,-414
1602662337.4807,-104
1602662337.4816,77
1602662337.4834,-29
1602662337.4853,-17
1602662337.4874,43
1602662337.4893,19
1602662337.4913,14
1602662337.4934,36
1602662337.4954,29
1602662337.4973,21
1602662337.4993,31
1602662337.5013,31
1602662337.5034,26
1602662337.5053,26
1602662337.5073,26
1602662337.5093,29
1602662337.5113,31
1602662337.5133,41
1602662337.5153,46
1602662337.5173,51
1602662337.5193,58
1602662337.5213,63
1602662337.5233,70
1602662337.5253,80
1602662337.5273,87
1602662337.5293,95
1602662337.5313,104
1602662337.5333,104
1602662337.5353,104
1602662337.5373,114
1602662337.5396,121
1602662337.5414,116
1602662337.5434,112
1602662337.5453,116
1602662337.5473,114
1602662337.5493,99
1602662337.5513,82
1602662337.5533,58
1602662337.5553,34
1602662337.5573,12
1602662337.5593,-9
1602662337.5613,-24
1602662337.5633,-29
1602662337.5653,-36
1602662337.5673,-46
1602662337.5693,-51
1602662337.5713,-46
1602662337.5733,-38
1602662337.5753,-38
1602662337.5773,-36
1602662337.5793,-29
1602662337.5813,-31
1602662337.5833,-31
1602662337.5853,-19
1602662337.5873,-12
1602662337.5893,-14
1602662337.5913,-9
1602662337.5933,-2
1602662337.5953,2
1602662337.5973,7
1602662337.5993,9
1602662337.6013,9
1602662337.6033,9
1602662337.6053,12
1602662337.6073,12
1602662337.6093,12
1602662337.6113,9
1602662337.6133,9
1602662337.6153,9
1602662337.6173,4
1602662337.6193,4
1602662337.6213,9
1602662337.6234,12
1602662338.0208,9
1602662338.0216,4
1602662338.0240,2
1602662338.0267,4
1602662338.0286,7
1602662338.0306,9
1602662338.0326,9
1602662338.0346,4
1602662338.0368,-2
1602662338.0386,0
1602662338.0406,2
1602662338.0426,-4
1602662338.0446,-9
1602662338.0466,-2
1602662338.0485,7
1602662338.0505,9
1602662338.0526,2
1602662338.0546,0
1602662338.0565,12
1602662338.0586,19
1602662338.0605,9
1602662338.0625,4
1602662338.0646,9
1602662338.0665,17
1602662338.0685,34
1602662338.0705,41
1602662338.0725,24
1602662338.0746,4
1602662338.0765,9
1602662338.0785,12
1602662338.0805,2
1602662338.0825,-4
1602662338.0845,2
1602662338.0865,2
1602662338.0885,-4
1602662338.0905,-2
1602662338.0925,4
1602662338.0945,0
1602662338.0965,-21
1602662338.0985,0
1602662338.1005,209
1602662338.1025,553
1602662338.1045,524
1602662338.1065,-116
1602662338.1085,-543
1602662338.1105,-224
1602662338.1125,51
1602662338.1145,-48
1602662338.1165,-38
1602662338.1185,41
1602662338.1205,4
1602662338.1225,-21
1602662338.1246,7
1602662338.1266,12
1602662338.1285,12
1602662338.1305,14
1602662338.1325,7
1602662338.1345,17
1602662338.1365,34
1602662338.1387,38
1602662338.1406,38
1602662338.1426,46
1602662338.1446,53
1602662338.1465,56
1602662338.1485,58
1602662338.1505,46
1602662338.1525,38
1602662338.1545,60
1602662338.1565,95
1602662338.1585,104
1602662338.1606,104
1602662338.1625,109
1602662338.1646,119
1602662338.5911,124
1602662338.5920,119
1602662338.5944,129
1602662338.5970,143
1602662338.5991,141
1602662338.6010,126
1602662338.6031,112
1602662338.6050,107
1602662338.6070,97
1602662338.6090,75
1602662338.6110,51
1602662338.6130,24
1602662338.6150,2
1602662338.6169,-12
1602662338.6189,-31
1602662338.6209,-51
1602662338.6229,-53
1602662338.6249,-58
1602662338.6269,-70
1602662338.6289,-73
1602662338.6309,-63
1602662338.6329,-56
1602662338.6349,-38
1602662338.6369,-24
1602662338.6389,-21
1602662338.6409,-19
1602662338.6430,-14
1602662338.6450,-17
1602662338.6470,-9
1602662338.6489,2
1602662338.6510,2
1602662338.6529,2
1602662338.6550,2
1602662338.6569,0
1602662338.6590,9
1602662338.6610,19
1602662338.6630,9
1602662338.6651,9
1602662338.6671,24
1602662338.6689,21
1602662338.6709,14
1602662338.6729,17
1602662338.6750,9
1602662338.6770,2
1602662338.6789,9
1602662338.6809,17
1602662338.6830,24
1602662338.6849,31
1602662338.6870,24
1602662338.6890,21
1602662338.6909,29
1602662338.6930,31
1602662338.6950,26
1602662338.6970,21
1602662338.6990,29
1602662338.7009,31
1602662338.7030,24
1602662338.7050,21
1602662338.7069,26
1602662338.7089,34
1602662338.7110,26
1602662338.7130,19
1602662338.7149,26
1602662338.7169,38
1602662338.7189,60
1602662338.7210,77
1602662338.7231,56
1602662338.7250,41
1602662338.7270,53
1602662338.7290,56
1602662338.7309,41
1602662338.7330,24
1602662338.7350,19
1602662339.1308,29
1602662339.1316,26
1602662339.1339,26
1602662339.1366,34
1602662339.1386,34
1602662339.1406,9
1602662339.1427,4
1602662339.1446,160
1602662339.1466,506
1602662339.1487,621
1602662339.1506,85
1602662339.1526,-492
1602662339.1546,-304
1602662339.1565,60
1602662339.1585,-2
1602662339.1608,-58
1602662339.1627,34
1602662339.1645,21
1602662339.1665,-17
1602662339.1685,17
1602662339.1705,34
1602662339.1726,19
1602662339.1746,26
1602662339.1766,36
1602662339.1786,34
1602662339.1806,34
1602662339.1826,46
1602662339.1846,56
1602662339.1866,56
1602662339.1886,68
1602662339.1906,80
1602662339.1926,73
1602662339.1946,75
1602662339.1966,87
1602662339.1986,82
1602662339.2006,82
1602662339.2026,107
1602662339.2046,124
1602662339.2066,116
1602662339.2086,121
1602662339.2106,143
1602662339.2126,153
1602662339.2146,151
1602662339.2166,143
1602662339.2186,138
1602662339.2206,138
1602662339.2226,146
1602662339.2245,134
1602662339.2266,112
1602662339.2286,95
1602662339.2306,73
1602662339.2325,41
1602662339.2346,17
1602662339.2366,-14
1602662339.2386,-31
1602662339.2406,-31
1602662339.2425,-38
1602662339.2446,-48
1602662339.2466,-46
1602662339.2486,-34
1602662339.2506,-34
1602662339.2526,-38
1602662339.2545,-24
1602662339.2566,-4
1602662339.2585,-7
1602662339.2606,-14
1602662339.2628,2
1602662339.2646,17
1602662339.2665,7
1602662339.2686,0
1602662339.2706,12
1602662339.2725,19
1602662339.2746,17
1602662339.7310,17
1602662339.7320,24
1602662339.7344,31
1602662339.7370,21
1602662339.7391,7
1602662339.7410,7
1602662339.7432,7
1602662339.7450,4
1602662339.7470,4
1602662339.7490,7
1602662339.7510,4
1602662339.7530,0
1602662339.7550,12
1602662339.7570,26
1602662339.7589,21
1602662339.7610,19
1602662339.7630,21
1602662339.7649,14
1602662339.7669,9
1602662339.7689,21
1602662339.7709,26
1602662339.7730,24
1602662339.7749,19
1602662339.7769,24
1602662339.7789,31
1602662339.7809,31
1602662339.7830,24
1602662339.7849,24
1602662339.7869,24
1602662339.7889,24
1602662339.7909,19
1602662339.7929,17
1602662339.7950,29
1602662339.7970,56
1602662339.7989,68
1602662339.8009,60
1602662339.8030,51
1602662339.8049,56
1602662339.8069,51
1602662339.8089,26
1602662339.8109,14
1602662339.8129,19
1602662339.8149,12
1602662339.8169,9
1602662339.8191,31
1602662339.8210,31
1602662339.8229,19
1602662339.8249,12
1602662339.8270,9
1602662339.8289,155
1602662339.8309,492
1602662339.8330,614
1602662339.8349,116
1602662339.8370,-421
1602662339.8389,-260
1602662339.8409,68
1602662339.8430,9
1602662339.8449,-48
1602662339.8469,34
1602662339.8489,29
1602662339.8510,-2
1602662339.8530,29
1602662339.8549,34
1602662339.8569,19
1602662339.8589,31
1602662339.8609,34
1602662339.8630,21
1602662339.8649,29
1602662339.8669,48
1602662339.8689,51
1602662339.8709,43
1602662339.8730,48
1602662339.8750,60
1602662340.3008,58
1602662340.3014,60
1602662340.3038,77
1602662340.3065,85
1602662340.3085,85
1602662340.3105,87
1602662340.3125,99
1602662340.3146,112
1602662340.3165,112
1602662340.3185,104
1602662340.3205,114
1602662340.3225,126
1602662340.3245,131
1602662340.3264,129
1602662340.3284,112
1602662340.3305,107
1602662340.3325,109
1602662340.3344,102
1602662340.3365,77
1602662340.3384,46
1602662340.3404,24
1602662340.3425,12
1602662340.3446,-9
1602662340.3465,-26
1602662340.3484,-29
1602662340.3505,-36
1602662340.3524,-41
1602662340.3544,-34
1602662340.3551,-26
1602662340.3564,-36
1602662340.3585,-36
1602662340.3604,-24
1602662340.3624,-24
1602662340.3645,-21
1602662340.3664,-7
1602662340.3684,-4
1602662340.3704,-7
1602662340.3724,2
1602662340.3744,4
1602662340.3764,4
1602662340.3784,14
1602662340.3804,19
1602662340.3824,17
1602662340.3844,17
1602662340.3851,17
1602662340.3864,19
1602662340.3884,29
1602662340.3905,31
1602662340.3925,14
1602662340.3944,9
1602662340.3964,21
1602662340.3984,26
1602662340.4005,17
1602662340.4024,21
1602662340.4044,29
1602662340.4064,19
1602662340.4084,12
1602662340.4105,21
1602662340.4124,26
1602662340.4145,21
1602662340.4151,17
1602662340.4164,9
1602662340.4184,12
1602662340.4204,19
1602662340.4224,19
1602662340.4245,19
1602662340.4264,17
1602662340.4284,17
1602662340.4304,24
1602662340.4324,26
1602662340.4344,24
1602662340.4364,17
1602662340.4384,14
1602662340.8408,17
1602662340.8417,21
1602662340.8442,19
1602662340.8453,17
1602662340.8468,24
1602662340.8488,43
1602662340.8508,63
1602662340.8528,58
1602662340.8547,43
1602662340.8567,41
1602662340.8587,46
1602662340.8607,36
1602662340.8627,14
1602662340.8647,2
1602662340.8667,4
1602662340.8686,7
1602662340.8706,9
1602662340.8726,12
1602662340.8746,19
1602662340.8753,12
1602662340.8767,-19
1602662340.8787,17
1602662340.8806,265
1602662340.8827,577
1602662340.8846,453
1602662340.8867,-158
1602662340.8887,-428
1602662340.8907,-102
1602662340.8927,68
1602662340.8946,-46
1602662340.8967,-24
1602662340.8987,36
1602662340.9007,4
1602662340.9026,-2
1602662340.9047,26
1602662340.9054,24
1602662340.9066,14
1602662340.9086,17
1602662340.9107,21
1602662340.9127,36
1602662340.9147,41
1602662340.9166,34
1602662340.9186,41
1602662340.9206,53
1602662340.9226,51
1602662340.9247,53
1602662340.9266,65
1602662340.9286,68
1602662340.9307,70
1602662340.9327,77
1602662340.9346,80
1602662340.9355,75
1602662340.9367,80
1602662340.9387,92
1602662340.9406,97
1602662340.9427,99
1602662340.9447,104
1602662340.9467,114
1602662340.9487,114
1602662340.9506,116
1602662340.9526,114
1602662340.9547,104
1602662340.9566,90
1602662340.9586,75
1602662340.9607,56
1602662340.9626,31
1602662340.9633,17
1602662340.9646,0
1602662340.9667,-24
1602662340.9686,-38
1602662340.9706,-36
1602662340.9727,-29
1602662340.9746,-31
1602662341.4105,-36
1602662341.4114,-41
1602662341.4139,-38
1602662341.4164,-31
1602662341.4184,-21
1602662341.4204,-21
1602662341.4225,-26
1602662341.4233,-21
1602662341.4245,-19
1602662341.4264,-21
1602662341.4284,-17
1602662341.4304,-7
1602662341.4324,-9
1602662341.4344,-14
1602662341.4363,-2
1602662341.4384,12
1602662341.4403,7
1602662341.4423,-4
1602662341.4444,-7
1602662341.4463,-2
1602662341.4483,-2
1602662341.4503,4
1602662341.4523,9
1602662341.4530,-7
1602662341.4543,-9
1602662341.4563,7
1602662341.4583,7
1602662341.4603,2
1602662341.4623,4
1602662341.4645,2
1602662341.4663,4
1602662341.4683,7
1602662341.4704,2
1602662341.4723,4
1602662341.4743,14
1602662341.4763,24
1602662341.4783,21
1602662341.4803,9
1602662341.4823,2
1602662341.4830,4
1602662341.4843,24
1602662341.4863,24
1602662341.4883,2
1602662341.4903,-2
1602662341.4923,7
1602662341.4943,2
1602662341.4963,-2
1602662341.4983,4
1602662341.5003,12
1602662341.5023,24
1602662341.5043,48
1602662341.5063,53
1602662341.5083,31
1602662341.5104,26
1602662341.5123,36
1602662341.5130,26
1602662341.5143,7
1602662341.5163,4
1602662341.5183,9
1602662341.5203,9
1602662341.5223,4
1602662341.5243,14
1602662341.5263,21
1602662341.5283,4
1602662341.5303,-26
1602662341.5323,31
1602662341.5343,321
1602662341.5363,631
1602662341.5383,389
1602662341.5403,-319
1602662341.5423,-514
1602662341.5430,-90
1602662341.5443,58
1602662341.9501,-68
1602662341.9507,-14
1602662341.9531,51
1602662341.9557,-2
1602662341.9577,-9
1602662341.9597,31
1602662341.9618,31
1602662341.9640,21
1602662341.9658,24
1602662341.9677,26
1602662341.9697,31
1602662341.9704,38
1602662341.9717,38
1602662341.9738,34
1602662341.9757,46
1602662341.9777,63
1602662341.9797,58
1602662341.9818,51
1602662341.9839,63
1602662341.9857,82
1602662341.9877,85
1602662341.9897,82
1602662341.9917,104
1602662341.9937,121
1602662341.9957,121
1602662341.9977,121
1602662341.9997,131
1602662342.0017,141
1602662342.0037,141
1602662342.0057,138
1602662342.0077,138
1602662342.0097,136
1602662342.0118,131
1602662342.0137,126
1602662342.0157,109
1602662342.0177,77
1602662342.0197,41
1602662342.0217,19
1602662342.0237,7
1602662342.0257,-12
1602662342.0277,-31
1602662342.0297,-34
1602662342.0317,-36
1602662342.0337,-46
1602662342.0358,-48
1602662342.0377,-41
1602662342.0397,-36
1602662342.0417,-31
1602662342.0438,-19
1602662342.0457,-9
1602662342.0477,-4
1602662342.0497,-2
1602662342.0517,0
1602662342.0537,2
1602662342.0557,9
1602662342.0577,24
1602662342.0597,29
1602662342.0617,24
1602662342.0639,21
1602662342.0658,17
1602662342.0677,21
1602662342.0697,31
1602662342.0717,24
1602662342.0738,12
1602662342.0757,21
1602662342.0777,29
1602662342.0797,21
1602662342.0817,14
1602662342.0837,17
1602662342.0857,21
1602662342.0877,21
1602662342.0897,12
1602662342.0917,12
1602662342.5206,24
1602662342.5215,21
1602662342.5240,17
1602662342.5266,24
1602662342.5286,26
1602662342.5306,17
1602662342.5327,14
1602662342.5346,19
1602662342.5365,19
1602662342.5386,17
1602662342.5405,17
1602662342.5426,19
1602662342.5445,17
1602662342.5465,14
1602662342.5485,21
1602662342.5506,36
1602662342.5525,56
1602662342.5545,63
1602662342.5565,53
1602662342.5585,46
1602662342.5605,51
1602662342.5625,43
1602662342.5645,31
1602662342.5665,24
1602662342.5685,19
1602662342.5705,26
1602662342.5725,24
1602662342.5746,19
1602662342.5765,21
1602662342.5786,14
1602662342.5805,-2
1602662342.5825,19
1602662342.5845,212
1602662342.5865,550
1602662342.5885,582
1602662342.5905,0
1602662342.5927,-475
1602662342.5946,-224
1602662342.5965,68
1602662342.5985,-17
1602662342.6004,-41
1602662342.6024,36
1602662342.6045,24
1602662342.6064,7
1602662342.6084,36
1602662342.6105,36
1602662342.6124,24
1602662342.6145,34
1602662342.6165,36
1602662342.6185,36
1602662342.6205,51
1602662342.6224,63
1602662342.6245,58
1602662342.6264,56
1602662342.6285,63
1602662342.6304,73
1602662342.6325,77
1602662342.6345,80
1602662342.6365,87
1602662342.6385,90
1602662342.6405,95
1602662342.6425,104
1602662342.6445,114
1602662342.6464,124
1602662342.6484,129
1602662342.6505,131
1602662342.6525,138
1602662342.6545,148
1602662342.6565,138
1602662342.6585,131
1602662342.6605,134
1602662342.6624,134
1602662342.6645,121
1602662343.1209,102
1602662343.1217,85
1602662343.1242,60
1602662343.1268,31
1602662343.1288,9
1602662343.1308,-7
1602662343.1330,-24
1602662343.1348,-34
1602662343.1368,-36
1602662343.1388,-38
1602662343.1408,-48
1602662343.1428,-48
1602662343.1448,-36
1602662343.1467,-34
1602662343.1489,-31
1602662343.1508,-19
1602662343.1528,-7
1602662343.1549,-4
1602662343.1569,-4
1602662343.1588,2
1602662343.1609,9
1602662343.1628,0
1602662343.1649,-7
1602662343.1668,4
1602662343.1688,14
1602662343.1707,7
1602662343.1727,9
1602662343.1747,19
1602662343.1767,17
1602662343.1787,17
1602662343.1807,21
1602662343.1827,19
1602662343.1847,12
1602662343.1867,12
1602662343.1887,19
1602662343.1907,17
1602662343.1929,14
1602662343.1947,17
1602662343.1967,17
1602662343.1987,24
1602662343.2007,29
1602662343.2027,19
1602662343.2047,14
1602662343.2067,26
1602662343.2087,31
1602662343.2107,26
1602662343.2127,24
1602662343.2147,26
1602662343.2167,31
1602662343.2187,31
1602662343.2207,29
1602662343.2227,26
1602662343.2247,24
1602662343.2267,19
1602662343.2287,21
1602662343.2307,38
1602662343.2327,56
1602662343.2347,60
1602662343.2367,53
1602662343.2387,43
1602662343.2407,48
1602662343.2427,51
1602662343.2447,29
1602662343.2467,7
1602662343.2487,14
1602662343.2508,24
1602662343.2527,21
1602662343.2547,19
1602662343.2567,26
1602662343.2587,34
1602662343.2607,14
1602662343.2627,4
1602662343.2647,134
1602662343.6607,453
1602662343.6613,616
1602662343.6631,190
1602662343.6650,-380
1602662343.6670,-302
1602662343.6690,43
1602662343.6710,31
1602662343.6731,-43
1602662343.6750,19
1602662343.6770,31
1602662343.6790,0
1602662343.6811,12
1602662343.6830,19
1602662343.6850,7
1602662343.6870,9
1602662343.6890,21
1602662343.6910,24
1602662343.6931,26
1602662343.6950,29
1602662343.6970,31
1602662343.6990,41
1602662343.7010,46
1602662343.7031,48
1602662343.7050,56
1602662343.7070,63
1602662343.7076,65
1602662343.7090,68
1602662343.7110,85
1602662343.7131,97
1602662343.7150,102
1602662343.7170,104
1602662343.7190,107
1602662343.7210,114
1602662343.7231,126
1602662343.7250,134
1602662343.7270,131
1602662343.7290,124
1602662343.7310,119
1602662343.7330,114
1602662343.7351,109
1602662343.7371,97
1602662343.7377,70
1602662343.7391,48
1602662343.7412,34
1602662343.7431,4
1602662343.7450,-17
1602662343.7470,-17
1602662343.7491,-24
1602662343.7511,-34
1602662343.7531,-36
1602662343.7550,-38
1602662343.7570,-41
1602662343.7590,-26
1602662343.7610,-19
1602662343.7631,-21
1602662343.7650,-17
1602662343.7670,-4
1602662343.7677,-4
1602662343.7690,-9
1602662343.7710,2
1602662343.7731,12
1602662343.7750,9
1602662343.7770,9
1602662343.7790,9
1602662343.7810,12
1602662343.7830,24
1602662343.7850,29
1602662343.7870,19
1602662343.7890,17
1602662343.7910,26
1602662343.7931,26
1602662343.7950,21
1602662343.7970,17
1602662344.2007,14
1602662344.2013,14
1602662344.2037,17
1602662344.2064,14
1602662344.2084,12
1602662344.2104,19
1602662344.2125,24
1602662344.2144,9
1602662344.2164,-4
1602662344.2184,-7
1602662344.2203,-2
1602662344.2224,4
1602662344.2244,4
1602662344.2264,0
1602662344.2271,4
1602662344.2283,14
1602662344.2304,17
1602662344.2323,14
1602662344.2343,12
1602662344.2363,12
1602662344.2383,12
1602662344.2405,14
1602662344.2423,14
1602662344.2443,17
1602662344.2463,29
1602662344.2484,48
1602662344.2503,56
1602662344.2523,43
1602662344.2544,38
1602662344.2563,36
1602662344.2570,26
1602662344.2583,12
1602662344.2603,0
1602662344.2623,-7
1602662344.2644,-4
1602662344.2663,7
1602662344.2683,14
1602662344.2703,14
1602662344.2723,4
1602662344.2743,-14
1602662344.2763,43
1602662344.2783,304
1602662344.2803,589
1602662344.2823,399
1602662344.2843,-231
1602662344.2863,-448
1602662344.2870,-95
1602662344.2883,53
1602662344.2903,-51
1602662344.2923,-21
1602662344.2944,26
1602662344.2964,-7
1602662344.2983,-9
1602662344.3003,17
1602662344.3023,17
1602662344.3044,9
1602662344.3063,17
1602662344.3083,24
1602662344.3104,24
1602662344.3125,29
1602662344.3144,29
1602662344.3150,31
1602662344.3163,36
1602662344.3183,41
1602662344.3203,46
1602662344.3223,63
1602662344.3244,68
1602662344.3263,63
1602662344.3283,73
1602662344.3303,85
1602662344.3323,85
1602662344.3343,85
1602662344.3365,95
1602662344.7709,109
1602662344.7717,112
1602662344.7741,104
1602662344.7753,107
1602662344.7768,112
1602662344.7788,104
1602662344.7808,95
1602662344.7829,92
1602662344.7848,85
1602662344.7867,63
1602662344.7888,41
1602662344.7908,24
1602662344.7928,2
1602662344.7948,-14
1602662344.7967,-17
1602662344.7987,-24
1602662344.8007,-43
1602662344.8027,-56
1602662344.8047,-56
1602662344.8054,-51
1602662344.8067,-41
1602662344.8087,-38
1602662344.8107,-38
1602662344.8127,-29
1602662344.8147,-19
1602662344.8167,-21
1602662344.8187,-21
1602662344.8207,-14
1602662344.8227,-9
1602662344.8247,-4
1602662344.8267,2
1602662344.8287,4
1602662344.8307,9
1602662344.8327,14
1602662344.8347,12
1602662344.8354,9
1602662344.8367,14
1602662344.8387,9
1602662344.8407,4
1602662344.8427,7
1602662344.8447,7
1602662344.8467,2
1602662344.8487,7
1602662344.8507,19
1602662344.8527,19
1602662344.8547,7
1602662344.8567,7
1602662344.8587,12
1602662344.8607,9
1602662344.8627,7
1602662344.8649,19
1602662344.8658,21
1602662344.8677,7
1602662344.8698,9
1602662344.8716,19
1602662344.8737,9
1602662344.8757,7
1602662344.8777,17
1602662344.8797,14
1602662344.8817,4
1602662344.8837,9
1602662344.8857,26
1602662344.8877,51
1602662344.8897,58
1602662344.8917,34
1602662344.8937,17
1602662344.8957,34
1602662344.8964,43
1602662344.8977,24
1602662344.8997,2
1602662344.9017,-4
1602662344.9037,-2
1602662344.9057,4
1602662345.3405,7
1602662345.3413,7
1602662345.3438,14
1602662345.3463,9
1602662345.3484,-9
1602662345.3504,85
1602662345.3524,404
1602662345.3530,631
1602662345.3543,233
1602662345.3563,-448
1602662345.3583,-455
1602662345.3603,-31
1602662345.3623,12
1602662345.3642,-77
1602662345.3663,17
1602662345.3683,43
1602662345.3703,-9
1602662345.3723,12
1602662345.3743,31
1602662345.3763,12
1602662345.3782,14
1602662345.3803,34
1602662345.3822,31
1602662345.3830,31
1602662345.3843,38
1602662345.3863,36
1602662345.3883,43
1602662345.3903,53
1602662345.3924,53
1602662345.3943,56
1602662345.3962,70
1602662345.3982,85
1602662345.4003,90
1602662345.4023,95
1602662345.4043,97
1602662345.4063,97
1602662345.4083,109
1602662345.4102,121
1602662345.4122,124
1602662345.4129,134
1602662345.4143,151
1602662345.4163,148
1602662345.4183,134
1602662345.4203,131
1602662345.4223,136
1602662345.4243,131
1602662345.4262,112
1602662345.4282,90
1602662345.4303,63
1602662345.4323,34
1602662345.4343,14
1602662345.4362,2
1602662345.4383,-17
1602662345.4402,-36
1602662345.4423,-46
1602662345.4430,-41
1602662345.4443,-38
1602662345.4463,-41
1602662345.4483,-48
1602662345.4503,-38
1602662345.4523,-21
1602662345.4543,-26
1602662345.4562,-24
1602662345.4583,-4
1602662345.4603,-2
1602662345.4623,-2
1602662345.4643,7
1602662345.4663,7
1602662345.4682,2
1602662345.4703,12
1602662345.4722,24
1602662345.4730,26
1602662345.4743,26
1602662345.8804,24
1602662345.8813,24
1602662345.8836,19
1602662345.8863,14
1602662345.8883,14
1602662345.8903,9
1602662345.8926,7
1602662345.8945,17
1602662345.8963,19
1602662345.8983,2
1602662345.9003,0
1602662345.9023,14
1602662345.9043,17
1602662345.9050,14
1602662345.9063,21
1602662345.9083,17
1602662345.9103,9
1602662345.9123,9
1602662345.9143,19
1602662345.9163,26
1602662345.9183,21
1602662345.9203,9
1602662345.9223,9
1602662345.9243,34
1602662345.9263,63
1602662345.9283,70
1602662345.9302,56
1602662345.9322,51
1602662345.9342,56
1602662345.9349,51
1602662345.9362,38
1602662345.9382,24
1602662345.9403,17
1602662345.9422,21
1602662345.9442,24
1602662345.9462,26
1602662345.9482,34
1602662345.9502,31
1602662345.9523,12
1602662345.9543,4
1602662345.9562,155
1602662345.9582,509
1602662345.9602,636
1602662345.9622,116
1602662345.9643,-450
1602662345.9649,-290
1602662345.9663,58
1602662345.9683,21
1602662345.9702,-31
1602662345.9723,36
1602662345.9743,24
1602662345.9763,2
1602662345.9782,34
1602662345.9803,36
1602662345.9822,24
1602662345.9842,36
1602662345.9862,46
1602662345.9884,46
1602662345.9903,46
1602662345.9922,46
1602662345.9942,51
1602662345.9950,58
1602662345.9962,60
1602662345.9982,60
1602662346.0003,65
1602662346.0022,70
1602662346.0043,73
1602662346.0062,80
1602662346.0082,95
1602662346.0103,97
1602662346.0123,97
1602662346.0143,112
1602662346.0162,124
1602662346.4805,126
1602662346.4813,134
1602662346.4837,138
1602662346.4864,136
1602662346.4884,131
1602662346.4904,124
1602662346.4925,109
1602662346.4943,99
1602662346.4965,90
1602662346.4984,63
1602662346.5004,26
1602662346.5024,7
1602662346.5044,-4
1602662346.5064,-26
1602662346.5085,-41
1602662346.5104,-48
1602662346.5111,-53
1602662346.5124,-56
1602662346.5143,-53
1602662346.5163,-46
1602662346.5183,-41
1602662346.5203,-46
1602662346.5224,-38
1602662346.5243,-26
1602662346.5263,-24
1602662346.5283,-21
1602662346.5303,-7
1602662346.5323,2
1602662346.5343,0
1602662346.5363,0
1602662346.5383,2
1602662346.5403,7
1602662346.5410,12
1602662346.5423,9
1602662346.5443,4
1602662346.5465,12
1602662346.5484,17
1602662346.5503,19
1602662346.5523,24
1602662346.5544,21
1602662346.5563,14
1602662346.5583,12
1602662346.5603,7
1602662346.5623,2
1602662346.5643,2
1602662346.5663,9
1602662346.5682,12
1602662346.5703,12
1602662346.5710,14
1602662346.5723,12
1602662346.5743,12
1602662346.5764,14
1602662346.5783,19
1602662346.5803,17
1602662346.5823,14
1602662346.5843,17
1602662346.5863,17
1602662346.5883,17
1602662346.5903,29
1602662346.5923,53
1602662346.5943,68
1602662346.5963,56
1602662346.5983,38
1602662346.6003,41
1602662346.6010,51
1602662346.6023,43
1602662346.6044,19
1602662346.6063,4
1602662346.6083,12
1602662346.6103,12
1602662346.6123,14
1602662346.6143,26
1602662346.6163,26
1602662347.0208,9
1602662347.0217,-4
1602662347.0240,85
1602662347.0268,389
1602662347.0287,643
1602662347.0294,324
1602662347.0307,-314
1602662347.0329,-372
1602662347.0347,-4
1602662347.0367,51
1602662347.0387,-46
1602662347.0407,4
1602662347.0427,31
1602662347.0449,0
1602662347.0467,9
1602662347.0487,26
1602662347.0507,24
1602662347.0527,26
1602662347.0547,34
1602662347.0567,34
1602662347.0587,34
1602662347.0594,43
1602662347.0607,53
1602662347.0627,53
1602662347.0647,53
1602662347.0667,56
1602662347.0686,58
1602662347.0707,65
1602662347.0726,73
1602662347.0747,75
1602662347.0766,80
1602662347.0787,87
1602662347.0807,95
1602662347.0827,99
1602662347.0847,104
1602662347.0867,109
1602662347.0887,116
1602662347.0893,121
1602662347.0907,121
1602662347.0927,126
1602662347.0947,131
1602662347.0966,124
1602662347.0986,112
1602662347.1007,97
1602662347.1027,70
1602662347.1047,43
1602662347.1067,19
1602662347.1087,-4
1602662347.1107,-14
1602662347.1126,-29
1602662347.1147,-51
1602662347.1168,-53
1602662347.1187,-46
1602662347.1193,-51
1602662347.1207,-53
1602662347.1227,-48
1602662347.1246,-43
1602662347.1267,-36
1602662347.1287,-24
1602662347.1307,-19
1602662347.1327,-21
1602662347.1347,-17
1602662347.1366,-9
1602662347.1387,-12
1602662347.1408,-12
1602662347.1427,-4
1602662347.1447,0
1602662347.1467,4
1602662347.1487,9
1602662347.1492,12
1602662347.1506,12
1602662347.1526,7
1602662347.1547,2
1602662347.5910,7
1602662347.5919,14
1602662347.5943,7
1602662347.5969,4
1602662347.5991,7
1602662347.6009,9
1602662347.6031,12
1602662347.6049,7
1602662347.6069,2
1602662347.6089,-4
1602662347.6109,-14
1602662347.6116,-17
1602662347.6130,-7
1602662347.6149,-4
1602662347.6169,-7
1602662347.6188,-4
1602662347.6209,0
1602662347.6230,0
1602662347.6249,-7
1602662347.6268,-9
1602662347.6288,-2
1602662347.6308,7
1602662347.6329,21
1602662347.6348,43
1602662347.6369,41
1602662347.6388,26
1602662347.6409,26
1602662347.6415,26
1602662347.6429,7
1602662347.6448,-9
1602662347.6468,-7
1602662347.6488,0
1602662347.6509,-7
1602662347.6529,-12
1602662347.6549,-2
1602662347.6568,0
1602662347.6589,-4
1602662347.6609,-14
1602662347.6629,-4
1602662347.6649,168
1602662347.6668,511
1602662347.6688,589
1602662347.6710,21
1602662347.6716,-504
1602662347.6729,-272
1602662347.6748,53
1602662347.6768,-31
1602662347.6788,-68
1602662347.6808,24
1602662347.6829,12
1602662347.6848,-21
1602662347.6869,4
1602662347.6888,26
1602662347.6909,26
1602662347.6929,29
1602662347.6948,26
1602662347.6968,21
1602662347.6989,31
1602662347.7009,46
1602662347.7014,41
1602662347.7029,26
1602662347.7048,41
1602662347.7068,65
1602662347.7088,68
1602662347.7109,63
1602662347.7129,73
1602662347.7148,80
1602662347.7168,80
1602662347.7189,85
1602662347.7208,92
1602662347.7229,102
1602662347.7248,116
1602662347.7268,116
1602662348.1307,116
1602662348.1313,129
1602662348.1336,129
1602662348.1363,114
1602662348.1383,112
1602662348.1403,114
1602662348.1424,104
1602662348.1443,82
1602662348.1463,60
1602662348.1483,29
1602662348.1503,0
1602662348.1523,-19
1602662348.1543,-31
1602662348.1563,-51
1602662348.1583,-65
1602662348.1590,-63
1602662348.1603,-58
1602662348.1623,-60
1602662348.1643,-65
1602662348.1663,-63
1602662348.1684,-56
1602662348.1703,-58
1602662348.1723,-60
1602662348.1744,-48
1602662348.1763,-36
1602662348.1783,-31
1602662348.1803,-19
1602662348.1823,-9
1602662348.1842,-7
1602662348.1863,-9
1602662348.1883,-9
1602662348.1890,-2
1602662348.1903,4
1602662348.1923,2
1602662348.1943,7
1602662348.1963,7
1602662348.1983,-2
1602662348.2002,-7
1602662348.2023,-4
1602662348.2043,0
1602662348.2063,2
1602662348.2083,-2
1602662348.2103,-4
1602662348.2122,2
1602662348.2144,0
1602662348.2163,0
1602662348.2169,7
1602662348.2183,9
1602662348.2203,4
1602662348.2223,4
1602662348.2243,9
1602662348.2263,9
1602662348.2283,9
1602662348.2303,12
1602662348.2323,12
1602662348.2342,12
1602662348.2363,21
1602662348.2383,41
1602662348.2403,58
1602662348.2423,58
1602662348.2443,38
1602662348.2463,34
1602662348.2469,48
1602662348.2483,43
1602662348.2503,17
1602662348.2522,9
1602662348.2543,17
1602662348.2563,17
1602662348.2583,17
1602662348.2603,24
1602662348.2616,26
1602662348.2634,21
1602662348.2653,-7
1602662348.7009,14
1602662348.7017,246
1602662348.7042,602
1602662348.7052,558
1602662348.7068,-102
1602662348.7088,-531
1602662348.7107,-202
1602662348.7128,70
1602662348.7147,-38
1602662348.7167,-29
1602662348.7187,58
1602662348.7207,19
1602662348.7228,0
1602662348.7247,36
1602662348.7267,34
1602662348.7287,21
1602662348.7307,36
1602662348.7328,38
1602662348.7347,34
1602662348.7353,48
1602662348.7367,63
1602662348.7387,56
1602662348.7407,53
1602662348.7428,56
1602662348.7447,58
1602662348.7467,65
1602662348.7487,77
1602662348.7507,82
1602662348.7527,92
1602662348.7547,104
1602662348.7567,107
1602662348.7587,116
1602662348.7607,124
1602662348.7627,129
1602662348.7647,138
1602662348.7652,148
1602662348.7666,148
1602662348.7687,138
1602662348.7707,131
1602662348.7727,134
1602662348.7746,129
1602662348.7766,112
1602662348.7787,97
1602662348.7806,77
1602662348.7827,43
1602662348.7847,9
1602662348.7867,-7
1602662348.7887,-21
1602662348.7906,-38
1602662348.7929,-43
1602662348.7947,-46
1602662348.7952,-53
1602662348.7967,-58
1602662348.7987,-53
1602662348.8007,-46
1602662348.8026,-36
1602662348.8047,-34
1602662348.8067,-36
1602662348.8086,-31
1602662348.8106,-19
1602662348.8126,-14
1602662348.8147,-14
1602662348.8167,-7
1602662348.8187,-2
1602662348.8207,0
1602662348.8226,12
1602662348.8247,19
1602662348.8252,14
1602662348.8266,14
1602662348.8287,21
1602662348.8307,19
1602662348.8326,4
1602662348.8347,0
1602662349.2404,9
1602662349.2412,17
1602662349.2437,19
1602662349.2463,17
1602662349.2483,7
1602662349.2503,2
1602662349.2524,7
1602662349.2529,2
1602662349.2543,-4
1602662349.2563,-2
1602662349.2583,4
1602662349.2603,4
1602662349.2624,2
1602662349.2643,12
1602662349.2663,14
1602662349.2682,7
1602662349.2703,7
1602662349.2723,12
1602662349.2743,12
1602662349.2762,4
1602662349.2782,7
1602662349.2802,21
1602662349.2823,43
1602662349.2829,58
1602662349.2842,48
1602662349.2862,34
1602662349.2882,41
1602662349.2904,46
1602662349.2923,29
1602662349.2943,17
1602662349.2962,14
1602662349.2982,12
1602662349.3002,17
1602662349.3022,26
1602662349.3042,19
1602662349.3062,12
1602662349.3082,21
1602662349.3102,4
1602662349.3122,34
1602662349.3128,290
1602662349.3142,623
1602662349.3162,489
1602662349.3182,-168
1602662349.3202,-463
1602662349.3222,-102
1602662349.3242,92
1602662349.3262,-29
1602662349.3282,-14
1602662349.3302,46
1602662349.3322,9
1602662349.3342,4
1602662349.3362,36
1602662349.3382,34
1602662349.3402,24
1602662349.3422,36
1602662349.3428,36
1602662349.3442,38
1602662349.3462,48
1602662349.3482,48
1602662349.3502,48
1602662349.3522,63
1602662349.3542,70
1602662349.3562,63
1602662349.3582,63
1602662349.3602,75
1602662349.3622,87
1602662349.3643,90
1602662349.3662,97
1602662349.3682,104
1602662349.3702,104
1602662349.3722,112
1602662349.3729,129
1602662349.3742,126
1602662349.8408,121
1602662349.8416,131
1602662349.8441,129
1602662349.8467,114
1602662349.8487,114
1602662349.8510,107
1602662349.8528,77
1602662349.8548,63
1602662349.8567,46
1602662349.8587,9
1602662349.8607,-17
1602662349.8628,-34
1602662349.8648,-53
1602662349.8653,-63
1602662349.8667,-63
1602662349.8687,-63
1602662349.8707,-60
1602662349.8727,-53
1602662349.8746,-58
1602662349.8767,-60
1602662349.8787,-48
1602662349.8806,-41
1602662349.8827,-38
1602662349.8847,-34
1602662349.8867,-31
1602662349.8887,-24
1602662349.8907,-17
1602662349.8927,-12
1602662349.8947,-7
1602662349.8952,2
1602662349.8966,4
1602662349.8987,4
1602662349.9006,4
1602662349.9027,2
1602662349.9046,9
1602662349.9066,19
1602662349.9086,12
1602662349.9106,4
1602662349.9127,7
1602662349.9146,9
1602662349.9166,4
1602662349.9186,4
1602662349.9206,7
1602662349.9226,4
1602662349.9246,7
1602662349.9252,7
1602662349.9266,4
1602662349.9287,9
1602662349.9306,14
1602662349.9326,14
1602662349.9346,9
1602662349.9367,7
1602662349.9386,14
1602662349.9406,24
1602662349.9426,24
1602662349.9446,17
1602662349.9467,14
1602662349.9487,21
1602662349.9506,29
1602662349.9526,26
1602662349.9546,14
1602662349.9552,4
1602662349.9566,7
1602662349.9586,9
1602662349.9606,21
1602662349.9626,46
1602662349.9646,60
1602662349.9666,46
1602662349.9686,29
1602662349.9706,36
1602662349.9727,43
1602662349.9746,26
1602662349.9766,9
1602662350.3804,9
1602662350.3812,7
1602662350.3829,9
1602662350.3852,17
1602662350.3873,14
1602662350.3893,7
1602662350.3913,9
1602662350.3933,-2
1602662350.3952,48
1602662350.3972,309
1602662350.3992,606
1602662350.4012,428
1602662350.4033,-202
1602662350.4052,-431
1602662350.4072,-85
1602662350.4092,63
1602662350.4112,-43
1602662350.4132,-17
1602662350.4137,34
1602662350.4152,-4
1602662350.4172,-2
1602662350.4191,26
1602662350.4212,12
1602662350.4232,9
1602662350.4252,31
1602662350.4272,31
1602662350.4292,24
1602662350.4311,34
1602662350.4332,43
1602662350.4351,48
1602662350.4371,51
1602662350.4392,56
1602662350.4411,58
1602662350.4432,56
1602662350.4440,56
1602662350.4452,73
1602662350.4472,87
1602662350.4491,80
1602662350.4511,77
1602662350.4532,95
1602662350.4551,107
1602662350.4572,109
1602662350.4592,116
1602662350.4612,116
1602662350.4632,112
1602662350.4652,114
1602662350.4671,116
1602662350.4692,114
1602662350.4712,109
1602662350.4732,92
1602662350.4738,68
1602662350.4752,46
1602662350.4773,24
1602662350.4792,0
1602662350.4812,-17
1602662350.4832,-31
1602662350.4852,-46
1602662350.4872,-53
1602662350.4892,-56
1602662350.4912,-58
1602662350.4933,-51
1602662350.4952,-51
1602662350.4971,-56
1602662350.4992,-48
1602662350.5012,-41
1602662350.5032,-51
1602662350.5114,-51
1602662350.5132,-29
1602662350.5152,-14
1602662350.5171,-19
1602662350.5192,-21
1602662350.5212,-9
1602662350.5232,0
1602662350.9506,0
1602662350.9514,0
1602662350.9539,4
1602662350.9565,4
1602662350.9585,2
1602662350.9592,4
1602662350.9604,-2
1602662350.9626,-17
1602662350.9644,-14
1602662350.9664,-7
1602662350.9685,-14
1602662350.9705,-21
1602662350.9727,-17
1602662350.9745,-7
1602662350.9764,-4
1602662350.9785,-4
1602662350.9805,-4
1602662350.9825,-2
1602662350.9844,0
1602662350.9865,2
1602662350.9884,0
1602662350.9890,0
1602662350.9904,4
1602662350.9924,2
1602662350.9944,-7
1602662350.9964,-12
1602662350.9984,-7
1602662351.0004,7
1602662351.0024,14
1602662351.0044,9
1602662351.0064,2
1602662351.0084,4
1602662351.0104,9
1602662351.0124,7
1602662351.0144,21
1602662351.0164,51
1602662351.0184,53
1602662351.0191,34
1602662351.0204,29
1602662351.0224,36
1602662351.0244,41
1602662351.0264,34
1602662351.0284,19
1602662351.0304,4
1602662351.0324,4
1602662351.0345,7
1602662351.0364,2
1602662351.0384,7
1602662351.0404,14
1602662351.0424,-4
1602662351.0444,-31
1602662351.0464,65
1602662351.0484,389
1602662351.0490,643
1602662351.0505,292
1602662351.0524,-397
1602662351.0544,-463
1602662351.0564,-41
1602662351.0584,31
1602662351.0604,-68
1602662351.0624,7
1602662351.0644,36
1602662351.0664,-9
1602662351.0686,14
1602662351.0705,38
1602662351.0724,24
1602662351.0744,26
1602662351.0764,38
1602662351.0784,34
1602662351.0790,36
1602662351.0804,43
1602662351.0824,41
1602662351.0844,36
1602662351.4904,38
1602662351.4913,51
1602662351.4940,68
1602662351.4963,73
1602662351.4983,60
1602662351.5003,58
1602662351.5024,75
1602662351.5043,87
1602662351.5063,82
1602662351.5083,87
1602662351.5103,104
1602662351.5123,114
1602662351.5143,104
1602662351.5163,107
1602662351.5170,121
1602662351.5183,121
1602662351.5203,119
1602662351.5223,121
1602662351.5243,114
1602662351.5263,99
1602662351.5283,85
1602662351.5303,60
1602662351.5323,31
1602662351.5343,4
1602662351.5363,-14
1602662351.5383,-34
1602662351.5403,-48
1602662351.5423,-56
1602662351.5443,-56
1602662351.5463,-56
1602662351.5469,-56
1602662351.5483,-51
1602662351.5503,-48
1602662351.5523,-46
1602662351.5543,-34
1602662351.5563,-21
1602662351.5583,-17
1602662351.5602,-14
1602662351.5623,-4
1602662351.5643,-4
1602662351.5664,-12
1602662351.5685,-12
1602662351.5703,-7
1602662351.5723,2
1602662351.5743,2
1602662351.5763,0
1602662351.5769,7
1602662351.5783,19
1602662351.5802,14
1602662351.5823,2
1602662351.5843,-4
1602662351.5863,0
1602662351.5883,7
1602662351.5903,14
1602662351.5923,17
1602662351.5943,12
1602662351.5963,4
1602662351.5983,7
1602662351.6003,14
1602662351.6023,12
1602662351.6043,9
1602662351.6063,12
1602662351.6069,14
1602662351.6083,14
1602662351.6103,19
1602662351.6123,21
1602662351.6143,19
1602662351.6163,17
1602662351.6183,14
1602662351.6203,19
1602662351.6223,29
1602662351.6243,29
1602662351.6263,24
1602662352.0606,26
1602662352.0612,26
1602662352.0629,24
1602662352.0652,38
1602662352.0672,60
1602662352.0693,51
1602662352.0713,29
1602662352.0733,31
1602662352.0752,43
1602662352.0772,38
1602662352.0792,26
1602662352.0812,17
1602662352.0833,7
1602662352.0853,4
1602662352.0873,12
1602662352.0893,17
1602662352.0913,14
1602662352.0932,14
1602662352.0938,2
1602662352.0954,-7
1602662352.0973,112
1602662352.0992,448
1602662352.1012,675
1602662352.1033,260
1602662352.1052,-407
1602662352.1072,-385
1602662352.1092,19
1602662352.1112,31
1602662352.1132,-60
1602662352.1152,29
1602662352.1172,48
1602662352.1192,-4
1602662352.1212,14
1602662352.1233,36
1602662352.1237,19
1602662352.1252,12
1602662352.1272,26
1602662352.1292,38
1602662352.1312,36
1602662352.1333,26
1602662352.1352,31
1602662352.1373,41
1602662352.1392,43
1602662352.1412,53
1602662352.1432,65
1602662352.1452,68
1602662352.1472,68
1602662352.1492,75
1602662352.1512,90
1602662352.1532,95
1602662352.1538,95
1602662352.1552,107
1602662352.1572,124
1602662352.1592,131
1602662352.1612,134
1602662352.1632,141
1602662352.1652,138
1602662352.1672,129
1602662352.1692,129
1602662352.1712,129
1602662352.1732,116
1602662352.1752,102
1602662352.1772,82
1602662352.1792,53
1602662352.1812,24
1602662352.1832,-4
1602662352.1838,-26
1602662352.1852,-36
1602662352.1872,-46
1602662352.1892,-53
1602662352.1913,-51
1602662352.1933,-53
1602662352.1952,-56
1602662352.6007,-43
1602662352.6016,-41
1602662352.6040,-48
1602662352.6066,-38
1602662352.6087,-24
1602662352.6107,-21
1602662352.6127,-19
1602662352.6146,-17
1602662352.6152,-12
1602662352.6166,-7
1602662352.6186,-7
1602662352.6206,-7
1602662352.6226,7
1602662352.6246,14
1602662352.6265,2
1602662352.6286,2
1602662352.6306,17
1602662352.6326,17
1602662352.6345,12
1602662352.6365,14
1602662352.6386,17
1602662352.6405,17
1602662352.6426,12
1602662352.6446,7
1602662352.6451,2
1602662352.6465,0
1602662352.6486,4
1602662352.6506,7
1602662352.6526,7
1602662352.6546,14
1602662352.6565,19
1602662352.6585,14
1602662352.6605,14
1602662352.6626,14
1602662352.6645,14
1602662352.6665,21
1602662352.6686,29
1602662352.6705,24
1602662352.6726,19
1602662352.6745,19
1602662352.6751,26
1602662352.6765,29
1602662352.6786,31
1602662352.6805,31
1602662352.6825,24
1602662352.6846,21
1602662352.6866,26
1602662352.6885,29
1602662352.6907,38
1602662352.6926,60
1602662352.6945,68
1602662352.6966,56
1602662352.6985,41
1602662352.7005,48
1602662352.7026,58
1602662352.7046,46
1602662352.7051,29
1602662352.7066,24
1602662352.7085,21
1602662352.7105,19
1602662352.7125,21
1602662352.7146,21
1602662352.7165,26
1602662352.7185,24
1602662352.7206,0
1602662352.7226,63
1602662352.7245,365
1602662352.7265,667
1602662352.7285,414
1602662352.7305,-258
1602662352.7326,-421
1602662352.7345,-46
1602662352.7352,58
1602662353.2309,-51
1602662353.2318,2
1602662353.2334,38
1602662353.2354,-7
1602662353.2374,-4
1602662353.2394,24
1602662353.2414,21
1602662353.2435,14
1602662353.2454,19
1602662353.2474,24
1602662353.2494,31
1602662353.2514,38
1602662353.2523,38
1602662353.2534,38
1602662353.2554,53
1602662353.2574,53
1602662353.2594,48
1602662353.2614,63
1602662353.2634,70
1602662353.2653,65
1602662353.2674,75
1602662353.2694,90
1602662353.2714,90
1602662353.2735,92
1602662353.2754,109
1602662353.2774,124
1602662353.2795,126
1602662353.2814,129
1602662353.2819,131
1602662353.2834,134
1602662353.2853,136
1602662353.2873,129
1602662353.2894,119
1602662353.2914,114
1602662353.2934,95
1602662353.2953,60
1602662353.2974,31
1602662353.2993,12
1602662353.3013,-2
1602662353.3033,-17
1602662353.3053,-29
1602662353.3073,-34
1602662353.3094,-38
1602662353.3113,-43
1602662353.3119,-43
1602662353.3134,-34
1602662353.3153,-34
1602662353.3173,-34
1602662353.3193,-26
1602662353.3214,-26
1602662353.3234,-24
1602662353.3254,-17
1602662353.3273,-7
1602662353.3294,0
1602662353.3314,-2
1602662353.3334,-7
1602662353.3353,2
1602662353.3373,12
1602662353.3393,19
1602662353.3413,17
1602662353.3419,17
1602662353.3433,19
1602662353.3453,17
1602662353.3473,17
1602662353.3493,21
1602662353.3513,17
1602662353.3533,12
1602662353.3553,19
1602662353.3573,21
1602662353.3594,12
1602662353.3613,12
1602662353.3634,21
1602662353.3653,19
1602662353.7710,12
1602662353.7722,19
1602662353.7745,24
1602662353.7756,19
1602662353.7775,19
1602662353.7792,24
1602662353.7812,24
1602662353.7832,21
1602662353.7852,17
1602662353.7872,9
1602662353.7892,9
1602662353.7912,19
1602662353.7933,9
1602662353.7952,-4
1602662353.7972,-2
1602662353.7992,4
1602662353.8012,7
1602662353.8033,9
1602662353.8052,4
1602662353.8059,0
1602662353.8072,9
1602662353.8092,19
1602662353.8112,24
1602662353.8133,38
1602662353.8152,46
1602662353.8172,31
1602662353.8192,29
1602662353.8212,46
1602662353.8233,38
1602662353.8252,17
1602662353.8272,9
1602662353.8292,4
1602662353.8312,2
1602662353.8332,7
1602662353.8352,7
1602662353.8357,4
1602662353.8372,2
1602662353.8392,-12
1602662353.8411,-9
1602662353.8431,151
1602662353.8451,487
1602662353.8471,597
1602662353.8491,102
1602662353.8512,-416
1602662353.8531,-258
1602662353.8551,48
1602662353.8572,-12
1602662353.8591,-60
1602662353.8611,19
1602662353.8632,17
1602662353.8651,-17
1602662353.8657,4
1602662353.8671,21
1602662353.8691,12
1602662353.8711,12
1602662353.8733,17
1602662353.8752,24
1602662353.8771,34
1602662353.8791,38
1602662353.8811,36
1602662353.8832,43
1602662353.8851,53
1602662353.8871,53
1602662353.8891,53
1602662353.8911,56
1602662353.8932,60
1602662353.8951,73
1602662353.8957,82
1602662353.8971,85
1602662353.8991,97
1602662353.9011,109
1602662353.9032,104
1602662353.9051,104
1602662354.3103,116
1602662354.3112,121
1602662354.3137,114
1602662354.3163,109
1602662354.3183,109
1602662354.3203,107
1602662354.3224,99
1602662354.3242,95
1602662354.3248,75
1602662354.3262,38
1602662354.3282,4
1602662354.3302,-17
1602662354.3322,-26
1602662354.3342,-38
1602662354.3362,-53
1602662354.3382,-58
1602662354.3402,-60
1602662354.3422,-60
1602662354.3442,-63
1602662354.3462,-58
1602662354.3482,-51
1602662354.3503,-46
1602662354.3522,-43
1602662354.3529,-36
1602662354.3542,-29
1602662354.3562,-19
1602662354.3582,-14
1602662354.3602,-14
1602662354.3622,-14
1602662354.3642,-12
1602662354.3662,-7
1602662354.3682,-7
1602662354.3702,-7
1602662354.3724,0
1602662354.3742,7
1602662354.3762,7
1602662354.3782,0
1602662354.3802,-4
1602662354.3822,2
1602662354.3828,9
1602662354.3842,2
1602662354.3862,-4
1602662354.3881,-9
1602662354.3902,-7
1602662354.3922,0
1602662354.3942,2
1602662354.3962,0
1602662354.3982,2
1602662354.4002,2
1602662354.4022,2
1602662354.4042,12
1602662354.4062,14
1602662354.4082,9
1602662354.4102,12
1602662354.4122,12
1602662354.4129,12
1602662354.4142,14
1602662354.4162,19
1602662354.4182,12
1602662354.4202,12
1602662354.4222,19
1602662354.4242,21
1602662354.4262,12
1602662354.4282,7
1602662354.4302,14
1602662354.4322,19
1602662354.4342,24
1602662354.4362,38
1602662354.4381,34
1602662354.4402,14
1602662354.4422,21
1602662354.4428,34
1602662354.4442,21
1602662354.8804,12
1602662354.8813,9
1602662354.8837,4
1602662354.8854,0
1602662354.8874,2
1602662354.8894,7
1602662354.8914,4
1602662354.8934,-9
1602662354.8953,-38
1602662354.8973,-14
1602662354.8993,229
1602662354.9015,582
1602662354.9034,497
1602662354.9039,-177
1602662354.9053,-565
1602662354.9073,-204
1602662354.9093,58
1602662354.9113,-51
1602662354.9133,-46
1602662354.9153,26
1602662354.9173,0
1602662354.9193,2
1602662354.9213,41
1602662354.9233,29
1602662354.9253,14
1602662354.9273,21
1602662354.9293,31
1602662354.9313,36
1602662354.9333,43
1602662354.9339,48
1602662354.9352,48
1602662354.9373,48
1602662354.9393,51
1602662354.9413,60
1602662354.9433,70
1602662354.9453,73
1602662354.9472,80
1602662354.9493,95
1602662354.9513,99
1602662354.9534,102
1602662354.9553,112
1602662354.9573,116
1602662354.9593,124
1602662354.9613,138
1602662354.9633,146
1602662354.9639,141
1602662354.9653,141
1602662354.9673,146
1602662354.9693,141
1602662354.9705,134
1602662354.9723,126
1602662354.9743,112
1602662354.9763,85
1602662354.9782,56
1602662354.9804,34
1602662354.9823,12
1602662354.9844,-9
1602662354.9863,-21
1602662354.9883,-34
1602662354.9903,-48
1602662354.9909,-58
1602662354.9923,-56
1602662354.9944,-48
1602662354.9963,-46
1602662354.9983,-53
1602662355.0003,-51
1602662355.0023,-34
1602662355.0042,-21
1602662355.0062,-14
1602662355.0083,-12
1602662355.0103,-9
1602662355.0123,-4
1602662355.0143,0
1602662355.4207,0
1602662355.4216,4
1602662355.4240,17
1602662355.4266,19
1602662355.4286,17
1602662355.4306,19
1602662355.4327,19
1602662355.4346,9
1602662355.4366,2
1602662355.4386,0
1602662355.4406,0
1602662355.4426,0
1602662355.4446,0
1602662355.4466,-2
1602662355.4486,2
1602662355.4506,7
1602662355.4512,4
1602662355.4527,0
1602662355.4546,7
1602662355.4566,12
1602662355.4586,4
1602662355.4606,9
1602662355.4627,17
1602662355.4646,14
1602662355.4665,7
1602662355.4685,4
1602662355.4706,9
1602662355.4726,19
1602662355.4746,17
1602662355.4766,2
1602662355.4786,0
1602662355.4805,12
1602662355.4811,26
1602662355.4827,43
1602662355.4845,56
1602662355.4865,41
1602662355.4885,26
1602662355.4906,36
1602662355.4926,41
1602662355.4945,29
1602662355.4967,17
1602662355.4985,4
1602662355.5005,2
1602662355.5026,12
1602662355.5046,19
1602662355.5065,21
1602662355.5086,17
1602662355.5105,-4
1602662355.5111,-17
1602662355.5126,119
1602662355.5145,463
1602662355.5166,643
1602662355.5185,192
1602662355.5206,-431
1602662355.5226,-360
1602662355.5245,19
1602662355.5265,14
1602662355.5286,-68
1602662355.5306,7
1602662355.5325,19
1602662355.5345,-14
1602662355.5365,14
1602662355.5385,36
1602662355.5406,17
1602662355.5411,12
1602662355.5425,21
1602662355.5445,26
1602662355.5466,34
1602662355.5485,43
1602662355.5505,53
1602662355.5526,53
1602662355.5546,53
1602662355.5565,63
1602662355.9607,75
1602662355.9615,77
1602662355.9631,73
1602662355.9652,80
1602662355.9658,90
1602662355.9672,95
1602662355.9692,90
1602662355.9712,95
1602662355.9732,109
1602662355.9751,116
1602662355.9772,116
1602662355.9792,129
1602662355.9811,143
1602662355.9832,138
1602662355.9852,129
1602662355.9871,126
1602662355.9891,119
1602662355.9911,99
1602662355.9933,77
1602662355.9952,53
1602662355.9957,24
1602662355.9971,4
1602662355.9991,-12
1602662356.0012,-36
1602662356.0031,-46
1602662356.0051,-43
1602662356.0071,-48
1602662356.0091,-51
1602662356.0111,-53
1602662356.0132,-53
1602662356.0151,-43
1602662356.0171,-34
1602662356.0191,-26
1602662356.0211,-24
1602662356.0232,-21
1602662356.0251,-14
1602662356.0257,-7
1602662356.0271,-4
1602662356.0291,2
1602662356.0311,4
1602662356.0332,4
1602662356.0351,12
1602662356.0371,19
1602662356.0391,17
1602662356.0411,7
1602662356.0431,9
1602662356.0451,17
1602662356.0471,9
1602662356.0491,2
1602662356.0511,7
1602662356.0531,4
1602662356.0551,2
1602662356.0557,2
1602662356.0571,4
1602662356.0591,2
1602662356.0611,2
1602662356.0631,7
1602662356.0651,12
1602662356.0671,2
1602662356.0691,-2
1602662356.0711,9
1602662356.0732,26
1602662356.0751,26
1602662356.0771,17
1602662356.0791,17
1602662356.0811,19
1602662356.0831,14
1602662356.0851,9
1602662356.0857,14
1602662356.0872,14
1602662356.0892,12
1602662356.0911,31
1602662356.0931,51
1602662356.5608,41
1602662356.5620,31
1602662356.5645,41
1602662356.5671,34
1602662356.5691,12
1602662356.5710,-2
1602662356.5730,-9
1602662356.5750,-4
1602662356.5770,7
1602662356.5790,2
1602662356.5810,-7
1602662356.5816,4
1602662356.5831,9
1602662356.5851,-14
1602662356.5870,21
1602662356.5890,258
1602662356.5910,577
1602662356.5930,485
1602662356.5950,-136
1602662356.5970,-450
1602662356.5989,-124
1602662356.6010,60
1602662356.6030,-56
1602662356.6049,-34
1602662356.6070,36
1602662356.6090,0
1602662356.6110,-7
1602662356.6116,24
1602662356.6130,12
1602662356.6150,0
1602662356.6169,14
1602662356.6189,24
1602662356.6210,24
1602662356.6230,26
1602662356.6249,36
1602662356.6269,41
1602662356.6289,41
1602662356.6309,51
1602662356.6330,63
1602662356.6349,56
1602662356.6369,51
1602662356.6390,63
1602662356.6409,70
1602662356.6415,73
1602662356.6430,90
1602662356.6449,97
1602662356.6469,95
1602662356.6491,112
1602662356.6509,131
1602662356.6530,126
1602662356.6549,119
1602662356.6569,134
1602662356.6589,136
1602662356.6609,124
1602662356.6629,114
1602662356.6649,102
1602662356.6669,77
1602662356.6689,53
1602662356.6709,29
1602662356.6715,7
1602662356.6730,-9
1602662356.6749,-26
1602662356.6769,-38
1602662356.6789,-41
1602662356.6809,-43
1602662356.6829,-56
1602662356.6849,-60
1602662356.6869,-48
1602662356.6890,-43
1602662356.6909,-48
1602662356.6930,-46
1602662356.6949,-34
1602662356.6969,-29
1602662357.1608,-26
1602662357.1617,-14
1602662357.1637,-7
1602662357.1655,-4
1602662357.1675,-4
1602662357.1695,0
1602662357.1715,4
1602662357.1737,0
1602662357.1755,-9
1602662357.1775,-9
1602662357.1795,0
1602662357.1815,4
1602662357.1835,-4
1602662357.1855,-7
1602662357.1875,4
1602662357.1880,4
1602662357.1895,-7
1602662357.1916,-9
1602662357.1935,-7
1602662357.1955,-7
1602662357.1975,-2
1602662357.1995,-2
1602662357.2015,-12
1602662357.2035,-12
1602662357.2054,-2
1602662357.2079,0
1602662357.2094,-2
1602662357.2116,4
1602662357.2136,7
1602662357.2155,-7
1602662357.2172,-12
1602662357.2187,-2
1602662357.2205,-7
1602662357.2225,-17
1602662357.2244,-4
1602662357.2264,4
1602662357.2284,7
1602662357.2304,21
1602662357.2324,34
1602662357.2344,26
1602662357.2364,17
1602662357.2384,17
1602662357.2390,21
1602662357.2404,12
1602662357.2424,0
1602662357.2444,-7
1602662357.2464,-9
1602662357.2484,-7
1602662357.2504,-9
1602662357.2525,-9
1602662357.2544,-4
1602662357.2564,-7
1602662357.2584,-36
1602662357.2604,-19
1602662357.2624,177
1602662357.2644,521
1602662357.2664,565
1602662357.2684,2
1602662357.2690,-482
1602662357.2704,-248
1602662357.2724,41
1602662357.2744,-46
1602662357.2764,-70
1602662357.2784,14
1602662357.2805,-4
1602662357.2824,-31
1602662357.2845,2
1602662357.2864,7
1602662357.2884,-2
1602662357.2906,7
1602662357.2925,12
1602662357.2945,12
1602662357.2964,19
1602662357.6708,21
1602662357.6717,24
1602662357.6741,29
1602662357.6770,34
1602662357.6788,36
1602662357.6808,43
1602662357.6827,53
1602662357.6848,65
1602662357.6868,68
1602662357.6888,65
1602662357.6907,70
1602662357.6929,87
1602662357.6947,95
1602662357.6967,95
1602662357.6987,97
1602662357.7007,99
1602662357.7013,104
1602662357.7028,114
1602662357.7047,119
1602662357.7067,109
1602662357.7087,102
1602662357.7107,97
1602662357.7128,82
1602662357.7146,60
1602662357.7167,31
1602662357.7187,2
1602662357.7207,-21
1602662357.7227,-43
1602662357.7247,-53
1602662357.7267,-60
1602662357.7287,-65
1602662357.7307,-68
1602662357.7312,-70
1602662357.7327,-65
1602662357.7346,-60
1602662357.7367,-58
1602662357.7386,-56
1602662357.7407,-51
1602662357.7427,-43
1602662357.7447,-38
1602662357.7467,-21
1602662357.7487,-12
1602662357.7506,-17
1602662357.7526,-21
1602662357.7547,-21
1602662357.7567,-19
1602662357.7586,-4
1602662357.7607,4
1602662357.7612,-4
1602662357.7627,-12
1602662357.7647,-7
1602662357.7666,-4
1602662357.7686,-4
1602662357.7707,-2
1602662357.7728,-4
1602662357.7747,-9
1602662357.7767,-4
1602662357.7786,2
1602662357.7807,4
1602662357.7827,2
1602662357.7846,0
1602662357.7866,-2
1602662357.7887,0
1602662357.7907,0
1602662357.7912,-2
1602662357.7927,2
1602662357.7946,7
1602662357.7966,4
1602662357.7987,4
1602662357.8007,7
1602662357.8027,0
1602662357.8047,-4
1602662357.8066,-2
1602662358.2406,4
1602662358.2414,12
1602662358.2439,29
1602662358.2450,48
1602662358.2465,46
1602662358.2485,31
1602662358.2505,24
1602662358.2526,24
1602662358.2545,14
1602662358.2565,-4
1602662358.2585,-14
1602662358.2605,-12
1602662358.2624,-9
1602662358.2645,-4
1602662358.2664,4
1602662358.2686,9
1602662358.2705,0
1602662358.2725,-19
1602662358.2745,2
1602662358.2750,221
1602662358.2765,572
1602662358.2784,533
1602662358.2804,-126
1602662358.2824,-553
1602662358.2844,-216
1602662358.2864,63
1602662358.2885,-46
1602662358.2904,-43
1602662358.2924,48
1602662358.2945,19
1602662358.2964,-4
1602662358.2984,24
1602662358.3006,29
1602662358.3025,19
1602662358.3044,19
1602662358.3050,21
1602662358.3064,29
1602662358.3084,34
1602662358.3104,34
1602662358.3124,36
1602662358.3144,51
1602662358.3164,58
1602662358.3184,48
1602662358.3204,53
1602662358.3224,68
1602662358.3244,73
1602662358.3264,80
1602662358.3284,90
1602662358.3304,99
1602662358.3324,104
1602662358.3344,109
1602662358.3350,121
1602662358.3364,134
1602662358.3384,138
1602662358.3404,141
1602662358.3424,136
1602662358.3444,134
1602662358.3464,138
1602662358.3484,141
1602662358.3504,124
1602662358.3524,97
1602662358.3544,73
1602662358.3564,51
1602662358.3584,21
1602662358.3604,-7
1602662358.3624,-21
1602662358.3644,-34
1602662358.3650,-46
1602662358.3664,-53
1602662358.3685,-56
1602662358.3704,-53
1602662358.3724,-48
1602662358.3744,-46
1602662358.7803,-36
1602662358.7811,-29
1602662358.7836,-34
1602662358.7861,-24
1602662358.7881,-4
1602662358.7901,-4
1602662358.7922,-7
1602662358.7941,-7
1602662358.7961,-9
1602662358.7968,-2
1602662358.7983,2
1602662358.8002,2
1602662358.8022,-2
1602662358.8041,-9
1602662358.8062,-4
1602662358.8081,4
1602662358.8101,12
1602662358.8121,9
1602662358.8142,0
1602662358.8161,-4
1602662358.8181,0
1602662358.8201,9
1602662358.8221,9
1602662358.8242,7
1602662358.8262,9
1602662358.8267,9
1602662358.8281,7
1602662358.8301,9
1602662358.8321,12
1602662358.8341,14
1602662358.8361,12
1602662358.8381,14
1602662358.8401,19
1602662358.8421,14
1602662358.8441,14
1602662358.8461,26
1602662358.8481,24
1602662358.8501,14
1602662358.8521,9
1602662358.8541,17
1602662358.8561,26
1602662358.8567,36
1602662358.8581,51
1602662358.8601,63
1602662358.8621,58
1602662358.8641,46
1602662358.8661,48
1602662358.8681,53
1602662358.8701,46
1602662358.8721,31
1602662358.8741,24
1602662358.8761,19
1602662358.8781,17
1602662358.8801,21
1602662358.8821,21
1602662358.8841,24
1602662358.8861,29
1602662358.8868,12
1602662358.8882,-2
1602662358.8901,124
1602662358.8921,458
1602662358.8943,643
1602662358.8962,212
1602662358.8981,-385
1602662358.9001,-311
1602662358.9021,41
1602662358.9041,21
1602662358.9061,-53
1602662358.9081,26
1602662358.9101,36
1602662358.9121,-2
1602662358.9141,17
1602662358.9161,29
1602662359.3803,17
1602662359.3811,21
1602662359.3821,34
1602662359.3842,36
1602662359.3861,31
1602662359.3882,24
1602662359.3902,21
1602662359.3923,21
1602662359.3941,24
1602662359.3961,34
1602662359.3981,38
1602662359.4001,46
1602662359.4021,48
1602662359.4027,53
1602662359.4041,63
1602662359.4061,73
1602662359.4081,80
1602662359.4101,90
1602662359.4121,95
1602662359.4140,97
1602662359.4161,109
1602662359.4180,116
1602662359.4201,107
1602662359.4220,107
1602662359.4241,116
1602662359.4261,116
1602662359.4281,102
1602662359.4301,80
1602662359.4321,58
1602662359.4327,41
1602662359.4341,21
1602662359.4362,-7
1602662359.4381,-34
1602662359.4401,-46
1602662359.4421,-51
1602662359.4441,-53
1602662359.4461,-53
1602662359.4481,-48
1602662359.4501,-48
1602662359.4522,-51
1602662359.4541,-51
1602662359.4560,-51
1602662359.4580,-41
1602662359.4601,-31
1602662359.4620,-24
1602662359.4626,-12
1602662359.4640,-7
1602662359.4661,-14
1602662359.4681,-14
1602662359.4701,-9
1602662359.4721,-4
1602662359.4741,0
1602662359.4760,4
1602662359.4780,9
1602662359.4800,12
1602662359.4821,9
1602662359.4841,7
1602662359.4861,4
1602662359.4881,9
1602662359.4900,9
1602662359.4921,7
1602662359.4927,7
1602662359.4941,9
1602662359.4960,9
1602662359.4980,9
1602662359.5001,12
1602662359.5020,9
1602662359.5041,9
1602662359.5061,14
1602662359.5081,17
1602662359.5101,7
1602662359.5120,0
1602662359.5141,0
1602662359.9506,7
1602662359.9514,17
1602662359.9538,21
1602662359.9565,12
1602662359.9585,7
1602662359.9605,14
1602662359.9626,12
1602662359.9644,4
1602662359.9664,9
1602662359.9684,12
1602662359.9704,9
1602662359.9725,14
1602662359.9745,38
1602662359.9764,48
1602662359.9784,31
1602662359.9804,26
1602662359.9810,38
1602662359.9826,26
1602662359.9844,9
1602662359.9864,12
1602662359.9884,7
1602662359.9904,-4
1602662359.9924,0
1602662359.9944,7
1602662359.9964,7
1602662359.9984,7
1602662360.0004,-4
1602662360.0024,-14
1602662360.0043,97
1602662360.0063,402
1602662360.0084,606
1602662360.0104,255
1602662360.0110,-331
1602662360.0124,-341
1602662360.0144,9
1602662360.0164,34
1602662360.0184,-58
1602662360.0203,7
1602662360.0224,24
1602662360.0244,-17
1602662360.0263,0
1602662360.0284,19
1602662360.0304,7
1602662360.0323,9
1602662360.0344,21
1602662360.0364,17
1602662360.0384,7
1602662360.0404,14
1602662360.0409,31
1602662360.0424,38
1602662360.0443,36
1602662360.0464,36
1602662360.0483,41
1602662360.0503,48
1602662360.0524,53
1602662360.0543,58
1602662360.0564,56
1602662360.0585,58
1602662360.0604,73
1602662360.0624,90
1602662360.0644,92
1602662360.0663,90
1602662360.0683,97
1602662360.0703,109
1602662360.0710,112
1602662360.0723,104
1602662360.0743,99
1602662360.0763,102
1602662360.0785,97
1602662360.0804,77
1602662360.0824,51
1602662360.0844,31
1602662360.0863,9
1602662360.4925,-14
1602662360.4934,-31
1602662360.4959,-46
1602662360.4985,-58
1602662360.5006,-58
1602662360.5025,-53
1602662360.5032,-63
1602662360.5044,-70
1602662360.5064,-65
1602662360.5084,-51
1602662360.5104,-48
1602662360.5124,-51
1602662360.5144,-48
1602662360.5164,-46
1602662360.5184,-46
1602662360.5204,-38
1602662360.5224,-24
1602662360.5244,-21
1602662360.5264,-21
1602662360.5284,-19
1602662360.5304,-17
1602662360.5324,-4
1602662360.5330,2
1602662360.5344,-4
1602662360.5364,-9
1602662360.5384,-7
1602662360.5404,-9
1602662360.5424,-14
1602662360.5444,-2
1602662360.5464,7
1602662360.5483,-7
1602662360.5504,-19
1602662360.5524,-7
1602662360.5544,-7
1602662360.5563,-17
1602662360.5583,-7
1602662360.5604,4
1602662360.5624,0
1602662360.5630,-4
1602662360.5644,0
1602662360.5663,-2
1602662360.5683,-4
1602662360.5703,2
1602662360.5723,4
1602662360.5744,2
1602662360.5763,2
1602662360.5785,4
1602662360.5804,12
1602662360.5823,14
1602662360.5843,4
1602662360.5864,2
1602662360.5883,14
1602662360.5903,24
1602662360.5924,36
1602662360.5930,46
1602662360.5943,29
1602662360.5964,17
1602662360.5983,36
1602662360.6003,38
1602662360.6024,12
1602662360.6044,-2
1602662360.6065,0
1602662360.6084,-2
1602662360.6104,-7
1602662360.6123,0
1602662360.6143,7
1602662360.6164,7
1602662360.6184,-2
1602662360.6203,-19
1602662360.6224,24
1602662360.6229,280
1602662360.6244,609
1602662360.6263,453
1602662361.0305,-243
1602662361.0311,-538
1602662361.0336,-148
1602662361.0362,51
1602662361.0382,-68
1602662361.0402,-24
1602662361.0422,53
1602662361.0442,7
1602662361.0462,-2
1602662361.0482,29
1602662361.0489,19
1602662361.0502,2
1602662361.0522,17
1602662361.0542,26
1602662361.0561,19
1602662361.0581,19
1602662361.0601,29
1602662361.0621,36
1602662361.0641,46
1602662361.0662,46
1602662361.0681,41
1602662361.0702,48
1602662361.0721,58
1602662361.0741,65
1602662361.0763,73
1602662361.0782,82
1602662361.0788,90
1602662361.0801,99
1602662361.0821,109
1602662361.0842,114
1602662361.0861,121
1602662361.0881,124
1602662361.0901,126
1602662361.0921,131
1602662361.0941,134
1602662361.0961,138
1602662361.0981,131
1602662361.1002,104
1602662361.1022,85
1602662361.1042,70
1602662361.1061,48
1602662361.1082,21
1602662361.1087,-2
1602662361.1102,-24
1602662361.1122,-41
1602662361.1141,-46
1602662361.1161,-43
1602662361.1181,-46
1602662361.1201,-58
1602662361.1222,-58
1602662361.1241,-48
1602662361.1261,-43
1602662361.1281,-46
1602662361.1301,-36
1602662361.1321,-19
1602662361.1341,-17
1602662361.1362,-24
1602662361.1381,-17
1602662361.1388,-2
1602662361.1402,0
1602662361.1421,7
1602662361.1442,14
1602662361.1462,12
1602662361.1481,2
1602662361.1502,9
1602662361.1521,19
1602662361.1541,17
1602662361.1561,7
1602662361.1582,4
1602662361.1601,12
1602662361.1622,14
1602662361.1641,9
1602662361.1661,9
1602662361.6007,4
1602662361.6016,4
1602662361.6043,12
1602662361.6067,12
1602662361.6086,9
1602662361.6106,14
1602662361.6126,9
1602662361.6146,2
1602662361.6166,2
1602662361.6186,9
1602662361.6206,14
1602662361.6227,17
1602662361.6246,9
1602662361.6265,2
1602662361.6286,7
1602662361.6292,12
1602662361.6306,12
1602662361.6327,26
1602662361.6345,53
1602662361.6365,51
1602662361.6386,36
1602662361.6405,41
1602662361.6426,48
1602662361.6445,34
1602662361.6465,17
1602662361.6486,12
1602662361.6506,14
1602662361.6526,19
1602662361.6545,24
1602662361.6566,17
1602662361.6572,14
1602662361.6585,19
1602662361.6605,4
1602662361.6626,12
1602662361.6645,214
1602662361.6665,575
1602662361.6686,589
1602662361.6706,-21
1602662361.6726,-477
1602662361.6745,-197
1602662361.6765,70
1602662361.6787,-38
1602662361.6805,-43
1602662361.6826,48
1602662361.6845,14
1602662361.6852,-14
1602662361.6865,26
1602662361.6885,36
1602662361.6905,19
1602662361.6926,24
1602662361.6945,34
1602662361.6965,29
1602662361.6985,24
1602662361.7007,31
1602662361.7026,43
1602662361.7045,48
1602662361.7065,46
1602662361.7085,53
1602662361.7105,65
1602662361.7126,73
1602662361.7145,75
1602662361.7151,77
1602662361.7166,80
1602662361.7186,87
1602662361.7205,109
1602662361.7225,124
1602662361.7245,119
1602662361.7266,124
1602662361.7285,138
1602662361.7306,141
1602662361.7325,138
1602662361.7345,138
1602662361.7365,134
1602662362.1402,129
1602662362.1408,121
1602662362.1432,99
1602662362.1458,68
1602662362.1478,41
1602662362.1498,17
1602662362.1518,-12
1602662362.1538,-38
1602662362.1558,-53
1602662362.1578,-58
1602662362.1598,-63
1602662362.1618,-60
1602662362.1638,-56
1602662362.1658,-58
1602662362.1678,-56
1602662362.1698,-46
1602662362.1718,-41
1602662362.1725,-41
1602662362.1738,-38
1602662362.1758,-29
1602662362.1778,-17
1602662362.1798,-9
1602662362.1818,-2
1602662362.1837,2
1602662362.1858,2
1602662362.1878,2
1602662362.1897,4
1602662362.1918,4
1602662362.1938,12
1602662362.1958,17
1602662362.1978,14
1602662362.2000,4
1602662362.2018,12
1602662362.2024,21
1602662362.2038,12
1602662362.2057,0
1602662362.2078,2
1602662362.2098,4
1602662362.2118,0
1602662362.2138,2
1602662362.2158,4
1602662362.2178,7
1602662362.2198,9
1602662362.2217,14
1602662362.2238,14
1602662362.2258,12
1602662362.2278,12
1602662362.2298,14
1602662362.2318,14
1602662362.2324,14
1602662362.2338,12
1602662362.2358,9
1602662362.2378,12
1602662362.2398,17
1602662362.2418,34
1602662362.2438,56
1602662362.2458,56
1602662362.2478,43
1602662362.2498,48
1602662362.2518,53
1602662362.2538,38
1602662362.2557,19
1602662362.2578,9
1602662362.2598,12
1602662362.2618,17
1602662362.2624,14
1602662362.2638,12
1602662362.2657,14
1602662362.2678,12
1602662362.2698,-2
1602662362.2718,0
1602662362.2738,148
1602662362.2758,475
1602662362.7109,611
1602662362.7118,138
1602662362.7143,-416
1602662362.7159,-287
1602662362.7178,38
1602662362.7198,-2
1602662362.7218,-58
1602662362.7239,21
1602662362.7245,17
1602662362.7261,-12
1602662362.7279,17
1602662362.7299,24
1602662362.7319,9
1602662362.7338,19
1602662362.7358,26
1602662362.7378,26
1602662362.7398,29
1602662362.7418,34
1602662362.7438,34
1602662362.7458,38
1602662362.7478,48
1602662362.7498,46
1602662362.7518,41
1602662362.7539,56
1602662362.7544,73
1602662362.7558,75
1602662362.7578,73
1602662362.7598,70
1602662362.7618,73
1602662362.7639,92
1602662362.7658,112
1602662362.7678,114
1602662362.7698,112
1602662362.7718,121
1602662362.7738,126
1602662362.7757,121
1602662362.7778,119
1602662362.7797,124
1602662362.7817,119
1602662362.7838,95
1602662362.7844,65
1602662362.7857,38
1602662362.7877,9
1602662362.7898,-9
1602662362.7918,-24
1602662362.7937,-38
1602662362.7958,-53
1602662362.7978,-56
1602662362.7999,-51
1602662362.8017,-43
1602662362.8038,-41
1602662362.8057,-46
1602662362.8078,-46
1602662362.8097,-38
1602662362.8118,-31
1602662362.8138,-31
1602662362.8144,-29
1602662362.8158,-21
1602662362.8178,-17
1602662362.8198,-17
1602662362.8219,-12
1602662362.8238,0
1602662362.8258,4
1602662362.8278,0
1602662362.8298,2
1602662362.8318,9
1602662362.8337,14
1602662362.8357,17
1602662362.8378,14
1602662362.8397,9
1602662362.8418,4
1602662362.8438,7
1602662362.8444,9
1602662363.3102,12
1602662363.3111,7
1602662363.3135,2
1602662363.3161,7
1602662363.3182,9
1602662363.3201,4
1602662363.3223,2
1602662363.3241,7
1602662363.3261,0
1602662363.3281,-12
1602662363.3301,-4
1602662363.3321,7
1602662363.3327,7
1602662363.3341,2
1602662363.3361,4
1602662363.3381,7
1602662363.3401,0
1602662363.3421,-4
1602662363.3441,0
1602662363.3461,7
1602662363.3481,17
1602662363.3500,31
1602662363.3521,31
1602662363.3541,24
1602662363.3561,24
1602662363.3581,24
1602662363.3601,21
1602662363.3621,7
1602662363.3626,-9
1602662363.3640,-12
1602662363.3660,-4
1602662363.3681,-4
1602662363.3701,-2
1602662363.3721,2
1602662363.3741,0
1602662363.3761,-19
1602662363.3781,-26
1602662363.3801,109
1602662363.3822,448
1602662363.3841,619
1602662363.3860,163
1602662363.3880,-433
1602662363.3901,-341
1602662363.3921,21
1602662363.3927,12
1602662363.3941,-58
1602662363.3960,14
1602662363.3980,17
1602662363.4001,-12
1602662363.4020,14
1602662363.4040,19
1602662363.4060,-2
1602662363.4081,7
1602662363.4100,21
1602662363.4120,21
1602662363.4141,24
1602662363.4161,26
1602662363.4181,26
1602662363.4201,31
1602662363.4220,36
1602662363.4227,43
1602662363.4240,53
1602662363.4260,58
1602662363.4280,58
1602662363.4301,63
1602662363.4321,73
1602662363.4340,77
1602662363.4361,82
1602662363.4381,97
1602662363.4400,112
1602662363.4421,124
1602662363.4441,129
1602662363.4461,124
1602662363.8506,126
1602662363.8512,131
1602662363.8529,129
1602662363.8552,121
1602662363.8573,116
1602662363.8592,102
1602662363.8613,70
1602662363.8633,43
1602662363.8653,24
1602662363.8673,-2
1602662363.8693,-31
1602662363.8712,-51
1602662363.8733,-58
