,hr,rr,ecg,gsr,temperature
1602662316.1839,64.0,953.0,141.0,446.00000000000017,36.56
1602662316.1864,64.0,953.0,806.0,446.00000000000017,36.56
1602662316.189,64.0,953.0,2027.0,446.00000000000017,36.56
1602662316.1916,64.0,953.0,2978.0,446.00000000000017,36.56
1602662316.1936,64.0,953.0,3497.0,446.00000000000017,36.56
1602662316.1956,64.0,953.0,4063.0,446.00000000000017,36.56
1602662316.1978,64.0,953.0,4616.0,446.00000000000017,36.56
1602662316.1997,64.0,953.0,5011.0,446.00000000000017,36.56
1602662316.2017,64.0,953.0,5384.0,446.00000000000017,36.56
1602662316.2037,64.0,953.0,5754.0,446.00000000000017,36.56
1602662316.2054,64.0,953.0,6061.0,446.0000000000001,36.56
1602662316.2074,64.0,953.0,6354.0,446.0000000000001,36.56
1602662316.2094,64.0,953.0,6639.0,446.0000000000001,36.56
1602662316.2114,64.0,953.0,6883.0,446.0000000000001,36.56
1602662316.2134,64.0,953.0,7114.0,446.0000000000001,36.56
1602662316.2154,64.0,953.0,7341.0,446.0000000000001,36.56
1602662316.2174,64.0,953.0,7545.0,446.0000000000001,36.56
1602662316.2193,64.0,953.0,7728.0,446.0000000000001,36.56
1602662316.2214,64.0,953.0,7899.0,446.0000000000001,36.56
1602662316.2234,64.0,953.0,8072.0,446.0000000000001,36.56
1602662316.2254,64.0,953.0,8245.0,446.0000000000001,36.56
1602662316.2274,64.0,953.0,8384.0,446.0000000000001,36.56
1602662316.2294,64.0,953.0,8506.0,446.0000000000001,36.56
1602662316.2314,64.0,953.0,8650.0,446.0000000000001,36.56
1602662316.2334,64.0,953.0,8784.0,446.0000000000001,36.56
1602662316.2355,64.0,953.0,8886.0,446.0000000000001,36.56
1602662316.2374,64.0,953.0,8984.0,446.0000000000001,36.56
1602662316.2394,64.0,953.0,9096.0,446.0000000000001,36.56
1602662316.2414,64.0,953.0,9196.0,446.0000000000001,36.56
1602662316.2434,64.0,953.0,9269.0,446.0000000000001,36.56
1602662316.2453,64.0,953.0,9339.0,446.0000000000001,36.56
1602662316.2473,64.0,953.0,9427.0,446.00000000000006,36.56
1602662316.2493,64.0,953.0,9493.0,446.00000000000006,36.56
1602662316.2513,64.0,953.0,9537.0,446.00000000000006,36.56
1602662316.2533,64.0,953.0,9590.0,446.00000000000006,36.56
1602662316.2553,64.0,953.0,9654.0,446.00000000000006,36.56
1602662316.2573,64.0,953.0,9700.0,446.00000000000006,36.56
1602662316.2593,64.0,953.0,9737.0,446.00000000000006,36.56
1602662316.2613,64.0,953.0,9778.0,446.00000000000006,36.56
1602662316.2633,64.0,953.0,9812.0,446.00000000000006,36.56
1602662316.2653,64.0,953.0,9837.0,446.00000000000006,36.56
1602662316.2673,64.0,953.0,9863.0,446.00000000000006,36.56
1602662316.2693,64.0,953.0,9885.0,446.00000000000006,36.56
1602662316.2713,64.0,953.0,9902.0,446.00000000000006,36.56
1602662316.2733,64.0,953.0,9917.0,446.00000000000006,36.56
1602662316.2753,64.0,953.0,9919.0,446.00000000000006,36.56
1602662316.2773,64.0,953.0,9924.0,446.00000000000006,36.56
1602662316.2793,64.0,953.0,9941.0,446.00000000000006,36.56
1602662316.2813,64.0,953.0,9937.0,446.00000000000006,36.56
1602662316.2833,64.0,953.0,9917.0,446.00000000000006,36.56
1602662316.286,64.0,953.0,9924.0,445.9999999999362,36.56
1602662316.2873,64.0,953.0,9934.0,445.9999999999362,36.56
1602662316.2892,64.0,953.0,9902.0,445.9999999999362,36.56
1602662316.2912,64.0,953.0,9863.0,445.9999999999362,36.56
1602662316.2932,64.0,953.0,9851.0,445.9999999999362,36.56
1602662316.2953,64.0,953.0,9837.0,445.9999999999362,36.56
1602662316.2972,64.0,953.0,9810.0,445.9999999999362,36.56
1602662316.2992,64.0,953.0,9781.0,445.9999999999362,36.56
1602662316.3012,64.0,953.0,9749.0,445.9999999999362,36.56
1602662316.3033,64.0,953.0,9720.0,445.9999999999362,36.56
1602662316.3053,64.0,953.0,9688.0,445.9999999999362,36.56
1602662316.3072,64.0,953.0,9644.0,445.9999999999362,36.56
1602662316.3092,64.0,953.0,9610.0,445.9999999999362,36.56
1602662316.3112,64.0,953.0,9588.0,445.9999999999362,36.56
1602662316.3132,64.0,953.0,9559.0,445.9999999999362,36.56
1602662316.3153,64.0,953.0,9529.0,445.9999999999362,36.56
1602662316.3172,64.0,953.0,9493.0,445.9999999999362,36.56
1602662316.3192,64.0,953.0,9437.0,445.9999999999362,36.56
1602662316.3212,64.0,953.0,9381.0,445.9999999999362,36.56
1602662316.3232,64.0,953.0,9330.0,445.9999999999362,36.56
1602662316.3253,64.0,953.0,9269.0,445.9999999999362,36.56
1602662316.3272,64.0,953.0,9205.0,445.9999999999362,36.56
1602662316.3292,64.0,953.0,9147.0,445.9999999999362,36.56
1602662316.7214,64.0,953.0,9096.0,445.9999999999362,36.56
1602662316.7222,64.0,953.0,9047.0,445.9999999999362,36.56
1602662316.7247,64.0,953.0,8988.0,445.9999999999362,36.56
1602662316.7274,64.0,953.0,8927.0,445.9999999999362,36.56
1602662316.7293,64.0,953.0,8876.0,445.9999999999362,36.56
1602662316.7313,64.0,953.0,8823.0,445.9999999999362,36.56
1602662316.7333,64.0,953.0,8742.0,445.9999999999362,36.56
1602662316.7353,64.0,953.0,8689.0,445.9999999999362,36.56
1602662316.7373,64.0,953.0,8825.0,445.9999999999362,36.56
1602662316.7393,64.0,953.0,9127.0,445.9999999999362,36.56
1602662316.7413,64.0,953.0,9088.0,445.9999999999362,36.56
1602662316.7433,64.0,953.0,8403.0,445.9999999999362,36.56
1602662316.7452,64.0,953.0,7872.0,445.9999999999362,36.56
1602662316.7472,64.0,953.0,8096.0,445.9999999999362,36.56
1602662316.7492,64.0,953.0,8311.0,445.9999999999362,36.56
1602662316.7512,64.0,953.0,8140.0,445.9999999999362,36.56
1602662316.7532,64.0,953.0,8072.0,445.9999999999362,36.56
1602662316.7553,64.0,953.0,8096.0,445.9999999999362,36.56
1602662316.7572,64.0,953.0,8001.0,445.9999999999362,36.56
1602662316.7592,64.0,953.0,7911.0,445.9999999999362,36.56
1602662316.7612,64.0,953.0,7872.0,445.9999999999362,36.56
1602662316.7632,64.0,953.0,7804.0,445.9999999999362,36.56
1602662316.7653,64.0,953.0,7731.0,445.9999999999362,36.56
1602662316.7672,64.0,953.0,7677.0,445.9999999999362,36.56
1602662316.7692,64.0,953.0,7619.0,445.9999999999362,36.56
1602662316.7712,64.0,953.0,7553.0,445.9999999999362,36.56
1602662316.7733,64.0,953.0,7489.0,445.9999999999362,36.56
1602662316.7753,64.0,953.0,7424.0,445.9999999999362,36.56
1602662316.7774,64.0,953.0,7358.0,445.9999999999362,36.56
1602662316.7793,64.0,953.0,7299.0,445.9999999999362,36.56
1602662316.7812,64.0,953.0,7238.0,445.9999999999362,36.56
1602662316.7832,64.0,953.0,7177.0,445.9999999999362,36.56
1602662316.7852,64.0,953.0,7119.0,445.9999999999362,36.56
1602662316.7872,64.0,953.0,7051.0,445.9999999999362,36.56
1602662316.7892,64.0,953.0,6985.0,445.9999999999362,36.56
1602662316.7912,64.0,953.0,6934.0,445.9999999999362,36.56
1602662316.7932,64.0,953.0,6885.0,445.9999999999362,36.56
1602662316.7952,64.0,953.0,6824.0,445.9999999999362,36.56
1602662316.7972,64.0,953.0,6758.0,445.9999999999362,36.56
1602662316.7992,64.0,953.0,6695.0,445.9999999999362,36.56
1602662316.8012,64.0,953.0,6641.0,445.9999999999362,36.56
1602662316.8032,64.0,953.0,6592.0,445.9999999999362,36.56
1602662316.8052,64.0,953.0,6534.0,445.9999999999362,36.56
1602662316.8072,64.0,953.0,6478.0,445.9999999999362,36.56
1602662316.8092,64.0,953.0,6412.0,445.9999999999362,36.56
1602662316.8112,64.0,953.0,6334.0,445.9999999999362,36.56
1602662316.8132,64.0,953.0,6268.0,445.9999999999362,36.56
1602662316.8152,64.0,953.0,6205.0,445.9999999999362,36.56
1602662316.8172,64.0,953.0,6129.0,445.9999999999362,36.56
1602662316.8192,64.0,953.0,6059.0,445.9999999999362,36.56
1602662316.8212,64.0,953.0,5976.0,445.9999999999362,36.56
1602662316.8232,64.0,953.0,5883.0,445.9999999999362,36.56
1602662316.8252,64.0,953.0,5798.0,445.9999999999362,36.56
1602662316.8272,64.0,953.0,5717.0,445.9999999999362,36.56
1602662316.8292,64.0,953.0,5635.0,445.9999999999362,36.56
1602662316.8312,64.0,953.0,5559.0,445.9999999999362,36.56
1602662316.8332,64.0,953.0,5491.0,445.9999999999362,36.56
1602662316.8353,64.0,953.0,5420.0,445.9999999999362,36.56
1602662316.8372,64.0,953.0,5352.0,445.9999999999362,36.56
1602662316.8392,64.0,953.0,5289.0,445.9999999999362,36.56
1602662316.8412,64.0,953.0,5237.0,445.9999999999362,36.56
1602662316.8432,64.0,953.0,5191.0,445.9999999999362,36.56
1602662316.8452,64.0,953.0,5137.0,445.9999999999362,36.56
1602662316.8472,64.0,953.0,5081.0,445.9999999999362,36.56
1602662316.8492,64.0,953.0,5028.0,445.9999999999362,36.56
1602662316.8512,64.0,953.0,4977.0,445.9999999999362,36.56
1602662316.8532,64.0,953.0,4928.0,445.9999999999362,36.56
1602662316.8552,64.0,953.0,4881.0,445.9999999999362,36.56
1602662316.8572,64.0,953.0,4830.0,445.9999999999362,36.56
1602662316.8592,64.0,953.0,4779.0,445.9999999999362,36.56
1602662316.8612,64.0,953.0,4730.0,445.9999999999362,36.56
1602662316.8632,64.0,953.0,4684.0,445.9999999999362,36.56
1602662316.8652,64.0,953.0,4638.0,445.9999999999362,36.56
1602662317.2915,64.0,946.0,4589.0,445.9999999999362,36.5
1602662317.2921,64.0,946.0,4533.0,445.9999999999362,36.5
1602662317.2947,64.0,946.0,4474.0,445.9999999999362,36.5
1602662317.2972,64.0,946.0,4421.0,445.9999999999362,36.5
1602662317.2992,64.0,946.0,4365.0,445.9999999999362,36.5
1602662317.3012,64.0,946.0,4321.0,445.9999999999362,36.5
1602662317.3034,64.0,946.0,4289.0,445.9999999999362,36.5
1602662317.3053,64.0,946.0,4243.0,445.9999999999362,36.5
1602662317.3072,64.0,946.0,4167.0,445.9999999999362,36.5
1602662317.3092,64.0,946.0,4104.0,445.9999999999362,36.5
1602662317.3113,64.0,946.0,4060.0,445.9999999999362,36.5
1602662317.3132,64.0,946.0,4021.0,445.9999999999362,36.5
1602662317.3152,64.0,946.0,3972.0,445.9999999999362,36.5
1602662317.3172,64.0,946.0,3914.0,445.9999999999362,36.5
1602662317.3192,64.0,946.0,3868.0,445.9999999999362,36.5
1602662317.3212,64.0,946.0,3831.0,445.9999999999362,36.5
1602662317.3232,64.0,946.0,3785.0,445.9999999999362,36.5
1602662317.3252,64.0,946.0,3736.0,445.9999999999362,36.5
1602662317.3272,64.0,946.0,3702.0,445.9999999999362,36.5
1602662317.3292,64.0,946.0,3660.0,445.9999999999362,36.5
1602662317.3312,64.0,946.0,3609.0,445.9999999999362,36.5
1602662317.3332,64.0,946.0,3568.0,445.9999999999362,36.5
1602662317.3353,64.0,946.0,3534.0,445.9999999999362,36.5
1602662317.3372,64.0,946.0,3487.0,445.9999999999362,36.5
1602662317.3393,64.0,946.0,3436.0,445.9999999999362,36.5
1602662317.3413,64.0,946.0,3400.0,445.9999999999362,36.5
1602662317.3432,64.0,946.0,3373.0,445.9999999999362,36.5
1602662317.3452,64.0,946.0,3336.0,445.9999999999362,36.5
1602662317.3473,64.0,946.0,3290.0,445.9999999999362,36.5
1602662317.3491,64.0,946.0,3251.0,445.9999999999362,36.5
1602662317.3512,64.0,946.0,3212.0,445.9999999999362,36.5
1602662317.3531,64.0,946.0,3161.0,445.9999999999362,36.5
1602662317.3552,64.0,946.0,3117.0,445.9999999999362,36.5
1602662317.3571,64.0,946.0,3092.0,445.9999999999362,36.5
1602662317.3592,64.0,946.0,3066.0,445.9999999999362,36.5
1602662317.3611,64.0,946.0,3034.0,445.9999999999362,36.5
1602662317.3631,64.0,946.0,3012.0,445.9999999999362,36.5
1602662317.3652,64.0,946.0,2980.0,445.9999999999362,36.5
1602662317.3671,64.0,946.0,2934.0,445.9999999999362,36.5
1602662317.3691,64.0,946.0,2890.0,445.9999999999362,36.5
1602662317.3711,64.0,946.0,2861.0,445.9999999999362,36.5
1602662317.3731,64.0,946.0,2832.0,445.9999999999362,36.5
1602662317.3751,64.0,946.0,2783.0,445.9999999999362,36.5
1602662317.3771,64.0,946.0,2729.0,445.9999999999362,36.5
1602662317.3792,64.0,946.0,2688.0,445.9999999999362,36.5
1602662317.3811,64.0,946.0,2666.0,445.9999999999362,36.5
1602662317.3832,64.0,946.0,2639.0,445.9999999999362,36.5
1602662317.3852,64.0,946.0,2607.0,445.9999999999362,36.5
1602662317.3872,64.0,946.0,2578.0,445.9999999999362,36.5
1602662317.3892,64.0,946.0,2551.0,445.9999999999362,36.5
1602662317.3911,64.0,946.0,2520.0,445.9999999999362,36.5
1602662317.3931,64.0,946.0,2473.0,445.9999999999362,36.5
1602662317.3952,64.0,946.0,2517.0,445.9999999999362,36.5
1602662317.3971,64.0,946.0,2790.0,445.9999999999362,36.5
1602662317.3992,64.0,946.0,3049.0,445.9999999999362,36.5
1602662317.4011,64.0,946.0,2710.0,445.9999999999362,36.5
1602662317.4031,64.0,946.0,1979.0,445.9999999999362,36.5
1602662317.4053,64.0,946.0,1847.0,445.9999999999362,36.5
1602662317.4071,64.0,946.0,2239.0,445.9999999999362,36.5
1602662317.4091,64.0,946.0,2298.0,445.9999999999362,36.5
1602662317.4111,64.0,946.0,2161.0,445.9999999999362,36.5
1602662317.4131,64.0,946.0,2210.0,445.9999999999362,36.5
1602662317.4152,64.0,946.0,2220.0,445.9999999999362,36.5
1602662317.4171,64.0,946.0,2139.0,445.9999999999362,36.5
1602662317.4191,64.0,946.0,2130.0,445.9999999999362,36.5
1602662317.4211,64.0,946.0,2125.0,445.9999999999362,36.5
1602662317.4231,64.0,946.0,2081.0,445.9999999999362,36.5
1602662317.4252,64.0,946.0,2066.0,445.9999999999362,36.5
1602662317.4271,64.0,946.0,2057.0,445.9999999999362,36.5
1602662317.4291,64.0,946.0,2027.0,445.9999999999362,36.5
1602662317.4311,64.0,946.0,2005.0,445.9999999999362,36.5
1602662317.4332,64.0,946.0,1993.0,445.9999999999362,36.5
1602662317.4352,64.0,946.0,1971.0,445.9999999999362,36.5
1602662317.8312,64.0,946.0,1947.0,445.9999999999362,36.56
1602662317.8319,64.0,946.0,1935.0,445.9999999999362,36.56
1602662317.8343,64.0,946.0,1913.0,445.9999999999362,36.56
1602662317.8369,64.0,946.0,1888.0,445.9999999999362,36.56
1602662317.8389,64.0,946.0,1874.0,445.9999999999362,36.56
1602662317.8409,64.0,946.0,1859.0,445.9999999999362,36.56
1602662317.8429,64.0,946.0,1847.0,445.9999999999362,36.56
1602662317.845,64.0,946.0,1837.0,445.9999999999362,36.56
1602662317.8469,64.0,946.0,1815.0,445.9999999999362,36.56
1602662317.8489,64.0,946.0,1789.0,445.9999999999362,36.56
1602662317.8509,64.0,946.0,1779.0,445.9999999999362,36.56
1602662317.8529,64.0,946.0,1776.0,445.9999999999362,36.56
1602662317.8549,64.0,946.0,1754.0,445.9999999999362,36.56
1602662317.8569,64.0,946.0,1737.0,445.9999999999362,36.56
1602662317.8589,64.0,946.0,1730.0,445.9999999999362,36.56
1602662317.8609,64.0,946.0,1723.0,445.9999999999362,36.56
1602662317.8629,64.0,946.0,1703.0,445.9999999999362,36.56
1602662317.8649,64.0,946.0,1676.0,445.9999999999362,36.56
1602662317.8669,64.0,946.0,1654.0,445.9999999999362,36.56
1602662317.8688,64.0,946.0,1633.0,445.9999999999362,36.56
1602662317.8708,64.0,946.0,1598.0,445.9999999999362,36.56
1602662317.8729,64.0,946.0,1557.0,445.9999999999362,36.56
1602662317.8749,64.0,946.0,1513.0,445.9999999999362,36.56
1602662317.8769,64.0,946.0,1472.0,445.9999999999362,36.56
1602662317.8789,64.0,946.0,1430.0,445.9999999999362,36.56
1602662317.8808,64.0,946.0,1391.0,445.9999999999362,36.56
1602662317.8828,64.0,946.0,1355.0,445.9999999999362,36.56
1602662317.8849,64.0,946.0,1328.0,445.9999999999362,36.56
1602662317.8868,64.0,946.0,1311.0,445.9999999999362,36.56
1602662317.8889,64.0,946.0,1286.0,445.9999999999362,36.56
1602662317.8909,64.0,946.0,1260.0,445.9999999999362,36.56
1602662317.8928,64.0,946.0,1245.0,445.9999999999362,36.56
1602662317.8949,64.0,946.0,1238.0,445.9999999999362,36.56
1602662317.8968,64.0,946.0,1225.0,445.9999999999362,36.56
1602662317.8988,64.0,946.0,1204.0,445.9999999999362,36.56
1602662317.901,64.0,946.0,1191.0,445.9999999999362,36.56
1602662317.9029,64.0,946.0,1186.0,445.9999999999362,36.56
1602662317.9049,64.0,946.0,1177.0,445.9999999999362,36.56
1602662317.9068,64.0,946.0,1174.0,445.9999999999362,36.56
1602662317.9088,64.0,946.0,1165.0,445.9999999999362,36.56
1602662317.9108,64.0,946.0,1155.0,445.9999999999362,36.56
1602662317.9128,64.0,946.0,1147.0,445.9999999999362,36.56
1602662317.9149,64.0,946.0,1138.0,445.9999999999362,36.56
1602662317.9168,64.0,946.0,1123.0,445.9999999999362,36.56
1602662317.9188,64.0,946.0,1108.0,445.9999999999362,36.56
1602662317.9208,64.0,946.0,1101.0,445.9999999999362,36.56
1602662317.9228,64.0,946.0,1094.0,445.9999999999362,36.56
1602662317.9249,64.0,946.0,1082.0,445.9999999999362,36.56
1602662317.9269,64.0,946.0,1069.0,445.9999999999362,36.56
1602662317.9288,64.0,946.0,1057.0,445.9999999999362,36.56
1602662317.9308,64.0,946.0,1048.0,445.9999999999362,36.56
1602662317.9328,64.0,946.0,1035.0,445.9999999999362,36.56
1602662317.9349,64.0,946.0,1011.0,445.9999999999362,36.56
1602662317.9369,64.0,946.0,999.0,445.9999999999362,36.56
1602662317.9389,64.0,946.0,994.0,445.9999999999362,36.56
1602662317.9408,64.0,946.0,979.0,445.9999999999362,36.56
1602662317.9428,64.0,946.0,960.0,445.9999999999362,36.56
1602662317.9449,64.0,946.0,952.0,445.9999999999362,36.56
1602662317.9468,64.0,946.0,945.0,445.9999999999362,36.56
1602662317.9488,64.0,946.0,931.0,445.9999999999362,36.56
1602662317.9508,64.0,946.0,923.0,445.9999999999362,36.56
1602662317.9528,64.0,946.0,914.0,445.9999999999362,36.56
1602662317.9549,64.0,946.0,899.0,445.9999999999362,36.56
1602662317.9568,64.0,946.0,889.0,445.9999999999362,36.56
1602662317.9588,64.0,946.0,879.0,445.9999999999362,36.56
1602662317.9608,64.0,946.0,870.0,445.9999999999362,36.56
1602662317.9628,64.0,946.0,855.0,445.9999999999362,36.56
1602662317.9649,64.0,946.0,843.0,445.9999999999362,36.56
1602662317.9668,64.0,946.0,838.0,445.9999999999362,36.56
1602662317.9688,64.0,946.0,836.0,445.9999999999362,36.56
1602662317.9708,64.0,946.0,823.0,445.9999999999362,36.56
1602662317.9728,64.0,946.0,814.0,445.9999999999362,36.56
1602662317.9748,64.0,946.0,809.0,445.9999999999362,36.56
1602662318.4015,64.0,965.0,801.0,445.9999999999362,36.56
1602662318.4021,64.0,965.0,787.0,445.9999999999362,36.56
1602662318.4036,64.0,965.0,775.0,445.9999999999362,36.56
1602662318.4056,64.0,965.0,762.0,445.9999999999362,36.56
1602662318.4076,64.0,965.0,745.0,445.9999999999362,36.56
1602662318.4096,64.0,965.0,738.0,445.9999999999362,36.56
1602662318.4116,64.0,965.0,740.0,445.9999999999362,36.56
1602662318.4136,64.0,965.0,750.0,445.9999999999362,36.56
1602662318.4155,64.0,965.0,750.0,445.9999999999362,36.56
1602662318.4176,64.0,965.0,731.0,445.9999999999362,36.56
1602662318.4196,64.0,965.0,719.0,445.9999999999362,36.56
1602662318.4215,64.0,965.0,714.0,445.9999999999362,36.56
1602662318.4236,64.0,965.0,704.0,445.9999999999362,36.56
1602662318.4257,64.0,965.0,684.0,445.9999999999362,36.56
1602662318.4276,64.0,965.0,665.0,445.9999999999362,36.56
1602662318.4295,64.0,965.0,653.0,445.9999999999362,36.56
1602662318.4315,64.0,965.0,648.0,445.9999999999362,36.56
1602662318.4335,64.0,965.0,643.0,445.9999999999362,36.56
1602662318.4355,64.0,965.0,638.0,445.9999999999362,36.56
1602662318.4375,64.0,965.0,633.0,445.9999999999362,36.56
1602662318.4395,64.0,965.0,631.0,445.9999999999362,36.56
1602662318.4415,64.0,965.0,611.0,445.9999999999362,36.56
1602662318.4435,64.0,965.0,584.0,445.9999999999362,36.56
1602662318.4455,64.0,965.0,667.0,445.9999999999362,36.56
1602662318.4475,64.0,965.0,955.0,445.9999999999362,36.56
1602662318.4495,64.0,965.0,1196.0,445.9999999999362,36.56
1602662318.4515,64.0,965.0,901.0,445.9999999999362,36.56
1602662318.4535,64.0,965.0,272.0,445.9999999999362,36.56
1602662318.4555,64.0,965.0,180.0,445.9999999999362,36.56
1602662318.4575,64.0,965.0,538.0,445.9999999999362,36.56
1602662318.4595,64.0,965.0,599.0,445.9999999999362,36.56
1602662318.4615,64.0,965.0,494.0,445.9999999999362,36.56
1602662318.4635,64.0,965.0,550.0,445.9999999999362,36.56
1602662318.4655,64.0,965.0,570.0,445.9999999999362,36.56
1602662318.4675,64.0,965.0,519.0,445.9999999999362,36.56
1602662318.4695,64.0,965.0,533.0,445.9999999999362,36.56
1602662318.4715,64.0,965.0,555.0,445.9999999999362,36.56
1602662318.4735,64.0,965.0,528.0,445.9999999999362,36.56
1602662318.4755,64.0,965.0,521.0,445.9999999999362,36.56
1602662318.4775,64.0,965.0,538.0,445.9999999999362,36.56
1602662318.4795,64.0,965.0,536.0,445.9999999999362,36.56
1602662318.4815,64.0,965.0,526.0,445.9999999999362,36.56
1602662318.4835,64.0,965.0,526.0,445.9999999999362,36.56
1602662318.4856,64.0,965.0,528.0,445.9999999999362,36.56
1602662318.4875,64.0,965.0,526.0,445.9999999999362,36.56
1602662318.4895,64.0,965.0,526.0,445.9999999999362,36.56
1602662318.4915,64.0,965.0,528.0,445.9999999999362,36.56
1602662318.4935,64.0,965.0,526.0,445.9999999999362,36.56
1602662318.4955,64.0,965.0,526.0,445.9999999999362,36.56
1602662318.4975,64.0,965.0,533.0,445.9999999999362,36.56
1602662318.4995,64.0,965.0,543.0,445.9999999999362,36.56
1602662318.5015,64.0,965.0,541.0,445.9999999999362,36.56
1602662318.5035,64.0,965.0,533.0,445.9999999999362,36.56
1602662318.5055,64.0,965.0,538.0,445.9999999999362,36.56
1602662318.5075,64.0,965.0,548.0,445.9999999999362,36.56
1602662318.5095,64.0,965.0,550.0,445.9999999999362,36.56
1602662318.5115,64.0,965.0,553.0,445.9999999999362,36.56
1602662318.5135,64.0,965.0,558.0,445.9999999999362,36.56
1602662318.5155,64.0,965.0,555.0,445.9999999999362,36.56
1602662318.5175,64.0,965.0,548.0,445.9999999999362,36.56
1602662318.5195,64.0,965.0,548.0,445.9999999999362,36.56
1602662318.5215,64.0,965.0,543.0,445.9999999999362,36.56
1602662318.5235,64.0,965.0,533.0,445.9999999999362,36.56
1602662318.5255,64.0,965.0,531.0,445.9999999999362,36.56
1602662318.5276,64.0,965.0,509.0,445.9999999999362,36.56
1602662318.5295,64.0,965.0,467.0,445.9999999999362,36.56
1602662318.5315,64.0,965.0,443.0,445.9999999999362,36.56
1602662318.5335,64.0,965.0,428.0,445.9999999999362,36.56
1602662318.5355,64.0,965.0,397.0,445.9999999999362,36.56
1602662318.5375,64.0,965.0,370.0,445.9999999999362,36.56
1602662318.5395,64.0,965.0,358.0,445.9999999999362,36.56
1602662318.5415,64.0,965.0,346.0,445.9999999999362,36.56
1602662318.5435,64.0,965.0,331.0,445.9999999999362,36.56
1602662318.9408,64.0,961.0,324.0,445.9999999999362,36.56
1602662318.9414,64.0,961.0,326.0,445.9999999999362,36.56
1602662318.9432,64.0,961.0,324.0,445.9999999999362,36.56
1602662318.9452,64.0,961.0,316.0,445.9999999999362,36.56
1602662318.9472,64.0,961.0,316.0,445.9999999999362,36.56
1602662318.9492,64.0,961.0,321.0,445.9999999999362,36.56
1602662318.9512,64.0,961.0,314.0,445.9999999999362,36.56
1602662318.9532,64.0,961.0,302.0,445.9999999999362,36.56
1602662318.9552,64.0,961.0,302.0,445.9999999999362,36.56
1602662318.9571,64.0,961.0,311.0,445.9999999999362,36.56
1602662318.9591,64.0,961.0,316.0,445.9999999999362,36.56
1602662318.9612,64.0,961.0,311.0,445.9999999999362,36.56
1602662318.9631,64.0,961.0,307.0,445.9999999999362,36.56
1602662318.9651,64.0,961.0,307.0,445.9999999999362,36.56
1602662318.9671,64.0,961.0,309.0,445.9999999999362,36.56
1602662318.9691,64.0,961.0,311.0,445.9999999999362,36.56
1602662318.9711,64.0,961.0,309.0,445.9999999999362,36.56
1602662318.9731,64.0,961.0,307.0,445.9999999999362,36.56
1602662318.9751,64.0,961.0,307.0,445.9999999999362,36.56
1602662318.9772,64.0,961.0,307.0,445.9999999999362,36.56
1602662318.9791,64.0,961.0,302.0,445.9999999999362,36.56
1602662318.9811,64.0,961.0,304.0,445.9999999999362,36.56
1602662318.9832,64.0,961.0,304.0,445.9999999999362,36.56
1602662318.9852,64.0,961.0,302.0,446.01413053920373,36.56
1602662318.9871,64.0,961.0,299.0,446.0268191867092,36.56
1602662318.9892,64.0,961.0,292.0,446.0380950715793,36.56
1602662318.9911,64.0,961.0,287.0,446.04798732294034,36.56
1602662318.9931,64.0,961.0,285.0,446.05652506991896,36.56
1602662318.9952,64.0,961.0,285.0,446.0637374416415,36.56
1602662318.9971,64.0,961.0,287.0,446.0696535672347,36.56
1602662318.9991,64.0,961.0,285.0,446.07430257582485,36.56
1602662319.0012,64.0,961.0,280.0,446.0777135965385,36.56
1602662319.0032,64.0,961.0,277.0,446.07991575850235,36.56
1602662319.0052,64.0,961.0,275.0,446.08093819084263,36.56
1602662319.0072,64.0,961.0,275.0,446.080810022686,36.56
1602662319.0092,64.0,961.0,277.0,446.079560383159,36.56
1602662319.0112,64.0,961.0,272.0,446.077218401388,36.56
1602662319.0132,64.0,961.0,270.0,446.0738132064995,36.56
1602662319.0152,64.0,961.0,268.0,446.0693739276202,36.56
1602662319.0172,64.0,961.0,265.0,446.0639296938764,36.56
1602662319.0192,64.0,961.0,268.0,446.0575096343947,36.56
1602662319.0211,64.0,961.0,263.0,446.0501428783017,36.56
1602662319.0233,64.0,961.0,255.0,446.0418585547237,36.56
1602662319.0252,64.0,961.0,260.0,446.03268579278733,36.56
1602662319.0271,64.0,961.0,270.0,446.022653721619,36.56
1602662319.0291,64.0,961.0,265.0,446.0117914703453,36.56
1602662319.0311,64.0,961.0,260.0,446.00012816809283,36.56
1602662319.0332,64.0,961.0,251.0,445.9876929439879,36.56
1602662319.0352,64.0,961.0,246.0,445.9745149271571,36.56
1602662319.0371,64.0,961.0,258.0,445.96062324672687,36.56
1602662319.0392,64.0,961.0,280.0,445.9460470318238,36.56
1602662319.0412,64.0,961.0,285.0,445.9308154115744,36.56
1602662319.0432,64.0,961.0,260.0,445.91495751510513,36.56
1602662319.0452,64.0,961.0,248.0,445.89850247154254,36.56
1602662319.0471,64.0,961.0,260.0,445.88147941001307,36.56
1602662319.0491,64.0,961.0,263.0,445.8639174596433,36.56
1602662319.0512,64.0,961.0,246.0,445.84584574955966,36.56
1602662319.0531,64.0,961.0,229.0,445.82729340888875,36.56
1602662319.0552,64.0,961.0,216.0,445.8082895667569,36.56
1602662319.0571,64.0,961.0,214.0,445.78886335229083,36.56
1602662319.0592,64.0,961.0,216.0,445.76904389461697,36.56
1602662319.0612,64.0,961.0,214.0,445.7488603228617,36.56
1602662319.0632,64.0,961.0,221.0,445.72834176615163,36.56
1602662319.0651,64.0,961.0,226.0,445.7075173536133,36.56
1602662319.0671,64.0,961.0,219.0,445.6864162143732,36.56
1602662319.0691,64.0,961.0,199.0,445.6650674775577,36.56
1602662319.0712,64.0,961.0,199.0,445.6435002722935,36.56
1602662319.0732,64.0,961.0,353.0,445.62174372770704,36.56
1602662319.0752,64.0,961.0,684.0,445.59982697292475,36.56
1602662319.0772,64.0,961.0,784.0,445.5777791370732,36.56
1602662319.0792,64.0,961.0,280.0,445.5556293492789,36.56
1602662319.0812,64.0,961.0,-224.0,445.5334067386683,36.56
1602662319.0832,64.0,961.0,-38.0,445.511140434368,36.56
1602662319.5413,64.0,961.0,268.0,445.48885956550436,36.56
1602662319.5421,64.0,961.0,194.0,445.466593261204,36.56
1602662319.5446,64.0,961.0,141.0,445.44437065059344,36.56
1602662319.5472,64.0,961.0,221.0,445.4222208627991,36.56
1602662319.5492,64.0,961.0,209.0,445.4001730269476,36.56
1602662319.5512,64.0,961.0,173.0,445.37825627216534,36.56
1602662319.5534,64.0,961.0,192.0,445.3564997275788,36.56
1602662319.5552,64.0,961.0,192.0,445.3349325223146,36.56
1602662319.5572,64.0,961.0,168.0,445.3135837854992,36.56
1602662319.5592,64.0,961.0,177.0,445.29248264625903,36.56
1602662319.5611,64.0,961.0,197.0,445.2716582337207,36.56
1602662319.5632,64.0,961.0,197.0,445.2511396770107,36.56
1602662319.5652,64.0,961.0,197.0,445.2309561052555,36.56
1602662319.5671,64.0,961.0,202.0,445.21113664758155,36.56
1602662319.5691,64.0,961.0,204.0,445.1917104331154,36.56
1602662319.5711,64.0,961.0,209.0,445.17270659098364,36.56
1602662319.5731,64.0,961.0,221.0,445.1541542503127,36.56
1602662319.5752,64.0,961.0,224.0,445.1360825402291,36.56
1602662319.5771,64.0,961.0,221.0,445.1185205898593,36.56
1602662319.5791,64.0,961.0,229.0,445.10149752832984,36.56
1602662319.5813,64.0,961.0,231.0,445.08504248476726,36.56
1602662319.5832,64.0,961.0,233.0,445.069184588298,36.56
1602662319.5851,64.0,961.0,248.0,445.0539529680486,36.56
1602662319.5871,64.0,961.0,260.0,445.0535072924131,36.56
1602662319.5891,64.0,961.0,260.0,445.05230425948844,36.56
1602662319.5911,64.0,961.0,265.0,445.05040212752766,36.56
1602662319.5931,64.0,961.0,275.0,445.04785915478374,36.56
1602662319.5952,64.0,961.0,277.0,445.0447335995098,36.56
1602662319.5971,64.0,961.0,280.0,445.04108371995875,36.56
1602662319.5991,64.0,961.0,290.0,445.0369677743836,36.56
1602662319.6011,64.0,961.0,294.0,445.0324440210374,36.56
1602662319.6031,64.0,961.0,294.0,445.02757071817314,36.56
1602662319.6051,64.0,961.0,294.0,445.0224061240438,36.56
1602662319.6071,64.0,961.0,285.0,445.01700849690246,36.56
1602662319.6091,64.0,961.0,272.0,445.01143609500207,36.56
1602662319.6111,64.0,961.0,260.0,445.00574717659566,36.56
1602662319.6132,64.0,961.0,233.0,444.9999999999363,36.56
1602662319.6152,64.0,961.0,202.0,444.99425282327684,36.56
1602662319.6171,64.0,961.0,175.0,444.98856390487043,36.56
1602662319.6191,64.0,961.0,151.0,444.9829915029701,36.56
1602662319.6211,64.0,961.0,129.0,444.9775938758287,36.56
1602662319.6231,64.0,961.0,116.0,444.9724292816994,36.56
1602662319.6251,64.0,961.0,116.0,444.96755597883515,36.56
1602662319.6271,64.0,961.0,112.0,444.9630322254889,36.56
1602662319.6291,64.0,961.0,104.0,444.95891627991375,36.56
1602662319.6311,64.0,961.0,104.0,444.95526640036275,36.56
1602662319.6332,64.0,961.0,107.0,444.95214084508876,36.56
1602662319.6352,64.0,961.0,107.0,444.9495978723449,36.56
1602662319.6371,64.0,961.0,109.0,444.9476957403841,36.56
1602662319.6391,64.0,961.0,112.0,444.94649270745947,36.56
1602662319.6411,64.0,961.0,112.0,444.9460470318239,36.56
1602662319.6431,64.0,961.0,114.0,444.93081541157454,36.56
1602662319.6452,64.0,961.0,114.0,444.9149575151053,36.56
1602662319.6471,64.0,961.0,119.0,444.89850247154266,36.56
1602662319.6491,64.0,961.0,126.0,444.88147941001324,36.56
1602662319.6511,64.0,961.0,129.0,444.86391745964346,36.56
1602662319.6531,64.0,961.0,129.0,444.8458457495598,36.56
1602662319.6551,64.0,961.0,131.0,444.82729340888886,36.56
1602662319.6571,64.0,961.0,141.0,444.8082895667571,36.56
1602662319.6591,64.0,961.0,148.0,444.78886335229095,36.56
1602662319.6611,64.0,961.0,153.0,444.769043894617,36.56
1602662319.6631,64.0,961.0,153.0,444.74886032286184,36.56
1602662319.6652,64.0,961.0,146.0,444.7283417661518,36.56
1602662319.6671,64.0,961.0,138.0,444.70751735361347,36.56
1602662319.6691,64.0,961.0,143.0,444.68641621437337,36.56
1602662319.6711,64.0,961.0,143.0,444.66506747755795,36.56
1602662319.6731,64.0,961.0,141.0,444.64350027229375,36.56
1602662319.6752,64.0,961.0,146.0,444.62174372770727,36.56
1602662319.6771,64.0,961.0,148.0,444.599826972925,36.56
1602662319.6791,64.0,961.0,143.0,444.57777913707343,36.56
1602662319.6811,64.0,961.0,138.0,444.5556293492791,36.56
1602662319.6833,64.0,961.0,131.0,444.53340673866853,36.56
1602662319.6852,64.0,961.0,126.0,444.5111404343682,36.56
1602662320.1107,64.0,925.0,134.0,444.4888595655046,36.5
1602662320.1113,64.0,925.0,136.0,444.46659326120425,36.5
1602662320.1138,64.0,925.0,129.0,444.44437065059367,36.5
1602662320.1164,64.0,925.0,126.0,444.42222086279935,36.5
1602662320.1185,64.0,925.0,134.0,444.4001730269478,36.5
1602662320.1204,64.0,925.0,138.0,444.3782562721656,36.5
1602662320.1224,64.0,925.0,131.0,444.35649972757903,36.5
1602662320.1245,64.0,925.0,126.0,444.33493252231483,36.5
1602662320.1264,64.0,925.0,126.0,444.3135837854994,36.5
1602662320.1283,64.0,925.0,116.0,444.29248264625926,36.5
1602662320.1303,64.0,925.0,107.0,444.2716582337209,36.5
1602662320.1323,64.0,925.0,109.0,444.2511396770109,36.5
1602662320.1344,64.0,925.0,116.0,444.2309561052557,36.5
1602662320.1364,64.0,925.0,114.0,444.2111366475817,36.5
1602662320.1383,64.0,925.0,112.0,444.19171043311565,36.5
1602662320.1404,64.0,925.0,112.0,444.1727065909838,36.5
1602662320.1424,64.0,925.0,119.0,444.1541542503129,36.5
1602662320.1444,64.0,925.0,129.0,444.13608254022927,36.5
1602662320.1464,64.0,925.0,124.0,444.1185205898595,36.5
1602662320.1484,64.0,925.0,116.0,444.10149752833,36.5
1602662320.1504,64.0,925.0,121.0,444.0850424847674,36.5
1602662320.1524,64.0,925.0,146.0,444.0691845882982,36.5
1602662320.1545,64.0,925.0,165.0,444.05395296804875,36.5
1602662320.1564,64.0,925.0,153.0,444.0393767531457,36.5
1602662320.1583,64.0,925.0,138.0,444.02548507271547,36.5
1602662320.1604,64.0,925.0,148.0,444.01230705588466,36.5
1602662320.1623,64.0,925.0,148.0,443.9998718317797,36.5
1602662320.1644,64.0,925.0,126.0,443.98820852952724,36.5
1602662320.1665,64.0,925.0,109.0,443.97734627825355,36.5
1602662320.1684,64.0,925.0,99.0,443.9673142070852,36.5
1602662320.1703,64.0,925.0,102.0,443.95814144514884,36.5
1602662320.1723,64.0,925.0,104.0,443.94985712157086,36.5
1602662320.1744,64.0,925.0,104.0,443.94249036547785,36.5
1602662320.1764,64.0,925.0,107.0,443.93607030599617,36.5
1602662320.1784,64.0,925.0,114.0,443.9306260722524,36.5
1602662320.1803,64.0,925.0,112.0,443.92618679337306,36.5
1602662320.1824,64.0,925.0,90.0,443.92278159848456,36.5
1602662320.1844,64.0,925.0,87.0,443.92043961671357,36.5
1602662320.1863,64.0,925.0,263.0,443.91918997718653,36.5
1602662320.1883,64.0,925.0,623.0,443.9190618090299,36.5
1602662320.1904,64.0,925.0,711.0,443.9200842413702,36.5
1602662320.1924,64.0,925.0,121.0,443.92228640333406,36.5
1602662320.1944,64.0,925.0,-436.0,443.9256974240477,36.5
1602662320.1963,64.0,925.0,-204.0,443.930346432638,36.5
1602662320.1984,64.0,925.0,146.0,443.9362625582311,36.5
1602662320.2004,64.0,925.0,82.0,443.9434749299537,36.5
1602662320.2023,64.0,925.0,53.0,443.9520126769322,36.5
1602662320.2043,64.0,925.0,141.0,443.9619049282933,36.5
1602662320.2064,64.0,925.0,121.0,443.97318081316337,36.5
1602662320.2085,64.0,925.0,97.0,443.9858694606688,36.5
1602662320.2104,64.0,925.0,129.0,443.99999999993634,36.5
1602662320.2124,64.0,925.0,126.0,443.99999999993634,36.5
1602662320.2144,64.0,925.0,116.0,443.99999999993634,36.5
1602662320.2163,64.0,925.0,129.0,443.99999999993634,36.5
1602662320.2184,64.0,925.0,138.0,443.99999999993634,36.5
1602662320.2203,64.0,925.0,138.0,443.99999999993634,36.5
1602662320.2223,64.0,925.0,141.0,443.99999999993634,36.5
1602662320.2244,64.0,925.0,141.0,443.99999999993634,36.5
1602662320.2263,64.0,925.0,151.0,443.99999999993634,36.5
1602662320.2284,64.0,925.0,158.0,443.99999999993634,36.5
1602662320.2303,64.0,925.0,151.0,443.99999999993634,36.5
1602662320.2324,64.0,925.0,151.0,443.99999999993634,36.5
1602662320.2344,64.0,925.0,170.0,443.99999999993634,36.5
1602662320.2364,64.0,925.0,182.0,443.99999999993634,36.5
1602662320.2384,64.0,925.0,168.0,443.99999999993634,36.5
1602662320.2403,64.0,925.0,165.0,443.99999999993634,36.5
1602662320.2424,64.0,925.0,182.0,443.99999999993634,36.5
1602662320.2444,64.0,925.0,192.0,443.99999999993634,36.5
1602662320.2464,64.0,925.0,197.0,443.99999999993634,36.5
1602662320.2484,64.0,925.0,207.0,443.99999999993634,36.5
1602662320.2504,64.0,925.0,216.0,443.99999999993634,36.5
1602662320.2523,64.0,925.0,221.0,443.99999999993634,36.5
1602662320.2544,64.0,925.0,226.0,443.99999999993634,36.5
1602662320.6518,64.0,925.0,238.0,443.99999999993634,36.56
1602662320.6526,64.0,925.0,251.0,443.99999999993634,36.56
1602662320.6551,64.0,925.0,253.0,443.99999999993634,36.56
1602662320.6577,64.0,925.0,243.0,443.99999999993634,36.56
1602662320.6597,64.0,925.0,238.0,443.99999999993634,36.56
1602662320.6617,64.0,925.0,231.0,443.99999999993634,36.56
1602662320.6639,64.0,925.0,207.0,443.99999999993634,36.56
1602662320.6656,64.0,925.0,173.0,443.99999999993634,36.56
1602662320.6677,64.0,925.0,148.0,443.99999999993634,36.56
1602662320.6697,64.0,925.0,126.0,443.99999999993634,36.56
1602662320.6717,64.0,925.0,95.0,443.99999999993634,36.56
1602662320.6736,64.0,925.0,65.0,443.99999999993634,36.56
1602662320.6756,64.0,925.0,53.0,443.99999999993634,36.56
1602662320.6776,64.0,925.0,46.0,443.99999999993634,36.56
1602662320.6796,64.0,925.0,38.0,443.99999999993634,36.56
1602662320.6816,64.0,925.0,38.0,443.99999999993634,36.56
1602662320.6836,64.0,925.0,41.0,443.99999999993634,36.56
1602662320.6856,64.0,925.0,36.0,443.99999999993634,36.56
1602662320.6863,64.0,925.0,34.0,443.99999999993634,36.56
1602662320.6886,64.0,925.0,38.0,443.99999999993634,36.56
1602662320.6906,64.0,925.0,46.0,443.99999999993634,36.56
1602662320.6926,64.0,925.0,51.0,443.99999999993634,36.56
1602662320.6946,64.0,925.0,58.0,443.99999999993634,36.56
1602662320.6966,64.0,925.0,60.0,444.01413053920396,36.56
1602662320.6986,64.0,925.0,63.0,444.0268191867094,36.56
1602662320.7006,64.0,925.0,75.0,444.0380950715795,36.56
1602662320.7026,64.0,925.0,85.0,444.04798732294057,36.56
1602662320.7048,64.0,925.0,92.0,444.0565250699191,36.56
1602662320.7066,64.0,925.0,92.0,444.0637374416417,36.56
1602662320.7086,64.0,925.0,85.0,444.0696535672349,36.56
1602662320.7106,64.0,925.0,92.0,444.0743025758251,36.56
1602662320.7126,64.0,925.0,102.0,444.07771359653873,36.56
1602662320.7146,64.0,925.0,102.0,444.0799157585026,36.56
1602662320.7166,64.0,925.0,102.0,444.08093819084286,36.56
1602662320.7173,64.0,925.0,102.0,444.08081002268625,36.56
1602662320.7196,64.0,925.0,95.0,444.0795603831592,36.56
1602662320.7216,64.0,925.0,95.0,444.0772184013882,36.56
1602662320.7236,64.0,925.0,102.0,444.0738132064997,36.56
1602662320.7256,64.0,925.0,102.0,444.0693739276204,36.56
1602662320.7276,64.0,925.0,99.0,444.0639296938766,36.56
1602662320.7296,64.0,925.0,104.0,444.05750963439505,36.56
1602662320.7316,64.0,925.0,107.0,444.0501428783019,36.56
1602662320.7336,64.0,925.0,102.0,444.04185855472394,36.56
1602662320.7357,64.0,925.0,95.0,444.03268579278756,36.56
1602662320.7376,64.0,925.0,87.0,444.02265372161924,36.56
1602662320.7396,64.0,925.0,85.0,444.01179147034554,36.56
1602662320.7416,64.0,925.0,104.0,444.00012816809306,36.56
1602662320.7436,64.0,925.0,121.0,443.9876929439881,36.56
1602662320.7455,64.0,925.0,102.0,443.9745149271573,36.56
1602662320.7476,64.0,925.0,85.0,443.9606232467271,36.56
1602662320.7483,64.0,925.0,97.0,443.94604703182404,36.56
1602662320.7506,64.0,925.0,109.0,443.9308154115747,36.56
1602662320.7526,64.0,925.0,104.0,443.91495751510547,36.56
1602662320.7546,64.0,925.0,102.0,443.8985024715429,36.56
1602662320.7566,64.0,925.0,104.0,443.8814794100134,36.56
1602662320.7587,64.0,925.0,102.0,443.86391745964363,36.56
1602662320.7606,64.0,925.0,102.0,443.84584574956,36.56
1602662320.7626,64.0,925.0,97.0,443.827293408889,36.56
1602662320.7646,64.0,925.0,87.0,443.80828956675725,36.56
1602662320.7666,64.0,925.0,97.0,443.7888633522912,36.56
1602662320.7686,64.0,925.0,114.0,443.7690438946172,36.56
1602662320.7706,64.0,925.0,99.0,443.748860322862,36.56
1602662320.7726,64.0,925.0,80.0,443.72834176615197,36.56
1602662320.7746,64.0,925.0,90.0,443.7075173536135,36.56
1602662320.7766,64.0,925.0,99.0,443.6864162143735,36.56
1602662320.7786,64.0,925.0,99.0,443.66506747755795,36.56
1602662320.787,64.0,925.0,109.0,443.64350027229375,36.56
1602662320.7886,64.0,925.0,126.0,443.6217437277072,36.56
1602662320.7906,64.0,925.0,124.0,443.599826972925,36.56
1602662320.7925,64.0,925.0,109.0,443.57777913707343,36.56
1602662320.7946,64.0,925.0,99.0,443.5556293492791,36.56
1602662320.7966,64.0,925.0,109.0,443.5334067386686,36.56
1602662320.7986,64.0,925.0,116.0,443.51114043436826,36.56
1602662321.1911,64.0,921.0,107.0,443.48885956550475,36.56
1602662321.1916,64.0,921.0,95.0,443.4665932612044,36.56
1602662321.1932,64.0,921.0,87.0,443.44437065059384,36.56
1602662321.1953,64.0,921.0,82.0,443.4222208627996,36.56
1602662321.1973,64.0,921.0,80.0,443.40017302694804,36.56
1602662321.1994,64.0,921.0,75.0,443.37825627216574,36.56
1602662321.2014,64.0,921.0,82.0,443.3564997275792,36.56
1602662321.2033,64.0,921.0,90.0,443.33493252231494,36.56
1602662321.2053,64.0,921.0,51.0,443.31358378549953,36.56
1602662321.2073,64.0,921.0,43.0,443.2924826462594,36.56
1602662321.2093,64.0,921.0,253.0,443.27165823372104,36.56
1602662321.2113,64.0,921.0,633.0,443.2511396770111,36.56
1602662321.2133,64.0,921.0,672.0,443.2309561052558,36.56
1602662321.2141,64.0,921.0,82.0,443.21113664758195,36.56
1602662321.2163,64.0,921.0,-382.0,443.19171043311576,36.56
1602662321.2183,64.0,921.0,-129.0,443.17270659098403,36.56
1602662321.2203,64.0,921.0,155.0,443.154154250313,36.56
1602662321.2223,64.0,921.0,56.0,443.1360825402294,36.56
1602662321.2243,64.0,921.0,14.0,443.1185205898596,36.56
1602662321.2263,64.0,921.0,82.0,443.1014975283301,36.56
1602662321.2283,64.0,921.0,68.0,443.08504248476754,36.56
1602662321.2303,64.0,921.0,73.0,443.0691845882983,36.56
1602662321.2323,64.0,921.0,116.0,443.05395296804886,36.56
1602662321.2343,64.0,921.0,107.0,443.0393767531458,36.56
1602662321.2363,64.0,921.0,92.0,443.0254850727157,36.56
1602662321.2383,64.0,921.0,109.0,443.0123070558849,36.56
1602662321.2403,64.0,921.0,114.0,442.99987183177996,36.56
1602662321.2423,64.0,921.0,97.0,442.98820852952736,36.56
1602662321.2443,64.0,921.0,109.0,442.97734627825366,36.56
1602662321.245,64.0,921.0,121.0,442.96731420708545,36.56
1602662321.2473,64.0,921.0,112.0,442.95814144514907,36.56
1602662321.2494,64.0,921.0,109.0,442.949857121571,36.56
1602662321.2513,64.0,921.0,126.0,442.94249036547797,36.56
1602662321.2533,64.0,921.0,134.0,442.9360703059963,36.56
1602662321.2553,64.0,921.0,136.0,442.9306260722525,36.56
1602662321.2573,64.0,921.0,153.0,442.9261867933732,36.56
1602662321.2593,64.0,921.0,168.0,442.9227815984848,36.56
1602662321.2614,64.0,921.0,160.0,442.9204396167138,36.56
1602662321.2633,64.0,921.0,151.0,442.91918997718665,36.56
1602662321.2653,64.0,921.0,168.0,442.91906180903004,36.56
1602662321.2673,64.0,921.0,185.0,442.92008424137043,36.56
1602662321.2693,64.0,921.0,187.0,442.92228640333417,36.56
1602662321.2713,64.0,921.0,197.0,442.9256974240478,36.56
1602662321.2733,64.0,921.0,204.0,442.9303464326381,36.56
1602662321.2754,64.0,921.0,204.0,442.9362625582312,36.56
1602662321.276,64.0,921.0,216.0,442.9434749299538,36.56
1602662321.2773,64.0,921.0,226.0,442.95201267693244,36.56
1602662321.2793,64.0,921.0,212.0,442.9619049282934,36.56
1602662321.2813,64.0,921.0,212.0,442.9731808131635,36.56
1602662321.2833,64.0,921.0,224.0,442.98586946066905,36.56
1602662321.2853,64.0,921.0,194.0,442.99999999993656,36.56
1602662321.2873,64.0,921.0,158.0,442.99999999993656,36.56
1602662321.2893,64.0,921.0,146.0,442.99999999993656,36.56
1602662321.2913,64.0,921.0,121.0,442.99999999993656,36.56
1602662321.2933,64.0,921.0,82.0,442.99999999993656,36.56
1602662321.2953,64.0,921.0,60.0,442.99999999993656,36.56
1602662321.2974,64.0,921.0,56.0,442.99999999993656,36.56
1602662321.2993,64.0,921.0,46.0,442.99999999993656,36.56
1602662321.3013,64.0,921.0,34.0,442.99999999993656,36.56
1602662321.3033,64.0,921.0,24.0,442.99999999993656,36.56
1602662321.3053,64.0,921.0,26.0,442.99999999993656,36.56
1602662321.306,64.0,921.0,29.0,442.99999999993656,36.56
1602662321.3073,64.0,921.0,26.0,442.99999999993656,36.56
1602662321.3093,64.0,921.0,24.0,442.99999999993656,36.56
1602662321.3113,64.0,921.0,26.0,442.99999999993656,36.56
1602662321.3133,64.0,921.0,34.0,442.99999999993656,36.56
1602662321.3153,64.0,921.0,36.0,442.99999999993656,36.56
1602662321.3173,64.0,921.0,34.0,442.99999999993656,36.56
1602662321.3193,64.0,921.0,51.0,442.99999999993656,36.56
1602662321.3213,64.0,921.0,68.0,442.99999999993656,36.56
1602662321.3233,64.0,921.0,58.0,442.99999999993656,36.56
1602662321.3253,64.0,921.0,63.0,442.99999999993656,36.56
1602662321.3273,64.0,921.0,87.0,442.99999999993656,36.56
1602662321.7615,64.0,921.0,90.0,442.99999999993656,36.56
1602662321.7624,64.0,921.0,75.0,442.99999999993656,36.56
1602662321.7649,64.0,921.0,70.0,442.99999999993656,36.56
1602662321.7675,64.0,921.0,73.0,442.99999999993656,36.56
1602662321.7681,64.0,921.0,75.0,442.99999999993656,36.56
1602662321.7705,64.0,921.0,73.0,442.99999999993656,36.56
1602662321.7725,64.0,921.0,68.0,442.99999999993656,36.56
1602662321.7744,64.0,921.0,70.0,442.99999999993656,36.56
1602662321.7764,64.0,921.0,70.0,442.99999999993656,36.56
1602662321.7784,64.0,921.0,58.0,442.99999999993656,36.56
1602662321.7804,64.0,921.0,60.0,442.99999999993656,36.56
1602662321.7824,64.0,921.0,85.0,442.99999999993656,36.56
1602662321.7844,64.0,921.0,95.0,442.99999999993656,36.56
1602662321.7864,64.0,921.0,77.0,442.99999999993656,36.56
1602662321.7883,64.0,921.0,65.0,442.99999999993656,36.56
1602662321.7903,64.0,921.0,73.0,442.99999999993656,36.56
1602662321.7923,64.0,921.0,80.0,442.99999999993656,36.56
1602662321.7944,64.0,921.0,77.0,442.99999999993656,36.56
1602662321.7963,64.0,921.0,77.0,442.99999999993656,36.56
1602662321.7984,64.0,921.0,77.0,442.99999999993656,36.56
1602662321.7991,64.0,921.0,73.0,442.99999999993656,36.56
1602662321.8003,64.0,921.0,80.0,442.99999999993656,36.56
1602662321.8024,64.0,921.0,90.0,442.99999999993656,36.56
1602662321.8044,64.0,921.0,85.0,443.0141305392041,36.56
1602662321.8063,64.0,921.0,77.0,443.02681918670953,36.56
1602662321.8084,64.0,921.0,80.0,443.0380950715796,36.56
1602662321.8104,64.0,921.0,80.0,443.0479873229407,36.56
1602662321.8125,64.0,921.0,80.0,443.0565250699192,36.56
1602662321.8144,64.0,921.0,75.0,443.0637374416418,36.56
1602662321.8163,64.0,921.0,75.0,443.06965356723504,36.56
1602662321.8184,64.0,921.0,85.0,443.0743025758252,36.56
1602662321.8204,64.0,921.0,90.0,443.07771359653884,36.56
1602662321.8224,64.0,921.0,85.0,443.0799157585027,36.56
1602662321.8244,64.0,921.0,77.0,443.08093819084297,36.56
1602662321.8265,64.0,921.0,82.0,443.08081002268636,36.56
1602662321.8284,64.0,921.0,87.0,443.07956038315933,36.56
1602662321.8291,64.0,921.0,75.0,443.07721840138834,36.56
1602662321.8314,64.0,921.0,70.0,443.07381320649984,36.56
1602662321.8334,64.0,921.0,80.0,443.0693739276205,36.56
1602662321.8354,64.0,921.0,87.0,443.06392969387673,36.56
1602662321.8374,64.0,921.0,82.0,443.05750963439505,36.56
1602662321.8393,64.0,921.0,75.0,443.05014287830204,36.56
1602662321.8414,64.0,921.0,85.0,443.04185855472406,36.56
1602662321.8434,64.0,921.0,109.0,443.0326857927877,36.56
1602662321.8454,64.0,921.0,126.0,443.02265372161935,36.56
1602662321.8473,64.0,921.0,119.0,443.01179147034566,36.56
1602662321.8494,64.0,921.0,90.0,443.00012816809317,36.56
1602662321.8514,64.0,921.0,77.0,442.98769294398824,36.56
1602662321.8534,64.0,921.0,99.0,442.97451492715743,36.56
1602662321.8554,64.0,921.0,109.0,442.9606232467272,36.56
1602662321.8574,64.0,921.0,80.0,442.94604703182415,36.56
1602662321.8581,64.0,921.0,58.0,442.9308154115748,36.56
1602662321.8594,64.0,921.0,60.0,442.9149575151056,36.56
1602662321.8614,64.0,921.0,63.0,442.8985024715429,36.56
1602662321.8633,64.0,921.0,60.0,442.8814794100134,36.56
1602662321.8654,64.0,921.0,58.0,442.86391745964363,36.56
1602662321.8673,64.0,921.0,56.0,442.84584574956,36.56
1602662321.8694,64.0,921.0,73.0,442.8272934088891,36.56
1602662321.8714,64.0,921.0,73.0,442.80828956675725,36.56
1602662321.8734,64.0,921.0,58.0,442.7888633522912,36.56
1602662321.8753,64.0,921.0,165.0,442.7690438946173,36.56
1602662321.8774,64.0,921.0,467.0,442.748860322862,36.56
1602662321.8794,64.0,921.0,660.0,442.72834176615197,36.56
1602662321.8814,64.0,921.0,297.0,442.70751735361364,36.56
1602662321.8834,64.0,921.0,-277.0,442.6864162143735,36.56
1602662321.8854,64.0,921.0,-251.0,442.66506747755807,36.56
1602662321.8874,64.0,921.0,97.0,442.64350027229386,36.56
1602662321.8881,64.0,921.0,95.0,442.6217437277074,36.56
1602662321.8894,64.0,921.0,0.0,442.59982697292514,36.56
1602662321.8914,64.0,921.0,70.0,442.5777791370736,36.56
1602662321.8935,64.0,921.0,92.0,442.5556293492793,36.56
1602662321.8954,64.0,921.0,51.0,442.5334067386687,36.56
1602662321.8973,64.0,921.0,68.0,442.5111404343684,36.56
1602662322.3012,64.0,918.0,87.0,442.4888595655048,36.56
1602662322.3021,64.0,918.0,77.0,442.4665932612045,36.56
1602662322.3045,64.0,918.0,82.0,442.4443706505939,36.56
1602662322.3071,64.0,918.0,90.0,442.4222208627996,36.56
1602662322.3091,64.0,918.0,90.0,442.40017302694804,36.56
1602662322.3112,64.0,918.0,87.0,442.37825627216574,36.56
1602662322.3132,64.0,918.0,80.0,442.35649972757926,36.56
1602662322.3138,64.0,918.0,80.0,442.33493252231506,36.56
1602662322.316,64.0,918.0,97.0,442.31358378549965,36.56
1602662322.318,64.0,918.0,109.0,442.29248264625954,36.56
1602662322.3202,64.0,918.0,102.0,442.2716582337212,36.56
1602662322.3221,64.0,918.0,99.0,442.25113967701117,36.56
1602662322.3242,64.0,918.0,109.0,442.2309561052559,36.56
1602662322.326,64.0,918.0,119.0,442.211136647582,36.56
1602662322.328,64.0,918.0,124.0,442.1917104331159,36.56
1602662322.33,64.0,918.0,129.0,442.17270659098415,36.56
1602662322.332,64.0,918.0,141.0,442.1541542503131,36.56
1602662322.3341,64.0,918.0,151.0,442.1360825402296,36.56
1602662322.3361,64.0,918.0,165.0,442.1185205898597,36.56
1602662322.3381,64.0,918.0,173.0,442.10149752833036,36.56
1602662322.34,64.0,918.0,180.0,442.08504248476777,36.56
1602662322.3421,64.0,918.0,185.0,442.0691845882984,36.56
1602662322.3441,64.0,918.0,187.0,442.0539529680491,36.56
1602662322.346,64.0,918.0,187.0,442.05350729241354,36.56
1602662322.3481,64.0,918.0,185.0,442.0523042594889,36.56
1602662322.35,64.0,918.0,187.0,442.0504021275282,36.56
1602662322.352,64.0,918.0,190.0,442.0478591547842,36.56
1602662322.354,64.0,918.0,177.0,442.0447335995103,36.56
1602662322.356,64.0,918.0,158.0,442.04108371995926,36.56
1602662322.358,64.0,918.0,141.0,442.03696777438404,36.56
1602662322.36,64.0,918.0,114.0,442.0324440210379,36.56
1602662322.362,64.0,918.0,82.0,442.0275707181736,36.56
1602662322.364,64.0,918.0,56.0,442.0224061240443,36.56
1602662322.366,64.0,918.0,36.0,442.0170084969029,36.56
1602662322.368,64.0,918.0,19.0,442.0114360950025,36.56
1602662322.37,64.0,918.0,12.0,442.0057471765962,36.56
1602662322.372,64.0,918.0,12.0,441.9999999999367,36.56
1602662322.374,64.0,918.0,4.0,441.9942528232773,36.56
1602662322.376,64.0,918.0,4.0,441.98856390487094,36.56
1602662322.378,64.0,918.0,9.0,441.98299150297055,36.56
1602662322.38,64.0,918.0,4.0,441.97759387582914,36.56
1602662322.382,64.0,918.0,4.0,441.9724292816999,36.56
1602662322.384,64.0,918.0,21.0,441.96755597883555,36.56
1602662322.386,64.0,918.0,38.0,441.9630322254894,36.56
1602662322.388,64.0,918.0,38.0,441.9589162799142,36.56
1602662322.39,64.0,918.0,26.0,441.95526640036314,36.56
1602662322.392,64.0,918.0,24.0,441.95214084508916,36.56
1602662322.3941,64.0,918.0,34.0,441.9495978723453,36.56
1602662322.396,64.0,918.0,43.0,441.9476957403846,36.56
1602662322.398,64.0,918.0,43.0,441.9464927074599,36.56
1602662322.4,64.0,918.0,41.0,441.9460470318244,36.56
1602662322.402,64.0,918.0,38.0,441.93081541157494,36.56
1602662322.404,64.0,918.0,48.0,441.9149575151057,36.56
1602662322.406,64.0,918.0,70.0,441.8985024715431,36.56
1602662322.408,64.0,918.0,77.0,441.88147941001364,36.56
1602662322.41,64.0,918.0,70.0,441.86391745964386,36.56
1602662322.412,64.0,918.0,65.0,441.8458457495602,36.56
1602662322.4141,64.0,918.0,65.0,441.8272934088893,36.56
1602662322.416,64.0,918.0,60.0,441.8082895667575,36.56
1602662322.418,64.0,918.0,56.0,441.7888633522914,36.56
1602662322.42,64.0,918.0,56.0,441.7690438946175,36.56
1602662322.422,64.0,918.0,56.0,441.74886032286224,36.56
1602662322.4241,64.0,918.0,60.0,441.7283417661522,36.56
1602662322.4262,64.0,918.0,60.0,441.70751735361387,36.56
1602662322.4281,64.0,918.0,56.0,441.6864162143737,36.56
1602662322.43,64.0,918.0,56.0,441.66506747755824,36.56
1602662322.432,64.0,918.0,56.0,441.64350027229403,36.56
1602662322.4341,64.0,918.0,48.0,441.62174372770755,36.56
1602662322.436,64.0,918.0,46.0,441.5998269729253,36.56
1602662322.438,64.0,918.0,48.0,441.5777791370738,36.56
1602662322.44,64.0,918.0,48.0,441.55562934927946,36.56
1602662322.442,64.0,918.0,51.0,441.5334067386689,36.56
1602662322.444,64.0,918.0,51.0,441.51114043436854,36.56
1602662322.9602,65.0,920.0,48.0,441.488859565505,36.56
1602662322.961,65.0,920.0,53.0,441.46659326120465,36.56
1602662322.9628,65.0,920.0,60.0,441.4443706505941,36.56
1602662322.9648,65.0,920.0,56.0,441.4222208627998,36.56
1602662322.9668,65.0,920.0,38.0,441.40017302694827,36.56
1602662322.9688,65.0,920.0,36.0,441.37825627216597,36.56
1602662322.9708,65.0,920.0,43.0,441.35649972757943,36.56
1602662322.9728,65.0,920.0,41.0,441.3349325223152,36.56
1602662322.9749,65.0,920.0,41.0,441.3135837854998,36.56
1602662322.9768,65.0,920.0,46.0,441.29248264625966,36.56
1602662322.9788,65.0,920.0,46.0,441.2716582337213,36.56
1602662322.9808,65.0,920.0,46.0,441.2511396770113,36.56
1602662322.9828,65.0,920.0,56.0,441.2309561052561,36.56
1602662322.9848,65.0,920.0,63.0,441.2111366475821,36.56
1602662322.9867,65.0,920.0,53.0,441.19171043311604,36.56
1602662322.9887,65.0,920.0,48.0,441.1727065909843,36.56
1602662322.9907,65.0,920.0,58.0,441.1541542503133,36.56
1602662322.9927,65.0,920.0,51.0,441.13608254022967,36.56
1602662322.9948,65.0,920.0,38.0,441.1185205898599,36.56
1602662322.9968,65.0,920.0,46.0,441.1014975283304,36.56
1602662322.9987,65.0,920.0,65.0,441.0850424847678,36.56
1602662323.0008,65.0,920.0,82.0,441.0691845882986,36.56
1602662323.0028,65.0,920.0,90.0,441.05395296804915,36.56
1602662323.0047,65.0,920.0,80.0,441.0535072924137,36.56
1602662323.0067,65.0,920.0,70.0,441.05230425948906,36.56
1602662323.0087,65.0,920.0,73.0,441.05040212752823,36.56
1602662323.0107,65.0,920.0,65.0,441.04785915478436,36.56
1602662323.0127,65.0,920.0,48.0,441.0447335995104,36.56
1602662323.0147,65.0,920.0,43.0,441.0410837199593,36.56
1602662323.0167,65.0,920.0,51.0,441.0369677743842,36.56
1602662323.0187,65.0,920.0,48.0,441.032444021038,36.56
1602662323.0207,65.0,920.0,29.0,441.02757071817376,36.56
1602662323.0227,65.0,920.0,26.0,441.0224061240444,36.56
1602662323.0247,65.0,920.0,51.0,441.0170084969031,36.56
1602662323.0267,65.0,920.0,58.0,441.0114360950027,36.56
1602662323.0287,65.0,920.0,48.0,441.00574717659623,36.56
1602662323.0307,65.0,920.0,29.0,440.99999999993685,36.56
1602662323.0327,65.0,920.0,63.0,440.99425282327746,36.56
1602662323.0347,65.0,920.0,299.0,440.988563904871,36.56
1602662323.0367,65.0,920.0,650.0,440.9829915029706,36.56
1602662323.0387,65.0,920.0,575.0,440.9775938758293,36.56
1602662323.0408,65.0,920.0,-97.0,440.97242928169993,36.56
1602662323.0427,65.0,920.0,-485.0,440.9675559788357,36.56
1602662323.0447,65.0,920.0,-141.0,440.9630322254895,36.56
1602662323.0467,65.0,920.0,104.0,440.9589162799144,36.56
1602662323.0487,65.0,920.0,-2.0,440.9552664003633,36.56
1602662323.0507,65.0,920.0,9.0,440.95214084508933,36.56
1602662323.0527,65.0,920.0,90.0,440.94959787234546,36.56
1602662323.0547,65.0,920.0,65.0,440.94769574038475,36.56
1602662323.0567,65.0,920.0,38.0,440.9464927074601,36.56
1602662323.0587,65.0,920.0,53.0,440.94604703182455,36.56
1602662323.0607,65.0,920.0,56.0,440.9308154115751,36.56
1602662323.0627,65.0,920.0,53.0,440.91495751510587,36.56
1602662323.0647,65.0,920.0,63.0,440.8985024715433,36.56
1602662323.0667,65.0,920.0,70.0,440.8814794100138,36.56
1602662323.0687,65.0,920.0,77.0,440.86391745964403,36.56
1602662323.0707,65.0,920.0,85.0,440.8458457495604,36.56
1602662323.0727,65.0,920.0,77.0,440.8272934088894,36.56
1602662323.0747,65.0,920.0,73.0,440.80828956675765,36.56
1602662323.0767,65.0,920.0,87.0,440.78886335229157,36.56
1602662323.0787,65.0,920.0,99.0,440.7690438946176,36.56
1602662323.0807,65.0,920.0,102.0,440.7488603228624,36.56
1602662323.0827,65.0,920.0,109.0,440.72834176615237,36.56
1602662323.0847,65.0,920.0,121.0,440.70751735361404,36.56
1602662323.0867,65.0,920.0,129.0,440.6864162143739,36.56
1602662323.0887,65.0,920.0,129.0,440.66506747755847,36.56
1602662323.0907,65.0,920.0,131.0,440.64350027229426,36.56
1602662323.0927,65.0,920.0,146.0,440.6217437277077,36.56
1602662323.0947,65.0,920.0,163.0,440.59982697292554,36.56
1602662323.0967,65.0,920.0,165.0,440.57777913707395,36.56
1602662323.0987,65.0,920.0,168.0,440.5556293492796,36.56
1602662323.1007,65.0,920.0,182.0,440.53340673866904,36.56
1602662323.1027,65.0,920.0,202.0,440.5111404343687,36.56
1602662323.4708,65.0,920.0,207.0,440.4888595655051,36.56
1602662323.4715,65.0,920.0,204.0,440.46659326120476,36.56
1602662323.474,65.0,920.0,204.0,440.4443706505942,36.56
1602662323.4765,65.0,920.0,202.0,440.4222208627999,36.56
1602662323.4785,65.0,920.0,199.0,440.4001730269484,36.56
1602662323.4805,65.0,920.0,194.0,440.3782562721661,36.56
1602662323.4829,65.0,920.0,165.0,440.3564997275796,36.56
1602662323.4847,65.0,920.0,124.0,440.3349325223154,36.56
1602662323.4866,65.0,920.0,102.0,440.3135837855,36.56
1602662323.4885,65.0,920.0,77.0,440.2924826462599,36.56
1602662323.4905,65.0,920.0,46.0,440.27165823372155,36.56
1602662323.4925,65.0,920.0,26.0,440.2511396770115,36.56
1602662323.4946,65.0,920.0,19.0,440.23095610525627,36.56
1602662323.4965,65.0,920.0,0.0,440.21113664758235,36.56
1602662323.4986,65.0,920.0,-12.0,440.19171043311627,36.56
1602662323.5005,65.0,920.0,-12.0,440.1727065909845,36.56
1602662323.5025,65.0,920.0,-19.0,440.1541542503135,36.56
1602662323.5045,65.0,920.0,-21.0,440.1360825402299,36.56
1602662323.5065,65.0,920.0,-19.0,440.1185205898601,36.56
1602662323.5087,65.0,920.0,-19.0,440.10149752833064,36.56
1602662323.5106,65.0,920.0,-21.0,440.085042484768,36.56
1602662323.5125,65.0,920.0,-17.0,440.06918458829875,36.56
1602662323.5146,65.0,920.0,-2.0,440.0539529680494,36.56
1602662323.5165,65.0,920.0,7.0,440.08176837094885,36.56
1602662323.5185,65.0,920.0,14.0,440.1059426330353,36.56
1602662323.5205,65.0,920.0,24.0,440.12659227081457,36.56
1602662323.5225,65.0,920.0,29.0,440.14383380079283,36.56
1602662323.5246,65.0,920.0,31.0,440.15778373947603,36.56
1602662323.5265,65.0,920.0,36.0,440.1685586033702,36.56
1602662323.5285,65.0,920.0,43.0,440.1762749089813,36.56
1602662323.5305,65.0,920.0,48.0,440.18104917281545,36.56
1602662323.5325,65.0,920.0,51.0,440.18299791137866,36.56
1602662323.5345,65.0,920.0,53.0,440.18223764117687,36.56
1602662323.5365,65.0,920.0,60.0,440.17888487871613,36.56
1602662323.5385,65.0,920.0,63.0,440.1730561405025,36.56
1602662323.5405,65.0,920.0,58.0,440.164867943042,36.56
1602662323.5425,65.0,920.0,53.0,440.1544368028406,36.56
1602662323.5445,65.0,920.0,51.0,440.14187923640435,36.56
1602662323.5465,65.0,920.0,56.0,440.12731176023925,36.56
1602662323.5485,65.0,920.0,65.0,440.11085089085134,36.56
1602662323.5505,65.0,920.0,65.0,440.0926131447466,36.56
1602662323.5525,65.0,920.0,56.0,440.07271503843117,36.56
1602662323.5545,65.0,920.0,51.0,440.05127308841094,36.56
1602662323.5565,65.0,920.0,53.0,440.02840381119194,36.56
1602662323.5585,65.0,920.0,51.0,440.00422372328023,36.56
1602662323.5605,65.0,920.0,53.0,439.97884934118184,36.56
1602662323.5625,65.0,920.0,53.0,439.9523971814028,36.56
1602662323.5645,65.0,920.0,48.0,439.924983760449,36.56
1602662323.5666,65.0,920.0,48.0,439.89672559482665,36.56
1602662323.5685,65.0,920.0,56.0,439.8677392010416,36.56
1602662323.5705,65.0,920.0,63.0,439.8381410956,36.56
1602662323.5725,65.0,920.0,60.0,439.7924462348518,36.56
1602662323.5745,65.0,920.0,51.0,439.744872545444,36.56
1602662323.5765,65.0,920.0,58.0,439.6955074147562,36.56
1602662323.5785,65.0,920.0,63.0,439.6444382301679,36.56
1602662323.5805,65.0,920.0,56.0,439.5917523790585,36.56
1602662323.5825,65.0,920.0,63.0,439.53753724880767,36.56
1602662323.5845,65.0,920.0,70.0,439.4818802267948,36.56
1602662323.5865,65.0,920.0,65.0,439.42486870039943,36.56
1602662323.5885,65.0,920.0,60.0,439.36659005700113,36.56
1602662323.5905,65.0,920.0,65.0,439.3071316839794,36.56
1602662323.5925,65.0,920.0,70.0,439.2465809687137,36.56
1602662323.5945,65.0,920.0,65.0,439.1850252985836,36.56
1602662323.5965,65.0,920.0,58.0,439.1225520609686,36.56
1602662323.5985,65.0,920.0,53.0,439.05924864324817,36.56
1602662323.6005,65.0,920.0,53.0,438.9952024328019,36.56
1602662323.6025,65.0,920.0,63.0,438.9305008170092,36.56
1602662323.6045,65.0,920.0,73.0,438.8652311832497,36.56
1602662323.6065,65.0,920.0,73.0,438.7994809189029,36.56
1602662323.6085,65.0,920.0,90.0,438.73333741134826,36.56
1602662323.6107,65.0,920.0,99.0,438.6668880479653,36.56
1602662323.6126,65.0,920.0,87.0,438.6002202161336,36.56
1602662323.6145,65.0,920.0,80.0,438.5334213032326,36.56
1602662324.0109,65.0,971.0,85.0,438.4665786966418,36.56
1602662324.0116,65.0,971.0,75.0,438.3997797837409,36.56
1602662324.0141,65.0,971.0,58.0,438.33311195190913,36.56
1602662324.0167,65.0,971.0,48.0,438.2666625885262,36.56
1602662324.0188,65.0,971.0,53.0,438.2005190809716,36.56
1602662324.0207,65.0,971.0,58.0,438.13476881662484,36.56
1602662324.0227,65.0,971.0,51.0,438.06949918286534,36.56
1602662324.0247,65.0,971.0,46.0,438.0047975670727,36.56
1602662324.0266,65.0,971.0,53.0,437.9407513566264,36.56
1602662324.0286,65.0,971.0,56.0,437.877447938906,36.56
1602662324.0306,65.0,971.0,34.0,437.814974701291,36.56
1602662324.0326,65.0,971.0,12.0,437.7534190311609,36.56
1602662324.0346,65.0,971.0,90.0,437.6928683158952,36.56
1602662324.0366,65.0,971.0,385.0,437.6334099428734,36.56
1602662324.0386,65.0,971.0,675.0,437.57513129947506,36.56
1602662324.0406,65.0,971.0,424.0,437.5181197730798,36.56
1602662324.0426,65.0,971.0,-241.0,437.4624627510668,36.56
1602662324.0446,65.0,971.0,-380.0,437.4082476208159,36.56
1602662324.0466,65.0,971.0,9.0,437.3555617697066,36.56
1602662324.0486,65.0,971.0,99.0,437.3044925851183,36.56
1602662324.0506,65.0,971.0,-26.0,437.2551274544304,36.56
1602662324.0526,65.0,971.0,24.0,437.2075537650227,36.56
1602662324.0546,65.0,971.0,70.0,437.1618589042745,36.56
1602662324.0566,65.0,971.0,29.0,437.14639133810033,36.56
1602662324.0586,65.0,971.0,38.0,437.1300935918209,36.56
1602662324.0606,65.0,971.0,73.0,437.11311131106856,36.56
1602662324.0626,65.0,971.0,65.0,437.0955901414758,36.56
1602662324.0646,65.0,971.0,65.0,437.07767572867533,36.56
1602662324.0666,65.0,971.0,73.0,437.0595137182995,36.56
1602662324.0686,65.0,971.0,65.0,437.04124975598097,36.56
1602662324.0706,65.0,971.0,70.0,437.02302948735223,36.56
1602662324.0726,65.0,971.0,82.0,437.0049985580457,36.56
1602662324.0746,65.0,971.0,77.0,436.98730261369394,36.56
1602662324.0766,65.0,971.0,73.0,436.97008729992956,36.56
1602662324.0786,65.0,971.0,87.0,436.953498262385,36.56
1602662324.0806,65.0,971.0,102.0,436.93768114669285,36.56
1602662324.0826,65.0,971.0,104.0,436.9227815984857,36.56
1602662324.0846,65.0,971.0,102.0,436.9089452633958,36.56
1602662324.0866,65.0,971.0,104.0,436.896317787056,36.56
1602662324.0886,65.0,971.0,114.0,436.8850448150986,36.56
1602662324.0906,65.0,971.0,129.0,436.87527199315616,36.56
1602662324.0926,65.0,971.0,131.0,436.86714496686136,36.56
1602662324.0946,65.0,971.0,129.0,436.8608093818465,36.56
1602662324.0966,65.0,971.0,146.0,436.8564108837443,36.56
1602662324.0986,65.0,971.0,165.0,436.85409511818716,36.56
1602662324.1006,65.0,971.0,170.0,436.85400773080767,36.56
1602662324.1026,65.0,971.0,180.0,436.8562943672382,36.56
1602662324.1046,65.0,971.0,194.0,436.86110067311154,36.56
1602662324.1069,65.0,971.0,199.0,436.8685722940601,36.56
1602662324.1086,65.0,971.0,187.0,436.87885487571623,36.56
1602662324.1106,65.0,971.0,182.0,436.89209406371276,36.56
1602662324.1126,65.0,971.0,192.0,436.861630823214,36.56
1602662324.1146,65.0,971.0,192.0,436.8299150302754,36.56
1602662324.1166,65.0,971.0,170.0,436.7970049431502,36.56
1602662324.1186,65.0,971.0,141.0,436.7629588200913,36.56
1602662324.1206,65.0,971.0,112.0,436.7278349193517,36.56
1602662324.1226,65.0,971.0,85.0,436.69169149918446,36.56
1602662324.1246,65.0,971.0,63.0,436.6545868178425,36.56
1602662324.1266,65.0,971.0,41.0,436.61657913357897,36.56
1602662324.1286,65.0,971.0,21.0,436.5777267046468,36.56
1602662324.1306,65.0,971.0,9.0,436.53808778929897,36.56
1602662324.1326,65.0,971.0,7.0,436.4977206457885,36.56
1602662324.1346,65.0,971.0,4.0,436.4566835323684,36.56
1602662324.1366,65.0,971.0,-2.0,436.41503470729174,36.56
1602662324.1386,65.0,971.0,-4.0,436.3728324288114,36.56
1602662324.1406,65.0,971.0,0.0,436.3301349551806,36.56
1602662324.1426,65.0,971.0,4.0,436.2870005446522,36.56
1602662324.1446,65.0,971.0,2.0,436.2434874554792,36.56
1602662324.1466,65.0,971.0,7.0,436.19965394591475,36.56
1602662324.1486,65.0,971.0,12.0,436.15555827421167,36.56
1602662324.1506,65.0,971.0,17.0,436.11125869862303,36.56
1602662324.1526,65.0,971.0,21.0,436.06681347740187,36.56
1602662324.1546,65.0,971.0,26.0,436.02228086880126,36.56
1602662324.5807,65.0,971.0,24.0,435.97771913107414,36.56
1602662324.5815,65.0,971.0,26.0,435.9331865224735,36.56
1602662324.584,65.0,971.0,38.0,435.8887413012523,36.56
1602662324.5865,65.0,971.0,51.0,435.84444172566367,36.56
1602662324.5885,65.0,971.0,48.0,435.80034605396054,36.56
1602662324.5905,65.0,971.0,41.0,435.75651254439595,36.56
1602662324.5926,65.0,971.0,46.0,435.7129994552229,36.56
1602662324.5946,65.0,971.0,41.0,435.66986504469446,36.56
1602662324.5965,65.0,971.0,31.0,435.6271675710636,36.56
1602662324.5985,65.0,971.0,38.0,435.5849652925833,36.56
1602662324.6005,65.0,971.0,48.0,435.54331646750666,36.56
1602662324.6025,65.0,971.0,43.0,435.50227935408657,36.56
1602662324.6044,65.0,971.0,38.0,435.46191221057614,36.56
1602662324.6065,65.0,971.0,36.0,435.4222732952283,36.56
1602662324.6085,65.0,971.0,36.0,435.3834208662961,36.56
1602662324.6104,65.0,971.0,36.0,435.34541318203253,36.56
1602662324.6124,65.0,971.0,38.0,435.3083085006906,36.56
1602662324.6144,65.0,971.0,43.0,435.27216508052334,36.56
1602662324.6164,65.0,971.0,38.0,435.2370411797838,36.56
1602662324.6185,65.0,971.0,36.0,435.2029950567249,36.56
1602662324.6204,65.0,971.0,41.0,435.17008496959966,36.56
1602662324.6224,65.0,971.0,46.0,435.1383691766611,36.56
1602662324.6245,65.0,971.0,43.0,435.10790593616235,36.56
1602662324.6264,65.0,971.0,38.0,435.07875350635624,36.56
1602662324.6284,65.0,971.0,38.0,435.0509701454959,36.56
1602662324.6305,65.0,971.0,43.0,435.0246141118343,36.56
1602662324.6326,65.0,971.0,43.0,434.99974366362443,36.56
1602662324.6345,65.0,971.0,41.0,434.9764170591193,36.56
1602662324.6364,65.0,971.0,46.0,434.95469255657196,36.56
1602662324.6384,65.0,971.0,51.0,434.9346284142354,36.56
1602662324.6404,65.0,971.0,48.0,434.91628289036265,36.56
1602662324.6425,65.0,971.0,46.0,434.89971424320663,36.56
1602662324.6444,65.0,971.0,51.0,434.88498073102045,36.56
1602662324.6464,65.0,971.0,48.0,434.87214061205714,36.56
1602662324.6484,65.0,971.0,46.0,434.8612521445696,36.56
1602662324.6504,65.0,971.0,43.0,434.8523735868109,36.56
1602662324.6524,65.0,971.0,43.0,434.8455631970341,36.56
1602662324.6545,65.0,971.0,53.0,434.8408792334921,36.56
1602662324.6564,65.0,971.0,51.0,434.838379954438,36.56
1602662324.6584,65.0,971.0,43.0,434.8381236181247,36.56
1602662324.6605,65.0,971.0,48.0,434.8401684828054,36.56
1602662324.6625,65.0,971.0,51.0,434.8445728067329,36.56
1602662324.6645,65.0,971.0,43.0,434.85139484816034,36.56
1602662324.6665,65.0,971.0,46.0,434.8606928653407,36.56
1602662324.6684,65.0,971.0,46.0,434.872525116527,36.56
1602662324.6704,65.0,971.0,46.0,434.8869498599722,36.56
1602662324.6724,65.0,971.0,56.0,434.9040253539294,36.56
1602662324.6745,65.0,971.0,63.0,434.9238098566515,36.56
1602662324.6764,65.0,971.0,80.0,434.9463616263916,36.56
1602662324.6785,65.0,971.0,99.0,434.9717389214026,36.56
1602662324.6804,65.0,971.0,87.0,434.99999999993764,36.56
1602662324.6824,65.0,971.0,65.0,434.99999999993764,36.56
1602662324.6845,65.0,971.0,77.0,434.99999999993764,36.56
1602662324.6864,65.0,971.0,87.0,434.99999999993764,36.56
1602662324.6884,65.0,971.0,70.0,434.99999999993764,36.56
1602662324.6904,65.0,971.0,51.0,434.99999999993764,36.56
1602662324.6925,65.0,971.0,43.0,434.99999999993764,36.56
1602662324.6945,65.0,971.0,43.0,434.99999999993764,36.56
1602662324.6964,65.0,971.0,48.0,434.99999999993764,36.56
1602662324.6984,65.0,971.0,46.0,434.99999999993764,36.56
1602662324.7005,65.0,971.0,41.0,434.99999999993764,36.56
1602662324.7025,65.0,971.0,56.0,434.99999999993764,36.56
1602662324.7044,65.0,971.0,58.0,434.99999999993764,36.56
1602662324.7064,65.0,971.0,31.0,434.99999999993764,36.56
1602662324.7084,65.0,971.0,56.0,434.99999999993764,36.56
1602662324.7104,65.0,971.0,260.0,434.99999999993764,36.56
1602662324.7124,65.0,971.0,597.0,434.99999999993764,36.56
1602662324.7144,65.0,971.0,611.0,434.99999999993764,36.56
1602662324.7164,65.0,971.0,34.0,434.99999999993764,36.56
1602662324.7184,65.0,971.0,-402.0,434.99999999993764,36.56
1602662324.7204,65.0,971.0,-138.0,434.99999999993764,36.56
1602662324.7225,65.0,971.0,114.0,434.99999999993764,36.56
1602662324.7245,65.0,971.0,9.0,434.99999999993764,36.56
1602662325.1512,65.0,972.0,-7.0,434.99999999993764,36.56
1602662325.1519,65.0,972.0,70.0,434.99999999993764,36.56
1602662325.1543,65.0,972.0,51.0,434.99999999993764,36.56
1602662325.157,65.0,972.0,36.0,434.99999999993764,36.56
1602662325.1592,65.0,972.0,56.0,434.99999999993764,36.56
1602662325.161,65.0,972.0,56.0,434.99999999993764,36.56
1602662325.163,65.0,972.0,53.0,434.99999999993764,36.56
1602662325.165,65.0,972.0,65.0,434.99999999993764,36.56
1602662325.1669,65.0,972.0,63.0,434.99999999993764,36.56
1602662325.1689,65.0,972.0,53.0,434.99999999993764,36.56
1602662325.1709,65.0,972.0,56.0,434.99999999993764,36.56
1602662325.1729,65.0,972.0,63.0,434.99999999993764,36.56
1602662325.1749,65.0,972.0,73.0,434.99999999993764,36.56
1602662325.1769,65.0,972.0,77.0,434.99999999993764,36.56
1602662325.1789,65.0,972.0,80.0,434.99999999993764,36.56
1602662325.1809,65.0,972.0,80.0,434.99999999993764,36.56
1602662325.1829,65.0,972.0,87.0,434.99999999993764,36.56
1602662325.185,65.0,972.0,95.0,434.99999999993764,36.56
1602662325.187,65.0,972.0,99.0,434.99999999993764,36.56
1602662325.1889,65.0,972.0,107.0,434.99999999993764,36.56
1602662325.1909,65.0,972.0,109.0,434.99999999993764,36.56
1602662325.1929,65.0,972.0,116.0,434.99999999993764,36.56
1602662325.195,65.0,972.0,134.0,434.99999999993764,36.56
1602662325.1969,65.0,972.0,143.0,435.02826107847267,36.56
1602662325.1989,65.0,972.0,143.0,435.05363837348375,36.56
1602662325.201,65.0,972.0,148.0,435.0761901432238,36.56
1602662325.203,65.0,972.0,165.0,435.09597464594594,36.56
1602662325.2049,65.0,972.0,173.0,435.1130501399031,36.56
1602662325.2069,65.0,972.0,165.0,435.1274748833483,36.56
1602662325.2089,65.0,972.0,165.0,435.1393071345346,36.56
1602662325.2109,65.0,972.0,175.0,435.14860515171495,36.56
1602662325.2129,65.0,972.0,170.0,435.1554271931424,36.56
1602662325.215,65.0,972.0,155.0,435.1598315170699,36.56
1602662325.2169,65.0,972.0,138.0,435.1618763817506,36.56
1602662325.2189,65.0,972.0,121.0,435.1616200454373,36.56
1602662325.2209,65.0,972.0,95.0,435.1591207663832,36.56
1602662325.2229,65.0,972.0,65.0,435.15443680284125,36.56
1602662325.225,65.0,972.0,43.0,435.14762641306436,36.56
1602662325.2269,65.0,972.0,26.0,435.1387478553057,36.56
1602662325.2289,65.0,972.0,4.0,435.1278593878182,36.56
1602662325.2309,65.0,972.0,-4.0,435.11501926885484,36.56
1602662325.2329,65.0,972.0,-2.0,435.10028575666865,36.56
1602662325.2349,65.0,972.0,-2.0,435.0837171095127,36.56
1602662325.2369,65.0,972.0,-2.0,435.0653715856399,36.56
1602662325.2389,65.0,972.0,-2.0,435.04530744330333,36.56
1602662325.2409,65.0,972.0,-4.0,435.023582940756,36.56
1602662325.2429,65.0,972.0,-2.0,435.0002563362509,36.56
1602662325.245,65.0,972.0,2.0,434.97538588804105,36.56
1602662325.2469,65.0,972.0,4.0,434.94902985437943,36.56
1602662325.2489,65.0,972.0,9.0,434.92124649351905,36.56
1602662325.2509,65.0,972.0,12.0,434.892094063713,36.56
1602662325.2529,65.0,972.0,9.0,434.86163082321417,36.56
1602662325.2549,65.0,972.0,14.0,434.82991503027563,36.56
1602662325.2569,65.0,972.0,21.0,434.79700494315045,36.56
1602662325.2589,65.0,972.0,29.0,434.7629588200915,36.56
1602662325.2611,65.0,972.0,31.0,434.72783491935195,36.56
1602662325.263,65.0,972.0,31.0,434.6916914991847,36.56
1602662325.2649,65.0,972.0,38.0,434.65458681784276,36.56
1602662325.2669,65.0,972.0,41.0,434.6165791335792,36.56
1602662325.2689,65.0,972.0,34.0,434.577726704647,36.56
1602662325.2709,65.0,972.0,34.0,434.53808778929914,36.56
1602662325.2729,65.0,972.0,36.0,434.49772064578866,36.56
1602662325.275,65.0,972.0,29.0,434.4566835323686,36.56
1602662325.2769,65.0,972.0,26.0,434.4150347072919,36.56
1602662325.2789,65.0,972.0,31.0,434.37283242881165,36.56
1602662325.2809,65.0,972.0,34.0,434.3301349551808,36.56
1602662325.2829,65.0,972.0,34.0,434.2870005446524,36.56
1602662325.285,65.0,972.0,31.0,434.24348745547945,36.56
1602662325.2869,65.0,972.0,29.0,434.1996539459149,36.56
1602662325.2889,65.0,972.0,34.0,434.15555827421184,36.56
1602662325.2909,65.0,972.0,31.0,434.1112586986232,36.56
1602662325.2929,65.0,972.0,24.0,434.06681347740204,36.56
1602662325.295,65.0,972.0,21.0,434.0222808688014,36.56
1602662325.6913,65.0,972.0,31.0,433.97771913107425,36.56
1602662325.6923,65.0,972.0,34.0,433.9331865224736,36.56
1602662325.6947,65.0,972.0,34.0,433.8887413012525,36.56
1602662325.6974,65.0,972.0,34.0,433.8444417256639,36.56
1602662325.6994,65.0,972.0,29.0,433.8003460539608,36.56
1602662325.7014,65.0,972.0,21.0,433.7565125443963,36.56
1602662325.7035,65.0,972.0,24.0,433.71299945522327,36.56
1602662325.7053,65.0,972.0,24.0,433.66986504469486,36.56
1602662325.7073,65.0,972.0,21.0,433.627167571064,36.56
1602662325.7093,65.0,972.0,14.0,433.5849652925837,36.56
1602662325.7113,65.0,972.0,7.0,433.54331646750705,36.56
1602662325.7133,65.0,972.0,12.0,433.50227935408697,36.56
1602662325.7153,65.0,972.0,19.0,433.46191221057654,36.56
1602662325.7172,65.0,972.0,14.0,433.4222732952287,36.56
1602662325.7192,65.0,972.0,12.0,433.3834208662965,36.56
1602662325.7212,65.0,972.0,19.0,433.3454131820329,36.56
1602662325.7233,65.0,972.0,21.0,433.308308500691,36.56
1602662325.7253,65.0,972.0,21.0,433.27216508052373,36.56
1602662325.7272,65.0,972.0,19.0,433.2370411797841,36.56
1602662325.7293,65.0,972.0,21.0,433.20299505672523,36.56
1602662325.7313,65.0,972.0,24.0,433.1700849696,36.56
1602662325.7333,65.0,972.0,24.0,433.1383691766615,36.56
1602662325.7352,65.0,972.0,26.0,433.1079059361627,36.56
1602662325.7373,65.0,972.0,29.0,433.10701458489166,36.56
1602662325.7393,65.0,972.0,21.0,433.10460851904236,36.56
1602662325.7412,65.0,972.0,24.0,433.1008042551208,36.56
1602662325.7433,65.0,972.0,38.0,433.09571830963307,36.56
1602662325.7452,65.0,972.0,36.0,433.0894671990851,36.56
1602662325.7472,65.0,972.0,31.0,433.082167439983,36.56
1602662325.7493,65.0,972.0,60.0,433.0739355488327,36.56
1602662325.7513,65.0,972.0,87.0,433.0648880421403,36.56
1602662325.7533,65.0,972.0,70.0,433.05514143641176,36.56
1602662325.7553,65.0,972.0,48.0,433.04481224815316,36.56
1602662325.7574,65.0,972.0,48.0,433.0340169938704,36.56
1602662325.7593,65.0,972.0,58.0,433.0228721900697,36.56
1602662325.7612,65.0,972.0,58.0,433.01149435325686,36.56
1602662325.7632,65.0,972.0,48.0,432.99999999993804,36.56
1602662325.7652,65.0,972.0,31.0,432.9885056466192,36.56
1602662325.7672,65.0,972.0,24.0,432.9771278098064,36.56
1602662325.7693,65.0,972.0,31.0,432.9659830060056,36.56
1602662325.7712,65.0,972.0,34.0,432.9551877517229,36.56
1602662325.7733,65.0,972.0,31.0,432.9448585634643,36.56
1602662325.7752,65.0,972.0,36.0,432.9351119577358,36.56
1602662325.7773,65.0,972.0,43.0,432.9260644510434,36.56
1602662325.7793,65.0,972.0,26.0,432.9178325598931,36.56
1602662325.7813,65.0,972.0,31.0,432.910532800791,36.56
1602662325.7834,65.0,972.0,209.0,432.904281690243,36.56
1602662325.7854,65.0,972.0,567.0,432.8991957447553,36.56
1602662325.7872,65.0,972.0,633.0,432.8953914808337,36.56
1602662325.7893,65.0,972.0,48.0,432.8929854149844,36.56
1602662325.7913,65.0,972.0,-470.0,432.8920940637134,36.56
1602662325.7932,65.0,972.0,-226.0,432.86163082321457,36.56
1602662325.7953,65.0,972.0,87.0,432.8299150302761,36.56
1602662325.7972,65.0,972.0,7.0,432.79700494315085,36.56
1602662325.7992,65.0,972.0,-17.0,432.76295882009197,36.56
1602662325.8013,65.0,972.0,60.0,432.7278349193524,36.56
1602662325.8033,65.0,972.0,38.0,432.69169149918514,36.56
1602662325.8053,65.0,972.0,21.0,432.6545868178432,36.56
1602662325.8073,65.0,972.0,48.0,432.61657913357965,36.56
1602662325.8093,65.0,972.0,46.0,432.57772670464743,36.56
1602662325.8113,65.0,972.0,41.0,432.5380877892996,36.56
1602662325.8133,65.0,972.0,53.0,432.4977206457891,36.56
1602662325.8152,65.0,972.0,60.0,432.456683532369,36.56
1602662325.8173,65.0,972.0,58.0,432.41503470729236,36.56
1602662325.8192,65.0,972.0,60.0,432.37283242881205,36.56
1602662325.8212,65.0,972.0,65.0,432.3301349551812,36.56
1602662325.8233,65.0,972.0,68.0,432.28700054465276,36.56
1602662325.8253,65.0,972.0,73.0,432.2434874554798,36.56
1602662325.8273,65.0,972.0,82.0,432.19965394591526,36.56
1602662325.8293,65.0,972.0,85.0,432.1555582742122,36.56
1602662325.8313,65.0,972.0,85.0,432.11125869862354,36.56
1602662325.8333,65.0,972.0,90.0,432.0668134774024,36.56
1602662325.8353,65.0,972.0,104.0,432.0222808688017,36.56
1602662326.2913,65.0,950.0,109.0,431.9777191310746,36.5
1602662326.2922,65.0,950.0,107.0,431.93318652247393,36.5
1602662326.2947,65.0,950.0,119.0,431.8887413012528,36.5
1602662326.2972,65.0,950.0,129.0,431.84444172566424,36.5
1602662326.2992,65.0,950.0,134.0,431.80034605396116,36.5
1602662326.3013,65.0,950.0,143.0,431.75651254439657,36.5
1602662326.3034,65.0,950.0,151.0,431.7129994552236,36.5
1602662326.3052,65.0,950.0,148.0,431.6698650446951,36.5
1602662326.3072,65.0,950.0,158.0,431.62716757106426,36.5
1602662326.3092,65.0,950.0,170.0,431.58496529258395,36.5
1602662326.3112,65.0,950.0,165.0,431.5433164675073,36.5
1602662326.3135,65.0,950.0,160.0,431.5022793540872,36.5
1602662326.3153,65.0,950.0,160.0,431.4619122105768,36.5
1602662326.3172,65.0,950.0,155.0,431.422273295229,36.5
1602662326.3192,65.0,950.0,138.0,431.3834208662967,36.5
1602662326.3212,65.0,950.0,109.0,431.34541318203316,36.5
1602662326.3232,65.0,950.0,82.0,431.3083085006912,36.5
1602662326.3252,65.0,950.0,56.0,431.27216508052396,36.5
1602662326.3272,65.0,950.0,31.0,431.2370411797844,36.5
1602662326.3292,65.0,950.0,17.0,431.20299505672546,36.5
1602662326.3312,65.0,950.0,7.0,431.1700849696003,36.5
1602662326.3332,65.0,950.0,-4.0,431.1383691766618,36.5
1602662326.3352,65.0,950.0,-14.0,431.1079059361629,36.5
1602662326.3372,65.0,950.0,-14.0,431.09288404562443,36.5
1602662326.3392,65.0,950.0,-17.0,431.07778933226956,36.5
1602662326.3412,65.0,950.0,-21.0,431.06270918347803,36.5
1602662326.3432,65.0,950.0,-21.0,431.04773098662923,36.5
1602662326.3452,65.0,950.0,-19.0,431.03294212910265,36.5
1602662326.3472,65.0,950.0,-19.0,431.0184299982779,36.5
1602662326.3492,65.0,950.0,-12.0,431.00428198153446,36.5
1602662326.3512,65.0,950.0,-2.0,430.99058546625196,36.5
1602662326.3532,65.0,950.0,7.0,430.97742783980965,36.5
1602662326.3552,65.0,950.0,7.0,430.96489648958726,36.5
1602662326.3572,65.0,950.0,2.0,430.95307880296417,36.5
1602662326.3592,65.0,950.0,4.0,430.9420621673201,36.5
1602662326.3612,65.0,950.0,17.0,430.9319339700343,36.5
1602662326.3633,65.0,950.0,26.0,430.92278159848655,36.5
1602662326.3652,65.0,950.0,24.0,430.91469244005606,36.5
1602662326.3672,65.0,950.0,24.0,430.9077538821227,36.5
1602662326.3692,65.0,950.0,31.0,430.9020533120657,36.5
1602662326.3712,65.0,950.0,36.0,430.89767811726455,36.5
1602662326.3732,65.0,950.0,31.0,430.894715685099,36.5
1602662326.3752,65.0,950.0,26.0,430.89325340294846,36.5
1602662326.3772,65.0,950.0,29.0,430.8933786581925,36.5
1602662326.3792,65.0,950.0,31.0,430.8951788382105,36.5
1602662326.3812,65.0,950.0,34.0,430.89874133038205,36.5
1602662326.3832,65.0,950.0,31.0,430.9041535220866,36.5
1602662326.3852,65.0,950.0,24.0,430.9115028007038,36.5
1602662326.3872,65.0,950.0,24.0,430.920876553613,36.5
1602662326.3892,65.0,950.0,24.0,430.93236216819395,36.5
1602662326.3912,65.0,950.0,14.0,430.9460470318259,36.5
1602662326.3931,65.0,950.0,19.0,430.9308154115766,36.5
1602662326.3952,65.0,950.0,29.0,430.91495751510723,36.5
1602662326.3972,65.0,950.0,26.0,430.89850247154465,36.5
1602662326.3992,65.0,950.0,29.0,430.8814794100152,36.5
1602662326.4012,65.0,950.0,38.0,430.8639174596454,36.5
1602662326.4032,65.0,950.0,29.0,430.84584574956176,36.5
1602662326.4053,65.0,950.0,14.0,430.82729340889085,36.5
1602662326.4073,65.0,950.0,19.0,430.808289566759,36.5
1602662326.4093,65.0,950.0,31.0,430.78886335229294,36.5
1602662326.4113,65.0,950.0,26.0,430.7690438946191,36.5
1602662326.4132,65.0,950.0,14.0,430.7488603228638,36.5
1602662326.4154,65.0,950.0,12.0,430.72834176615373,36.5
1602662326.4173,65.0,950.0,19.0,430.7075173536154,36.5
1602662326.4192,65.0,950.0,26.0,430.68641621437536,36.5
1602662326.4212,65.0,950.0,29.0,430.66506747755994,36.5
1602662326.4232,65.0,950.0,31.0,430.64350027229574,36.5
1602662326.4252,65.0,950.0,34.0,430.6217437277092,36.5
1602662326.4272,65.0,950.0,36.0,430.5998269729269,36.5
1602662326.4292,65.0,950.0,31.0,430.5777791370754,36.5
1602662326.4312,65.0,950.0,24.0,430.5556293492811,36.5
1602662326.4332,65.0,950.0,26.0,430.5334067386705,36.5
1602662326.4352,65.0,950.0,36.0,430.5111404343702,36.5
1602662326.8311,65.0,950.0,41.0,430.4888595655066,36.5
1602662326.8318,65.0,950.0,36.0,430.46659326120624,36.5
1602662326.8343,65.0,950.0,34.0,430.44437065059566,36.5
1602662326.8369,65.0,950.0,46.0,430.42222086280134,36.5
1602662326.8389,65.0,950.0,53.0,430.4001730269498,36.5
1602662326.8408,65.0,950.0,68.0,430.3782562721675,36.5
1602662326.843,65.0,950.0,87.0,430.3564997275811,36.5
1602662326.8449,65.0,950.0,77.0,430.3349325223169,36.5
1602662326.8468,65.0,950.0,63.0,430.31358378550146,36.5
1602662326.8489,65.0,950.0,70.0,430.2924826462613,36.5
1602662326.8509,65.0,950.0,73.0,430.271658233723,36.5
1602662326.8528,65.0,950.0,51.0,430.25113967701293,36.5
1602662326.8549,65.0,950.0,31.0,430.23095610525775,36.5
1602662326.8568,65.0,950.0,26.0,430.21113664758377,36.5
1602662326.8588,65.0,950.0,29.0,430.1917104331177,36.5
1602662326.8609,65.0,950.0,26.0,430.17270659098585,36.5
1602662326.8628,65.0,950.0,31.0,430.15415425031495,36.5
1602662326.8648,65.0,950.0,43.0,430.1360825402313,36.5
1602662326.8669,65.0,950.0,51.0,430.11852058986153,36.5
1602662326.8688,65.0,950.0,38.0,430.10149752833206,36.5
1602662326.8708,65.0,950.0,14.0,430.0850424847695,36.5
1602662326.8728,65.0,950.0,36.0,430.06918458830023,36.5
1602662326.8749,65.0,950.0,248.0,430.0539529680508,36.5
1602662326.8768,65.0,950.0,606.0,430.0676378316829,36.5
1602662326.8789,65.0,950.0,609.0,430.0791234462637,36.5
1602662326.8808,65.0,950.0,-24.0,430.08849719917293,36.5
1602662326.8828,65.0,950.0,-477.0,430.09584647779013,36.5
1602662326.8848,65.0,950.0,-173.0,430.10125866949477,36.5
1602662326.8868,65.0,950.0,114.0,430.10482116166634,36.5
1602662326.8889,65.0,950.0,4.0,430.10662134168433,36.5
1602662326.8909,65.0,950.0,-12.0,430.10674659692825,36.5
1602662326.8928,65.0,950.0,73.0,430.1052843147777,36.5
1602662326.8949,65.0,950.0,46.0,430.10232188261216,36.5
1602662326.8968,65.0,950.0,26.0,430.09794668781115,36.5
1602662326.8988,65.0,950.0,63.0,430.09224611775414,36.5
1602662326.9008,65.0,950.0,68.0,430.08530755982065,36.5
1602662326.9029,65.0,950.0,51.0,430.07721840139027,36.5
1602662326.9048,65.0,950.0,53.0,430.0680660298425,36.5
1602662326.9069,65.0,950.0,63.0,430.0579378325567,36.5
1602662326.9088,65.0,950.0,70.0,430.04692119691254,36.5
1602662326.911,65.0,950.0,75.0,430.03510351028956,36.5
1602662326.9129,65.0,950.0,77.0,430.02257216006717,36.5
1602662326.9149,65.0,950.0,80.0,430.00941453362486,36.5
1602662326.9168,65.0,950.0,77.0,429.99571801834225,36.5
1602662326.9188,65.0,950.0,82.0,429.9815700015988,36.5
1602662326.9208,65.0,950.0,92.0,429.96705787077417,36.5
1602662326.9228,65.0,950.0,97.0,429.9522690132476,36.5
1602662326.9249,65.0,950.0,102.0,429.9372908163988,36.5
1602662326.9269,65.0,950.0,116.0,429.92221066760726,36.5
1602662326.9288,65.0,950.0,121.0,429.9071159542524,36.5
1602662326.9308,65.0,950.0,119.0,429.8920940637138,36.5
1602662326.9328,65.0,950.0,126.0,429.861630823215,36.5
1602662326.9348,65.0,950.0,136.0,429.82991503027654,36.5
1602662326.9368,65.0,950.0,148.0,429.79700494315136,36.5
1602662326.9389,65.0,950.0,165.0,429.7629588200924,36.5
1602662326.9408,65.0,950.0,170.0,429.72783491935286,36.5
1602662326.9428,65.0,950.0,173.0,429.6916914991856,36.5
1602662326.9449,65.0,950.0,185.0,429.65458681784366,36.5
1602662326.9468,65.0,950.0,187.0,429.6165791335801,36.5
1602662326.9488,65.0,950.0,180.0,429.57772670464794,36.5
1602662326.9508,65.0,950.0,180.0,429.5380877893001,36.5
1602662326.9528,65.0,950.0,182.0,429.4977206457896,36.5
1602662326.9548,65.0,950.0,170.0,429.45668353236954,36.5
1602662326.9568,65.0,950.0,146.0,429.4150347072929,36.5
1602662326.9588,65.0,950.0,119.0,429.37283242881256,36.5
1602662326.9609,65.0,950.0,92.0,429.33013495518173,36.5
1602662326.9628,65.0,950.0,63.0,429.2870005446533,36.5
1602662326.9649,65.0,950.0,41.0,429.24348745548036,36.5
1602662326.9668,65.0,950.0,21.0,429.19965394591577,36.5
1602662326.9688,65.0,950.0,9.0,429.1555582742127,36.5
1602662326.9708,65.0,950.0,-4.0,429.11125869862406,36.5
1602662326.9728,65.0,950.0,-9.0,429.0668134774029,36.5
1602662326.9749,65.0,950.0,-12.0,429.0222808688022,36.5
1602662327.3711,65.0,987.0,-12.0,428.97771913107505,36.56
1602662327.3718,65.0,987.0,-7.0,428.9331865224744,36.56
1602662327.3737,65.0,987.0,-2.0,428.8887413012533,36.56
1602662327.3755,65.0,987.0,-2.0,428.84444172566464,36.56
1602662327.3775,65.0,987.0,-2.0,428.80034605396156,36.56
1602662327.3795,65.0,987.0,-2.0,428.756512544397,36.56
1602662327.3815,65.0,987.0,2.0,428.712999455224,36.56
1602662327.3835,65.0,987.0,9.0,428.66986504469554,36.56
1602662327.3854,65.0,987.0,9.0,428.6271675710647,36.56
1602662327.3875,65.0,987.0,9.0,428.58496529258446,36.56
1602662327.3894,65.0,987.0,12.0,428.5433164675078,36.56
1602662327.3914,65.0,987.0,14.0,428.5022793540877,36.56
1602662327.3935,65.0,987.0,19.0,428.4619122105772,36.56
1602662327.3941,65.0,987.0,19.0,428.4222732952294,36.56
1602662327.3964,65.0,987.0,24.0,428.3834208662972,36.56
1602662327.3984,65.0,987.0,31.0,428.3454131820336,36.56
1602662327.4005,65.0,987.0,34.0,428.30830850069174,36.56
1602662327.4024,65.0,987.0,34.0,428.2721650805245,36.56
1602662327.4046,65.0,987.0,34.0,428.23704117978485,36.56
1602662327.4065,65.0,987.0,31.0,428.20299505672597,36.56
1602662327.4084,65.0,987.0,31.0,428.1700849696008,36.56
1602662327.4104,65.0,987.0,36.0,428.13836917666225,36.56
1602662327.4124,65.0,987.0,38.0,428.10790593616343,36.56
1602662327.4145,65.0,987.0,31.0,428.0928840456249,36.56
1602662327.4164,65.0,987.0,26.0,428.0777893322701,36.56
1602662327.4185,65.0,987.0,31.0,428.0627091834785,36.56
1602662327.4204,65.0,987.0,36.0,428.0477309866297,36.56
1602662327.4224,65.0,987.0,38.0,428.03294212910316,36.56
1602662327.4245,65.0,987.0,38.0,428.0184299982784,36.56
1602662327.4251,65.0,987.0,36.0,428.00428198153503,36.56
1602662327.4274,65.0,987.0,34.0,427.9905854662524,36.56
1602662327.4295,65.0,987.0,31.0,427.97742783981016,36.56
1602662327.4314,65.0,987.0,24.0,427.9648964895878,36.56
1602662327.4335,65.0,987.0,21.0,427.95307880296474,36.56
1602662327.4354,65.0,987.0,34.0,427.94206216732056,36.56
1602662327.4374,65.0,987.0,38.0,427.93193397003483,36.56
1602662327.4394,65.0,987.0,31.0,427.922781598487,36.56
1602662327.4414,65.0,987.0,26.0,427.91469244005657,36.56
1602662327.4435,65.0,987.0,34.0,427.90775388212313,36.56
1602662327.4454,65.0,987.0,36.0,427.90205331206613,36.56
1602662327.4474,65.0,987.0,29.0,427.89767811726506,36.56
1602662327.4494,65.0,987.0,29.0,427.8947156850995,36.56
1602662327.4514,65.0,987.0,31.0,427.893253402949,36.56
1602662327.4534,65.0,987.0,24.0,427.89337865819294,36.56
1602662327.4555,65.0,987.0,19.0,427.89517883821094,36.56
1602662327.4562,65.0,987.0,26.0,427.8987413303825,36.56
1602662327.4584,65.0,987.0,34.0,427.9041535220871,36.56
1602662327.4604,65.0,987.0,34.0,427.9115028007043,36.56
1602662327.4624,65.0,987.0,31.0,427.92087655361354,36.56
1602662327.4645,65.0,987.0,34.0,427.9323621681944,36.56
1602662327.4665,65.0,987.0,36.0,427.9460470318264,36.56
1602662327.4684,65.0,987.0,38.0,427.930815411577,36.56
1602662327.4704,65.0,987.0,36.0,427.91495751510774,36.56
1602662327.4725,65.0,987.0,36.0,427.89850247154516,36.56
1602662327.4745,65.0,987.0,46.0,427.8814794100157,36.56
1602662327.4764,65.0,987.0,60.0,427.8639174596459,36.56
1602662327.4784,65.0,987.0,77.0,427.8458457495623,36.56
1602662327.4804,65.0,987.0,80.0,427.8272934088913,36.56
1602662327.4825,65.0,987.0,63.0,427.8082895667595,36.56
1602662327.4844,65.0,987.0,53.0,427.7888633522934,36.56
1602662327.4865,65.0,987.0,63.0,427.7690438946195,36.56
1602662327.4872,65.0,987.0,68.0,427.74886032286423,36.56
1602662327.4884,65.0,987.0,56.0,427.7283417661542,36.56
1602662327.4904,65.0,987.0,41.0,427.70751735361586,36.56
1602662327.4924,65.0,987.0,36.0,427.6864162143757,36.56
1602662327.4944,65.0,987.0,43.0,427.6650674775602,36.56
1602662327.4964,65.0,987.0,48.0,427.643500272296,36.56
1602662327.4984,65.0,987.0,38.0,427.62174372770954,36.56
1602662327.5004,65.0,987.0,34.0,427.59982697292725,36.56
1602662327.5026,65.0,987.0,48.0,427.5777791370757,36.56
1602662327.5045,65.0,987.0,41.0,427.55562934928145,36.56
1602662327.5064,65.0,987.0,24.0,427.53340673867086,36.56
1602662327.5084,65.0,987.0,131.0,427.51114043437053,36.56
1602662327.9411,65.0,1000.0,455.0,427.48885956550697,36.56
1602662327.9422,65.0,1000.0,682.0,427.46659326120664,36.56
1602662327.9437,65.0,1000.0,314.0,427.44437065059606,36.56
1602662327.9456,65.0,1000.0,-309.0,427.42222086280174,36.56
1602662327.9476,65.0,1000.0,-311.0,427.4001730269502,36.56
1602662327.9496,65.0,1000.0,48.0,427.3782562721679,36.56
1602662327.9516,65.0,1000.0,56.0,427.3564997275815,36.56
1602662327.9535,65.0,1000.0,-48.0,427.3349325223173,36.56
1602662327.9555,65.0,1000.0,24.0,427.31358378550186,36.56
1602662327.9575,65.0,1000.0,48.0,427.2924826462617,36.56
1602662327.9595,65.0,1000.0,12.0,427.2716582337234,36.56
1602662327.9615,65.0,1000.0,29.0,427.2511396770133,36.56
1602662327.9636,65.0,1000.0,43.0,427.23095610525814,36.56
1602662327.9655,65.0,1000.0,36.0,427.2111366475843,36.56
1602662327.9674,65.0,1000.0,43.0,427.1917104331181,36.56
1602662327.9695,65.0,1000.0,51.0,427.17270659098637,36.56
1602662327.9715,65.0,1000.0,53.0,427.15415425031534,36.56
1602662327.9722,65.0,1000.0,60.0,427.1360825402318,36.56
1602662327.9745,65.0,1000.0,65.0,427.11852058986193,36.56
1602662327.9765,65.0,1000.0,70.0,427.1014975283326,36.56
1602662327.9785,65.0,1000.0,68.0,427.08504248477,36.56
1602662327.9805,65.0,1000.0,73.0,427.06918458830074,36.56
1602662327.9825,65.0,1000.0,87.0,427.0539529680513,36.56
1602662327.9845,65.0,1000.0,90.0,427.03937675314825,36.56
1602662327.9865,65.0,1000.0,87.0,427.025485072718,36.56
1602662327.9885,65.0,1000.0,92.0,427.0123070558872,36.56
1602662327.9905,65.0,1000.0,97.0,426.9998718317823,36.56
1602662327.9927,65.0,1000.0,102.0,426.9882085295298,36.56
1602662327.9945,65.0,1000.0,112.0,426.9773462782561,36.56
1602662327.9965,65.0,1000.0,119.0,426.9673142070878,36.56
1602662327.9985,65.0,1000.0,126.0,426.9581414451514,36.56
1602662328.0005,65.0,1000.0,136.0,426.9498571215734,36.56
1602662328.0012,65.0,1000.0,143.0,426.9424903654804,36.56
1602662328.0036,65.0,1000.0,153.0,426.9360703059987,36.56
1602662328.0055,65.0,1000.0,155.0,426.93062607225494,36.56
1602662328.0075,65.0,1000.0,160.0,426.9261867933756,36.56
1602662328.0095,65.0,1000.0,170.0,426.9227815984871,36.56
1602662328.0115,65.0,1000.0,168.0,426.9204396167161,36.56
1602662328.0135,65.0,1000.0,155.0,426.9191899771891,36.56
1602662328.0155,65.0,1000.0,148.0,426.9190618090325,36.56
1602662328.0175,65.0,1000.0,141.0,426.92008424137276,36.56
1602662328.0195,65.0,1000.0,116.0,426.9222864033366,36.56
1602662328.0214,65.0,1000.0,90.0,426.92569742405027,36.56
1602662328.0235,65.0,1000.0,68.0,426.93034643264053,36.56
1602662328.0255,65.0,1000.0,48.0,426.93626255823364,36.56
1602662328.0274,65.0,1000.0,29.0,426.94347492995627,36.56
1602662328.0295,65.0,1000.0,12.0,426.95201267693477,36.56
1602662328.0317,65.0,1000.0,-7.0,426.96190492829584,36.56
1602662328.0323,65.0,1000.0,-17.0,426.9731808131659,36.56
1602662328.0336,65.0,1000.0,-17.0,426.9858694606714,36.56
1602662328.0355,65.0,1000.0,-12.0,426.9999999999389,36.56
1602662328.0375,65.0,1000.0,-4.0,426.9999999999389,36.56
1602662328.0395,65.0,1000.0,0.0,426.9999999999389,36.56
1602662328.0414,65.0,1000.0,-4.0,426.9999999999389,36.56
1602662328.0435,65.0,1000.0,-9.0,426.9999999999389,36.56
1602662328.0455,65.0,1000.0,-2.0,426.9999999999389,36.56
1602662328.0474,65.0,1000.0,4.0,426.9999999999389,36.56
1602662328.0495,65.0,1000.0,4.0,426.9999999999389,36.56
1602662328.0514,65.0,1000.0,2.0,426.9999999999389,36.56
1602662328.0535,65.0,1000.0,9.0,426.9999999999389,36.56
1602662328.0554,65.0,1000.0,17.0,426.9999999999389,36.56
1602662328.0574,65.0,1000.0,19.0,426.9999999999389,36.56
1602662328.0594,65.0,1000.0,24.0,426.9999999999389,36.56
1602662328.0615,65.0,1000.0,36.0,426.9999999999389,36.56
1602662328.0621,65.0,1000.0,38.0,426.9999999999389,36.56
1602662328.0636,65.0,1000.0,31.0,426.9999999999389,36.56
1602662328.0654,65.0,1000.0,29.0,426.9999999999389,36.56
1602662328.0674,65.0,1000.0,36.0,426.9999999999389,36.56
1602662328.0695,65.0,1000.0,38.0,426.9999999999389,36.56
1602662328.0715,65.0,1000.0,31.0,426.9999999999389,36.56
1602662328.0736,65.0,1000.0,29.0,426.9999999999389,36.56
1602662328.0754,65.0,1000.0,34.0,426.9999999999389,36.56
1602662328.0774,65.0,1000.0,38.0,426.9999999999389,36.56
1602662328.4807,65.0,1000.0,38.0,426.9999999999389,36.56
1602662328.4818,65.0,1000.0,38.0,426.9999999999389,36.56
1602662328.4841,65.0,1000.0,41.0,426.9999999999389,36.56
1602662328.4867,65.0,1000.0,41.0,426.9999999999389,36.56
1602662328.4887,65.0,1000.0,38.0,426.9999999999389,36.56
1602662328.4907,65.0,1000.0,41.0,426.9999999999389,36.56
1602662328.4928,65.0,1000.0,36.0,426.9999999999389,36.56
1602662328.4937,65.0,1000.0,21.0,426.9999999999389,36.56
1602662328.4958,65.0,1000.0,14.0,426.9999999999389,36.56
1602662328.4977,65.0,1000.0,17.0,426.9999999999389,36.56
1602662328.4997,65.0,1000.0,17.0,426.9999999999389,36.56
1602662328.5017,65.0,1000.0,9.0,426.9999999999389,36.56
1602662328.5038,65.0,1000.0,12.0,426.9999999999389,36.56
1602662328.5057,65.0,1000.0,19.0,426.9999999999389,36.56
1602662328.5077,65.0,1000.0,29.0,426.9999999999389,36.56
1602662328.5097,65.0,1000.0,31.0,426.9999999999389,36.56
1602662328.5117,65.0,1000.0,24.0,426.9999999999389,36.56
1602662328.5137,65.0,1000.0,17.0,426.9999999999389,36.56
1602662328.5157,65.0,1000.0,17.0,426.9999999999389,36.56
1602662328.5177,65.0,1000.0,19.0,426.9999999999389,36.56
1602662328.5197,65.0,1000.0,24.0,426.9999999999389,36.56
1602662328.5217,65.0,1000.0,24.0,426.9999999999389,36.56
1602662328.5237,65.0,1000.0,17.0,426.9999999999389,36.56
1602662328.5244,65.0,1000.0,17.0,427.04239161774154,36.56
1602662328.5257,65.0,1000.0,26.0,427.080457560258,36.56
1602662328.5279,65.0,1000.0,21.0,427.1142852148682,36.56
1602662328.5298,65.0,1000.0,17.0,427.1439619689514,36.56
1602662328.5317,65.0,1000.0,24.0,427.1695752098871,36.56
1602662328.5336,65.0,1000.0,24.0,427.1912123250549,36.56
1602662328.5357,65.0,1000.0,21.0,427.2089607018343,36.56
1602662328.5377,65.0,1000.0,26.0,427.2229077276049,36.56
1602662328.5397,65.0,1000.0,29.0,427.2331407897461,36.56
1602662328.5417,65.0,1000.0,29.0,427.2397472756374,36.56
1602662328.5437,65.0,1000.0,31.0,427.24281457265835,36.56
1602662328.5457,65.0,1000.0,46.0,427.2424300681884,36.56
1602662328.5477,65.0,1000.0,68.0,427.2386811496073,36.56
1602662328.5497,65.0,1000.0,70.0,427.2316552042943,36.56
1602662328.5517,65.0,1000.0,56.0,427.22143961962905,36.56
1602662328.5538,65.0,1000.0,48.0,427.208121782991,36.56
1602662328.5544,65.0,1000.0,60.0,427.19178908175974,36.56
1602662328.5557,65.0,1000.0,60.0,427.1725289033147,36.56
1602662328.5577,65.0,1000.0,41.0,427.15042863503544,36.56
1602662328.5597,65.0,1000.0,19.0,427.1255756643015,36.56
1602662328.5617,65.0,1000.0,17.0,427.09805737849234,36.56
1602662328.5637,65.0,1000.0,29.0,427.0679611649875,36.56
1602662328.5657,65.0,1000.0,36.0,427.0353744111665,36.56
1602662328.5677,65.0,1000.0,38.0,427.0003845044088,36.56
1602662328.5697,65.0,1000.0,36.0,426.963078832094,36.56
1602662328.5717,65.0,1000.0,36.0,426.9235447816016,36.56
1602662328.5737,65.0,1000.0,26.0,426.88186974031106,36.56
1602662328.5757,65.0,1000.0,12.0,426.838141095602,36.56
1602662328.5777,65.0,1000.0,114.0,426.7924462348537,36.56
1602662328.5797,65.0,1000.0,433.0,426.74487254544596,36.56
1602662328.5817,65.0,1000.0,677.0,426.6955074147582,36.56
1602662328.5837,65.0,1000.0,324.0,426.6444382301698,36.56
1602662328.5844,65.0,1000.0,-316.0,426.59175237906044,36.56
1602662328.5857,65.0,1000.0,-346.0,426.53753724880954,36.56
1602662328.5877,65.0,1000.0,24.0,426.4818802267967,36.56
1602662328.5897,65.0,1000.0,53.0,426.4248687004013,36.56
1602662328.5917,65.0,1000.0,-43.0,426.36659005700295,36.56
1602662328.5938,65.0,1000.0,24.0,426.30713168398125,36.56
1602662328.5957,65.0,1000.0,53.0,426.2465809687155,36.56
1602662328.5977,65.0,1000.0,17.0,426.18502529858546,36.56
1602662328.5997,65.0,1000.0,31.0,426.12255206097035,36.56
1602662328.6017,65.0,1000.0,48.0,426.05924864325,36.56
1602662328.6037,65.0,1000.0,31.0,425.99520243280364,36.56
1602662328.6057,65.0,1000.0,36.0,425.930500817011,36.56
1602662328.6077,65.0,1000.0,51.0,425.8652311832515,36.56
1602662328.6097,65.0,1000.0,48.0,425.79948091890475,36.56
1602662328.6117,65.0,1000.0,56.0,425.73333741135013,36.56
1602662328.6138,65.0,1000.0,65.0,425.6668880479672,36.56
1602662328.6157,65.0,1000.0,63.0,425.6002202161355,36.56
1602662328.6177,65.0,1000.0,65.0,425.5334213032345,36.56
1602662329.0808,64.0,959.0,75.0,425.46657869664375,36.56
1602662329.0816,64.0,959.0,80.0,425.39977978374276,36.56
1602662329.0841,64.0,959.0,85.0,425.333111951911,36.56
1602662329.087,64.0,959.0,90.0,425.2666625885281,36.56
1602662329.0888,64.0,959.0,75.0,425.20051908097344,36.56
1602662329.0908,64.0,959.0,65.0,425.1347688166266,36.56
1602662329.0928,64.0,959.0,87.0,425.0694991828671,36.56
1602662329.0948,64.0,959.0,112.0,425.00479756707443,36.56
1602662329.0967,64.0,959.0,116.0,424.9407513566282,36.56
1602662329.0988,64.0,959.0,112.0,424.8774479389078,36.56
1602662329.1007,64.0,959.0,121.0,424.8149747012928,36.56
1602662329.1027,64.0,959.0,134.0,424.75341903116265,36.56
1602662329.1047,64.0,959.0,131.0,424.692868315897,36.56
1602662329.1067,64.0,959.0,131.0,424.63340994287523,36.56
1602662329.1087,64.0,959.0,146.0,424.57513129947694,36.56
1602662329.1107,64.0,959.0,153.0,424.5181197730816,36.56
1602662329.1127,64.0,959.0,141.0,424.4624627510687,36.56
1602662329.1147,64.0,959.0,134.0,424.4082476208178,36.56
1602662329.1167,64.0,959.0,134.0,424.35556176970846,36.56
1602662329.1187,64.0,959.0,121.0,424.3044925851201,36.56
1602662329.1207,64.0,959.0,99.0,424.2551274544323,36.56
1602662329.1227,64.0,959.0,80.0,424.2075537650245,36.56
1602662329.1247,64.0,959.0,58.0,424.1618589042763,36.56
1602662329.1266,64.0,959.0,34.0,424.18878295590474,36.56
1602662329.1286,64.0,959.0,14.0,424.2105511521418,36.56
1602662329.1306,64.0,959.0,4.0,424.2273965259996,36.56
1602662329.1326,64.0,959.0,-14.0,424.2395521104901,36.56
1602662329.1346,64.0,959.0,-43.0,424.2472509386253,36.56
1602662329.1366,64.0,959.0,-65.0,424.2507260434174,36.56
1602662329.1386,64.0,959.0,-58.0,424.2502104578782,36.56
1602662329.1407,64.0,959.0,-26.0,424.24593721502,36.56
1602662329.1426,64.0,959.0,-12.0,424.2381393478546,36.56
1602662329.1447,64.0,959.0,-14.0,424.2270498893942,36.56
1602662329.1466,64.0,959.0,-4.0,424.2129018726508,36.56
1602662329.1487,64.0,959.0,4.0,424.1959283306364,36.56
1602662329.1506,64.0,959.0,0.0,424.17636229636304,36.56
1602662329.1526,64.0,959.0,-2.0,424.15443680284284,36.56
1602662329.1546,64.0,959.0,4.0,424.13038488308774,36.56
1602662329.1566,64.0,959.0,4.0,424.10443957010983,36.56
1602662329.1587,64.0,959.0,2.0,424.0768338969212,36.56
1602662329.1606,64.0,959.0,4.0,424.0478008965338,36.56
1602662329.1626,64.0,959.0,12.0,424.01757360195967,36.56
1602662329.1646,64.0,959.0,12.0,423.9863850462109,36.56
1602662329.1666,64.0,959.0,14.0,423.9544682622995,36.56
1602662329.1686,64.0,959.0,19.0,423.9220562832375,36.56
1602662329.1706,64.0,959.0,24.0,423.889382142037,36.56
1602662329.1726,64.0,959.0,24.0,423.85667887170996,36.56
1602662329.1747,64.0,959.0,21.0,423.8241795052685,36.56
1602662329.1767,64.0,959.0,19.0,423.79211707572455,36.56
1602662329.1786,64.0,959.0,21.0,423.7607246160902,36.56
1602662329.1806,64.0,959.0,21.0,423.73023515937757,36.56
1602662329.1826,64.0,959.0,19.0,423.65407705813055,36.56
1602662329.1846,64.0,959.0,9.0,423.5747875757843,36.56
1602662329.1866,64.0,959.0,2.0,423.49251235797124,36.56
1602662329.1888,64.0,959.0,14.0,423.407397050324,36.56
1602662329.1907,64.0,959.0,31.0,423.319587298475,36.56
1602662329.1926,64.0,959.0,38.0,423.2292287480569,36.56
1602662329.1946,64.0,959.0,43.0,423.1364670447021,36.56
1602662329.1966,64.0,959.0,31.0,423.0414478340432,36.56
1602662329.1986,64.0,959.0,12.0,422.9443167617127,36.56
1602662329.2006,64.0,959.0,9.0,422.8452194733431,36.56
1602662329.2026,64.0,959.0,19.0,422.74430161456695,36.56
1602662329.2046,64.0,959.0,19.0,422.64170883101673,36.56
1602662329.2066,64.0,959.0,12.0,422.53758676832507,36.56
1602662329.2087,64.0,959.0,4.0,422.4320810721244,36.56
1602662329.2106,64.0,959.0,2.0,422.3253373880472,36.56
1602662329.2126,64.0,959.0,14.0,422.2175013617262,36.56
1602662329.2147,64.0,959.0,29.0,422.10871863879373,36.56
1602662329.2166,64.0,959.0,24.0,421.99913486488236,36.56
1602662329.2186,64.0,959.0,21.0,421.8888956856247,36.56
1602662329.2206,64.0,959.0,21.0,421.77814674665314,36.56
1602662329.2226,64.0,959.0,14.0,421.6670336936003,36.56
1602662329.2246,64.0,959.0,21.0,421.5557021720986,36.56
1602662329.6511,64.0,959.0,38.0,421.44429782778076,36.56
1602662329.652,64.0,959.0,34.0,421.3329663062791,36.56
1602662329.6544,64.0,959.0,24.0,421.22185325322624,36.56
1602662329.6571,64.0,959.0,21.0,421.11110431425465,36.56
1602662329.6591,64.0,959.0,21.0,421.0008651349969,36.56
1602662329.6611,64.0,959.0,29.0,420.8912813610856,36.56
1602662329.6632,64.0,959.0,26.0,420.78249863815313,36.56
1602662329.665,64.0,959.0,17.0,420.67466261183205,36.56
1602662329.667,64.0,959.0,34.0,420.56791892775493,36.56
1602662329.669,64.0,959.0,58.0,420.46241323155425,36.56
1602662329.671,64.0,959.0,48.0,420.35829116886254,36.56
1602662329.673,64.0,959.0,34.0,420.2556983853123,36.56
1602662329.6751,64.0,959.0,38.0,420.1547805265362,36.56
1602662329.677,64.0,959.0,41.0,420.0556832381666,36.56
1602662329.679,64.0,959.0,41.0,419.958552165836,36.56
1602662329.681,64.0,959.0,36.0,419.8635329551771,36.56
1602662329.683,64.0,959.0,31.0,419.7707712518223,36.56
1602662329.685,64.0,959.0,29.0,419.6804127014042,36.56
1602662329.687,64.0,959.0,29.0,419.5926029495552,36.56
1602662329.689,64.0,959.0,21.0,419.5074876419079,36.56
1602662329.691,64.0,959.0,14.0,419.4252124240949,36.56
1602662329.693,64.0,959.0,29.0,419.3459229417486,36.56
1602662329.695,64.0,959.0,43.0,419.26976484050164,36.56
1602662329.697,64.0,959.0,29.0,419.23927538378894,36.56
1602662329.699,64.0,959.0,51.0,419.20788292415466,36.56
1602662329.701,64.0,959.0,265.0,419.1758204946107,36.56
1602662329.703,64.0,959.0,616.0,419.14332112816925,36.56
1602662329.705,64.0,959.0,604.0,419.1106178578422,36.56
1602662329.707,64.0,959.0,-26.0,419.0779437166417,36.56
1602662329.709,64.0,959.0,-477.0,419.04553173757967,36.56
1602662329.711,64.0,959.0,-190.0,419.0136149536683,36.56
1602662329.713,64.0,959.0,63.0,418.98242639791954,36.56
1602662329.7152,64.0,959.0,-65.0,418.95219910334544,36.56
1602662329.717,64.0,959.0,-48.0,418.923166102958,36.56
1602662329.719,64.0,959.0,87.0,418.8955604297693,36.56
1602662329.721,64.0,959.0,68.0,418.8696151167914,36.56
1602662329.723,64.0,959.0,29.0,418.84556319703637,36.56
1602662329.725,64.0,959.0,63.0,418.8236377035161,36.56
1602662329.727,64.0,959.0,73.0,418.8040716692428,36.56
1602662329.729,64.0,959.0,51.0,418.7870981272284,36.56
1602662329.731,64.0,959.0,53.0,418.772950110485,36.56
1602662329.733,64.0,959.0,70.0,418.76186065202455,36.56
1602662329.735,64.0,959.0,73.0,418.75406278485923,36.56
1602662329.737,64.0,959.0,73.0,418.74978954200094,36.56
1602662329.7389,64.0,959.0,73.0,418.7492739564618,36.56
1602662329.741,64.0,959.0,70.0,418.75274906125384,36.56
1602662329.743,64.0,959.0,87.0,418.76044788938907,36.56
1602662329.745,64.0,959.0,107.0,418.7726034738796,36.56
1602662329.747,64.0,959.0,102.0,418.78944884773733,36.56
1602662329.749,64.0,959.0,102.0,418.81121704397447,36.56
1602662329.751,64.0,959.0,124.0,418.8381410956029,36.56
1602662329.753,64.0,959.0,131.0,418.7924462348547,36.56
1602662329.755,64.0,959.0,124.0,418.7448725454469,36.56
1602662329.7569,64.0,959.0,126.0,418.6955074147591,36.56
1602662329.759,64.0,959.0,136.0,418.64443823017075,36.56
1602662329.761,64.0,959.0,155.0,418.5917523790614,36.56
1602662329.763,64.0,959.0,177.0,418.5375372488105,36.56
1602662329.765,64.0,959.0,173.0,418.4818802267976,36.56
1602662329.767,64.0,959.0,153.0,418.42486870040227,36.56
1602662329.769,64.0,959.0,165.0,418.366590057004,36.56
1602662329.771,64.0,959.0,185.0,418.3071316839822,36.56
1602662329.773,64.0,959.0,173.0,418.24658096871656,36.56
1602662329.775,64.0,959.0,173.0,418.1850252985864,36.56
1602662329.777,64.0,959.0,182.0,418.12255206097143,36.56
1602662329.779,64.0,959.0,175.0,418.05924864325107,36.56
1602662329.781,64.0,959.0,153.0,417.9952024328048,36.56
1602662329.783,64.0,959.0,143.0,417.93050081701216,36.56
1602662329.785,64.0,959.0,131.0,417.86523118325266,36.56
1602662329.7869,64.0,959.0,90.0,417.79948091890583,36.56
1602662329.789,64.0,959.0,38.0,417.7333374113512,36.56
1602662329.791,64.0,959.0,14.0,417.6668880479683,36.56
1602662329.793,64.0,959.0,0.0,417.6002202161366,36.56
1602662329.795,64.0,959.0,-14.0,417.5334213032356,36.56
1602662330.191,64.0,972.0,-17.0,417.4665786966449,36.5
1602662330.1917,64.0,972.0,-19.0,417.3997797837439,36.5
1602662330.1942,64.0,972.0,-26.0,417.33311195191214,36.5
1602662330.1968,64.0,972.0,-31.0,417.2666625885292,36.5
1602662330.1987,64.0,972.0,-31.0,417.2005190809746,36.5
1602662330.2009,64.0,972.0,-14.0,417.13476881662774,36.5
1602662330.2028,64.0,972.0,-4.0,417.06949918286824,36.5
1602662330.2048,64.0,972.0,-19.0,417.00479756707557,36.5
1602662330.2068,64.0,972.0,-29.0,416.94075135662933,36.5
1602662330.2087,64.0,972.0,-14.0,416.8774479389089,36.5
1602662330.211,64.0,972.0,-4.0,416.81497470129386,36.5
1602662330.2128,64.0,972.0,-4.0,416.7534190311638,36.5
1602662330.2147,64.0,972.0,2.0,416.69286831589807,36.5
1602662330.2168,64.0,972.0,12.0,416.63340994287637,36.5
1602662330.2187,64.0,972.0,14.0,416.575131299478,36.5
1602662330.2207,64.0,972.0,17.0,416.5181197730827,36.5
1602662330.2227,64.0,972.0,17.0,416.4624627510698,36.5
1602662330.2247,64.0,972.0,14.0,416.4082476208189,36.5
1602662330.2267,64.0,972.0,24.0,416.35556176970954,36.5
1602662330.2287,64.0,972.0,34.0,416.3044925851212,36.5
1602662330.2307,64.0,972.0,36.0,416.25512745443336,36.5
1602662330.2327,64.0,972.0,34.0,416.20755376502564,36.5
1602662330.2347,64.0,972.0,21.0,416.16185890427744,36.5
1602662330.2367,64.0,972.0,14.0,416.17465241663837,36.5
1602662330.2387,64.0,972.0,17.0,416.18373196536993,36.5
1602662330.2407,64.0,972.0,17.0,416.18930145435763,36.5
1602662330.2427,64.0,972.0,17.0,416.1915647874871,36.5
1602662330.2448,64.0,972.0,21.0,416.19072586864377,36.5
1602662330.2467,64.0,972.0,31.0,416.1869886017132,36.5
1602662330.2487,64.0,972.0,34.0,416.1805568905809,36.5
1602662330.2507,64.0,972.0,24.0,416.17163463913244,36.5
1602662330.2527,64.0,972.0,24.0,416.16042575125334,36.5
1602662330.2547,64.0,972.0,29.0,416.14713413082916,36.5
1602662330.2567,64.0,972.0,19.0,416.13196368174545,36.5
1602662330.2588,64.0,972.0,19.0,416.11511830788766,36.5
1602662330.2607,64.0,972.0,26.0,416.0968019131414,36.5
1602662330.2627,64.0,972.0,21.0,416.0772184013922,36.5
1602662330.2647,64.0,972.0,21.0,416.05657167652555,36.5
1602662330.2668,64.0,972.0,31.0,416.03506564242696,36.5
1602662330.2687,64.0,972.0,26.0,416.01290420298204,36.5
1602662330.2707,64.0,972.0,19.0,415.9902912620763,36.5
1602662330.2727,64.0,972.0,21.0,415.96743072359527,36.5
1602662330.2747,64.0,972.0,21.0,415.94452649142454,36.5
1602662330.2767,64.0,972.0,14.0,415.92178246944945,36.5
1602662330.2787,64.0,972.0,14.0,415.8994025615558,36.5
1602662330.2807,64.0,972.0,24.0,415.8775906716289,36.5
1602662330.2827,64.0,972.0,41.0,415.8565507035545,36.5
1602662330.2847,64.0,972.0,58.0,415.83648656121795,36.5
1602662330.2867,64.0,972.0,65.0,415.81760214850476,36.5
1602662330.2887,64.0,972.0,53.0,415.80010136930065,36.5
1602662330.2907,64.0,972.0,48.0,415.784188127491,36.5
1602662330.2927,64.0,972.0,63.0,415.7232616464934,36.5
1602662330.2948,64.0,972.0,48.0,415.6598300606164,36.5
1602662330.2967,64.0,972.0,21.0,415.594009886366,36.5
1602662330.2987,64.0,972.0,17.0,415.52591764024817,36.5
1602662330.3008,64.0,972.0,21.0,415.45566983876904,36.5
1602662330.3027,64.0,972.0,24.0,415.3833829984345,36.5
1602662330.3047,64.0,972.0,29.0,415.30917363575065,36.5
1602662330.3067,64.0,972.0,21.0,415.23315826722353,36.5
1602662330.3087,64.0,972.0,21.0,415.1554534093591,36.5
1602662330.3107,64.0,972.0,29.0,415.0761755786634,36.5
1602662330.3129,64.0,972.0,7.0,414.9954412916425,36.5
1602662330.3148,64.0,972.0,0.0,414.9133670648024,36.5
1602662330.3168,64.0,972.0,158.0,414.830069414649,36.5
1602662330.3187,64.0,972.0,502.0,414.7456648576885,36.5
1602662330.3207,64.0,972.0,623.0,414.6602699104268,36.5
1602662330.3227,64.0,972.0,146.0,414.57400108937,36.5
1602662330.3248,64.0,972.0,-385.0,414.486974911024,36.5
1602662330.3267,64.0,972.0,-241.0,414.3993078918949,36.5
1602662330.3287,64.0,972.0,68.0,414.31111654848877,36.5
1602662330.3307,64.0,972.0,7.0,414.22251739731155,36.5
1602662330.3327,64.0,972.0,-38.0,414.13362695486927,36.5
1602662330.3347,64.0,972.0,48.0,414.04456173766795,36.5
1602662330.7606,64.0,972.0,38.0,413.9554382622136,36.56
1602662330.7615,64.0,972.0,2.0,413.86637304501227,36.56
1602662330.7641,64.0,972.0,26.0,413.77748260257,36.56
1602662330.7666,64.0,972.0,41.0,413.68888345139277,36.56
1602662330.7686,64.0,972.0,31.0,413.60069210798656,36.56
1602662330.7706,64.0,972.0,38.0,413.5130250888575,36.56
1602662330.7727,64.0,972.0,53.0,413.4259989105115,36.56
1602662330.7746,64.0,972.0,53.0,413.33973008945463,36.56
1602662330.7766,64.0,972.0,43.0,413.25433514219293,36.56
1602662330.7786,64.0,972.0,41.0,413.1699305852324,36.56
1602662330.7806,64.0,972.0,51.0,413.086632935079,36.56
1602662330.7826,64.0,972.0,58.0,413.0045587082389,36.56
1602662330.7846,64.0,972.0,53.0,412.92382442121794,36.56
1602662330.7866,64.0,972.0,56.0,412.84454659052227,36.56
1602662330.7886,64.0,972.0,65.0,412.76684173265784,36.56
1602662330.7906,64.0,972.0,73.0,412.6908263641307,36.56
1602662330.7926,64.0,972.0,77.0,412.6166170014469,36.56
1602662330.7946,64.0,972.0,87.0,412.5443301611124,36.56
1602662330.7966,64.0,972.0,99.0,412.4740823596332,36.56
1602662330.7986,64.0,972.0,112.0,412.40599011351543,36.56
1602662330.8006,64.0,972.0,119.0,412.34016993926497,36.56
1602662330.8025,64.0,972.0,119.0,412.27673835338794,36.56
1602662330.8045,64.0,972.0,119.0,412.21581187239036,36.56
1602662330.8065,64.0,972.0,138.0,412.1575070127782,36.56
1602662330.8086,64.0,972.0,158.0,412.1019402910575,36.56
1602662330.8105,64.0,972.0,155.0,412.04922822373425,36.56
1602662330.8125,64.0,972.0,148.0,411.9994873273145,36.56
1602662330.8146,64.0,972.0,155.0,411.9528341183043,36.56
1602662330.8165,64.0,972.0,160.0,411.9093851132096,36.56
1602662330.8185,64.0,972.0,151.0,411.8692568285365,36.56
1602662330.8205,64.0,972.0,141.0,411.83256578079096,36.56
1602662330.8225,64.0,972.0,119.0,411.79942848647903,36.56
1602662330.8246,64.0,972.0,92.0,411.76996146210666,36.56
1602662330.8265,64.0,972.0,73.0,411.74428122418,36.56
1602662330.8285,64.0,972.0,41.0,411.72250428920495,36.56
1602662330.8305,64.0,972.0,4.0,411.70474717368757,36.56
1602662330.8326,64.0,972.0,-7.0,411.6911263941339,36.56
1602662330.8345,64.0,972.0,-9.0,411.6817584670499,36.56
1602662330.8365,64.0,972.0,-21.0,411.6767599089417,36.56
1602662330.8387,64.0,972.0,-29.0,411.6762472363152,36.56
1602662330.8406,64.0,972.0,-24.0,411.6803369656765,36.56
1602662330.8425,64.0,972.0,-24.0,411.68914561353154,36.56
1602662330.8445,64.0,972.0,-26.0,411.70278969638645,36.56
1602662330.8465,64.0,972.0,-26.0,411.72138573074716,36.56
1602662330.8485,64.0,972.0,-24.0,411.7450502331197,36.56
1602662330.8505,64.0,972.0,-21.0,411.77389972001015,36.56
1602662330.8525,64.0,972.0,-21.0,411.80805070792445,36.56
1602662330.8545,64.0,972.0,-17.0,411.84761971336866,36.56
1602662330.8565,64.0,972.0,-2.0,411.89272325284884,36.56
1602662330.8585,64.0,972.0,7.0,411.94347784287095,36.56
1602662330.8605,64.0,972.0,9.0,411.999999999941,36.56
1602662330.8625,64.0,972.0,4.0,411.999999999941,36.56
1602662330.8646,64.0,972.0,0.0,411.999999999941,36.56
1602662330.8665,64.0,972.0,4.0,411.999999999941,36.56
1602662330.8685,64.0,972.0,4.0,411.999999999941,36.56
1602662330.8705,64.0,972.0,-4.0,411.999999999941,36.56
1602662330.8725,64.0,972.0,12.0,411.999999999941,36.56
1602662330.8745,64.0,972.0,29.0,411.999999999941,36.56
1602662330.8765,64.0,972.0,21.0,411.999999999941,36.56
1602662330.8785,64.0,972.0,19.0,411.999999999941,36.56
1602662330.8805,64.0,972.0,31.0,411.999999999941,36.56
1602662330.8826,64.0,972.0,24.0,411.999999999941,36.56
1602662330.8846,64.0,972.0,9.0,411.999999999941,36.56
1602662330.8865,64.0,972.0,14.0,411.999999999941,36.56
1602662330.8885,64.0,972.0,21.0,411.999999999941,36.56
1602662330.8905,64.0,972.0,17.0,411.999999999941,36.56
1602662330.8926,64.0,972.0,14.0,411.999999999941,36.56
1602662330.8946,64.0,972.0,21.0,411.999999999941,36.56
1602662330.8965,64.0,972.0,29.0,411.999999999941,36.56
1602662330.8985,64.0,972.0,26.0,411.999999999941,36.56
1602662330.9005,64.0,972.0,14.0,411.999999999941,36.56
1602662330.9025,64.0,972.0,9.0,411.999999999941,36.56
1602662330.9045,64.0,972.0,21.0,411.999999999941,36.56
1602662331.3012,64.0,984.0,29.0,411.999999999941,36.56
1602662331.3021,64.0,984.0,19.0,411.999999999941,36.56
1602662331.3045,64.0,984.0,14.0,411.999999999941,36.56
1602662331.3071,64.0,984.0,17.0,411.999999999941,36.56
1602662331.3091,64.0,984.0,14.0,411.999999999941,36.56
1602662331.3111,64.0,984.0,17.0,411.999999999941,36.56
1602662331.3133,64.0,984.0,34.0,411.999999999941,36.56
1602662331.3151,64.0,984.0,65.0,411.999999999941,36.56
1602662331.3182,64.0,984.0,80.0,411.999999999941,36.56
1602662331.3201,64.0,984.0,53.0,411.999999999941,36.56
1602662331.3221,64.0,984.0,24.0,411.999999999941,36.56
1602662331.3242,64.0,984.0,24.0,411.999999999941,36.56
1602662331.3261,64.0,984.0,29.0,411.999999999941,36.56
1602662331.3281,64.0,984.0,17.0,411.999999999941,36.56
1602662331.3301,64.0,984.0,7.0,411.999999999941,36.56
1602662331.3321,64.0,984.0,2.0,411.999999999941,36.56
1602662331.3341,64.0,984.0,2.0,411.999999999941,36.56
1602662331.3363,64.0,984.0,7.0,411.999999999941,36.56
1602662331.3381,64.0,984.0,7.0,411.999999999941,36.56
1602662331.3401,64.0,984.0,4.0,411.999999999941,36.56
1602662331.3421,64.0,984.0,0.0,411.999999999941,36.56
1602662331.3442,64.0,984.0,-9.0,411.999999999941,36.56
1602662331.3461,64.0,984.0,-24.0,411.999999999941,36.56
1602662331.3481,64.0,984.0,43.0,412.04239161774353,36.56
1602662331.3501,64.0,984.0,307.0,412.08045756026013,36.56
1602662331.3521,64.0,984.0,580.0,412.1142852148703,36.56
1602662331.354,64.0,984.0,368.0,412.1439619689534,36.56
1602662331.356,64.0,984.0,-233.0,412.16957520988916,36.56
1602662331.358,64.0,984.0,-385.0,412.191212325057,36.56
1602662331.36,64.0,984.0,-29.0,412.2089607018364,36.56
1602662331.3621,64.0,984.0,73.0,412.2229077276069,36.56
1602662331.3641,64.0,984.0,-38.0,412.2331407897481,36.56
1602662331.3661,64.0,984.0,-7.0,412.2397472756394,36.56
1602662331.368,64.0,984.0,29.0,412.2428145726604,36.56
1602662331.37,64.0,984.0,-7.0,412.2424300681905,36.56
1602662331.372,64.0,984.0,0.0,412.23868114960936,36.56
1602662331.374,64.0,984.0,26.0,412.2316552042964,36.56
1602662331.376,64.0,984.0,19.0,412.2214396196311,36.56
1602662331.378,64.0,984.0,19.0,412.2081217829931,36.56
1602662331.38,64.0,984.0,31.0,412.1917890817618,36.56
1602662331.382,64.0,984.0,36.0,412.17252890331673,36.56
1602662331.384,64.0,984.0,38.0,412.1504286350375,36.56
1602662331.386,64.0,984.0,38.0,412.12557566430354,36.56
1602662331.3881,64.0,984.0,36.0,412.0980573784944,36.56
1602662331.39,64.0,984.0,48.0,412.0679611649895,36.56
1602662331.392,64.0,984.0,53.0,412.0353744111685,36.56
1602662331.3941,64.0,984.0,43.0,412.0003845044109,36.56
1602662331.396,64.0,984.0,46.0,411.9630788320961,36.56
1602662331.398,64.0,984.0,56.0,411.92354478160365,36.56
1602662331.4,64.0,984.0,65.0,411.8818697403131,36.56
1602662331.402,64.0,984.0,73.0,411.838141095604,36.56
1602662331.404,64.0,984.0,77.0,411.7924462348558,36.56
1602662331.4062,64.0,984.0,87.0,411.744872545448,36.56
1602662331.4081,64.0,984.0,97.0,411.6955074147602,36.56
1602662331.4101,64.0,984.0,109.0,411.64443823017183,36.56
1602662331.4122,64.0,984.0,121.0,411.5917523790625,36.56
1602662331.4142,64.0,984.0,126.0,411.5375372488116,36.56
1602662331.4161,64.0,984.0,134.0,411.48188022679875,36.56
1602662331.418,64.0,984.0,143.0,411.4248687004034,36.56
1602662331.42,64.0,984.0,146.0,411.3665900570051,36.56
1602662331.422,64.0,984.0,146.0,411.30713168398336,36.56
1602662331.4241,64.0,984.0,143.0,411.24658096871764,36.56
1602662331.426,64.0,984.0,141.0,411.1850252985875,36.56
1602662331.428,64.0,984.0,131.0,411.1225520609725,36.56
1602662331.43,64.0,984.0,116.0,411.05924864325215,36.56
1602662331.432,64.0,984.0,97.0,410.99520243280585,36.56
1602662331.4341,64.0,984.0,77.0,410.93050081701324,36.56
1602662331.436,64.0,984.0,53.0,410.8652311832538,36.56
1602662331.4382,64.0,984.0,19.0,410.79948091890697,36.56
1602662331.4401,64.0,984.0,-7.0,410.73333741135235,36.56
1602662331.442,64.0,984.0,-12.0,410.6668880479694,36.56
1602662331.4441,64.0,984.0,-17.0,410.6002202161377,36.56
1602662331.446,64.0,984.0,-31.0,410.53342130323676,36.56
1602662331.8784,64.0,984.0,-38.0,410.466578696646,36.56
1602662331.8793,64.0,984.0,-34.0,410.39977978374503,36.56
1602662331.8818,64.0,984.0,-29.0,410.3331119519133,36.56
1602662331.8844,64.0,984.0,-29.0,410.2666625885304,36.56
1602662331.8864,64.0,984.0,-26.0,410.2005190809757,36.56
1602662331.8884,64.0,984.0,-21.0,410.13476881662893,36.56
1602662331.8905,64.0,984.0,-26.0,410.06949918286944,36.56
1602662331.8924,64.0,984.0,-34.0,410.0047975670767,36.56
1602662331.8944,64.0,984.0,-24.0,409.94075135663047,36.56
1602662331.8963,64.0,984.0,-19.0,409.87744793891,36.56
1602662331.8984,64.0,984.0,-26.0,409.814974701295,36.56
1602662331.9003,64.0,984.0,-19.0,409.75341903116487,36.56
1602662331.9024,64.0,984.0,-2.0,409.6928683158992,36.56
1602662331.9044,64.0,984.0,2.0,409.6334099428774,36.56
1602662331.9063,64.0,984.0,0.0,409.57513129947904,36.56
1602662331.9083,64.0,984.0,7.0,409.51811977308375,36.56
1602662331.9103,64.0,984.0,14.0,409.4624627510708,36.56
1602662331.9124,64.0,984.0,17.0,409.4082476208199,36.56
1602662331.9143,64.0,984.0,19.0,409.35556176971056,36.56
1602662331.9164,64.0,984.0,21.0,409.30449258512226,36.56
1602662331.9183,64.0,984.0,19.0,409.2551274544344,36.56
1602662331.9203,64.0,984.0,19.0,409.20755376502666,36.56
1602662331.9223,64.0,984.0,19.0,409.16185890427846,36.56
1602662331.9244,64.0,984.0,19.0,409.1322607988368,36.56
1602662331.9263,64.0,984.0,21.0,409.1032744050518,36.56
1602662331.9283,64.0,984.0,19.0,409.0750162394294,36.56
1602662331.9303,64.0,984.0,17.0,409.04760281847564,36.56
1602662331.9323,64.0,984.0,19.0,409.02115065869657,36.56
1602662331.9343,64.0,984.0,17.0,408.99577627659824,36.56
1602662331.9364,64.0,984.0,14.0,408.9715961886865,36.56
1602662331.9383,64.0,984.0,17.0,408.9487269114675,36.56
1602662331.9403,64.0,984.0,24.0,408.9272849614473,36.56
1602662331.9423,64.0,984.0,29.0,408.9073868551318,36.56
1602662331.9444,64.0,984.0,29.0,408.88914910902713,36.56
1602662331.9463,64.0,984.0,21.0,408.87268823963916,36.56
1602662331.9483,64.0,984.0,9.0,408.85812076347406,36.56
1602662331.9503,64.0,984.0,4.0,408.8455631970378,36.56
1602662331.9523,64.0,984.0,14.0,408.8351320568364,36.56
1602662331.9544,64.0,984.0,36.0,408.8269438593759,36.56
1602662331.9563,64.0,984.0,60.0,408.8211151211623,36.56
1602662331.9583,64.0,984.0,58.0,408.81776235870154,36.56
1602662331.9603,64.0,984.0,36.0,408.81700208849975,36.56
1602662331.9623,64.0,984.0,36.0,408.81895082706296,36.56
1602662331.9643,64.0,984.0,43.0,408.82372509089714,36.56
1602662331.9663,64.0,984.0,31.0,408.83144139650824,36.56
1602662331.9683,64.0,984.0,19.0,408.84221626040244,36.56
1602662331.9705,64.0,984.0,12.0,408.8561661990856,36.56
1602662331.9724,64.0,984.0,9.0,408.87340772906384,36.56
1602662331.9744,64.0,984.0,14.0,408.8940573668432,36.56
1602662331.9764,64.0,984.0,9.0,408.91823162892956,36.56
1602662331.9783,64.0,984.0,-4.0,408.94604703182904,36.56
1602662331.9803,64.0,984.0,4.0,408.9308154115796,36.56
1602662331.9823,64.0,984.0,21.0,408.91495751511036,36.56
1602662331.9843,64.0,984.0,7.0,408.8985024715478,36.56
1602662331.9863,64.0,984.0,-7.0,408.8814794100183,36.56
1602662331.9883,64.0,984.0,131.0,408.8639174596485,36.56
1602662331.9903,64.0,984.0,487.0,408.8458457495649,36.56
1602662331.9923,64.0,984.0,653.0,408.827293408894,36.56
1602662331.9943,64.0,984.0,141.0,408.80828956676226,36.56
1602662331.9963,64.0,984.0,-492.0,408.78886335229606,36.56
1602662331.9984,64.0,984.0,-355.0,408.7690438946222,36.56
1602662332.0003,64.0,984.0,48.0,408.7488603228669,36.56
1602662332.0023,64.0,984.0,24.0,408.72834176615686,36.56
1602662332.0043,64.0,984.0,-51.0,408.7075173536185,36.56
1602662332.0063,64.0,984.0,29.0,408.6864162143785,36.56
1602662332.0083,64.0,984.0,38.0,408.66506747756307,36.56
1602662332.0104,64.0,984.0,9.0,408.64350027229887,36.56
1602662332.0123,64.0,984.0,36.0,408.6217437277123,36.56
1602662332.0144,64.0,984.0,41.0,408.59982697293015,36.56
1602662332.0163,64.0,984.0,24.0,408.57777913707855,36.56
1602662332.0183,64.0,984.0,29.0,408.55562934928423,36.56
1602662332.0203,64.0,984.0,36.0,408.53340673867365,36.56
