Time,ECG
1604491946.2843,719
1604491946.2848,3112
1604491946.2872,6008
1604491946.2898,7687
1604491946.2919,8311
1604491946.2939,8211
1604491946.2959,7882
1604491946.2979,8445
1604491946.2998,9354
1604491946.3018,9634
1604491946.3039,9839
1604491946.3059,10270
1604491946.3078,10546
1604491946.3099,10721
1604491946.3119,10975
1604491946.3139,11175
1604491946.3159,11301
1604491946.3178,11450
1604491946.3199,11604
1604491946.3219,11728
1604491946.3238,11840
1604491946.3258,11942
1604491946.3279,12028
1604491946.3299,12120
1604491946.3319,12218
1604491946.3339,12291
1604491946.3359,12354
1604491946.3379,12425
1604491946.3398,12484
1604491946.3419,12532
1604491946.3439,12586
1604491946.3458,12625
1604491946.3479,12647
1604491946.3498,12659
1604491946.3518,12669
1604491946.3539,12679
1604491946.3558,12640
1604491946.3577,12576
1604491946.3598,12549
1604491946.3619,12530
1604491946.3639,12498
1604491946.3658,12469
1604491946.3678,12454
1604491946.3698,12440
1604491946.3718,12425
1604491946.3738,12413
1604491946.3758,12403
1604491946.3779,12367
1604491946.3798,12308
1604491946.3819,12279
1604491946.3844,12271
1604491946.3859,12245
1604491946.3879,12191
1604491946.3898,12145
1604491946.3918,12120
1604491946.3939,12077
1604491946.3958,12018
1604491946.3979,11974
1604491946.3998,11928
1604491946.4019,11874
1604491946.4038,11823
1604491946.4059,11774
1604491946.4079,11721
1604491946.4099,11655
1604491946.4118,11579
1604491946.4138,11521
1604491946.4159,11474
1604491946.4178,11404
1604491946.4199,11323
1604491946.4218,11270
1604491946.4239,11221
1604491946.4258,11141
1604491946.4278,11060
1604491946.8532,10997
1604491946.8536,10941
1604491946.8563,10870
1604491946.8587,10794
1604491946.8607,10736
1604491946.8627,10685
1604491946.8648,10599
1604491946.8667,10497
1604491946.8687,10434
1604491946.8707,10380
1604491946.8727,10278
1604491946.8747,10168
1604491946.8767,10110
1604491946.8788,10056
1604491946.8807,9958
1604491946.8827,9815
1604491946.8847,9656
1604491946.8867,9754
1604491946.8887,10380
1604491946.8907,11104
1604491946.8927,11114
1604491946.8947,10114
1604491946.8967,8935
1604491946.8987,8771
1604491946.9007,9159
1604491946.9027,9044
1604491946.9047,8823
1604491946.9067,8879
1604491946.9089,8852
1604491946.9108,8703
1604491946.9127,8635
1604491946.9148,8606
1604491946.9167,8525
1604491946.9187,8445
1604491946.9207,8389
1604491946.9227,8333
1604491946.9247,8269
1604491946.9267,8201
1604491946.9287,8126
1604491946.9307,8060
1604491946.9328,8013
1604491946.9347,7955
1604491946.9367,7887
1604491946.9387,7840
1604491946.9407,7797
1604491946.9427,7731
1604491946.9447,7662
1604491946.9467,7606
1604491946.9488,7545
1604491946.9507,7475
1604491946.9527,7387
1604491946.9547,7290
1604491946.9567,7187
1604491946.9587,7087
1604491946.9607,6992
1604491946.9627,6900
1604491946.9648,6807
1604491946.9667,6729
1604491946.9687,6668
1604491946.9707,6605
1604491946.9727,6541
1604491946.9747,6471
1604491946.9767,6395
1604491946.9787,6341
1604491946.9807,6298
1604491946.9827,6234
1604491946.9847,6166
1604491946.9867,6105
1604491946.9887,6051
1604491946.9907,5998
1604491946.9927,5934
1604491946.9947,5881
1604491946.9967,5834
1604491947.3940,5776
1604491947.3944,5715
1604491947.3967,5654
1604491947.3995,5598
1604491947.4014,5544
1604491947.4034,5493
1604491947.4056,5430
1604491947.4075,5364
1604491947.4094,5313
1604491947.4114,5257
1604491947.4135,5201
1604491947.4154,5145
1604491947.4174,5074
1604491947.4194,5011
1604491947.4215,4962
1604491947.4235,4908
1604491947.4254,4867
1604491947.4275,4830
1604491947.4295,4782
1604491947.4315,4733
1604491947.4334,4689
1604491947.4354,4628
1604491947.4375,4565
1604491947.4395,4516
1604491947.4414,4467
1604491947.4434,4416
1604491947.4454,4370
1604491947.4475,4333
1604491947.4494,4284
1604491947.4515,4192
1604491947.4535,4050
1604491947.4554,4055
1604491947.4575,4548
1604491947.4594,5349
1604491947.4614,5713
1604491947.4634,5115
1604491947.4654,3897
1604491947.4675,3307
1604491947.4694,3658
1604491947.4714,3787
1604491947.4736,3548
1604491947.4755,3565
1604491947.4774,3624
1604491947.4794,3534
1604491947.4815,3500
1604491947.4835,3517
1604491947.4854,3475
1604491947.4874,3429
1604491947.4894,3414
1604491947.4914,3390
1604491947.4934,3353
1604491947.4954,3322
1604491947.4974,3295
1604491947.4994,3270
1604491947.5014,3256
1604491947.5034,3241
1604491947.5054,3217
1604491947.5076,3192
1604491947.5095,3173
1604491947.5114,3161
1604491947.5135,3141
1604491947.5155,3107
1604491947.5174,3075
1604491947.5194,3053
1604491947.5214,3024
1604491947.5234,2975
1604491947.5255,2919
1604491947.5274,2858
1604491947.5294,2795
1604491947.5315,2737
1604491947.5334,2695
1604491947.5354,2661
1604491947.5375,2629
1604491947.9635,2598
1604491947.9639,2571
1604491947.9655,2547
1604491947.9675,2525
1604491947.9694,2498
1604491947.9714,2471
1604491947.9734,2451
1604491947.9756,2425
1604491947.9775,2383
1604491947.9794,2349
1604491947.9815,2339
1604491947.9835,2322
1604491947.9855,2293
1604491947.9875,2276
1604491947.9895,2254
1604491947.9915,2225
1604491947.9935,2208
1604491947.9955,2196
1604491947.9974,2176
1604491947.9995,2149
1604491948.0015,2122
1604491948.0035,2103
1604491948.0055,2088
1604491948.0075,2066
1604491948.0095,2040
1604491948.0115,2015
1604491948.0135,1993
1604491948.0156,1974
1604491948.0175,1952
1604491948.0194,1930
1604491948.0215,1918
1604491948.0235,1905
1604491948.0255,1891
1604491948.0274,1876
1604491948.0295,1847
1604491948.0317,1815
1604491948.0335,1789
1604491948.0355,1767
1604491948.0375,1750
1604491948.0394,1730
1604491948.0415,1708
1604491948.0434,1696
1604491948.0455,1664
1604491948.0475,1562
1604491948.0495,1489
1604491948.0514,1825
1604491948.0535,2629
1604491948.0555,3253
1604491948.0575,3041
1604491948.0595,1966
1604491948.0615,1045
1604491948.0635,1177
1604491948.0655,1506
1604491948.0674,1347
1604491948.0695,1272
1604491948.0715,1381
1604491948.0735,1362
1604491948.0754,1325
1604491948.0775,1357
1604491948.0795,1350
1604491948.0815,1328
1604491948.0835,1335
1604491948.0856,1335
1604491948.0875,1323
1604491948.0895,1323
1604491948.0914,1323
1604491948.0935,1311
1604491948.0955,1308
1604491948.0974,1313
1604491948.0995,1313
1604491948.1015,1313
1604491948.1035,1321
1604491948.1055,1325
1604491948.5040,1325
1604491948.5044,1325
1604491948.5057,1318
1604491948.5077,1306
1604491948.5097,1294
1604491948.5117,1267
1604491948.5137,1218
1604491948.5156,1169
1604491948.5177,1135
1604491948.5197,1096
1604491948.5217,1057
1604491948.5237,1035
1604491948.5257,1026
1604491948.5278,1016
1604491948.5297,1009
1604491948.5317,1004
1604491948.5336,996
1604491948.5357,989
1604491948.5377,989
1604491948.5397,984
1604491948.5417,974
1604491948.5437,970
1604491948.5457,962
1604491948.5477,952
1604491948.5497,952
1604491948.5517,952
1604491948.5537,943
1604491948.5556,938
1604491948.5577,938
1604491948.5597,928
1604491948.5616,921
1604491948.5637,921
1604491948.5657,918
1604491948.5677,911
1604491948.5697,906
1604491948.5716,899
1604491948.5737,887
1604491948.5757,879
1604491948.5776,875
1604491948.5797,872
1604491948.5817,865
1604491948.5837,855
1604491948.5856,845
1604491948.5877,836
1604491948.5897,823
1604491948.5917,814
1604491948.5936,811
1604491948.5956,806
1604491948.5977,804
1604491948.5997,804
1604491948.6016,809
1604491948.6037,814
1604491948.6057,797
1604491948.6077,772
1604491948.6097,767
1604491948.6117,762
1604491948.6137,753
1604491948.6157,748
1604491948.6176,743
1604491948.6196,733
1604491948.6217,716
1604491948.6237,650
1604491948.6257,565
1604491948.6277,760
1604491948.6298,1445
1604491948.6317,2161
1604491948.6336,2261
1604491948.6357,1459
1604491948.6376,372
1604491948.6397,175
1604491948.6417,587
1604491948.6437,565
1604491948.6457,394
1604491949.0437,494
1604491949.0441,541
1604491949.0465,485
1604491949.0492,506
1604491949.0511,541
1604491949.0531,528
1604491949.0551,524
1604491949.0571,528
1604491949.0591,528
1604491949.0611,533
1604491949.0630,538
1604491949.0652,545
1604491949.0671,553
1604491949.0691,560
1604491949.0711,567
1604491949.0731,577
1604491949.0751,587
1604491949.0771,597
1604491949.0791,606
1604491949.0812,616
1604491949.0831,621
1604491949.0851,621
1604491949.0871,616
1604491949.0891,614
1604491949.0911,606
1604491949.0932,582
1604491949.0951,550
1604491949.0970,528
1604491949.0991,506
1604491949.1011,487
1604491949.1031,477
1604491949.1051,475
1604491949.1071,472
1604491949.1092,470
1604491949.1111,465
1604491949.1131,467
1604491949.1152,472
1604491949.1171,470
1604491949.1191,470
1604491949.1211,470
1604491949.1231,470
1604491949.1251,465
1604491949.1274,463
1604491949.1292,463
1604491949.1311,463
1604491949.1331,463
1604491949.1351,458
1604491949.1371,458
1604491949.1391,460
1604491949.1412,460
1604491949.1430,460
1604491949.1451,460
1604491949.1471,458
1604491949.1492,458
1604491949.1511,455
1604491949.1531,453
1604491949.1551,453
1604491949.1572,450
1604491949.1591,448
1604491949.1611,446
1604491949.1631,446
1604491949.1652,438
1604491949.1671,436
1604491949.1691,436
1604491949.1712,433
1604491949.1731,424
1604491949.1751,416
1604491949.1771,414
1604491949.1791,414
1604491949.1812,411
1604491949.1830,407
1604491949.1851,407
1604491949.1871,409
1604491949.6435,409
1604491949.6440,409
1604491949.6464,404
1604491949.6491,392
1604491949.6510,380
1604491949.6530,382
1604491949.6550,392
1604491949.6571,394
1604491949.6590,399
1604491949.6610,407
1604491949.6630,399
1604491949.6651,382
1604491949.6670,380
1604491949.6690,380
1604491949.6709,372
1604491949.6730,370
1604491949.6750,372
1604491949.6770,375
1604491949.6791,350
1604491949.6811,270
1604491949.6831,241
1604491949.6851,597
1604491949.6870,1340
1604491949.6890,1913
1604491949.6910,1769
1604491949.6930,794
1604491949.6950,-114
1604491949.6970,-12
1604491949.6991,331
1604491949.7010,185
1604491949.7030,112
1604491949.7050,241
1604491949.7070,236
1604491949.7090,199
1604491949.7110,246
1604491949.7130,263
1604491949.7151,248
1604491949.7170,265
1604491949.7190,280
1604491949.7209,277
1604491949.7230,285
1604491949.7250,297
1604491949.7270,302
1604491949.7291,309
1604491949.7311,321
1604491949.7330,333
1604491949.7350,341
1604491949.7370,348
1604491949.7390,360
1604491949.7410,372
1604491949.7430,380
1604491949.7450,377
1604491949.7470,382
1604491949.7491,387
1604491949.7510,385
1604491949.7530,375
1604491949.7550,353
1604491949.7570,319
1604491949.7590,287
1604491949.7610,270
1604491949.7630,260
1604491949.7651,248
1604491949.7670,243
1604491949.7690,246
1604491949.7709,246
1604491949.7730,251
1604491949.7750,251
1604491949.7770,253
1604491949.7791,260
1604491949.7811,258
1604491949.7830,258
1604491949.7852,263
1604491949.7871,268
1604491950.2138,265
1604491950.2143,263
1604491950.2167,263
1604491950.2193,263
1604491950.2213,260
1604491950.2233,260
1604491950.2254,260
1604491950.2274,265
1604491950.2293,263
1604491950.2314,253
1604491950.2333,253
1604491950.2353,258
1604491950.2373,255
1604491950.2393,255
1604491950.2412,258
1604491950.2433,253
1604491950.2453,243
1604491950.2473,246
1604491950.2493,253
1604491950.2513,255
1604491950.2533,253
1604491950.2553,253
1604491950.2573,253
1604491950.2593,251
1604491950.2613,246
1604491950.2634,246
1604491950.2654,248
1604491950.2673,246
1604491950.2693,243
1604491950.2713,243
1604491950.2733,241
1604491950.2753,238
1604491950.2773,238
1604491950.2793,238
1604491950.2814,236
1604491950.2833,236
1604491950.2853,233
1604491950.2873,233
1604491950.2893,238
1604491950.2912,243
1604491950.2933,238
1604491950.2953,236
1604491950.2974,231
1604491950.2993,229
1604491950.3013,233
1604491950.3033,251
1604491950.3053,260
1604491950.3073,258
1604491950.3093,251
1604491950.3115,241
1604491950.3133,226
1604491950.3153,221
1604491950.3173,224
1604491950.3193,224
1604491950.3213,224
1604491950.3233,219
1604491950.3253,216
1604491950.3273,204
1604491950.3293,129
1604491950.3314,97
1604491950.3333,463
1604491950.3353,1228
1604491950.3373,1801
1604491950.3393,1625
1604491950.3413,631
1604491950.3433,-255
1604491950.3453,-129
1604491950.3473,199
1604491950.3493,46
1604491950.3513,-17
1604491950.3533,119
1604491950.3553,116
1604491950.3574,82
1604491950.7534,129
1604491950.7539,148
1604491950.7564,141
1604491950.7590,148
1604491950.7610,155
1604491950.7630,155
1604491950.7651,170
1604491950.7670,185
1604491950.7689,192
1604491950.7710,197
1604491950.7729,197
1604491950.7750,204
1604491950.7770,226
1604491950.7790,241
1604491950.7810,246
1604491950.7829,258
1604491950.7849,272
1604491950.7870,277
1604491950.7890,277
1604491950.7897,280
1604491950.7910,282
1604491950.7930,272
1604491950.7950,255
1604491950.7970,233
1604491950.7990,209
1604491950.8010,190
1604491950.8030,173
1604491950.8051,158
1604491950.8070,148
1604491950.8090,148
1604491950.8109,155
1604491950.8130,165
1604491950.8151,170
1604491950.8169,165
1604491950.8190,160
1604491950.8272,165
1604491950.8290,173
1604491950.8310,170
1604491950.8329,165
1604491950.8350,163
1604491950.8369,163
1604491950.8390,168
1604491950.8409,165
1604491950.8430,158
1604491950.8450,158
1604491950.8469,155
1604491950.8490,153
1604491950.8510,158
1604491950.8530,163
1604491950.8550,170
1604491950.8557,173
1604491950.8569,165
1604491950.8589,160
1604491950.8610,168
1604491950.8630,175
1604491950.8651,173
1604491950.8670,163
1604491950.8690,168
1604491950.8710,175
1604491950.8729,170
1604491950.8750,165
1604491950.8770,173
1604491950.8790,173
1604491950.8811,175
1604491950.8829,180
1604491950.8850,182
1604491950.8856,182
1604491950.8870,173
1604491950.8889,170
1604491950.8910,180
1604491950.8929,182
1604491950.8950,173
1604491950.8969,165
1604491951.3233,173
1604491951.3237,175
1604491951.3261,185
1604491951.3288,197
1604491951.3308,199
1604491951.3330,204
1604491951.3335,209
1604491951.3358,182
1604491951.3377,155
1604491951.3398,170
1604491951.3418,177
1604491951.3437,160
1604491951.3457,153
1604491951.3478,163
1604491951.3498,170
1604491951.3518,160
1604491951.3537,85
1604491951.3558,26
1604491951.3578,338
1604491951.3598,1133
1604491951.3617,1801
1604491951.3637,1618
1604491951.3646,521
1604491951.3668,-407
1604491951.3687,-221
1604491951.3708,155
1604491951.3728,7
1604491951.3747,-48
1604491951.3768,82
1604491951.3788,65
1604491951.3808,29
1604491951.3828,77
1604491951.3847,97
1604491951.3867,85
1604491951.3888,95
1604491951.3908,109
1604491951.3927,116
1604491951.3948,131
1604491951.3955,138
1604491951.3978,146
1604491951.3997,160
1604491951.4018,175
1604491951.4038,190
1604491951.4058,209
1604491951.4078,224
1604491951.4097,241
1604491951.4118,265
1604491951.4137,285
1604491951.4158,290
1604491951.4178,290
1604491951.4198,290
1604491951.4218,277
1604491951.4237,248
1604491951.4258,207
1604491951.4265,168
1604491951.4288,141
1604491951.4310,116
1604491951.4328,90
1604491951.4348,75
1604491951.4367,73
1604491951.4388,70
1604491951.4408,75
1604491951.4428,77
1604491951.4448,73
1604491951.4468,73
1604491951.4489,80
1604491951.4508,80
1604491951.4527,82
1604491951.4547,99
1604491951.4568,112
1604491951.4575,109
1604491951.4597,104
1604491951.4618,112
1604491951.8640,124
1604491951.8645,126
1604491951.8669,124
1604491951.8695,126
1604491951.8715,131
1604491951.8735,136
1604491951.8756,134
1604491951.8776,131
1604491951.8795,129
1604491951.8815,124
1604491951.8835,119
1604491951.8854,114
1604491951.8875,112
1604491951.8882,119
1604491951.8905,131
1604491951.8925,131
1604491951.8945,121
1604491951.8965,124
1604491951.8986,129
1604491951.9005,131
1604491951.9025,129
1604491951.9045,129
1604491951.9065,129
1604491951.9085,126
1604491951.9105,131
1604491951.9125,131
1604491951.9145,126
1604491951.9165,129
1604491951.9185,136
1604491951.9192,143
1604491951.9216,148
1604491951.9236,158
1604491951.9255,155
1604491951.9275,138
1604491951.9296,134
1604491951.9316,131
1604491951.9335,124
1604491951.9355,134
1604491951.9375,141
1604491951.9395,131
1604491951.9415,126
1604491951.9435,95
1604491951.9455,0
1604491951.9475,82
1604491951.9495,689
1604491951.9502,1528
1604491951.9514,1803
1604491951.9535,1087
1604491951.9555,-95
1604491951.9575,-463
1604491951.9595,-7
1604491951.9615,85
1604491951.9635,-107
1604491951.9655,-21
1604491951.9675,56
1604491951.9695,0
1604491951.9715,14
1604491951.9734,63
1604491951.9756,58
1604491951.9775,56
1604491951.9782,80
1604491951.9795,90
1604491951.9816,90
1604491951.9835,104
1604491951.9855,119
1604491951.9875,126
1604491951.9895,136
1604491951.9915,148
1604491951.9935,163
1604491951.9955,182
1604491951.9976,202
1604491951.9996,219
1604491952.0015,233
1604491952.4337,241
1604491952.4341,236
1604491952.4365,233
1604491952.4392,231
1604491952.4412,212
1604491952.4432,170
1604491952.4452,126
1604491952.4472,95
1604491952.4492,75
1604491952.4512,53
1604491952.4532,38
1604491952.4552,36
1604491952.4574,31
1604491952.4592,26
1604491952.4612,36
1604491952.4632,43
1604491952.4652,43
1604491952.4672,41
1604491952.4692,43
1604491952.4712,56
1604491952.4732,56
1604491952.4752,46
1604491952.4772,56
1604491952.4792,73
1604491952.4812,77
1604491952.4832,87
1604491952.4852,97
1604491952.4872,92
1604491952.4892,90
1604491952.4912,95
1604491952.4932,99
1604491952.4952,104
1604491952.4972,107
1604491952.4992,107
1604491952.5012,107
1604491952.5032,112
1604491952.5052,112
1604491952.5072,104
1604491952.5092,104
1604491952.5112,114
1604491952.5132,116
1604491952.5152,107
1604491952.5172,104
1604491952.5192,116
1604491952.5211,121
1604491952.5232,116
1604491952.5252,112
1604491952.5272,119
1604491952.5292,121
1604491952.5312,116
1604491952.5332,116
1604491952.5352,119
1604491952.5372,116
1604491952.5392,126
1604491952.5412,146
1604491952.5433,151
1604491952.5452,148
1604491952.5472,146
1604491952.5492,134
1604491952.5512,126
1604491952.5532,129
1604491952.5552,129
1604491952.5572,121
1604491952.5593,126
1604491952.5612,129
1604491952.5632,121
1604491952.5652,75
1604491952.5672,-21
1604491952.5692,97
1604491952.5712,750
1604491952.5732,1574
1604491952.5752,1796
1604491952.5772,1035
1604491953.0339,-129
1604491953.0343,-441
1604491953.0366,2
1604491953.0394,56
1604491953.0413,-131
1604491953.0434,-38
1604491953.0453,29
1604491953.0473,-29
1604491953.0493,-9
1604491953.0513,34
1604491953.0532,26
1604491953.0553,34
1604491953.0573,53
1604491953.0593,48
1604491953.0613,46
1604491953.0633,70
1604491953.0653,85
1604491953.0673,85
1604491953.0693,95
1604491953.0713,112
1604491953.0733,129
1604491953.0753,148
1604491953.0773,165
1604491953.0793,185
1604491953.0814,204
1604491953.0833,214
1604491953.0853,212
1604491953.0873,207
1604491953.0893,197
1604491953.0913,187
1604491953.0933,170
1604491953.0953,126
1604491953.0973,92
1604491953.0994,77
1604491953.1013,56
1604491953.1033,31
1604491953.1053,26
1604491953.1073,29
1604491953.1093,29
1604491953.1113,34
1604491953.1133,41
1604491953.1155,38
1604491953.1174,38
1604491953.1193,48
1604491953.1213,51
1604491953.1232,46
1604491953.1254,53
1604491953.1273,65
1604491953.1293,70
1604491953.1314,68
1604491953.1333,70
1604491953.1353,77
1604491953.1373,92
1604491953.1394,97
1604491953.1413,85
1604491953.1433,85
1604491953.1453,97
1604491953.1473,102
1604491953.1493,90
1604491953.1513,92
1604491953.1533,104
1604491953.1554,102
1604491953.1573,97
1604491953.1593,95
1604491953.1613,99
1604491953.1633,99
1604491953.1653,102
1604491953.1673,99
1604491953.1693,87
1604491953.1713,82
1604491953.1733,97
1604491953.1753,102
1604491953.1773,102
1604491953.5737,99
1604491953.5742,95
1604491953.5766,92
1604491953.5793,99
1604491953.5812,114
1604491953.5832,119
1604491953.5853,121
1604491953.5872,126
1604491953.5892,121
1604491953.5911,102
1604491953.5933,95
1604491953.5952,99
1604491953.5973,92
1604491953.5992,82
1604491953.6012,85
1604491953.6033,92
1604491953.6052,92
1604491953.6072,46
1604491953.6092,-53
1604491953.6114,38
1604491953.6133,638
1604491953.6152,1464
1604491953.6173,1781
1604491953.6192,1147
1604491953.6213,-31
1604491953.6233,-492
1604491953.6252,-73
1604491953.6272,41
1604491953.6292,-163
1604491953.6312,-87
1604491953.6333,12
1604491953.6352,-38
1604491953.6372,-34
1604491953.6392,14
1604491953.6413,9
1604491953.6433,7
1604491953.6453,34
1604491953.6472,51
1604491953.6492,48
1604491953.6513,53
1604491953.6532,73
1604491953.6552,82
1604491953.6572,90
1604491953.6593,104
1604491953.6612,124
1604491953.6632,138
1604491953.6652,148
1604491953.6673,165
1604491953.6693,187
1604491953.6712,202
1604491953.6732,202
1604491953.6753,199
1604491953.6772,197
1604491953.6792,190
1604491953.6812,170
1604491953.6832,131
1604491953.6852,99
1604491953.6872,77
1604491953.6892,56
1604491953.6913,41
1604491953.6933,36
1604491953.6952,34
1604491953.6973,38
1604491953.6992,43
1604491953.7012,43
1604491953.7032,43
1604491953.7052,43
1604491953.7072,43
1604491953.7092,46
1604491953.7111,48
1604491953.7134,51
1604491953.7153,48
1604491953.7173,46
1604491954.1138,48
1604491954.1142,51
1604491954.1167,48
1604491954.1192,53
1604491954.1212,60
1604491954.1232,65
1604491954.1253,63
1604491954.1273,65
1604491954.1293,73
1604491954.1312,65
1604491954.1332,53
1604491954.1352,56
1604491954.1372,60
1604491954.1392,60
1604491954.1412,60
1604491954.1432,63
1604491954.1452,63
1604491954.1472,65
1604491954.1492,68
1604491954.1512,68
1604491954.1532,65
1604491954.1552,68
1604491954.1572,73
1604491954.1592,75
1604491954.1612,65
1604491954.1632,56
1604491954.1652,65
1604491954.1672,85
1604491954.1693,95
1604491954.1712,99
1604491954.1733,107
1604491954.1752,109
1604491954.1772,102
1604491954.1792,85
1604491954.1812,80
1604491954.1832,82
1604491954.1852,80
1604491954.1873,82
1604491954.1892,85
1604491954.1912,85
1604491954.1933,75
1604491954.1952,2
1604491954.1972,-65
1604491954.1992,221
1604491954.2013,989
1604491954.2032,1674
1604491954.2052,1620
1604491954.2072,660
1604491954.2094,-360
1604491954.2113,-358
1604491954.2132,38
1604491954.2152,-56
1604491954.2173,-163
1604491954.2192,-36
1604491954.2213,-17
1604491954.2232,-58
1604491954.2253,-24
1604491954.2272,2
1604491954.2292,0
1604491954.2312,14
1604491954.2333,26
1604491954.2352,26
1604491954.2372,36
1604491954.2392,41
1604491954.2413,43
1604491954.2432,56
1604491954.2452,73
1604491954.2472,80
1604491954.2492,97
1604491954.2512,119
1604491954.2532,129
1604491954.2552,136
1604491954.2572,155
1604491954.6836,168
1604491954.6840,165
1604491954.6855,160
1604491954.6874,160
1604491954.6895,153
1604491954.6914,124
1604491954.6935,80
1604491954.6955,48
1604491954.6975,34
1604491954.6995,21
1604491954.7015,9
1604491954.7034,7
1604491954.7055,12
1604491954.7075,12
1604491954.7095,19
1604491954.7115,24
1604491954.7135,24
1604491954.7155,26
1604491954.7174,29
1604491954.7195,34
1604491954.7214,38
1604491954.7234,41
1604491954.7255,43
1604491954.7275,46
1604491954.7295,48
1604491954.7315,51
1604491954.7336,51
1604491954.7355,56
1604491954.7375,58
1604491954.7395,58
1604491954.7414,56
1604491954.7435,53
1604491954.7455,58
1604491954.7475,60
1604491954.7495,58
1604491954.7515,58
1604491954.7534,60
1604491954.7555,60
1604491954.7575,60
1604491954.7595,60
1604491954.7615,58
1604491954.7635,51
1604491954.7655,51
1604491954.7674,60
1604491954.7695,60
1604491954.7715,58
1604491954.7735,60
1604491954.7755,63
1604491954.7775,63
1604491954.7795,63
1604491954.7815,65
1604491954.7835,70
1604491954.7855,65
1604491954.7875,60
1604491954.7895,58
1604491954.7914,63
1604491954.7934,65
1604491954.7955,68
1604491954.7975,77
1604491954.7994,87
1604491954.8014,92
1604491954.8034,85
1604491954.8055,73
1604491954.8075,68
1604491954.8095,70
1604491954.8115,68
1604491954.8135,65
1604491954.8155,70
1604491954.8175,73
1604491954.8195,53
1604491954.8215,-24
1604491954.8235,-56
1604491954.8255,294
1604491955.2233,1045
1604491955.2238,1642
1604491955.2262,1535
1604491955.2289,565
1604491955.2310,-392
1604491955.2329,-316
1604491955.2349,48
1604491955.2368,-97
1604491955.2389,-192
1604491955.2408,-53
1604491955.2428,-46
1604491955.2448,-87
1604491955.2468,-41
1604491955.2488,-12
1604491955.2508,-24
1604491955.2528,-9
1604491955.2548,7
1604491955.2568,9
1604491955.2589,17
1604491955.2608,29
1604491955.2628,38
1604491955.2649,51
1604491955.2668,63
1604491955.2689,70
1604491955.2708,82
1604491955.2728,97
1604491955.2748,107
1604491955.2769,116
1604491955.2788,129
1604491955.2808,136
1604491955.2829,136
1604491955.2848,136
1604491955.2868,136
1604491955.2888,131
1604491955.2908,114
1604491955.2928,85
1604491955.2949,65
1604491955.2968,51
1604491955.2988,36
1604491955.3008,26
1604491955.3028,24
1604491955.3048,21
1604491955.3068,21
1604491955.3088,26
1604491955.3108,34
1604491955.3128,38
1604491955.3148,41
1604491955.3168,43
1604491955.3188,43
1604491955.3208,38
1604491955.3228,31
1604491955.3248,34
1604491955.3268,36
1604491955.3288,34
1604491955.3309,34
1604491955.3330,36
1604491955.3349,34
1604491955.3368,31
1604491955.3388,36
1604491955.3408,41
1604491955.3429,41
1604491955.3449,46
1604491955.3469,48
1604491955.3488,43
1604491955.3508,41
1604491955.3528,41
1604491955.3549,43
1604491955.3568,43
1604491955.3588,46
1604491955.3608,48
1604491955.3629,48
1604491955.3649,46
1604491955.3668,51
1604491955.7936,56
1604491955.7941,56
1604491955.7965,58
1604491955.7991,58
1604491955.8011,51
1604491955.8031,41
1604491955.8051,43
1604491955.8071,51
1604491955.8091,51
1604491955.8111,51
1604491955.8131,53
1604491955.8151,53
1604491955.8171,48
1604491955.8191,46
1604491955.8211,56
1604491955.8231,65
1604491955.8251,75
1604491955.8271,82
1604491955.8291,90
1604491955.8311,92
1604491955.8331,80
1604491955.8351,68
1604491955.8371,65
1604491955.8391,60
1604491955.8411,60
1604491955.8431,63
1604491955.8450,65
1604491955.8472,60
1604491955.8491,21
1604491955.8511,-63
1604491955.8531,31
1604491955.8551,584
1604491955.8571,1325
1604491955.8592,1652
1604491955.8611,1150
1604491955.8631,51
1604491955.8651,-477
1604491955.8671,-107
1604491955.8691,41
1604491955.8711,-168
1604491955.8731,-121
1604491955.8751,-24
1604491955.8771,-73
1604491955.8791,-70
1604491955.8811,-19
1604491955.8831,-19
1604491955.8851,-19
1604491955.8871,2
1604491955.8891,9
1604491955.8911,14
1604491955.8931,29
1604491955.8951,36
1604491955.8971,43
1604491955.8991,56
1604491955.9011,65
1604491955.9031,70
1604491955.9051,82
1604491955.9071,97
1604491955.9091,104
1604491955.9111,116
1604491955.9131,131
1604491955.9151,136
1604491955.9171,136
1604491955.9191,134
1604491955.9211,131
1604491955.9231,124
1604491955.9251,104
1604491955.9271,82
1604491955.9291,65
1604491955.9311,48
1604491955.9331,36
1604491955.9351,26
1604491955.9371,26
1604491956.3938,29
1604491956.3942,31
1604491956.3966,29
1604491956.3993,29
1604491956.4013,36
1604491956.4033,34
1604491956.4053,24
1604491956.4073,26
1604491956.4093,34
1604491956.4113,26
1604491956.4133,19
1604491956.4154,29
1604491956.4173,36
1604491956.4193,34
1604491956.4212,31
1604491956.4233,29
1604491956.4253,36
1604491956.4273,41
1604491956.4293,43
1604491956.4313,48
1604491956.4333,51
1604491956.4353,43
1604491956.4373,48
1604491956.4393,60
1604491956.4413,63
1604491956.4433,58
1604491956.4452,58
1604491956.4473,58
1604491956.4493,60
1604491956.4513,63
1604491956.4533,63
1604491956.4554,65
1604491956.4573,65
1604491956.4593,65
1604491956.4613,63
1604491956.4633,60
1604491956.4653,60
1604491956.4673,63
1604491956.4693,65
1604491956.4712,68
1604491956.4733,73
1604491956.4753,70
1604491956.4773,73
1604491956.4793,80
1604491956.4814,77
1604491956.4833,63
1604491956.4853,56
1604491956.4873,65
1604491956.4893,85
1604491956.4913,97
1604491956.4933,95
1604491956.4952,95
1604491956.4973,99
1604491956.4992,90
1604491956.5013,85
1604491956.5033,85
1604491956.5053,77
1604491956.5073,75
1604491956.5093,77
1604491956.5113,77
1604491956.5132,75
1604491956.5153,34
1604491956.5174,-56
1604491956.5193,48
1604491956.5212,631
1604491956.5233,1391
1604491956.5252,1679
1604491956.5273,1077
1604491956.5293,-36
1604491956.5313,-463
1604491956.5333,-65
1604491956.5353,36
1604491956.5373,-163
1604491956.9636,-104
1604491956.9640,-17
1604491956.9654,-53
1604491956.9674,-38
1604491956.9694,0
1604491956.9714,-14
1604491956.9734,-14
1604491956.9754,12
1604491956.9774,17
1604491956.9794,14
1604491956.9814,19
1604491956.9834,21
1604491956.9854,31
1604491956.9874,46
1604491956.9894,56
1604491956.9914,73
1604491956.9934,92
1604491956.9954,99
1604491956.9974,107
1604491956.9994,126
1604491957.0014,138
1604491957.0034,143
1604491957.0054,143
1604491957.0074,141
1604491957.0094,134
1604491957.0114,116
1604491957.0134,87
1604491957.0154,58
1604491957.0174,41
1604491957.0194,24
1604491957.0213,7
1604491957.0234,0
1604491957.0254,-2
1604491957.0274,0
1604491957.0294,-2
1604491957.0313,-2
1604491957.0333,0
1604491957.0353,2
1604491957.0373,-2
1604491957.0393,2
1604491957.0415,14
1604491957.0434,14
1604491957.0453,12
1604491957.0473,17
1604491957.0493,21
1604491957.0513,24
1604491957.0534,24
1604491957.0553,31
1604491957.0573,43
1604491957.0594,43
1604491957.0613,38
1604491957.0634,38
1604491957.0653,41
1604491957.0673,43
1604491957.0694,48
1604491957.0700,51
1604491957.0714,51
1604491957.0734,51
1604491957.0754,51
1604491957.0774,56
1604491957.0794,63
1604491957.0815,53
1604491957.0834,48
1604491957.0854,58
1604491957.0874,56
1604491957.0894,48
1604491957.0914,56
1604491957.0934,63
1604491957.0954,63
1604491957.0974,60
1604491957.0994,53
1604491957.1001,53
1604491957.1014,58
1604491957.5037,56
1604491957.5041,56
1604491957.5065,75
1604491957.5091,87
1604491957.5111,80
1604491957.5131,85
1604491957.5152,82
1604491957.5171,60
1604491957.5191,43
1604491957.5211,48
1604491957.5231,51
1604491957.5251,43
1604491957.5271,31
1604491957.5278,26
1604491957.5291,14
1604491957.5311,-51
1604491957.5331,-90
1604491957.5352,248
1604491957.5373,1030
1604491957.5392,1633
1604491957.5411,1408
1604491957.5431,346
1604491957.5451,-519
1604491957.5471,-331
1604491957.5491,14
1604491957.5511,-134
1604491957.5531,-180
1604491957.5551,-51
1604491957.5571,-65
1604491957.5578,-95
1604491957.5591,-43
1604491957.5611,-26
1604491957.5632,-38
1604491957.5651,-21
1604491957.5671,-7
1604491957.5691,-2
1604491957.5712,9
1604491957.5731,19
1604491957.5751,26
1604491957.5771,38
1604491957.5791,48
1604491957.5811,65
1604491957.5831,87
1604491957.5851,99
1604491957.5871,114
1604491957.5877,138
1604491957.5891,153
1604491957.5911,151
1604491957.5931,151
1604491957.5951,153
1604491957.5971,143
1604491957.5992,119
1604491957.6011,92
1604491957.6031,63
1604491957.6051,21
1604491957.6071,-4
1604491957.6091,-14
1604491957.6111,-21
1604491957.6131,-26
1604491957.6151,-26
1604491957.6171,-36
1604491957.6178,-36
1604491957.6191,-24
1604491957.6211,-19
1604491957.6231,-19
1604491957.6251,-19
1604491957.6272,-21
1604491957.6291,-17
1604491957.6311,-2
1604491957.6332,4
1604491957.6352,2
1604491957.6371,4
1604491957.6391,17
1604491958.0436,21
1604491958.0440,17
1604491958.0464,17
1604491958.0490,29
1604491958.0510,34
1604491958.0530,31
1604491958.0551,26
1604491958.0570,29
1604491958.0590,29
1604491958.0610,19
1604491958.0630,12
1604491958.0652,9
1604491958.0670,7
1604491958.0690,4
1604491958.0710,12
1604491958.0730,14
1604491958.0750,14
1604491958.0756,19
1604491958.0770,14
1604491958.0790,9
1604491958.0810,21
1604491958.0830,24
1604491958.0850,14
1604491958.0870,12
1604491958.0891,21
1604491958.0911,34
1604491958.0930,48
1604491958.0950,56
1604491958.0970,60
1604491958.0990,60
1604491958.1010,48
1604491958.1030,36
1604491958.1050,38
1604491958.1057,34
1604491958.1070,31
1604491958.1090,41
1604491958.1110,43
1604491958.1130,38
1604491958.1150,9
1604491958.1170,-82
1604491958.1190,-51
1604491958.1210,455
1604491958.1230,1267
1604491958.1250,1664
1604491958.1270,1169
1604491958.1290,48
1604491958.1310,-528
1604491958.1331,-170
1604491958.1351,21
1604491958.1357,-173
1604491958.1370,-138
1604491958.1390,-38
1604491958.1410,-82
1604491958.1430,-85
1604491958.1450,-36
1604491958.1470,-36
1604491958.1490,-36
1604491958.1510,-17
1604491958.1530,-9
1604491958.1550,-7
1604491958.1570,4
1604491958.1590,14
1604491958.1610,24
1604491958.1631,36
1604491958.1651,51
1604491958.1657,60
1604491958.1670,70
1604491958.1690,82
1604491958.1710,99
1604491958.1731,116
1604491958.1750,129
1604491958.1770,129
1604491958.1790,124
1604491958.6136,121
1604491958.6141,116
1604491958.6165,102
1604491958.6191,75
1604491958.6211,41
1604491958.6231,9
1604491958.6252,-17
1604491958.6258,-31
1604491958.6271,-36
1604491958.6291,-36
1604491958.6311,-41
1604491958.6331,-43
1604491958.6351,-38
1604491958.6371,-36
1604491958.6391,-36
1604491958.6411,-34
1604491958.6431,-29
1604491958.6451,-26
1604491958.6471,-26
1604491958.6491,-17
1604491958.6511,-7
1604491958.6531,-2
1604491958.6551,-2
1604491958.6558,2
1604491958.6571,9
1604491958.6592,14
1604491958.6612,14
1604491958.6631,17
1604491958.6651,21
1604491958.6671,24
1604491958.6691,26
1604491958.6711,26
1604491958.6731,26
1604491958.6751,29
1604491958.6771,29
1604491958.6791,29
1604491958.6811,31
1604491958.6831,31
1604491958.6851,34
1604491958.6858,34
1604491958.6871,36
1604491958.6891,36
1604491958.6912,34
1604491958.6931,34
1604491958.6951,36
1604491958.6971,38
1604491958.6991,36
1604491958.7011,36
1604491958.7031,38
1604491958.7051,31
1604491958.7071,29
1604491958.7091,36
1604491958.7111,48
1604491958.7133,58
1604491958.7151,63
1604491958.7171,70
1604491958.7191,70
1604491958.7211,53
1604491958.7231,46
1604491958.7251,51
1604491958.7272,46
1604491958.7291,43
1604491958.7311,48
1604491958.7331,51
1604491958.7351,46
1604491958.7372,-9
1604491958.7391,-92
1604491958.7412,75
1604491958.7433,716
1604491958.7452,1430
1604491958.7472,1584
1604491958.7492,867
1604491958.7513,-202
1604491959.1536,-465
1604491959.1540,-56
1604491959.1565,-36
1604491959.1592,-209
1604491959.1611,-114
1604491959.1631,-48
1604491959.1651,-95
1604491959.1671,-82
1604491959.1691,-56
1604491959.1711,-60
1604491959.1731,-51
1604491959.1751,-31
1604491959.1771,-24
1604491959.1791,-17
1604491959.1811,-2
1604491959.1831,4
1604491959.1851,9
1604491959.1870,26
1604491959.1891,41
1604491959.1911,51
1604491959.1931,63
1604491959.1951,77
1604491959.1971,85
1604491959.1991,90
1604491959.2011,99
1604491959.2031,107
1604491959.2051,104
1604491959.2071,102
1604491959.2091,99
1604491959.2111,90
1604491959.2131,70
1604491959.2151,48
1604491959.2171,31
1604491959.2192,12
1604491959.2211,-2
1604491959.2231,-4
1604491959.2250,-4
1604491959.2272,-4
1604491959.2291,-4
1604491959.2311,-2
1604491959.2331,-4
1604491959.2351,-2
1604491959.2371,0
1604491959.2391,2
1604491959.2411,2
1604491959.2431,2
1604491959.2451,2
1604491959.2471,4
1604491959.2491,9
1604491959.2511,14
1604491959.2531,14
1604491959.2551,17
1604491959.2571,19
1604491959.2591,21
1604491959.2612,26
1604491959.2632,29
1604491959.2651,31
1604491959.2671,34
1604491959.2691,31
1604491959.2711,31
1604491959.2731,36
1604491959.2750,38
1604491959.2771,36
1604491959.2791,29
1604491959.2811,21
1604491959.2831,21
1604491959.2851,24
1604491959.2871,24
1604491959.2891,29
1604491959.2911,31
1604491959.2930,29
1604491959.2951,29
1604491959.2971,34
1604491959.7532,34
1604491959.7536,36
1604491959.7555,38
1604491959.7578,41
1604491959.7602,36
1604491959.7622,26
1604491959.7642,19
1604491959.7662,24
1604491959.7682,34
1604491959.7702,41
1604491959.7722,51
1604491959.7742,63
1604491959.7762,68
1604491959.7783,58
1604491959.7802,46
1604491959.7822,41
1604491959.7842,41
1604491959.7862,38
1604491959.7882,41
1604491959.7902,46
1604491959.7922,43
1604491959.7943,31
1604491959.7962,-31
1604491959.7982,-92
1604491959.8002,165
1604491959.8023,865
1604491959.8042,1506
1604491959.8063,1486
1604491959.8082,616
1604491959.8102,-350
1604491959.8122,-377
1604491959.8142,9
1604491959.8164,-75
1604491959.8183,-197
1604491959.8202,-75
1604491959.8222,-48
1604491959.8242,-92
1604491959.8262,-56
1604491959.8282,-24
1604491959.8302,-36
1604491959.8322,-29
1604491959.8342,-9
1604491959.8362,-2
1604491959.8382,4
1604491959.8402,12
1604491959.8422,19
1604491959.8442,31
1604491959.8462,43
1604491959.8482,48
1604491959.8502,60
1604491959.8522,75
1604491959.8542,82
1604491959.8562,90
1604491959.8583,104
1604491959.8603,116
1604491959.8623,112
1604491959.8642,99
1604491959.8662,95
1604491959.8682,92
1604491959.8702,82
1604491959.8722,63
1604491959.8742,43
1604491959.8762,24
1604491959.8783,9
1604491959.8802,2
1604491959.8822,0
1604491959.8842,0
1604491959.8862,0
1604491959.8882,0
1604491959.8902,2
1604491959.8922,2
1604491959.8942,4
1604491959.8962,7
1604491960.2936,9
1604491960.2940,7
1604491960.2965,7
1604491960.2990,12
1604491960.3011,12
1604491960.3031,9
1604491960.3051,9
1604491960.3070,12
1604491960.3091,14
1604491960.3110,12
1604491960.3132,4
1604491960.3151,4
1604491960.3171,12
1604491960.3191,14
1604491960.3210,9
1604491960.3230,9
1604491960.3250,9
1604491960.3271,12
1604491960.3291,12
1604491960.3310,14
1604491960.3331,17
1604491960.3351,19
1604491960.3370,17
1604491960.3391,19
1604491960.3411,24
1604491960.3431,24
1604491960.3450,21
1604491960.3470,24
1604491960.3491,31
1604491960.3510,29
1604491960.3531,29
1604491960.3550,31
1604491960.3571,34
1604491960.3591,34
1604491960.3610,36
1604491960.3631,38
1604491960.3652,38
1604491960.3671,31
1604491960.3690,24
1604491960.3711,31
1604491960.3730,43
1604491960.3750,51
1604491960.3771,58
1604491960.3791,68
1604491960.3810,70
1604491960.3831,56
1604491960.3850,43
1604491960.3870,43
1604491960.3890,36
1604491960.3912,26
1604491960.3931,24
1604491960.3950,31
1604491960.3970,34
1604491960.3991,2
1604491960.4011,-85
1604491960.4031,-48
1604491960.4051,428
1604491960.4071,1179
1604491960.4091,1576
1604491960.4110,1160
1604491960.4131,107
1604491960.4152,-502
1604491960.4171,-182
1604491960.4190,24
1604491960.4210,-168
1604491960.4230,-151
1604491960.4250,-43
1604491960.4271,-80
1604491960.4291,-87
1604491960.4310,-38
1604491960.4331,-34
1604491960.4351,-41
1604491960.4370,-21
1604491960.8635,-12
1604491960.8639,-9
1604491960.8656,2
1604491960.8676,14
1604491960.8696,17
1604491960.8717,26
1604491960.8736,38
1604491960.8756,38
1604491960.8776,43
1604491960.8796,60
1604491960.8816,73
1604491960.8836,77
1604491960.8856,87
1604491960.8876,92
1604491960.8896,90
1604491960.8916,90
1604491960.8936,90
1604491960.8956,82
1604491960.8976,68
1604491960.8996,43
1604491960.9016,24
1604491960.9036,9
1604491960.9056,0
1604491960.9076,-9
1604491960.9096,-12
1604491960.9116,-12
1604491960.9136,-14
1604491960.9156,-14
1604491960.9176,-12
1604491960.9196,-12
1604491960.9216,-12
1604491960.9236,-12
1604491960.9256,-7
1604491960.9276,-2
1604491960.9296,-2
1604491960.9316,0
1604491960.9336,7
1604491960.9356,9
1604491960.9376,7
1604491960.9397,7
1604491960.9416,12
1604491960.9436,17
1604491960.9456,14
1604491960.9476,9
1604491960.9496,12
1604491960.9516,17
1604491960.9536,17
1604491960.9556,17
1604491960.9576,17
1604491960.9596,14
1604491960.9616,12
1604491960.9636,19
1604491960.9656,24
1604491960.9676,29
1604491960.9696,24
1604491960.9715,19
1604491960.9736,26
1604491960.9756,34
1604491960.9775,31
1604491960.9796,31
1604491960.9816,36
1604491960.9836,34
1604491960.9856,31
1604491960.9876,36
1604491960.9896,38
1604491960.9916,34
1604491960.9936,34
1604491960.9956,34
1604491960.9976,41
1604491960.9996,56
1604491961.0016,58
1604491961.0036,58
1604491961.0056,65
1604491961.4036,56
1604491961.4041,36
1604491961.4065,38
1604491961.4091,48
1604491961.4112,41
1604491961.4131,31
1604491961.4152,36
1604491961.4172,38
1604491961.4191,-2
1604491961.4211,-99
1604491961.4232,-58
1604491961.4251,438
1604491961.4271,1225
1604491961.4291,1611
1604491961.4311,1104
1604491961.4331,-4
1604491961.4351,-538
1604491961.4373,-170
1604491961.4392,2
1604491961.4411,-190
1604491961.4431,-151
1604491961.4451,-48
1604491961.4472,-87
1604491961.4491,-87
1604491961.4511,-41
1604491961.4531,-38
1604491961.4551,-43
1604491961.4571,-21
1604491961.4591,-14
1604491961.4611,-17
1604491961.4632,-12
1604491961.4651,2
1604491961.4671,14
1604491961.4691,24
1604491961.4711,29
1604491961.4731,36
1604491961.4751,56
1604491961.4771,77
1604491961.4791,92
1604491961.4811,97
1604491961.4831,104
1604491961.4851,112
1604491961.4872,112
1604491961.4891,107
1604491961.4912,99
1604491961.4931,90
1604491961.4951,65
1604491961.4971,31
1604491961.4991,7
1604491961.5011,-7
1604491961.5032,-21
1604491961.5051,-36
1604491961.5073,-36
1604491961.5104,-31
1604491961.5123,-34
1604491961.5141,-38
1604491961.5161,-34
1604491961.5181,-29
1604491961.5201,-29
1604491961.5221,-26
1604491961.5241,-24
1604491961.5262,-21
1604491961.5281,-19
1604491961.5301,-19
1604491961.5321,-9
1604491961.5341,-2
1604491961.5361,0
1604491961.5381,0
1604491961.5402,2
1604491961.5422,7
1604491961.5441,7
1604491961.5461,7
1604491961.5481,12
1604491961.9736,14
1604491961.9740,12
1604491961.9764,9
1604491961.9790,9
1604491961.9810,12
1604491961.9830,4
1604491961.9850,-2
1604491961.9870,2
1604491961.9890,4
1604491961.9909,4
1604491961.9930,9
1604491961.9950,12
1604491961.9970,7
1604491961.9990,9
1604491962.0010,9
1604491962.0030,9
1604491962.0050,7
1604491962.0070,7
1604491962.0090,24
1604491962.0110,34
1604491962.0130,31
1604491962.0150,34
1604491962.0170,41
1604491962.0190,29
1604491962.0210,17
1604491962.0230,19
1604491962.0251,14
1604491962.0270,2
1604491962.0290,4
1604491962.0310,9
1604491962.0330,9
1604491962.0351,-31
1604491962.0370,-121
1604491962.0390,-24
1604491962.0410,567
1604491962.0430,1347
1604491962.0450,1576
1604491962.0471,889
1604491962.0490,-197
1604491962.0510,-514
1604491962.0530,-102
1604491962.0550,-34
1604491962.0570,-209
1604491962.0590,-129
1604491962.0610,-53
1604491962.0630,-97
1604491962.0652,-82
1604491962.0671,-46
1604491962.0690,-53
1604491962.0710,-46
1604491962.0730,-26
1604491962.0750,-21
1604491962.0770,-19
1604491962.0790,-7
1604491962.0810,2
1604491962.0830,9
1604491962.0850,21
1604491962.0870,36
1604491962.0890,48
1604491962.0910,58
1604491962.0930,73
1604491962.0950,90
1604491962.0970,102
1604491962.0990,107
1604491962.1010,107
1604491962.1030,102
1604491962.1050,99
1604491962.1070,92
1604491962.1090,75
1604491962.1110,51
1604491962.1130,26
1604491962.1150,4
1604491962.1170,-12
1604491962.5136,-24
1604491962.5140,-29
1604491962.5165,-26
1604491962.5191,-26
1604491962.5211,-29
1604491962.5231,-31
1604491962.5251,-38
1604491962.5271,-51
1604491962.5291,-48
1604491962.5311,-41
1604491962.5331,-38
1604491962.5351,-36
1604491962.5370,-29
1604491962.5391,-21
1604491962.5411,-19
1604491962.5431,-17
1604491962.5451,-12
1604491962.5471,-2
1604491962.5491,2
1604491962.5511,0
1604491962.5531,-4
1604491962.5551,-4
1604491962.5571,-2
1604491962.5591,-2
1604491962.5612,0
1604491962.5631,4
1604491962.5651,4
1604491962.5671,4
1604491962.5690,4
1604491962.5711,7
1604491962.5731,7
1604491962.5751,9
1604491962.5771,12
1604491962.5791,12
1604491962.5811,12
1604491962.5831,14
1604491962.5851,19
1604491962.5870,19
1604491962.5891,19
1604491962.5911,21
1604491962.5931,21
1604491962.5951,17
1604491962.5971,14
1604491962.5991,14
1604491962.6010,21
1604491962.6031,29
1604491962.6051,36
1604491962.6071,48
1604491962.6091,46
1604491962.6111,29
1604491962.6131,21
1604491962.6151,26
1604491962.6171,24
1604491962.6191,19
1604491962.6211,26
1604491962.6231,31
1604491962.6251,19
1604491962.6271,-48
1604491962.6291,-112
1604491962.6311,143
1604491962.6331,853
1604491962.6351,1494
1604491962.6370,1445
1604491962.6391,550
1604491962.6411,-387
1604491962.6431,-375
1604491962.6451,0
1604491962.6471,-92
1604491962.6491,-194
1604491962.6511,-77
1604491962.6531,-63
1604491962.6551,-102
1604491962.6571,-60
1604491963.1135,-36
1604491963.1139,-48
1604491963.1165,-41
1604491963.1189,-31
1604491963.1210,-38
1604491963.1230,-31
1604491963.1251,-14
1604491963.1270,-2
1604491963.1290,2
1604491963.1310,14
1604491963.1330,24
1604491963.1349,31
1604491963.1370,41
1604491963.1390,56
1604491963.1410,68
1604491963.1430,73
1604491963.1450,80
1604491963.1469,82
1604491963.1490,80
1604491963.1509,77
1604491963.1530,75
1604491963.1549,60
1604491963.1570,38
1604491963.1590,19
1604491963.1610,4
1604491963.1630,-4
1604491963.1649,-12
1604491963.1669,-19
1604491963.1690,-19
1604491963.1709,-17
1604491963.1730,-17
1604491963.1750,-17
1604491963.1769,-12
1604491963.1790,-9
1604491963.1809,-14
1604491963.1829,-19
1604491963.1850,-14
1604491963.1870,-9
1604491963.1889,-12
1604491963.1910,-12
1604491963.1930,-4
1604491963.1949,2
1604491963.1970,2
1604491963.1989,4
1604491963.2010,7
1604491963.2029,9
1604491963.2049,14
1604491963.2069,14
1604491963.2090,14
1604491963.2110,17
1604491963.2129,19
1604491963.2149,17
1604491963.2169,17
1604491963.2191,19
1604491963.2210,21
1604491963.2230,19
1604491963.2249,19
1604491963.2270,21
1604491963.2289,21
1604491963.2309,21
1604491963.2330,24
1604491963.2350,26
1604491963.2370,24
1604491963.2389,21
1604491963.2410,24
1604491963.2430,29
1604491963.2449,26
1604491963.2469,21
1604491963.2489,19
1604491963.2510,21
1604491963.2530,24
1604491963.2549,36
1604491963.2570,46
1604491963.6832,56
1604491963.6836,58
1604491963.6861,46
1604491963.6887,31
1604491963.6907,21
1604491963.6927,19
1604491963.6947,19
1604491963.6967,24
1604491963.6986,21
1604491963.7006,12
1604491963.7027,-19
1604491963.7047,-102
1604491963.7067,-92
1604491963.7087,348
1604491963.7107,1111
1604491963.7127,1550
1604491963.7146,1174
1604491963.7167,129
1604491963.7187,-514
1604491963.7207,-219
1604491963.7227,9
1604491963.7247,-177
1604491963.7267,-170
1604491963.7287,-53
1604491963.7307,-87
1604491963.7327,-102
1604491963.7347,-58
1604491963.7366,-48
1604491963.7386,-53
1604491963.7407,-34
1604491963.7427,-21
1604491963.7448,-19
1604491963.7467,-12
1604491963.7486,0
1604491963.7507,9
1604491963.7527,21
1604491963.7547,31
1604491963.7567,41
1604491963.7586,53
1604491963.7593,63
1604491963.7606,75
1604491963.7626,85
1604491963.7647,92
1604491963.7667,95
1604491963.7686,90
1604491963.7707,87
1604491963.7727,90
1604491963.7747,82
1604491963.7767,63
1604491963.7787,41
1604491963.7807,24
1604491963.7827,9
1604491963.7846,2
1604491963.7866,-4
1604491963.7887,-9
1604491963.7893,-9
1604491963.7907,-7
1604491963.7927,-7
1604491963.7947,-7
1604491963.7967,-7
1604491963.7987,-4
1604491963.8006,-2
1604491963.8027,-2
1604491963.8047,0
1604491963.8066,2
1604491963.8086,7
1604491963.8106,9
1604491963.8127,9
1604491963.8147,2
1604491963.8166,-2
1604491963.8173,2
1604491963.8186,4
1604491963.8207,7
1604491964.2535,9
1604491964.2539,12
1604491964.2563,14
1604491964.2589,12
1604491964.2609,12
1604491964.2629,14
1604491964.2650,12
1604491964.2669,12
1604491964.2689,17
1604491964.2711,17
1604491964.2730,9
1604491964.2736,4
1604491964.2749,9
1604491964.2769,9
1604491964.2789,7
1604491964.2809,9
1604491964.2829,12
1604491964.2849,9
1604491964.2869,4
1604491964.2889,7
1604491964.2909,9
1604491964.2929,12
1604491964.2950,24
1604491964.2969,36
1604491964.2989,43
1604491964.3009,48
1604491964.3029,41
1604491964.3036,29
1604491964.3049,34
1604491964.3069,34
1604491964.3089,24
1604491964.3109,24
1604491964.3129,31
1604491964.3149,31
1604491964.3169,12
1604491964.3189,-63
1604491964.3209,-85
1604491964.3229,285
1604491964.3249,1038
1604491964.3269,1555
1604491964.3289,1282
1604491964.3309,277
1604491964.3328,-472
1604491964.3335,-253
1604491964.3349,34
1604491964.3369,-134
1604491964.3389,-165
1604491964.3409,-41
1604491964.3429,-60
1604491964.3449,-87
1604491964.3470,-38
1604491964.3489,-21
1604491964.3509,-34
1604491964.3529,-19
1604491964.3549,-2
1604491964.3569,0
1604491964.3589,4
1604491964.3609,12
1604491964.3629,24
1604491964.3636,38
1604491964.3650,48
1604491964.3670,53
1604491964.3689,63
1604491964.3709,77
1604491964.3729,87
1604491964.3749,95
1604491964.3769,104
1604491964.3789,112
1604491964.3809,109
1604491964.3829,104
1604491964.3849,107
1604491964.3869,102
1604491964.3889,80
1604491964.8231,53
1604491964.8235,36
1604491964.8260,24
1604491964.8286,12
1604491964.8305,2
1604491964.8326,0
1604491964.8346,2
1604491964.8365,4
1604491964.8386,2
1604491964.8405,2
1604491964.8425,4
1604491964.8446,-2
1604491964.8466,-9
1604491964.8485,-2
1604491964.8505,9
1604491964.8525,7
1604491964.8546,7
1604491964.8553,14
1604491964.8565,17
1604491964.8585,14
1604491964.8605,19
1604491964.8625,21
1604491964.8645,21
1604491964.8665,24
1604491964.8685,19
1604491964.8705,14
1604491964.8726,19
1604491964.8745,26
1604491964.8765,24
1604491964.8786,21
1604491964.8805,24
1604491964.8825,21
1604491964.8845,19
1604491964.8852,21
1604491964.8865,26
1604491964.8885,24
1604491964.8905,24
1604491964.8925,31
1604491964.8947,34
1604491964.8965,26
1604491964.8985,17
1604491964.9005,17
1604491964.9026,26
1604491964.9045,34
1604491964.9066,34
1604491964.9085,51
1604491964.9105,60
1604491964.9126,41
1604491964.9132,26
1604491964.9145,29
1604491964.9165,29
1604491964.9186,29
1604491964.9205,31
1604491964.9226,29
1604491964.9246,24
1604491964.9266,-12
1604491964.9285,-102
1604491964.9305,-34
1604491964.9325,511
1604491964.9346,1294
1604491964.9365,1584
1604491964.9385,952
1604491964.9405,-141
1604491964.9426,-521
1604491964.9432,-109
1604491964.9445,-4
1604491964.9465,-192
1604491964.9485,-124
1604491964.9505,-43
1604491964.9525,-95
1604491964.9545,-82
1604491964.9565,-36
1604491964.9585,-48
1604491965.3340,-56
1604491965.3348,-26
1604491965.3372,-14
1604491965.3398,-14
1604491965.3406,-4
1604491965.3428,7
1604491965.3447,12
1604491965.3468,21
1604491965.3488,31
1604491965.3507,36
1604491965.3528,46
1604491965.3547,65
1604491965.3567,77
1604491965.3587,80
1604491965.3607,87
1604491965.3628,95
1604491965.3649,95
1604491965.3668,92
1604491965.3688,80
1604491965.3708,63
1604491965.3728,36
1604491965.3748,9
1604491965.3768,-12
1604491965.3787,-24
1604491965.3807,-34
1604491965.3828,-41
1604491965.3847,-38
1604491965.3867,-31
1604491965.3887,-34
1604491965.3909,-38
1604491965.3928,-41
1604491965.3948,-36
1604491965.3968,-31
1604491965.3988,-26
1604491965.4007,-21
1604491965.4028,-19
1604491965.4103,-14
1604491965.4118,-12
1604491965.4137,-7
1604491965.4158,2
1604491965.4177,4
1604491965.4198,2
1604491965.4218,4
1604491965.4237,9
1604491965.4257,7
1604491965.4277,4
1604491965.4297,-7
1604491965.4317,-17
1604491965.4338,-14
1604491965.4357,-12
1604491965.4378,-14
1604491965.4398,-9
1604491965.4417,-2
1604491965.4438,-7
1604491965.4457,-12
1604491965.4477,-9
1604491965.4498,-7
1604491965.4518,-4
1604491965.4538,-4
1604491965.4558,0
1604491965.4578,7
1604491965.4597,17
1604491965.4618,21
1604491965.4637,7
1604491965.4658,-7
1604491965.4677,0
1604491965.4697,4
1604491965.4720,-7
1604491965.4738,-2
1604491965.4757,7
1604491965.4777,9
1604491965.4797,-4
1604491965.4818,-70
1604491965.8740,-148
1604491965.8748,80
1604491965.8773,814
1604491965.8799,1523
1604491965.8820,1472
1604491965.8839,504
1604491965.8860,-480
1604491965.8879,-441
1604491965.8899,-31
1604491965.8920,-129
1604491965.8939,-236
1604491965.8959,-102
1604491965.8979,-82
1604491965.8999,-129
1604491965.9019,-85
1604491965.9039,-58
1604491965.9059,-75
1604491965.9079,-60
1604491965.9099,-38
1604491965.9119,-36
1604491965.9138,-26
1604491965.9158,-12
1604491965.9178,-12
1604491965.9198,-4
1604491965.9219,12
1604491965.9238,29
1604491965.9259,43
1604491965.9278,56
1604491965.9299,73
1604491965.9320,87
1604491965.9338,99
1604491965.9358,104
1604491965.9378,107
1604491965.9398,102
1604491965.9419,95
1604491965.9438,77
1604491965.9458,53
1604491965.9478,26
1604491965.9498,-4
1604491965.9519,-29
1604491965.9538,-46
1604491965.9558,-53
1604491965.9578,-53
1604491965.9598,-48
1604491965.9619,-46
1604491965.9640,-46
1604491965.9659,-43
1604491965.9678,-38
1604491965.9698,-36
1604491965.9718,-34
1604491965.9738,-31
1604491965.9758,-26
1604491965.9778,-21
1604491965.9798,-14
1604491965.9819,-14
1604491965.9838,-17
1604491965.9858,-9
1604491965.9878,-4
1604491965.9898,-2
1604491965.9919,4
1604491965.9938,7
1604491965.9958,9
1604491965.9978,7
1604491965.9998,7
1604491966.0019,2
1604491966.0038,2
1604491966.0058,2
1604491966.0078,0
1604491966.0098,-2
1604491966.0120,-2
1604491966.0138,-4
1604491966.0158,-7
1604491966.0178,-9
1604491966.4739,-7
1604491966.4748,-4
1604491966.4772,-12
1604491966.4798,-29
1604491966.4819,-31
1604491966.4839,-24
1604491966.4859,-21
1604491966.4878,-19
1604491966.4898,-12
1604491966.4919,-4
1604491966.4938,4
1604491966.4958,0
1604491966.4979,-14
1604491966.4999,-19
1604491966.5019,-21
1604491966.5038,-26
1604491966.5058,-24
1604491966.5078,-19
1604491966.5098,-19
1604491966.5119,-29
1604491966.5138,-87
1604491966.5158,-165
1604491966.5178,63
1604491966.5201,775
1604491966.5219,1459
1604491966.5237,1459
1604491966.5258,582
1604491966.5278,-407
1604491966.5298,-448
1604491966.5318,-48
1604491966.5338,-114
1604491966.5358,-236
1604491966.5378,-131
1604491966.5398,-114
1604491966.5419,-151
1604491966.5437,-102
1604491966.5458,-70
1604491966.5477,-87
1604491966.5497,-77
1604491966.5518,-56
1604491966.5538,-51
1604491966.5557,-43
1604491966.5577,-31
1604491966.5598,-21
1604491966.5618,-14
1604491966.5637,-7
1604491966.5658,0
1604491966.5678,14
1604491966.5698,34
1604491966.5718,48
1604491966.5737,56
1604491966.5758,63
1604491966.5778,73
1604491966.5797,73
1604491966.5819,70
1604491966.5838,73
1604491966.5857,70
1604491966.5878,46
1604491966.5898,19
1604491966.5918,2
1604491966.5937,-7
1604491966.5957,-21
1604491966.5977,-31
1604491966.5997,-34
1604491966.6018,-31
1604491966.6038,-26
1604491966.6057,-24
1604491966.6077,-24
1604491966.6098,-24
1604491966.6118,-24
1604491966.6137,-24
1604491966.6158,-21
1604491966.6177,-12
1604491967.0439,-7
1604491967.0450,-9
1604491967.0462,-7
1604491967.0481,2
1604491967.0501,7
1604491967.0522,4
1604491967.0542,4
1604491967.0561,2
1604491967.0582,-2
1604491967.0603,-2
1604491967.0622,2
1604491967.0641,7
1604491967.0661,4
1604491967.0681,4
1604491967.0701,9
1604491967.0721,12
1604491967.0741,12
1604491967.0761,12
1604491967.0780,9
1604491967.0801,2
1604491967.0821,2
1604491967.0840,4
1604491967.0861,7
1604491967.0880,9
1604491967.0900,2
1604491967.0921,-9
1604491967.0940,-12
1604491967.0960,-7
1604491967.0981,-9
1604491967.1000,-9
1604491967.1021,-7
1604491967.1040,-12
1604491967.1060,-7
1604491967.1080,7
1604491967.1100,17
1604491967.1121,14
1604491967.1140,9
1604491967.1160,2
1604491967.1180,-2
1604491967.1200,-4
1604491967.1221,-9
1604491967.1240,-4
1604491967.1260,2
1604491967.1280,0
1604491967.1300,-12
1604491967.1321,-63
1604491967.1340,-136
1604491967.1360,36
1604491967.1381,687
1604491967.1400,1401
1604491967.1421,1511
1604491967.1440,740
1604491967.1462,-292
1604491967.1481,-472
1604491967.1500,-68
1604491967.1521,-80
1604491967.1540,-236
1604491967.1560,-131
1604491967.1580,-77
1604491967.1600,-129
1604491967.1621,-102
1604491967.1640,-63
1604491967.1660,-70
1604491967.1680,-63
1604491967.1700,-46
1604491967.1720,-43
1604491967.1740,-36
1604491967.1760,-24
1604491967.1780,-17
1604491967.1800,-9
1604491967.1821,0
1604491967.1840,12
1604491967.1861,26
1604491967.5837,41
1604491967.5845,51
1604491967.5870,60
1604491967.5896,73
1604491967.5916,85
1604491967.5936,85
1604491967.5956,82
1604491967.5976,77
1604491967.5996,70
1604491967.6016,51
1604491967.6035,26
1604491967.6055,9
1604491967.6075,-9
1604491967.6095,-26
1604491967.6115,-29
1604491967.6135,-26
1604491967.6155,-31
1604491967.6175,-36
1604491967.6195,-29
1604491967.6215,-19
1604491967.6235,-21
1604491967.6255,-24
1604491967.6275,-21
1604491967.6295,-12
1604491967.6315,-9
1604491967.6335,-7
1604491967.6355,-4
1604491967.6375,2
1604491967.6395,4
1604491967.6415,2
1604491967.6437,4
1604491967.6456,14
1604491967.6475,21
1604491967.6495,19
1604491967.6515,24
1604491967.6535,36
1604491967.6555,38
1604491967.6575,36
1604491967.6595,34
1604491967.6615,36
1604491967.6635,38
1604491967.6655,34
1604491967.6675,24
1604491967.6695,19
1604491967.6715,29
1604491967.6735,31
1604491967.6755,14
1604491967.6775,9
1604491967.6795,19
1604491967.6815,19
1604491967.6835,12
1604491967.6855,7
1604491967.6875,7
1604491967.6895,9
1604491967.6916,12
1604491967.6935,21
1604491967.6955,31
1604491967.6975,41
1604491967.6995,48
1604491967.7015,34
1604491967.7035,12
1604491967.7055,17
1604491967.7075,21
1604491967.7095,7
1604491967.7115,7
1604491967.7135,17
1604491967.7155,17
1604491967.7175,-9
1604491967.7195,-95
1604491967.7215,-85
1604491967.7235,350
1604491967.7255,1099
1604491967.7275,1525
1604491968.1540,1165
1604491968.1548,151
1604491968.1573,-502
1604491968.1599,-233
1604491968.1619,0
1604491968.1638,-170
1604491968.1658,-177
1604491968.1678,-77
1604491968.1700,-107
1604491968.1718,-121
1604491968.1738,-92
1604491968.1758,-92
1604491968.1778,-90
1604491968.1798,-70
1604491968.1817,-56
1604491968.1837,-46
1604491968.1857,-43
1604491968.1877,-34
1604491968.1897,-14
1604491968.1918,-17
1604491968.1937,-9
1604491968.1957,14
1604491968.1977,24
1604491968.1997,26
1604491968.2018,53
1604491968.2037,73
1604491968.2057,65
1604491968.2077,68
1604491968.2097,82
1604491968.2118,80
1604491968.2138,65
1604491968.2157,34
1604491968.2177,17
1604491968.2197,38
1604491968.2217,24
1604491968.2237,-17
1604491968.2258,-21
1604491968.2277,-19
1604491968.2297,-26
1604491968.2318,-34
1604491968.2337,-36
1604491968.2357,-24
1604491968.2377,-12
1604491968.2397,-9
1604491968.2418,-12
1604491968.2437,-26
1604491968.2457,-29
1604491968.2477,-9
1604491968.2498,0
1604491968.2518,-17
1604491968.2537,-19
1604491968.2557,0
1604491968.2577,0
1604491968.2597,-14
1604491968.2619,-2
1604491968.2639,12
1604491968.2658,4
1604491968.2677,0
1604491968.2698,2
1604491968.2719,7
1604491968.2738,14
1604491968.2757,9
1604491968.2777,-9
1604491968.2797,-7
1604491968.2818,-7
1604491968.2837,-21
1604491968.2857,-24
1604491968.2877,-9
1604491968.2897,7
1604491968.2919,7
1604491968.2938,-4
1604491968.2957,-19
1604491968.2978,-24
1604491968.7235,-7
1604491968.7244,2
1604491968.7268,4
1604491968.7296,0
1604491968.7315,4
1604491968.7335,21
1604491968.7356,26
1604491968.7375,2
1604491968.7395,-53
1604491968.7415,-60
1604491968.7434,-4
1604491968.7454,4
1604491968.7474,-43
1604491968.7494,-53
1604491968.7514,-34
1604491968.7534,-90
1604491968.7554,-129
1604491968.7574,182
1604491968.7594,875
1604491968.7614,1408
1604491968.7634,1255
1604491968.7654,353
1604491968.7674,-455
1604491968.7694,-343
1604491968.7714,-24
1604491968.7734,-148
1604491968.7754,-209
1604491968.7773,-92
1604491968.7794,-95
1604491968.7813,-134
1604491968.7834,-92
1604491968.7853,-43
1604491968.7874,-36
1604491968.7894,-34
1604491968.7914,-41
1604491968.7934,-56
1604491968.7954,-41
1604491968.7976,-19
1604491968.7994,-17
1604491968.8013,0
1604491968.8034,26
1604491968.8054,36
1604491968.8074,34
1604491968.8094,46
1604491968.8114,70
1604491968.8134,70
1604491968.8154,80
1604491968.8173,97
1604491968.8194,65
1604491968.8214,48
1604491968.8234,56
1604491968.8254,43
1604491968.8274,26
1604491968.8293,14
1604491968.8314,-4
1604491968.8334,-19
1604491968.8354,-29
1604491968.8374,-38
1604491968.8393,-36
1604491968.8414,-24
1604491968.8434,-34
1604491968.8454,-56
1604491968.8474,-60
1604491968.8494,-46
1604491968.8514,-38
1604491968.8534,-43
1604491968.8554,-48
1604491968.8574,-48
1604491968.8594,-41
1604491968.8614,-24
1604491968.8634,-26
1604491968.8654,-63
1604491968.8674,-97
1604491969.2639,-87
1604491969.2647,-73
1604491969.2672,-63
1604491969.2698,-34
1604491969.2718,-34
1604491969.2738,-58
1604491969.2758,-53
1604491969.2778,-43
1604491969.2798,-53
1604491969.2818,-60
1604491969.2838,-58
1604491969.2858,-58
1604491969.2878,-75
1604491969.2898,-90
1604491969.2918,-77
1604491969.2940,-60
1604491969.2958,-51
1604491969.2978,-53
1604491969.2997,-82
1604491969.3018,-92
1604491969.3037,-60
1604491969.3057,-43
1604491969.3078,-65
1604491969.3098,-87
1604491969.3117,-63
1604491969.3137,-26
1604491969.3157,-26
1604491969.3177,-53
1604491969.3197,-80
1604491969.3217,-68
1604491969.3238,-34
1604491969.3257,-36
1604491969.3277,-70
1604491969.3297,-102
1604491969.3318,-160
1604491969.3337,-124
1604491969.3357,316
1604491969.3377,1035
1604491969.3397,1384
1604491969.3418,962
1604491969.3438,7
1604491969.3457,-499
1604491969.3477,-199
1604491969.3497,-41
1604491969.3518,-243
1604491969.3537,-231
1604491969.3557,-119
1604491969.3577,-138
1604491969.3597,-146
1604491969.3618,-114
1604491969.3637,-112
1604491969.3657,-102
1604491969.3677,-82
1604491969.3697,-73
1604491969.3717,-70
1604491969.3737,-77
1604491969.3757,-77
1604491969.3777,-46
1604491969.3797,-17
1604491969.3818,-12
1604491969.3837,-14
1604491969.3857,-7
1604491969.3877,-7
1604491969.3897,-2
1604491969.3918,12
1604491969.3938,24
1604491969.3959,24
1604491969.3978,24
1604491969.3997,26
1604491969.4017,21
1604491969.4037,14
1604491969.4057,7
1604491969.4077,-21
1604491969.8639,-56
1604491969.8647,-60
1604491969.8672,-65
1604491969.8698,-80
1604491969.8718,-70
1604491969.8737,-65
1604491969.8758,-80
1604491969.8778,-68
1604491969.8797,-41
1604491969.8818,-46
1604491969.8837,-56
1604491969.8858,-60
1604491969.8878,-63
1604491969.8898,-63
1604491969.8918,-53
1604491969.8938,-46
1604491969.8957,-46
1604491969.8977,-36
1604491969.8998,-19
1604491969.9018,-14
1604491969.9037,-31
1604491969.9057,-41
1604491969.9077,-29
1604491969.9097,-14
1604491969.9117,-7
1604491969.9137,-9
1604491969.9157,-14
1604491969.9177,7
1604491969.9197,2
1604491969.9218,-46
1604491969.9237,-43
1604491969.9257,-4
1604491969.9277,-4
1604491969.9297,-34
1604491969.9317,-51
1604491969.9337,-36
1604491969.9357,-29
1604491969.9377,-46
1604491969.9397,-38
1604491969.9417,-14
1604491969.9437,-12
1604491969.9457,-24
1604491969.9477,-24
1604491969.9497,-31
1604491969.9519,-26
1604491969.9538,-17
1604491969.9557,-31
1604491969.9577,-29
1604491969.9597,-2
1604491969.9618,-24
1604491969.9637,-75
1604491969.9657,-138
1604491969.9677,-185
1604491969.9697,151
1604491969.9717,965
1604491969.9737,1550
1604491969.9757,1269
1604491969.9777,226
1604491969.9797,-550
1604491969.9818,-346
1604491969.9837,-48
1604491969.9857,-199
1604491969.9877,-248
1604491969.9898,-153
1604491969.9918,-153
1604491969.9937,-168
1604491969.9957,-151
1604491969.9977,-119
1604491969.9998,-97
1604491970.0019,-124
1604491970.0037,-119
1604491970.0057,-63
1604491970.0077,-48
1604491970.4036,-82
1604491970.4050,-73
1604491970.4074,-43
1604491970.4100,-36
1604491970.4120,-17
1604491970.4139,-2
1604491970.4160,-12
1604491970.4179,14
1604491970.4199,48
1604491970.4219,34
1604491970.4239,21
1604491970.4259,26
1604491970.4279,9
1604491970.4300,-14
1604491970.4320,-36
1604491970.4339,-38
1604491970.4346,-46
1604491970.4369,-99
1604491970.4389,-114
1604491970.4409,-77
1604491970.4429,-82
1604491970.4449,-90
1604491970.4471,-90
1604491970.4489,-129
1604491970.4509,-119
1604491970.4529,-80
1604491970.4550,-92
1604491970.4569,-114
1604491970.4588,-114
1604491970.4609,-109
1604491970.4629,-114
1604491970.4649,-95
1604491970.4656,-68
1604491970.4669,-97
1604491970.4689,-107
1604491970.4709,-75
1604491970.4729,-80
1604491970.4749,-90
1604491970.4769,-77
1604491970.4789,-75
1604491970.4809,-75
1604491970.4829,-60
1604491970.4849,-43
1604491970.4869,-85
1604491970.4889,-116
1604491970.4909,-92
1604491970.4929,-102
1604491970.4949,-121
1604491970.4956,-109
1604491970.4969,-99
1604491970.4989,-85
1604491970.5009,-85
1604491970.5029,-114
1604491970.5049,-104
1604491970.5069,-90
1604491970.5089,-104
1604491970.5109,-102
1604491970.5129,-102
1604491970.5149,-126
1604491970.5169,-121
1604491970.5189,-97
1604491970.5209,-95
1604491970.5229,-151
1604491970.5249,-272
1604491970.5256,-160
1604491970.5269,492
1604491970.5289,1289
1604491970.5309,1508
1604491970.5329,867
1604491970.5349,-194
1604491970.5369,-597
1604491970.5389,-248
1604491970.5409,-170
1604491970.9739,-329
1604491970.9746,-233
1604491970.9770,-168
1604491970.9796,-221
1604491970.9803,-194
1604491970.9826,-165
1604491970.9846,-190
1604491970.9866,-185
1604491970.9886,-158
1604491970.9906,-131
1604491970.9925,-129
1604491970.9945,-148
1604491970.9965,-134
1604491970.9985,-99
1604491971.0005,-95
1604491971.0026,-68
1604491971.0045,-41
1604491971.0065,-53
1604491971.0085,-56
1604491971.0105,-36
1604491971.0112,-34
1604491971.0126,-43
1604491971.0145,-21
1604491971.0165,0
1604491971.0185,-19
1604491971.0205,-38
1604491971.0225,-58
1604491971.0245,-97
1604491971.0265,-90
1604491971.0285,-70
1604491971.0305,-104
1604491971.0326,-136
1604491971.0345,-138
1604491971.0365,-121
1604491971.0385,-104
1604491971.0405,-112
1604491971.0412,-138
1604491971.0425,-153
1604491971.0446,-134
1604491971.0465,-121
1604491971.0485,-141
1604491971.0505,-141
1604491971.0527,-104
1604491971.0545,-73
1604491971.0565,-75
1604491971.0585,-92
1604491971.0605,-97
1604491971.0626,-70
1604491971.0645,-63
1604491971.0665,-102
1604491971.0685,-112
1604491971.0693,-87
1604491971.0706,-82
1604491971.0725,-70
1604491971.0745,-31
1604491971.0765,-36
1604491971.0785,-99
1604491971.0805,-126
1604491971.0826,-107
1604491971.0846,-90
1604491971.0865,-70
1604491971.0886,-51
1604491971.0905,-14
1604491971.0925,51
1604491971.0945,92
1604491971.0965,63
1604491971.0985,17
1604491971.0992,12
1604491971.1005,58
1604491971.1026,87
1604491971.1045,51
1604491971.1066,21
1604491971.1085,-29
1604491971.5139,53
1604491971.5148,675
1604491971.5172,1518
1604491971.5199,1759
1604491971.5218,1082
1604491971.5238,17
1604491971.5258,-314
1604491971.5278,97
1604491971.5298,141
1604491971.5305,-116
1604491971.5328,-104
1604491971.5347,-58
1604491971.5367,-124
1604491971.5387,-102
1604491971.5407,-9
1604491971.5427,21
1604491971.5447,-26
1604491971.5467,-80
1604491971.5487,-102
1604491971.5508,-80
1604491971.5528,-34
1604491971.5547,-29
1604491971.5567,-51
1604491971.5587,-31
1604491971.5607,19
1604491971.5615,41
1604491971.5637,19
1604491971.5657,-9
1604491971.5677,7
1604491971.5699,75
1604491971.5717,112
1604491971.5737,104
1604491971.5757,129
1604491971.5777,146
1604491971.5797,68
1604491971.5818,-7
1604491971.5838,-17
1604491971.5857,-53
1604491971.5877,-95
1604491971.5897,-116
1604491971.5918,-163
1604491971.5924,-192
1604491971.5937,-163
1604491971.5958,-129
1604491971.5977,-143
1604491971.5997,-165
1604491971.6019,-153
1604491971.6037,-160
1604491971.6058,-168
1604491971.6077,-155
1604491971.6097,-170
1604491971.6118,-180
1604491971.6137,-165
1604491971.6157,-165
1604491971.6177,-143
1604491971.6197,-109
1604491971.6217,-138
1604491971.6237,-143
1604491971.6257,-97
1604491971.6277,-112
1604491971.6297,-158
1604491971.6318,-121
1604491971.6337,-90
1604491971.6357,-119
1604491971.6377,-109
1604491971.6397,-68
1604491971.6418,-97
1604491971.6437,-151
1604491971.6457,-121
1604491971.6477,-58
1604491971.6497,-63
1604491971.6517,-124
1604491971.6537,-141
1604491972.0539,-92
1604491972.0545,-60
1604491972.0569,-60
1604491972.0596,-60
1604491972.0617,-58
1604491972.0636,-65
1604491972.0656,-121
1604491972.0678,-212
1604491972.0696,-175
1604491972.0717,-41
1604491972.0736,-60
1604491972.0757,-182
1604491972.0776,-185
1604491972.0796,-102
1604491972.0816,121
1604491972.0835,694
1604491972.0855,1284
1604491972.0875,1228
1604491972.0896,338
1604491972.0916,-524
1604491972.0935,-438
1604491972.0955,-102
1604491972.0975,-238
1604491972.0995,-270
1604491972.1016,-121
1604491972.1035,-194
1604491972.1055,-243
1604491972.1075,-155
1604491972.1095,-170
1604491972.1116,-251
1604491972.1135,-197
1604491972.1155,-58
1604491972.1175,-134
1604491972.1195,-258
1604491972.1217,-97
1604491972.1235,4
1604491972.1256,-146
1604491972.1275,-138
1604491972.1295,-17
1604491972.1315,-63
1604491972.1335,-82
1604491972.1355,-4
1604491972.1375,-2
1604491972.1395,-14
1604491972.1416,9
1604491972.1435,4
1604491972.1455,-17
1604491972.1475,-14
1604491972.1495,7
1604491972.1516,-26
1604491972.1535,-102
1604491972.1555,-70
1604491972.1575,-43
1604491972.1595,-160
1604491972.1616,-197
1604491972.1635,-138
1604491972.1655,-119
1604491972.1675,-114
1604491972.1697,-126
1604491972.1716,-141
1604491972.1735,-112
1604491972.1755,-97
1604491972.1775,-126
1604491972.1795,-112
1604491972.1816,-53
1604491972.1835,-70
1604491972.1855,-138
1604491972.1875,-138
1604491972.1895,-109
1604491972.1916,-90
1604491972.1935,-41
1604491972.1955,-58
1604491972.1975,-124
1604491972.6237,-112
1604491972.6245,-56
1604491972.6270,-43
1604491972.6296,-85
1604491972.6316,-165
1604491972.6336,-138
1604491972.6357,-29
1604491972.6376,-80
1604491972.6396,-175
1604491972.6416,-119
1604491972.6435,-24
1604491972.6455,-31
1604491972.6475,-87
1604491972.6495,-73
1604491972.6516,-48
1604491972.6535,-51
1604491972.6555,-34
1604491972.6575,-51
1604491972.6597,-107
1604491972.6616,-112
1604491972.6635,-73
1604491972.6655,-75
1604491972.6675,-112
1604491972.6695,-136
1604491972.6716,-119
1604491972.6735,-114
1604491972.6755,-199
1604491972.6775,-155
1604491972.6796,363
1604491972.6815,1030
1604491972.6835,1147
1604491972.6855,516
1604491972.6875,-324
1604491972.6895,-450
1604491972.6915,-82
1604491972.6935,-116
1604491972.6956,-302
1604491972.6975,-173
1604491972.6994,-77
1604491972.7015,-151
1604491972.7035,-163
1604491972.7055,-119
1604491972.7075,-107
1604491972.7095,-99
1604491972.7115,-85
1604491972.7135,-70
1604491972.7155,-82
1604491972.7175,-109
1604491972.7195,-109
1604491972.7216,-131
1604491972.7235,-116
1604491972.7255,-2
1604491972.7275,29
1604491972.7295,-43
1604491972.7316,-19
1604491972.7335,38
1604491972.7355,7
1604491972.7375,-21
1604491972.7395,17
1604491972.7415,38
1604491972.7435,12
1604491972.7455,-7
1604491972.7475,-4
1604491972.7495,-17
1604491972.7515,-53
1604491972.7535,-73
1604491972.7555,-48
1604491972.7575,-38
1604491972.7595,-70
1604491972.7615,-80
1604491972.7635,-87
1604491972.7655,-99
1604491972.7675,-97
1604491973.2233,-104
1604491973.2239,-107
1604491973.2251,-85
1604491973.2271,-46
1604491973.2291,-70
1604491973.2311,-138
1604491973.2331,-114
1604491973.2351,-58
1604491973.2371,-46
1604491973.2391,-43
1604491973.2411,-46
1604491973.2431,-48
1604491973.2451,-48
1604491973.2471,-58
1604491973.2493,-65
1604491973.2511,-68
1604491973.2530,-63
1604491973.2550,-51
1604491973.2570,-38
1604491973.2591,-34
1604491973.2610,-29
1604491973.2631,-38
1604491973.2651,-58
1604491973.2670,-51
1604491973.2690,-19
1604491973.2710,-17
1604491973.2730,-29
1604491973.2750,-17
1604491973.2771,-4
1604491973.2790,-2
1604491973.2810,7
1604491973.2831,17
1604491973.2851,19
1604491973.2870,-9
1604491973.2890,-38
1604491973.2911,-14
1604491973.2931,-4
1604491973.2951,-24
1604491973.2958,-17
1604491973.2981,-12
1604491973.3000,-31
1604491973.3020,-43
1604491973.3040,-85
1604491973.3060,-19
1604491973.3080,448
1604491973.3100,1106
1604491973.3120,1255
1604491973.3140,589
1604491973.3160,-302
1604491973.3180,-472
1604491973.3200,-129
1604491973.3221,-134
1604491973.3240,-255
1604491973.3260,-136
1604491973.3267,-104
1604491973.3280,-168
1604491973.3300,-112
1604491973.3320,-43
1604491973.3341,-77
1604491973.3360,-121
1604491973.3380,-119
1604491973.3400,-95
1604491973.3421,-87
1604491973.3440,-87
1604491973.3460,-65
1604491973.3482,-63
1604491973.3501,-82
1604491973.3520,-51
1604491973.3540,-9
1604491973.3560,-65
1604491973.3567,-102
1604491973.3580,-46
1604491973.3601,2
1604491973.7639,29
1604491973.7648,43
1604491973.7672,29
1604491973.7699,9
1604491973.7718,4
1604491973.7738,-21
1604491973.7758,-65
1604491973.7778,-87
1604491973.7798,-95
1604491973.7818,-114
1604491973.7838,-173
1604491973.7858,-224
1604491973.7878,-185
1604491973.7885,-102
1604491973.7898,-114
1604491973.7918,-202
1604491973.7938,-153
1604491973.7958,-48
1604491973.7978,-131
1604491973.7998,-238
1604491973.8018,-148
1604491973.8038,-90
1604491973.8058,-126
1604491973.8078,-70
1604491973.8098,-43
1604491973.8118,-119
1604491973.8138,-126
1604491973.8158,-75
1604491973.8178,-65
1604491973.8184,-82
1604491973.8198,-85
1604491973.8218,-116
1604491973.8238,-131
1604491973.8258,-97
1604491973.8278,-85
1604491973.8298,-82
1604491973.8318,-92
1604491973.8338,-121
1604491973.8358,-129
1604491973.8378,-80
1604491973.8398,-65
1604491973.8418,-146
1604491973.8438,-141
1604491973.8459,-53
1604491973.8478,-63
1604491973.8485,-70
1604491973.8498,-31
1604491973.8518,-75
1604491973.8538,-109
1604491973.8558,-58
1604491973.8578,-73
1604491973.8598,-116
1604491973.8619,-56
1604491973.8638,-2
1604491973.8657,-87
1604491973.8678,-207
1604491973.8698,-229
1604491973.8718,-56
1604491973.8738,404
1604491973.8758,918
1604491973.8778,1011
1604491973.8784,458
1604491973.8798,-299
1604491973.8818,-458
1604491973.8838,-185
1604491973.8858,-233
1604491973.8878,-375
1604491973.8898,-185
1604491973.8918,-51
1604491973.8938,-207
1604491973.8958,-253
1604491973.8978,-134
1604491973.8998,-129
1604491974.3340,-173
1604491974.3348,-148
1604491974.3372,-107
1604491974.3399,-107
1604491974.3419,-129
1604491974.3438,-138
1604491974.3459,-129
1604491974.3479,-99
1604491974.3499,-104
1604491974.3519,-146
1604491974.3538,-158
1604491974.3558,-126
1604491974.3578,-82
1604491974.3598,-12
1604491974.3618,24
1604491974.3638,-56
1604491974.3658,-95
1604491974.3665,-29
1604491974.3678,-31
1604491974.3698,-73
1604491974.3718,-77
1604491974.3740,-92
1604491974.3758,-119
1604491974.3778,-119
1604491974.3798,-119
1604491974.3819,-124
1604491974.3838,-116
1604491974.3858,-109
1604491974.3878,-121
1604491974.3898,-126
1604491974.3919,-124
1604491974.3938,-124
1604491974.3958,-112
1604491974.3964,-90
1604491974.3978,-99
1604491974.3998,-129
1604491974.4018,-116
1604491974.4038,-97
1604491974.4058,-99
1604491974.4078,-90
1604491974.4098,-73
1604491974.4119,-90
1604491974.4138,-102
1604491974.4158,-73
1604491974.4178,-85
1604491974.4198,-119
1604491974.4218,-82
1604491974.4238,-60
1604491974.4258,-107
1604491974.4265,-121
1604491974.4278,-80
1604491974.4298,-63
1604491974.4319,-75
1604491974.4338,-87
1604491974.4359,-82
1604491974.4379,-60
1604491974.4398,-70
1604491974.4418,-114
1604491974.4439,-102
1604491974.4458,-63
1604491974.4478,-87
1604491974.4498,-141
1604491974.4518,-143
1604491974.4538,-126
1604491974.4544,-138
1604491974.4558,-187
1604491974.4578,-129
1604491974.4598,287
1604491974.4618,865
1604491974.4638,987
1604491974.4658,424
1604491974.4678,-311
1604491974.4699,-465
1604491974.8737,-158
1604491974.8744,-131
1604491974.8767,-275
1604491974.8794,-202
1604491974.8814,-109
1604491974.8834,-138
1604491974.8854,-180
1604491974.8861,-143
1604491974.8874,-107
1604491974.8894,-168
1604491974.8914,-187
1604491974.8934,-158
1604491974.8954,-163
1604491974.8974,-143
1604491974.8994,-114
1604491974.9014,-148
1604491974.9034,-187
1604491974.9054,-121
1604491974.9074,-51
1604491974.9093,-75
1604491974.9113,-92
1604491974.9133,-65
1604491974.9153,-53
1604491974.9160,-60
1604491974.9183,-60
1604491974.9204,-41
1604491974.9224,-29
1604491974.9243,-58
1604491974.9263,-73
1604491974.9283,-53
1604491974.9303,-53
1604491974.9324,-80
1604491974.9344,-112
1604491974.9363,-126
1604491974.9384,-107
1604491974.9403,-85
1604491974.9424,-95
1604491974.9443,-109
1604491974.9464,-102
1604491974.9470,-87
1604491974.9483,-77
1604491974.9504,-77
1604491974.9524,-77
1604491974.9544,-70
1604491974.9564,-63
1604491974.9583,-53
1604491974.9603,-58
1604491974.9624,-77
1604491974.9644,-87
1604491974.9663,-90
1604491974.9686,-82
1604491974.9704,-48
1604491974.9724,-14
1604491974.9744,-34
1604491974.9763,-77
1604491974.9770,-92
1604491974.9783,-102
1604491974.9804,-87
1604491974.9824,-56
1604491974.9843,-48
1604491974.9864,-34
1604491974.9883,-56
1604491974.9903,-92
1604491974.9924,-80
1604491974.9944,-68
1604491974.9964,-41
1604491974.9984,-77
1604491975.0003,-148
1604491975.0024,-41
1604491975.0043,14
1604491975.0064,-148
1604491975.0070,-204
1604491975.0084,-112
1604491975.4740,194
1604491975.4749,857
1604491975.4773,1257
1604491975.4800,779
1604491975.4820,-155
1604491975.4840,-524
1604491975.4861,-209
1604491975.4880,-97
1604491975.4900,-265
1604491975.4920,-209
1604491975.4940,-124
1604491975.4959,-199
1604491975.4966,-187
1604491975.4979,-114
1604491975.4999,-151
1604491975.5020,-182
1604491975.5039,-95
1604491975.5059,-38
1604491975.5079,-141
1604491975.5099,-160
1604491975.5119,-53
1604491975.5139,-56
1604491975.5159,-104
1604491975.5179,-34
1604491975.5200,2
1604491975.5219,-87
1604491975.5239,-102
1604491975.5259,-19
1604491975.5267,2
1604491975.5279,-26
1604491975.5299,-24
1604491975.5319,9
1604491975.5339,26
1604491975.5359,-4
1604491975.5379,-12
1604491975.5399,-21
1604491975.5419,-95
1604491975.5439,-104
1604491975.5459,-82
1604491975.5479,-151
1604491975.5499,-65
1604491975.5519,-17
1604491975.5539,-331
1604491975.5559,-407
1604491975.5565,-82
1604491975.5579,-58
1604491975.5599,-214
1604491975.5619,-90
1604491975.5639,-7
1604491975.5659,-112
1604491975.5679,-112
1604491975.5699,-65
1604491975.5719,-95
1604491975.5739,-95
1604491975.5759,-77
1604491975.5779,-114
1604491975.5799,-141
1604491975.5819,-104
1604491975.5839,-56
1604491975.5859,-36
1604491975.5865,-46
1604491975.5879,-104
1604491975.5899,-129
1604491975.5919,-85
1604491975.5939,-77
1604491975.5959,-104
1604491975.5979,-104
1604491975.5999,-114
1604491975.6019,-48
1604491975.6039,46
1604491975.6059,-97
1604491975.6079,-231
1604491975.6099,-68
1604491975.9838,109
1604491975.9844,12
1604491975.9868,-158
1604491975.9894,-170
1604491975.9915,-68
1604491975.9934,268
1604491975.9957,845
1604491975.9975,1150
1604491975.9995,699
1604491976.0015,-170
1604491976.0034,-465
1604491976.0054,-109
1604491976.0075,-26
1604491976.0094,-263
1604491976.0115,-241
1604491976.0134,-99
1604491976.0141,-185
1604491976.0154,-251
1604491976.0174,-97
1604491976.0194,-9
1604491976.0214,-107
1604491976.0234,-136
1604491976.0254,-70
1604491976.0274,-68
1604491976.0294,-80
1604491976.0314,-63
1604491976.0334,-58
1604491976.0354,-58
1604491976.0374,-41
1604491976.0394,-24
1604491976.0414,-12
1604491976.0434,2
1604491976.0440,29
1604491976.0454,41
1604491976.0474,9
1604491976.0494,4
1604491976.0514,31
1604491976.0534,14
1604491976.0554,-12
1604491976.0574,-2
1604491976.0594,-29
1604491976.0614,-68
1604491976.0634,-34
1604491976.0654,-38
1604491976.0674,-99
1604491976.0694,-104
1604491976.0715,-85
1604491976.0734,-87
1604491976.0740,-70
1604491976.0754,-53
1604491976.0774,-68
1604491976.0794,-77
1604491976.0815,-51
1604491976.0834,-31
1604491976.0854,-68
1604491976.0874,-87
1604491976.0894,-56
1604491976.0916,-43
1604491976.0934,-58
1604491976.0954,-48
1604491976.0974,-9
1604491976.0994,-17
1604491976.1015,-77
1604491976.1034,-77
1604491976.1042,-26
1604491976.1054,4
1604491976.1074,9
1604491976.1094,-46
1604491976.1115,-73
1604491976.1134,-19
1604491976.1154,-14
1604491976.1174,-14
1604491976.1194,12
1604491976.5841,31
1604491976.5849,0
1604491976.5873,-92
1604491976.5900,-99
1604491976.5920,-29
1604491976.5940,-36
1604491976.5961,-63
1604491976.5967,-75
1604491976.5979,-92
1604491976.6000,58
1604491976.6019,463
1604491976.6039,892
1604491976.6059,940
1604491976.6079,402
1604491976.6099,-231
1604491976.6119,-336
1604491976.6140,-126
1604491976.6159,-85
1604491976.6179,-138
1604491976.6199,-126
1604491976.6218,-146
1604491976.6238,-153
1604491976.6245,-43
1604491976.6258,21
1604491976.6279,-60
1604491976.6299,-104
1604491976.6319,-60
1604491976.6339,-60
1604491976.6359,-95
1604491976.6378,-73
1604491976.6399,-12
1604491976.6419,9
1604491976.6439,-21
1604491976.6459,-53
1604491976.6478,0
1604491976.6500,68
1604491976.6519,43
1604491976.6539,0
1604491976.6546,14
1604491976.6559,34
1604491976.6579,29
1604491976.6599,31
1604491976.6618,43
1604491976.6639,36
1604491976.6659,14
1604491976.6679,-4
1604491976.6699,-9
1604491976.6718,-29
1604491976.6739,-63
1604491976.6758,-73
1604491976.6779,-65
1604491976.6799,-51
1604491976.6819,-36
1604491976.6838,-58
1604491976.6845,-77
1604491976.6858,-73
1604491976.6879,-92
1604491976.6899,-77
1604491976.6919,-7
1604491976.6939,-29
1604491976.6958,-92
1604491976.6979,-60
1604491976.6999,-46
1604491976.7019,-92
1604491976.7039,-85
1604491976.7058,-58
1604491976.7079,-43
1604491976.7099,-14
1604491976.7119,-24
1604491976.7139,-73
1604491976.7145,-63
1604491976.7159,-14
1604491976.7179,-31
1604491977.1538,-56
1604491977.1547,-21
1604491977.1571,-4
1604491977.1597,-26
1604491977.1618,-36
1604491977.1638,-41
1604491977.1657,-56
1604491977.1677,-65
1604491977.1697,-29
1604491977.1717,-31
1604491977.1723,-80
1604491977.1736,-80
1604491977.1757,-119
1604491977.1778,-107
1604491977.1797,248
1604491977.1817,794
1604491977.1836,1052
1604491977.1856,709
1604491977.1876,-43
1604491977.1896,-392
1604491977.1916,-158
1604491977.1936,-75
1604491977.1956,-199
1604491977.1976,-155
1604491977.1996,-90
1604491977.2016,-116
1604491977.2023,-99
1604491977.2036,-48
1604491977.2056,-48
1604491977.2076,-92
1604491977.2096,-112
1604491977.2117,-68
1604491977.2136,-48
1604491977.2156,-75
1604491977.2176,-48
1604491977.2196,-4
1604491977.2216,-34
1604491977.2236,-51
1604491977.2257,-21
1604491977.2276,-14
1604491977.2296,-4
1604491977.2316,31
1604491977.2323,56
1604491977.2336,56
1604491977.2357,21
1604491977.2376,4
1604491977.2396,26
1604491977.2417,17
1604491977.2436,12
1604491977.2456,29
1604491977.2476,-2
1604491977.2496,-43
1604491977.2516,-34
1604491977.2536,-36
1604491977.2556,-65
1604491977.2576,-56
1604491977.2596,-26
1604491977.2616,-36
1604491977.2623,-56
1604491977.2636,-46
1604491977.2656,-36
1604491977.2676,-43
1604491977.2696,-29
1604491977.2716,-26
1604491977.2737,-51
1604491977.2757,-26
1604491977.2776,-7
1604491977.2796,-29
1604491977.2817,-36
1604491977.2836,-26
1604491977.2856,-21
1604491977.2876,-36
1604491977.2897,-46
1604491977.6937,-36
1604491977.6944,-34
1604491977.6967,-19
1604491977.6994,-19
1604491977.7014,-65
1604491977.7034,-80
1604491977.7055,-46
1604491977.7074,0
1604491977.7094,58
1604491977.7114,46
1604491977.7134,-26
1604491977.7154,-38
1604491977.7174,-19
1604491977.7194,-19
1604491977.7215,-17
1604491977.7233,-21
1604491977.7240,-80
1604491977.7253,-158
1604491977.7274,0
1604491977.7294,584
1604491977.7314,1199
1604491977.7334,1247
1604491977.7354,570
1604491977.7374,-270
1604491977.7394,-421
1604491977.7414,-77
1604491977.7434,-41
1604491977.7454,-194
1604491977.7474,-146
1604491977.7494,-75
1604491977.7514,-107
1604491977.7534,-109
1604491977.7540,-73
1604491977.7554,-70
1604491977.7574,-77
1604491977.7594,-63
1604491977.7613,-60
1604491977.7634,-68
1604491977.7653,-58
1604491977.7674,-29
1604491977.7694,-12
1604491977.7713,-12
1604491977.7735,-26
1604491977.7754,-38
1604491977.7774,-12
1604491977.7794,36
1604491977.7813,63
1604491977.7833,63
1604491977.7840,51
1604491977.7853,46
1604491977.7874,48
1604491977.7893,51
1604491977.7914,43
1604491977.7934,26
1604491977.7954,0
1604491977.7960,-26
1604491977.7983,-43
1604491977.8004,-36
1604491977.8024,-24
1604491977.8043,-38
1604491977.8064,-56
1604491977.8083,-53
1604491977.8103,-48
1604491977.8109,-53
1604491977.8124,-60
1604491977.8143,-46
1604491977.8163,-26
1604491977.8183,-34
1604491977.8203,-38
1604491977.8223,-26
1604491977.8243,-21
1604491977.8264,-24
1604491977.8283,-29
1604491978.2339,-34
1604491978.2347,-29
1604491978.2372,-26
1604491978.2398,-38
1604491978.2405,-29
1604491978.2418,-4
1604491978.2437,-19
1604491978.2459,-51
1604491978.2478,-53
1604491978.2497,-48
1604491978.2518,-53
1604491978.2538,-51
1604491978.2557,-41
1604491978.2578,-36
1604491978.2597,-38
1604491978.2618,-48
1604491978.2637,-56
1604491978.2657,-51
1604491978.2677,-58
1604491978.2697,-75
1604491978.2705,-68
1604491978.2718,-56
1604491978.2737,-141
1604491978.2757,-221
1604491978.2777,95
1604491978.2797,855
1604491978.2817,1486
1604491978.2837,1428
1604491978.2857,528
1604491978.2877,-428
1604491978.2897,-421
1604491978.2918,-60
1604491978.2937,-182
1604491978.2957,-277
1604491978.2977,-129
1604491978.2997,-112
1604491978.3003,-168
1604491978.3017,-129
1604491978.3037,-102
1604491978.3057,-124
1604491978.3077,-119
1604491978.3097,-92
1604491978.3117,-85
1604491978.3137,-90
1604491978.3157,-73
1604491978.3177,-51
1604491978.3197,-58
1604491978.3217,-63
1604491978.3237,-43
1604491978.3257,-21
1604491978.3277,-17
1604491978.3297,-14
1604491978.3303,0
1604491978.3317,9
1604491978.3337,9
1604491978.3357,12
1604491978.3377,19
1604491978.3397,19
1604491978.3417,9
1604491978.3437,-17
1604491978.3457,-48
1604491978.3477,-60
1604491978.3497,-56
1604491978.3517,-68
1604491978.3537,-80
1604491978.3557,-73
1604491978.3577,-75
1604491978.3597,-82
1604491978.3603,-68
1604491978.3617,-58
1604491978.3637,-65
1604491978.3659,-68
1604491978.3677,-63
1604491978.8040,-60
1604491978.8048,-60
1604491978.8073,-58
1604491978.8099,-60
1604491978.8119,-68
1604491978.8139,-75
1604491978.8159,-82
1604491978.8179,-82
1604491978.8198,-75
1604491978.8218,-65
1604491978.8225,-63
1604491978.8238,-65
1604491978.8259,-70
1604491978.8278,-77
1604491978.8299,-80
1604491978.8319,-75
1604491978.8338,-75
1604491978.8358,-75
1604491978.8378,-53
1604491978.8399,-36
1604491978.8419,-58
1604491978.8438,-73
1604491978.8458,-63
1604491978.8478,-63
1604491978.8498,-68
1604491978.8519,-63
1604491978.8524,-53
1604491978.8538,-60
1604491978.8558,-119
1604491978.8578,-224
1604491978.8599,-95
1604491978.8618,538
1604491978.8638,1311
1604491978.8658,1559
1604491978.8679,935
1604491978.8698,-163
1604491978.8718,-563
1604491978.8738,-173
1604491978.8758,-95
1604491978.8778,-292
1604491978.8798,-219
1604491978.8804,-136
1604491978.8818,-185
1604491978.8838,-175
1604491978.8858,-131
1604491978.8878,-129
1604491978.8898,-121
1604491978.8918,-104
1604491978.8938,-104
1604491978.8960,-99
1604491978.8978,-87
1604491978.8998,-77
1604491978.9019,-65
1604491978.9038,-51
1604491978.9058,-48
1604491978.9078,-38
1604491978.9099,-26
1604491978.9104,-21
1604491978.9119,-14
1604491978.9138,-4
1604491978.9158,4
1604491978.9178,17
1604491978.9198,21
1604491978.9219,17
1604491978.9238,2
1604491978.9259,-17
1604491978.9278,-31
1604491978.9298,-48
1604491978.9318,-63
1604491978.9338,-77
1604491978.9358,-92
1604491978.9378,-95
1604491978.9398,-95
1604491979.3439,-102
1604491979.3448,-104
1604491979.3472,-92
1604491979.3498,-85
1604491979.3519,-85
1604491979.3538,-77
1604491979.3557,-80
1604491979.3578,-90
1604491979.3598,-90
1604491979.3619,-92
1604491979.3638,-99
1604491979.3658,-92
1604491979.3678,-75
1604491979.3698,-75
1604491979.3704,-85
1604491979.3717,-77
1604491979.3738,-60
1604491979.3757,-68
1604491979.3777,-77
1604491979.3797,-65
1604491979.3818,-53
1604491979.3837,-60
1604491979.3857,-70
1604491979.3878,-68
1604491979.3898,-63
1604491979.3918,-60
1604491979.3937,-63
1604491979.3959,-70
1604491979.3978,-63
1604491979.3997,-43
1604491979.4003,-41
1604491979.4018,-41
1604491979.4037,-38
1604491979.4058,-58
1604491979.4077,-87
1604491979.4097,-87
1604491979.4118,-65
1604491979.4137,-58
1604491979.4157,-73
1604491979.4177,-119
1604491979.4197,-204
1604491979.4217,-68
1604491979.4237,550
1604491979.4257,1286
1604491979.4277,1501
1604491979.4297,877
1604491979.4303,-177
1604491979.4318,-533
1604491979.4337,-155
1604491979.4359,-102
1604491979.4377,-282
1604491979.4397,-197
1604491979.4418,-126
1604491979.4437,-182
1604491979.4457,-168
1604491979.4477,-121
1604491979.4497,-126
1604491979.4518,-124
1604491979.4537,-102
1604491979.4557,-95
1604491979.4577,-99
1604491979.4597,-95
1604491979.4603,-87
1604491979.4617,-95
1604491979.4637,-80
1604491979.4657,-48
1604491979.4678,-48
1604491979.4697,-48
1604491979.4717,-29
1604491979.4737,-24
1604491979.4757,-14
1604491979.4777,-2
1604491979.4797,-7
1604491979.9437,4
1604491979.9445,31
1604491979.9451,19
1604491979.9461,-19
1604491979.9481,-46
1604491979.9504,-58
1604491979.9522,-70
1604491979.9541,-80
1604491979.9561,-90
1604491979.9581,-95
1604491979.9601,-95
1604491979.9622,-87
1604491979.9641,-73
1604491979.9661,-65
1604491979.9681,-70
1604491979.9701,-73
1604491979.9721,-70
1604491979.9741,-68
1604491979.9747,-70
1604491979.9761,-77
1604491979.9781,-80
1604491979.9801,-77
1604491979.9821,-75
1604491979.9840,-77
1604491979.9860,-82
1604491979.9880,-77
1604491979.9901,-73
1604491979.9921,-70
1604491979.9941,-68
1604491979.9960,-65
1604491979.9981,-63
1604491980.0001,-56
1604491980.0022,-41
1604491980.0042,-36
1604491980.0048,-46
1604491980.0062,-60
1604491980.0081,-56
1604491980.0102,-51
1604491980.0123,-51
1604491980.0140,-38
1604491980.0160,-34
1604491980.0180,-46
1604491980.0201,-41
1604491980.0220,-29
1604491980.0240,-34
1604491980.0261,-41
1604491980.0281,-31
1604491980.0300,-12
1604491980.0320,9
1604491980.0342,14
1604491980.0346,4
1604491980.0361,-26
1604491980.0381,-48
1604491980.0401,-38
1604491980.0420,-34
1604491980.0440,-43
1604491980.0462,-46
1604491980.0481,-48
1604491980.0500,-65
1604491980.0521,-136
1604491980.0540,-175
1604491980.0561,134
1604491980.0580,831
1604491980.0602,1399
1604491980.0621,1325
1604491980.0640,477
1604491980.0646,-407
1604491980.0660,-394
1604491980.0681,-70
1604491980.0700,-177
1604491980.0720,-265
1604491980.0740,-148
1604491980.0760,-131
1604491980.5139,-163
1604491980.5148,-129
1604491980.5173,-104
1604491980.5199,-112
1604491980.5219,-107
1604491980.5239,-92
1604491980.5260,-77
1604491980.5279,-75
1604491980.5285,-80
1604491980.5299,-82
1604491980.5319,-70
1604491980.5338,-51
1604491980.5358,-36
1604491980.5379,-34
1604491980.5399,-31
1604491980.5419,-24
1604491980.5439,-24
1604491980.5458,-21
1604491980.5478,7
1604491980.5498,21
1604491980.5519,4
1604491980.5538,4
1604491980.5559,12
1604491980.5578,-7
1604491980.5584,-41
1604491980.5598,-60
1604491980.5619,-68
1604491980.5638,-77
1604491980.5658,-85
1604491980.5678,-85
1604491980.5698,-80
1604491980.5718,-80
1604491980.5738,-80
1604491980.5758,-77
1604491980.5780,-70
1604491980.5798,-65
1604491980.5818,-68
1604491980.5838,-68
1604491980.5858,-68
1604491980.5878,-65
1604491980.5884,-63
1604491980.5898,-56
1604491980.5918,-53
1604491980.5938,-53
1604491980.5958,-43
1604491980.5978,-38
1604491980.5998,-41
1604491980.6019,-41
1604491980.6039,-36
1604491980.6058,-31
1604491980.6078,-36
1604491980.6100,-36
1604491980.6119,-31
1604491980.6139,-31
1604491980.6158,-29
1604491980.6178,-19
1604491980.6261,-19
1604491980.6278,-24
1604491980.6298,-24
1604491980.6318,-21
1604491980.6338,-17
1604491980.6358,-12
1604491980.6378,-9
1604491980.6398,-14
1604491980.6418,-19
1604491980.6439,-9
1604491980.6458,0
1604491980.6478,-7
1604491980.6498,-17
1604491980.6518,-12
1604491980.6538,-9
1604491980.6544,-9
1604491980.6557,-4
1604491981.0539,-2
1604491981.0548,-9
1604491981.0572,-19
1604491981.0599,-14
1604491981.0618,-7
1604491981.0638,-4
1604491981.0658,-2
1604491981.0678,9
1604491981.0698,19
1604491981.0718,2
1604491981.0738,-21
1604491981.0758,-14
1604491981.0766,-4
1604491981.0778,-17
1604491981.0798,-24
1604491981.0818,-17
1604491981.0837,-21
1604491981.0858,-70
1604491981.0878,-158
1604491981.0898,-43
1604491981.0918,553
1604491981.0938,1328
1604491981.0958,1615
1604491981.0977,1004
1604491981.0998,-116
1604491981.1018,-541
1604491981.1038,-158
1604491981.1057,-75
1604491981.1064,-280
1604491981.1077,-212
1604491981.1097,-124
1604491981.1118,-190
1604491981.1137,-194
1604491981.1157,-131
1604491981.1178,-109
1604491981.1198,-95
1604491981.1217,-68
1604491981.1237,-68
1604491981.1258,-85
1604491981.1277,-85
1604491981.1297,-70
1604491981.1319,-70
1604491981.1338,-80
1604491981.1358,-65
1604491981.1364,-46
1604491981.1378,-34
1604491981.1397,-7
1604491981.1417,2
1604491981.1438,-7
1604491981.1457,14
1604491981.1478,34
1604491981.1497,14
1604491981.1518,17
1604491981.1538,31
1604491981.1557,26
1604491981.1577,0
1604491981.1598,-34
1604491981.1618,-58
1604491981.1637,-70
1604491981.1657,-70
1604491981.1664,-68
1604491981.1678,-73
1604491981.1698,-70
1604491981.1719,-63
1604491981.1738,-73
1604491981.1757,-82
1604491981.1777,-65
1604491981.1797,-56
1604491981.1818,-56
1604491981.1837,-58
1604491981.1857,-65
1604491981.1877,-68
1604491981.1897,-58
1604491981.6235,-56
1604491981.6244,-46
1604491981.6261,-34
1604491981.6285,-51
1604491981.6305,-53
1604491981.6325,-14
1604491981.6345,-14
1604491981.6364,-46
1604491981.6384,-46
1604491981.6404,-29
1604491981.6425,-38
1604491981.6445,-56
1604491981.6464,-56
1604491981.6484,-48
1604491981.6504,-46
1604491981.6525,-43
1604491981.6544,-36
1604491981.6564,-36
1604491981.6571,-38
1604491981.6584,-43
1604491981.6605,-46
1604491981.6625,-38
1604491981.6644,-31
1604491981.6664,-31
1604491981.6684,-36
1604491981.6705,-34
1604491981.6725,-38
1604491981.6744,-51
1604491981.6764,-70
1604491981.6784,-73
1604491981.6804,-53
1604491981.6824,-41
1604491981.6844,-48
1604491981.6864,-53
1604491981.6870,-51
1604491981.6884,-60
1604491981.6904,-65
1604491981.6924,-70
1604491981.6944,-87
1604491981.6964,-82
1604491981.6984,-65
1604491981.7006,-77
1604491981.7025,-131
1604491981.7044,-216
1604491981.7064,-121
1604491981.7084,455
1604491981.7104,1245
1604491981.7124,1533
1604491981.7144,928
1604491981.7164,-165
1604491981.7170,-587
1604491981.7184,-214
1604491981.7204,-129
1604491981.7224,-324
1604491981.7244,-224
1604491981.7264,-107
1604491981.7284,-182
1604491981.7304,-202
1604491981.7324,-104
1604491981.7344,-51
1604491981.7364,-124
1604491981.7384,-163
1604491981.7404,-131
1604491981.7424,-138
1604491981.7444,-109
1604491981.7464,-77
1604491981.7470,-90
1604491981.7484,-65
1604491981.7504,-31
1604491981.7524,-43
1604491981.7544,-56
1604491981.7564,-46
1604491981.7584,-31
1604491982.1640,4
1604491982.1649,34
1604491982.1674,-7
1604491982.1700,-60
1604491982.1720,-9
1604491982.1740,38
1604491982.1746,12
1604491982.1760,-4
1604491982.1780,-82
1604491982.1800,-182
1604491982.1820,-129
1604491982.1839,-36
1604491982.1859,-51
1604491982.1879,-109
1604491982.1900,-112
1604491982.1920,-14
1604491982.1939,0
1604491982.1959,-182
1604491982.1979,-192
1604491982.2002,-29
1604491982.2020,-107
1604491982.2039,-116
1604491982.2045,12
1604491982.2059,-63
1604491982.2080,-129
1604491982.2099,-56
1604491982.2119,-34
1604491982.2139,-36
1604491982.2159,-17
1604491982.2179,-12
1604491982.2199,-24
1604491982.2219,-73
1604491982.2239,-109
1604491982.2259,-77
1604491982.2279,-70
1604491982.2299,-107
1604491982.2319,-51
1604491982.2339,24
1604491982.2345,-70
1604491982.2359,-97
1604491982.2379,63
1604491982.2399,17
1604491982.2419,-146
1604491982.2439,-53
1604491982.2459,85
1604491982.2479,12
1604491982.2499,-82
1604491982.2519,-46
1604491982.2540,-9
1604491982.2559,-48
1604491982.2579,-65
1604491982.2599,-58
1604491982.2619,-36
1604491982.2640,4
1604491982.2645,19
1604491982.2659,2
1604491982.2679,-4
1604491982.2699,-29
1604491982.2719,-9
1604491982.2739,34
1604491982.2759,-77
1604491982.2779,-121
1604491982.2799,-19
1604491982.2818,-17
1604491982.2839,0
1604491982.2859,-65
1604491982.2879,-136
1604491982.2900,19
1604491982.2919,24
1604491982.2939,-124
1604491982.2947,92
1604491982.2959,716
1604491982.2979,1118
1604491982.7340,911
1604491982.7348,346
1604491982.7372,-165
1604491982.7398,-275
1604491982.7418,-138
1604491982.7438,-136
1604491982.7460,-170
1604491982.7479,-51
1604491982.7498,0
1604491982.7519,-287
1604491982.7538,-409
1604491982.7558,-131
1604491982.7578,-102
1604491982.7584,-177
1604491982.7598,-107
1604491982.7618,-136
1604491982.7638,-82
1604491982.7658,29
1604491982.7678,-2
1604491982.7698,-36
1604491982.7719,-17
1604491982.7738,-26
1604491982.7758,-9
1604491982.7777,19
1604491982.7798,-17
1604491982.7818,-7
1604491982.7837,73
1604491982.7858,82
1604491982.7877,34
1604491982.7883,70
1604491982.7898,131
1604491982.7918,68
1604491982.7938,7
1604491982.7958,51
1604491982.7977,26
1604491982.7997,-141
1604491982.8018,-56
1604491982.8038,141
1604491982.8058,-141
1604491982.8077,-324
1604491982.8098,2
1604491982.8118,116
1604491982.8137,-43
1604491982.8157,-73
1604491982.8177,-46
1604491982.8183,-56
1604491982.8197,-53
1604491982.8218,-41
1604491982.8239,-34
1604491982.8258,9
1604491982.8277,60
1604491982.8297,7
1604491982.8318,-85
1604491982.8337,-56
1604491982.8358,0
1604491982.8377,-56
1604491982.8397,-109
1604491982.8418,-24
1604491982.8438,-7
1604491982.8457,-219
1604491982.8477,-292
1604491982.8483,-85
1604491982.8497,112
1604491982.8518,114
1604491982.8538,-63
1604491982.8557,-107
1604491982.8577,19
1604491982.8598,34
1604491982.8618,-14
1604491982.8637,-7
1604491982.8658,-12
1604491982.8677,-31
1604491982.8697,-17
1604491983.3640,0
1604491983.3649,31
1604491983.3663,24
1604491983.3683,-77
1604491983.3703,-104
1604491983.3723,14
1604491983.3742,56
1604491983.3764,-14
1604491983.3785,-21
1604491983.3803,-75
1604491983.3823,-160
1604491983.3842,-41
1604491983.3862,51
1604491983.3883,-114
1604491983.3902,-155
1604491983.3923,-7
1604491983.3930,80
1604491983.3943,419
1604491983.3963,974
1604491983.3983,984
1604491983.4003,297
1604491983.4023,-299
1604491983.4042,-263
1604491983.4062,-46
1604491983.4082,-73
1604491983.4103,-124
1604491983.4125,-68
1604491983.4143,-51
1604491983.4163,-102
1604491983.4182,-92
1604491983.4203,-48
1604491983.4222,-60
1604491983.4229,-58
1604491983.4242,-26
1604491983.4263,-17
1604491983.4283,-9
1604491983.4302,-7
1604491983.4322,-9
1604491983.4342,9
1604491983.4362,36
1604491983.4382,51
1604491983.4402,36
1604491983.4422,7
1604491983.4442,19
1604491983.4463,46
1604491983.4482,38
1604491983.4502,43
1604491983.4522,48
1604491983.4528,63
1604491983.4542,102
1604491983.4562,82
1604491983.4582,43
1604491983.4603,36
1604491983.4623,0
1604491983.4642,-19
1604491983.4663,-12
1604491983.4682,-38
1604491983.4702,-82
1604491983.4722,-73
1604491983.4742,-17
1604491983.4762,-2
1604491983.4783,-26
1604491983.4802,-41
1604491983.4823,-36
1604491983.4828,-19
1604491983.4842,-2
1604491983.4862,12
1604491983.4882,-9
1604491983.4902,-53
1604491983.4923,-56
1604491983.4943,21
1604491983.4962,46
1604491983.4983,-68
1604491983.9034,-77
1604491983.9042,26
1604491983.9066,0
1604491983.9093,-119
1604491983.9115,-95
1604491983.9133,21
1604491983.9139,7
1604491983.9153,-43
1604491983.9172,-19
1604491983.9192,-9
1604491983.9212,-24
1604491983.9233,-21
1604491983.9253,-24
1604491983.9272,-38
1604491983.9292,-36
1604491983.9312,-24
1604491983.9332,-12
1604491983.9352,4
1604491983.9372,7
1604491983.9392,-14
1604491983.9412,-12
1604491983.9432,-12
1604491983.9438,-60
1604491983.9452,-70
1604491983.9472,-34
1604491983.9492,-36
1604491983.9512,-41
1604491983.9534,-4
1604491983.9552,-29
1604491983.9572,-109
1604491983.9592,0
1604491983.9612,455
1604491983.9632,996
1604491983.9652,1079
1604491983.9672,453
1604491983.9692,-275
1604491983.9712,-331
1604491983.9732,-48
1604491983.9738,-73
1604491983.9752,-151
1604491983.9772,-63
1604491983.9792,-38
1604491983.9813,-87
1604491983.9832,-85
1604491983.9852,-48
1604491983.9872,-43
1604491983.9892,-43
1604491983.9912,-21
1604491983.9932,-21
1604491983.9952,-38
1604491983.9972,-36
1604491983.9992,-19
1604491984.0012,4
1604491984.0032,2
1604491984.0038,-24
1604491984.0053,-2
1604491984.0072,31
1604491984.0092,26
1604491984.0112,38
1604491984.0132,73
1604491984.0152,80
1604491984.0172,65
1604491984.0192,58
1604491984.0212,60
1604491984.0232,53
1604491984.0252,41
1604491984.0272,4
1604491984.0292,-38
1604491984.0312,-38
1604491984.0332,-26
1604491984.0338,-34
1604491984.0352,-48
1604491984.0372,-53
1604491984.4439,-51
1604491984.4447,-51
1604491984.4472,-51
1604491984.4498,-38
1604491984.4519,-21
1604491984.4538,-19
1604491984.4558,-21
1604491984.4578,-2
1604491984.4598,21
1604491984.4618,31
1604491984.4624,19
1604491984.4638,-7
1604491984.4658,-41
1604491984.4678,-68
1604491984.4698,-68
1604491984.4718,-63
1604491984.4737,-48
1604491984.4757,-7
1604491984.4778,9
1604491984.4798,-31
1604491984.4818,-41
1604491984.4838,9
1604491984.4857,43
1604491984.4877,9
1604491984.4897,-31
1604491984.4918,-70
1604491984.4924,-82
1604491984.4937,24
1604491984.4958,95
1604491984.4978,-2
1604491984.4998,-90
1604491984.5019,-41
1604491984.5038,-9
1604491984.5060,-31
1604491984.5077,-7
1604491984.5097,-2
1604491984.5118,-31
1604491984.5137,-41
1604491984.5157,-70
1604491984.5177,-124
1604491984.5197,36
1604491984.5203,587
1604491984.5218,1121
1604491984.5237,1030
1604491984.5257,260
1604491984.5277,-389
1604491984.5297,-282
1604491984.5318,-12
1604491984.5337,-95
1604491984.5357,-173
1604491984.5377,-99
1604491984.5398,-53
1604491984.5417,-95
1604491984.5437,-138
1604491984.5457,-77
1604491984.5477,-19
1604491984.5497,-58
1604491984.5503,-87
1604491984.5518,-21
1604491984.5537,46
1604491984.5558,14
1604491984.5577,-21
1604491984.5598,21
1604491984.5618,56
1604491984.5638,-17
1604491984.5657,-73
1604491984.5677,-24
1604491984.5697,7
1604491984.5717,60
1604491984.5737,109
1604491984.5757,97
1604491984.5777,77
1604491984.5797,26
1604491984.9845,14
1604491984.9853,70
1604491984.9878,87
1604491984.9904,48
1604491984.9923,-12
1604491984.9943,-48
1604491984.9964,-38
1604491984.9984,-26
1604491985.0003,-29
1604491985.0023,-9
1604491985.0044,7
1604491985.0065,-36
1604491985.0084,-63
1604491985.0089,-19
1604491985.0104,-26
1604491985.0124,-48
1604491985.0143,-4
1604491985.0163,7
1604491985.0183,-2
1604491985.0203,9
1604491985.0224,19
1604491985.0243,4
1604491985.0263,-19
1604491985.0283,0
1604491985.0303,26
1604491985.0323,4
1604491985.0343,-14
1604491985.0363,24
1604491985.0383,58
1604491985.0388,17
1604491985.0403,-7
1604491985.0424,24
1604491985.0444,29
1604491985.0463,14
1604491985.0483,19
1604491985.0503,41
1604491985.0524,46
1604491985.0543,14
1604491985.0563,2
1604491985.0583,21
1604491985.0603,19
1604491985.0623,14
1604491985.0643,12
1604491985.0663,9
1604491985.0683,19
1604491985.0689,-4
1604491985.0703,-97
1604491985.0724,-63
1604491985.0743,382
1604491985.0763,1045
1604491985.0783,1289
1604491985.0803,760
1604491985.0823,-99
1604491985.0843,-399
1604491985.0863,-119
1604491985.0883,-41
1604491985.0903,-168
1604491985.0924,-136
1604491985.0943,-104
1604491985.0963,-141
1604491985.0983,-126
1604491985.0989,-97
1604491985.1005,-87
1604491985.1023,-68
1604491985.1043,-63
1604491985.1063,-85
1604491985.1083,-82
1604491985.1103,-51
1604491985.1123,-41
1604491985.1143,-48
1604491985.1163,-38
1604491985.1183,-29
1604491985.1203,-31
1604491985.5235,-19
1604491985.5244,7
1604491985.5269,19
1604491985.5295,17
1604491985.5302,9
1604491985.5315,7
1604491985.5335,19
1604491985.5355,19
1604491985.5375,-7
1604491985.5394,-29
1604491985.5416,-41
1604491985.5435,-53
1604491985.5454,-63
1604491985.5474,-68
1604491985.5494,-73
1604491985.5515,-82
1604491985.5534,-87
1604491985.5554,-80
1604491985.5574,-65
1604491985.5595,-68
1604491985.5600,-77
1604491985.5614,-70
1604491985.5634,-56
1604491985.5654,-56
1604491985.5674,-58
1604491985.5694,-56
1604491985.5714,-43
1604491985.5734,-31
1604491985.5754,-31
1604491985.5775,-31
1604491985.5794,-26
1604491985.5814,-24
1604491985.5834,-26
1604491985.5854,-31
1604491985.5874,-34
1604491985.5894,-36
1604491985.5900,-34
1604491985.5914,-36
1604491985.5934,-38
1604491985.5954,-29
1604491985.5976,-14
1604491985.5994,0
1604491985.6015,4
1604491985.6034,-4
1604491985.6054,-19
1604491985.6074,-21
1604491985.6094,-21
1604491985.6114,-24
1604491985.6134,-29
1604491985.6154,-34
1604491985.6174,-38
1604491985.6194,-48
1604491985.6200,-126
1604491985.6214,-182
1604491985.6234,131
1604491985.6253,867
1604491985.6273,1462
1604491985.6294,1350
1604491985.6314,446
1604491985.6333,-424
1604491985.6354,-365
1604491985.6373,-41
1604491985.6393,-158
1604491985.6414,-236
1604491985.6434,-114
1604491985.6453,-104
1604491985.6473,-141
1604491985.6493,-107
1604491985.6500,-82
1604491985.6514,-87
1604491985.6534,-77
1604491985.6554,-68
1604491985.6574,-65
1604491986.0936,-53
1604491986.0944,-43
1604491986.0968,-38
1604491986.0995,-24
1604491986.1016,-17
1604491986.1034,-19
1604491986.1055,-4
1604491986.1074,7
1604491986.1081,4
1604491986.1094,9
1604491986.1115,24
1604491986.1134,26
1604491986.1154,14
1604491986.1174,17
1604491986.1194,21
1604491986.1215,7
1604491986.1234,-9
1604491986.1254,-21
1604491986.1276,-43
1604491986.1294,-60
1604491986.1314,-70
1604491986.1333,-75
1604491986.1353,-77
1604491986.1374,-70
1604491986.1380,-63
1604491986.1393,-58
1604491986.1414,-60
1604491986.1434,-70
1604491986.1453,-60
1604491986.1474,-46
1604491986.1494,-48
1604491986.1514,-38
1604491986.1533,-29
1604491986.1553,-29
1604491986.1574,-21
1604491986.1593,-19
1604491986.1615,-19
1604491986.1633,-17
1604491986.1653,-7
1604491986.1673,-7
1604491986.1679,-17
1604491986.1694,-12
1604491986.1714,-4
1604491986.1734,0
1604491986.1753,-9
1604491986.1773,-19
1604491986.1793,4
1604491986.1814,19
1604491986.1833,-7
1604491986.1853,-14
1604491986.1873,7
1604491986.1893,-14
1604491986.1914,-48
1604491986.1934,-9
1604491986.1953,24
1604491986.1973,-19
1604491986.1979,-77
1604491986.1993,-143
1604491986.2014,-163
1604491986.2034,173
1604491986.2053,933
1604491986.2073,1530
1604491986.2093,1347
1604491986.2114,353
1604491986.2134,-482
1604491986.2153,-316
1604491986.2173,-4
1604491986.2193,-158
1604491986.2214,-194
1604491986.2235,-99
1604491986.2254,-148
1604491986.2274,-173
1604491986.2279,-112
1604491986.6936,-92
1604491986.6944,-90
1604491986.6969,-70
1604491986.6995,-70
1604491986.7016,-73
1604491986.7035,-60
1604491986.7055,-58
1604491986.7075,-46
1604491986.7095,-26
1604491986.7115,-29
1604491986.7135,-43
1604491986.7155,-19
1604491986.7175,7
1604491986.7195,-2
1604491986.7202,4
1604491986.7215,34
1604491986.7234,34
1604491986.7254,24
1604491986.7274,29
1604491986.7295,21
1604491986.7315,-7
1604491986.7334,-24
1604491986.7355,-29
1604491986.7374,-46
1604491986.7394,-63
1604491986.7415,-65
1604491986.7434,-68
1604491986.7454,-85
1604491986.7474,-87
1604491986.7494,-70
1604491986.7500,-70
1604491986.7515,-82
1604491986.7534,-73
1604491986.7554,-68
1604491986.7574,-75
1604491986.7594,-68
1604491986.7615,-60
1604491986.7634,-75
1604491986.7654,-75
1604491986.7674,-56
1604491986.7694,-46
1604491986.7714,-51
1604491986.7734,-56
1604491986.7754,-46
1604491986.7774,-46
1604491986.7794,-51
1604491986.7800,-43
1604491986.7817,-43
1604491986.7835,-51
1604491986.7854,-53
1604491986.7874,-38
1604491986.7894,-29
1604491986.7915,-29
1604491986.7934,-26
1604491986.7954,-26
1604491986.7974,-36
1604491986.7994,-41
1604491986.8014,-38
1604491986.8034,-38
1604491986.8054,-41
1604491986.8074,-41
1604491986.8094,-31
1604491986.8100,-43
1604491986.8114,-119
1604491986.8134,-190
1604491986.8154,56
1604491986.8174,733
1604491986.8194,1374
1604491986.8214,1403
1604491986.8234,594
1604491986.8254,-370
1604491986.8274,-441
1604491986.8294,-73
1604491987.2341,-148
1604491987.2349,-277
1604491987.2374,-163
1604491987.2384,-136
1604491987.2400,-180
1604491987.2419,-141
1604491987.2440,-112
1604491987.2460,-124
1604491987.2480,-114
1604491987.2500,-97
1604491987.2520,-102
1604491987.2539,-107
1604491987.2560,-92
1604491987.2579,-80
1604491987.2599,-73
1604491987.2620,-58
1604491987.2640,-43
1604491987.2659,-34
1604491987.2679,-26
1604491987.2685,-17
1604491987.2699,-7
1604491987.2720,2
1604491987.2739,4
1604491987.2760,0
1604491987.2779,2
1604491987.2801,0
1604491987.2819,-21
1604491987.2839,-43
1604491987.2859,-53
1604491987.2879,-68
1604491987.2900,-85
1604491987.2919,-90
1604491987.2939,-87
1604491987.2959,-90
1604491987.2980,-97
1604491987.2985,-97
1604491987.2999,-95
1604491987.3019,-90
1604491987.3039,-85
1604491987.3059,-82
1604491987.3079,-75
1604491987.3099,-75
1604491987.3119,-82
1604491987.3140,-87
1604491987.3159,-85
1604491987.3179,-82
1604491987.3199,-75
1604491987.3219,-70
1604491987.3239,-65
1604491987.3259,-63
1604491987.3279,-58
1604491987.3285,-48
1604491987.3299,-48
1604491987.3320,-51
1604491987.3339,-53
1604491987.3359,-56
1604491987.3379,-46
1604491987.3399,-43
1604491987.3419,-56
1604491987.3439,-53
1604491987.3460,-34
1604491987.3479,-29
1604491987.3499,-29
1604491987.3519,-17
1604491987.3539,-17
1604491987.3559,-34
1604491987.3579,-36
1604491987.3585,-38
1604491987.3599,-51
1604491987.3620,-48
1604491987.3639,-43
1604491987.3659,-48
1604491987.3679,-56
1604491987.8937,-116
1604491987.8948,-199
1604491987.8972,53
1604491987.9001,792
1604491987.9019,1479
1604491987.9038,1447
1604491987.9059,536
1604491987.9078,-433
1604491987.9098,-446
1604491987.9104,-77
1604491987.9118,-165
1604491987.9138,-270
1604491987.9158,-153
1604491987.9178,-136
1604491987.9198,-177
1604491987.9218,-141
1604491987.9238,-116
1604491987.9258,-124
1604491987.9278,-121
1604491987.9298,-104
1604491987.9318,-92
1604491987.9338,-82
1604491987.9358,-73
1604491987.9378,-65
1604491987.9398,-56
1604491987.9404,-41
1604491987.9418,-26
1604491987.9438,-21
1604491987.9457,-17
1604491987.9478,4
1604491987.9498,26
1604491987.9518,29
1604491987.9537,21
1604491987.9557,21
1604491987.9577,31
1604491987.9597,34
1604491987.9618,17
1604491987.9637,-14
1604491987.9658,-41
1604491987.9678,-53
1604491987.9697,-63
1604491987.9703,-70
1604491987.9717,-77
1604491987.9737,-87
1604491987.9757,-95
1604491987.9778,-87
1604491987.9797,-77
1604491987.9818,-73
1604491987.9838,-82
1604491987.9857,-85
1604491987.9877,-70
1604491987.9897,-60
1604491987.9918,-65
1604491987.9937,-60
1604491987.9958,-58
1604491987.9978,-63
1604491987.9997,-60
1604491988.0003,-58
1604491988.0018,-60
1604491988.0037,-56
1604491988.0057,-41
1604491988.0077,-34
1604491988.0097,-41
1604491988.0118,-46
1604491988.0137,-46
1604491988.0157,-46
1604491988.0177,-51
1604491988.0197,-53
1604491988.0217,-43
1604491988.0238,-31
1604491988.0257,-36
1604491988.0277,-29
1604491988.0297,-4
1604491988.3444,-12
1604491988.3450,-34
1604491988.3474,-36
1604491988.3500,-31
1604491988.3522,-29
1604491988.3541,-34
1604491988.3560,-41
1604491988.3581,-34
1604491988.3601,-36
1604491988.3621,-119
1604491988.3640,-221
1604491988.3660,34
1604491988.3666,853
1604491988.3680,1613
1604491988.3700,1506
1604491988.3720,428
1604491988.3740,-572
1604491988.3760,-465
1604491988.3780,-56
1604491988.3800,-177
1604491988.3820,-268
1604491988.3840,-141
1604491988.3860,-136
1604491988.3880,-175
1604491988.3900,-131
1604491988.3920,-116
1604491988.3940,-121
1604491988.3960,-90
1604491988.3966,-85
1604491988.3980,-97
1604491988.4000,-70
1604491988.4020,-51
1604491988.4041,-53
1604491988.4060,-38
1604491988.4079,-9
1604491988.4100,2
1604491988.4121,12
1604491988.4140,38
1604491988.4159,65
1604491988.4180,77
1604491988.4200,80
1604491988.4220,85
1604491988.4240,90
1604491988.4260,85
1604491988.4266,63
1604491988.4280,29
1604491988.4300,-12
1604491988.4320,-56
1604491988.4340,-73
1604491988.4360,-68
1604491988.4380,-85
1604491988.4400,-114
1604491988.4420,-121
1604491988.4440,-104
1604491988.4460,-99
1604491988.4480,-109
1604491988.4500,-104
1604491988.4520,-85
1604491988.4540,-80
1604491988.4559,-85
1604491988.4566,-85
1604491988.4580,-75
1604491988.4600,-63
1604491988.4620,-58
1604491988.4640,-58
1604491988.4660,-48
1604491988.4680,-38
1604491988.4699,-31
1604491988.4720,-21
1604491988.4740,-4
1604491988.4760,-7
1604491988.4780,-34
1604491988.4800,-58
1604491988.9134,-58
1604491988.9143,-43
1604491988.9167,-36
1604491988.9178,-36
1604491988.9193,-46
1604491988.9214,-38
1604491988.9234,-19
1604491988.9255,-38
1604491988.9274,-70
1604491988.9294,-63
1604491988.9316,-48
1604491988.9334,-58
1604491988.9353,-70
1604491988.9373,-53
1604491988.9393,-36
1604491988.9414,-65
1604491988.9433,-160
1604491988.9453,-238
1604491988.9473,124
1604491988.9479,1084
1604491988.9493,1801
1604491988.9513,1406
1604491988.9532,143
1604491988.9553,-662
1604491988.9572,-350
1604491988.9592,-26
1604491988.9613,-209
1604491988.9632,-229
1604491988.9652,-104
1604491988.9672,-131
1604491988.9692,-155
1604491988.9713,-112
1604491988.9732,-95
1604491988.9752,-87
1604491988.9773,-70
1604491988.9778,-63
1604491988.9792,-56
1604491988.9813,-38
1604491988.9832,-38
1604491988.9852,-38
1604491988.9872,-2
1604491988.9893,43
1604491988.9913,34
1604491988.9932,21
1604491988.9953,60
1604491988.9973,95
1604491988.9992,97
1604491989.0013,99
1604491989.0032,112
1604491989.0052,107
1604491989.0072,77
1604491989.0078,43
1604491989.0092,9
1604491989.0113,-43
1604491989.0132,-90
1604491989.0152,-82
1604491989.0172,-68
1604491989.0192,-90
1604491989.0213,-116
1604491989.0233,-126
1604491989.0252,-109
1604491989.0274,-99
1604491989.0293,-112
1604491989.0314,-109
1604491989.0333,-85
1604491989.0352,-77
1604491989.0373,-92
1604491989.0378,-75
1604491989.0392,-46
1604491989.0413,-60
1604491989.0433,-65
1604491989.0453,-29
1604491989.0473,-21
1604491989.4540,-31
1604491989.4549,-19
1604491989.4573,-26
1604491989.4599,-31
1604491989.4620,-17
1604491989.4639,-36
1604491989.4660,-80
1604491989.4666,-77
1604491989.4680,-21
1604491989.4699,29
1604491989.4719,7
1604491989.4739,-63
1604491989.4759,-68
1604491989.4779,-29
1604491989.4799,-14
1604491989.4819,-7
1604491989.4839,-7
1604491989.4859,-26
1604491989.4879,-21
1604491989.4899,-31
1604491989.4920,-158
1604491989.4939,-173
1604491989.4958,397
1604491989.4965,1323
1604491989.4978,1647
1604491989.4998,923
1604491989.5019,-221
1604491989.5038,-621
1604491989.5058,-197
1604491989.5078,-29
1604491989.5098,-204
1604491989.5119,-182
1604491989.5138,-141
1604491989.5159,-148
1604491989.5178,-21
1604491989.5198,38
1604491989.5219,-60
1604491989.5238,-92
1604491989.5259,-41
1604491989.5266,-46
1604491989.5279,-85
1604491989.5298,-36
1604491989.5319,41
1604491989.5338,38
1604491989.5358,21
1604491989.5378,41
1604491989.5398,104
1604491989.5418,170
1604491989.5439,155
1604491989.5458,95
1604491989.5478,107
1604491989.5498,153
1604491989.5519,146
1604491989.5538,104
1604491989.5558,63
1604491989.5564,-4
1604491989.5578,-34
1604491989.5598,-31
1604491989.5619,-85
1604491989.5638,-95
1604491989.5658,-73
1604491989.5678,-119
1604491989.5698,-173
1604491989.5719,-175
1604491989.5738,-151
1604491989.5758,-131
1604491989.5778,-153
1604491989.5798,-131
1604491989.5819,-126
1604491989.5839,-170
1604491989.5858,-85
1604491989.5864,-31
1604491989.5878,-116
1604491990.0536,-112
1604491990.0543,-48
1604491990.0567,-51
1604491990.0593,-85
1604491990.0614,-73
1604491990.0633,-43
1604491990.0654,-63
1604491990.0674,-80
1604491990.0693,-60
1604491990.0714,-48
1604491990.0733,-29
1604491990.0753,-29
1604491990.0760,-70
1604491990.0773,-80
1604491990.0793,-43
1604491990.0814,-46
1604491990.0833,-87
1604491990.0855,-65
1604491990.0873,-56
1604491990.0894,-99
1604491990.0914,-116
1604491990.0933,-194
1604491990.0953,-168
1604491990.0973,463
1604491990.0993,1355
1604491990.1013,1508
1604491990.1033,667
1604491990.1053,-436
1604491990.1060,-667
1604491990.1073,-163
1604491990.1093,-70
1604491990.1113,-287
1604491990.1133,-221
1604491990.1153,-116
1604491990.1173,-165
1604491990.1193,-177
1604491990.1214,-138
1604491990.1233,-138
1604491990.1253,-136
1604491990.1273,-104
1604491990.1293,-85
1604491990.1314,-90
1604491990.1333,-73
1604491990.1353,-51
1604491990.1359,-60
1604491990.1373,-51
1604491990.1393,-31
1604491990.1414,0
1604491990.1433,56
1604491990.1453,63
1604491990.1473,51
1604491990.1493,77
1604491990.1514,82
1604491990.1533,56
1604491990.1553,56
1604491990.1573,14
1604491990.1593,-70
1604491990.1613,-116
1604491990.1633,-134
1604491990.1653,-146
1604491990.1660,-148
1604491990.1673,-151
1604491990.1693,-160
1604491990.1713,-153
1604491990.1733,-143
1604491990.1753,-153
1604491990.1773,-146
1604491990.1793,-121
1604491990.1815,-107
1604491990.1833,-112
1604491990.1853,-109
1604491990.1873,-80
1604491990.1893,-51
1604491990.5935,-63
1604491990.5944,-92
1604491990.5968,-97
1604491990.5979,-92
1604491990.5994,-97
1604491990.6014,-90
1604491990.6034,-87
1604491990.6055,-116
1604491990.6074,-129
1604491990.6094,-126
1604491990.6114,-158
1604491990.6134,-180
1604491990.6154,-148
1604491990.6174,-116
1604491990.6194,-134
1604491990.6214,-158
1604491990.6234,-151
1604491990.6254,-165
1604491990.6274,-182
1604491990.6286,-148
1604491990.6303,-136
1604491990.6324,-148
1604491990.6343,-114
1604491990.6363,-70
1604491990.6383,-134
1604491990.6404,-290
1604491990.6424,-185
1604491990.6443,514
1604491990.6463,1338
1604491990.6483,1467
1604491990.6503,694
1604491990.6523,-326
1604491990.6543,-555
1604491990.6563,-168
1604491990.6569,-119
1604491990.6584,-280
1604491990.6603,-248
1604491990.6624,-194
1604491990.6643,-212
1604491990.6664,-207
1604491990.6683,-177
1604491990.6703,-158
1604491990.6723,-146
1604491990.6743,-155
1604491990.6764,-158
1604491990.6783,-97
1604491990.6805,-77
1604491990.6824,-146
1604491990.6843,-141
1604491990.6863,-85
1604491990.6869,-121
1604491990.6883,-119
1604491990.6904,0
1604491990.6924,2
1604491990.6943,-109
1604491990.6963,-85
1604491990.6984,0
1604491990.7003,-41
1604491990.7024,-85
1604491990.7043,-43
1604491990.7063,-38
1604491990.7083,-77
1604491990.7103,-90
1604491990.7123,-85
1604491990.7144,-126
1604491990.7163,-170
1604491990.7169,-151
1604491990.7183,-129
1604491990.7203,-148
1604491990.7223,-151
1604491990.7243,-124
1604491990.7263,-112
1604491990.7283,-112
1604491991.1639,-95
1604491991.1647,-77
1604491991.1671,-87
1604491991.1688,-102
1604491991.1708,-95
1604491991.1728,-90
1604491991.1733,-99
1604491991.1747,-104
1604491991.1767,-99
1604491991.1788,-97
1604491991.1807,-95
1604491991.1827,-87
1604491991.1848,-85
1604491991.1867,-92
1604491991.1887,-90
1604491991.1907,-85
1604491991.1927,-85
1604491991.1947,-92
1604491991.1967,-99
1604491991.1988,-107
1604491991.2008,-99
1604491991.2027,-87
1604491991.2033,-85
1604491991.2047,-82
1604491991.2069,-68
1604491991.2088,-58
1604491991.2107,-68
1604491991.2127,-73
1604491991.2147,-68
1604491991.2167,-68
1604491991.2187,-73
1604491991.2207,-75
1604491991.2228,-75
1604491991.2248,-95
1604491991.2267,-173
1604491991.2287,-272
1604491991.2307,-82
1604491991.2327,655
1604491991.2333,1477
1604491991.2347,1606
1604491991.2367,750
1604491991.2387,-370
1604491991.2407,-560
1604491991.2427,-151
1604491991.2447,-182
1604491991.2467,-341
1604491991.2488,-221
1604491991.2507,-170
1604491991.2527,-224
1604491991.2547,-194
1604491991.2567,-160
1604491991.2587,-170
1604491991.2607,-158
1604491991.2627,-138
1604491991.2633,-136
1604491991.2647,-129
1604491991.2667,-114
1604491991.2687,-107
1604491991.2707,-95
1604491991.2727,-70
1604491991.2747,-51
1604491991.2767,-41
1604491991.2787,-36
1604491991.2807,-21
1604491991.2827,7
1604491991.2847,31
1604491991.2867,38
1604491991.2887,38
1604491991.2907,38
1604491991.2928,19
1604491991.2933,-14
1604491991.2947,-53
1604491991.2967,-80
1604491991.7040,-97
1604491991.7049,-107
1604491991.7076,-114
1604491991.7100,-121
1604491991.7120,-121
1604491991.7139,-119
1604491991.7159,-116
1604491991.7179,-112
1604491991.7199,-109
1604491991.7219,-114
1604491991.7239,-107
1604491991.7259,-104
1604491991.7279,-107
1604491991.7285,-102
1604491991.7300,-99
1604491991.7319,-95
1604491991.7339,-90
1604491991.7359,-90
1604491991.7379,-90
1604491991.7399,-85
1604491991.7419,-80
1604491991.7439,-75
1604491991.7459,-73
1604491991.7479,-73
1604491991.7499,-75
1604491991.7519,-75
1604491991.7539,-70
1604491991.7559,-68
1604491991.7579,-68
1604491991.7585,-70
1604491991.7599,-73
1604491991.7619,-73
1604491991.7638,-70
1604491991.7659,-68
1604491991.7678,-73
1604491991.7698,-73
1604491991.7719,-68
1604491991.7739,-65
1604491991.7758,-65
1604491991.7779,-63
1604491991.7798,-53
1604491991.7819,-51
1604491991.7840,-56
1604491991.7859,-58
1604491991.7865,-58
1604491991.7878,-56
1604491991.7900,-48
1604491991.7919,-46
1604491991.7939,-46
1604491991.7959,-43
1604491991.7979,-43
1604491991.7999,-46
1604491991.8020,-38
1604491991.8040,-31
1604491991.8059,-31
1604491991.8079,-21
1604491991.8098,-7
1604491991.8119,-14
1604491991.8139,-24
1604491991.8159,-24
1604491991.8165,-29
1604491991.8178,-36
1604491991.8198,-36
1604491991.8218,-31
1604491991.8239,-34
1604491991.8259,-90
1604491991.8279,-202
1604491991.8299,-77
1604491991.8319,589
1604491991.8338,1428
1604491991.8358,1711
1604491991.8379,1043
1604491991.8398,-134
1604491992.2739,-560
1604491992.2748,-160
1604491992.2773,-95
1604491992.2799,-294
1604491992.2820,-214
1604491992.2839,-143
1604491992.2860,-207
1604491992.2879,-182
1604491992.2899,-134
1604491992.2920,-148
1604491992.2938,-148
1604491992.2958,-121
1604491992.2979,-114
1604491992.2998,-112
1604491992.3019,-95
1604491992.3038,-82
1604491992.3045,-75
1604491992.3058,-63
1604491992.3079,-46
1604491992.3098,-38
1604491992.3119,-34
1604491992.3139,-14
1604491992.3158,2
1604491992.3179,7
1604491992.3198,9
1604491992.3218,14
1604491992.3239,12
1604491992.3260,4
1604491992.3278,-4
1604491992.3298,-19
1604491992.3319,-38
1604491992.3340,-65
1604491992.3345,-85
1604491992.3358,-90
1604491992.3378,-102
1604491992.3398,-107
1604491992.3418,-107
1604491992.3438,-104
1604491992.3459,-97
1604491992.3478,-92
1604491992.3498,-90
1604491992.3519,-87
1604491992.3538,-80
1604491992.3558,-75
1604491992.3579,-75
1604491992.3598,-77
1604491992.3618,-73
1604491992.3638,-70
1604491992.3644,-70
1604491992.3658,-68
1604491992.3678,-68
1604491992.3698,-65
1604491992.3718,-63
1604491992.3738,-60
1604491992.3758,-53
1604491992.3778,-51
1604491992.3798,-53
1604491992.3818,-53
1604491992.3838,-46
1604491992.3858,-46
