,ecg
1605962164.0394,1689.0
1605962164.042,4267.0
1605962164.0447,6142.0
1605962164.0471,7004.0
1605962164.049,7985.0
1605962164.051,8952.0
1605962164.0532,9541.0
1605962164.0551,10080.0
1605962164.0573,10632.0
1605962164.0594,11020.0
1605962164.0615,11337.0
1605962164.0635,11660.0
1605962164.0657,11923.0
1605962164.0675,12143.0
1605962164.069,12351.0
1605962164.071,12529.0
1605962164.0731,12675.0
1605962164.0751,12822.0
1605962164.0771,12949.0
1605962164.079,13051.0
1605962164.0811,13149.0
1605962164.083,13237.0
1605962164.085,13298.0
1605962164.087,13349.0
1605962164.0891,13400.0
1605962164.0911,13461.0
1605962164.093,13510.0
1605962164.095,13527.0
1605962164.097,13547.0
1605962164.099,13574.0
1605962164.101,13579.0
1605962164.103,13586.0
1605962164.105,13596.0
1605962164.107,13588.0
1605962164.109,13576.0
1605962164.111,13557.0
1605962164.113,13505.0
1605962164.115,13464.0
1605962164.117,13461.0
1605962164.119,13427.0
1605962164.121,13381.0
1605962164.123,13386.0
1605962164.125,13378.0
1605962164.127,13310.0
1605962164.129,13254.0
1605962164.131,13217.0
1605962164.133,13159.0
1605962164.135,13090.0
1605962164.1369,13032.0
1605962164.1389,12973.0
1605962164.1411,12819.0
1605962164.143,12463.0
1605962164.1449,12145.0
1605962164.1469,12475.0
1605962164.1489,13325.0
1605962164.1509,13471.0
1605962164.1529,12790.0
1605962164.1549,12429.0
1605962164.157,12446.0
1605962164.1589,12304.0
1605962164.1609,12167.0
1605962164.1629,12138.0
1605962164.1649,12055.0
1605962164.167,11928.0
1605962164.1689,11848.0
1605962164.1709,11801.0
1605962164.1729,11733.0
1605962164.1749,11635.0
1605962164.1769,11542.0
1605962164.1789,11467.0
1605962164.1809,11381.0
1605962164.1829,11269.0
1605962164.1849,11176.0
1605962164.6678,11103.0
1605962164.6687,11018.0
1605962164.6712,10917.0
1605962164.6738,10810.0
1605962164.6758,10715.0
1605962164.6778,10632.0
1605962164.6799,10534.0
1605962164.6818,10439.0
1605962164.6838,10375.0
1605962164.6858,10297.0
1605962164.6878,10168.0
1605962164.6898,10068.0
1605962164.6918,10017.0
1605962164.6938,9946.0
1605962164.6958,9868.0
1605962164.6978,9802.0
1605962164.6998,9733.0
1605962164.7018,9667.0
1605962164.7038,9609.0
1605962164.7058,9558.0
1605962164.7078,9492.0
1605962164.7098,9394.0
1605962164.7118,9309.0
1605962164.7138,9260.0
1605962164.7158,9177.0
1605962164.7177,9062.0
1605962164.7197,8969.0
1605962164.7217,8881.0
1605962164.7239,8786.0
1605962164.7258,8708.0
1605962164.7277,8637.0
1605962164.7297,8547.0
1605962164.7317,8439.0
1605962164.7338,8349.0
1605962164.7357,8286.0
1605962164.7377,8212.0
1605962164.7397,8117.0
1605962164.7417,8029.0
1605962164.7437,7958.0
1605962164.7457,7880.0
1605962164.7477,7795.0
1605962164.7498,7731.0
1605962164.7517,7663.0
1605962164.7537,7575.0
1605962164.7557,7502.0
1605962164.7577,7434.0
1605962164.7597,7353.0
1605962164.7617,7275.0
1605962164.7637,7219.0
1605962164.7657,7145.0
1605962164.7677,7055.0
1605962164.7697,6962.0
1605962164.7717,6872.0
1605962164.7737,6801.0
1605962164.7757,6750.0
1605962164.7777,6689.0
1605962164.7797,6618.0
1605962164.7817,6550.0
1605962164.7837,6477.0
1605962164.7857,6408.0
1605962164.7877,6337.0
1605962164.7897,6259.0
1605962164.7917,6184.0
1605962164.7937,6127.0
1605962164.7957,6081.0
1605962164.7977,5979.0
1605962164.7997,5678.0
1605962164.8017,5251.0
1605962164.8037,5263.0
1605962164.8057,6022.0
1605962164.8077,6574.0
1605962164.8097,6118.0
1605962164.8117,5537.0
1605962165.1766,5483.0
1605962165.1774,5444.0
1605962165.1798,5283.0
1605962165.1824,5234.0
1605962165.1844,5214.0
1605962165.1865,5134.0
1605962165.1887,5073.0
1605962165.1905,5021.0
1605962165.1924,4943.0
1605962165.1944,4880.0
1605962165.1965,4851.0
1605962165.1984,4790.0
1605962165.2004,4707.0
1605962165.2024,4658.0
1605962165.2044,4616.0
1605962165.2065,4536.0
1605962165.2084,4460.0
1605962165.2104,4411.0
1605962165.2124,4340.0
1605962165.2144,4257.0
1605962165.2164,4213.0
1605962165.2184,4187.0
1605962165.2204,4128.0
1605962165.2224,4062.0
1605962165.2244,4011.0
1605962165.2265,3967.0
1605962165.2284,3928.0
1605962165.2304,3896.0
1605962165.2324,3862.0
1605962165.2344,3828.0
1605962165.2365,3811.0
1605962165.2384,3789.0
1605962165.2404,3767.0
1605962165.2424,3752.0
1605962165.2444,3725.0
1605962165.2464,3696.0
1605962165.2485,3681.0
1605962165.2504,3649.0
1605962165.2525,3601.0
1605962165.2544,3571.0
1605962165.2564,3557.0
1605962165.2584,3508.0
1605962165.2605,3444.0
1605962165.2625,3395.0
1605962165.2645,3347.0
1605962165.2667,3310.0
1605962165.2685,3283.0
1605962165.2705,3239.0
1605962165.2725,3190.0
1605962165.2745,3159.0
1605962165.2766,3125.0
1605962165.2785,3088.0
1605962165.2805,3059.0
1605962165.2825,3027.0
1605962165.2845,2985.0
1605962165.2865,2946.0
1605962165.2885,2919.0
1605962165.2907,2900.0
1605962165.2925,2878.0
1605962165.2945,2832.0
1605962165.2965,2788.0
1605962165.2984,2780.0
1605962165.3004,2761.0
1605962165.3024,2719.0
1605962165.3044,2695.0
1605962165.3064,2678.0
1605962165.3084,2634.0
1605962165.3104,2583.0
1605962165.3124,2543.0
1605962165.3144,2519.0
1605962165.3164,2500.0
1605962165.3184,2468.0
1605962165.3204,2429.0
1605962165.6871,2414.0
1605962165.6877,2412.0
1605962165.6902,2385.0
1605962165.6928,2351.0
1605962165.6948,2316.0
1605962165.6968,2270.0
1605962165.6988,2243.0
1605962165.7008,2229.0
1605962165.7028,2194.0
1605962165.7048,2041.0
1605962165.7068,1669.0
1605962165.7088,1435.0
1605962165.7108,1975.0
1605962165.7127,2829.0
1605962165.7148,2770.0
1605962165.7168,2114.0
1605962165.7187,1936.0
1605962165.7207,2014.0
1605962165.7227,1904.0
1605962165.7247,1840.0
1605962165.7268,1875.0
1605962165.7287,1828.0
1605962165.7308,1772.0
1605962165.7328,1789.0
1605962165.7348,1784.0
1605962165.7367,1738.0
1605962165.7387,1711.0
1605962165.7407,1694.0
1605962165.7427,1672.0
1605962165.7447,1645.0
1605962165.7468,1628.0
1605962165.7487,1599.0
1605962165.7507,1562.0
1605962165.7527,1555.0
1605962165.7547,1540.0
1605962165.7569,1496.0
1605962165.7588,1474.0
1605962165.7607,1462.0
1605962165.7627,1416.0
1605962165.7647,1374.0
1605962165.7668,1391.0
1605962165.7687,1394.0
1605962165.7707,1352.0
1605962165.7727,1350.0
1605962165.7747,1352.0
1605962165.7768,1340.0
1605962165.7787,1354.0
1605962165.7807,1364.0
1605962165.7827,1350.0
1605962165.7847,1352.0
1605962165.7868,1374.0
1605962165.7887,1384.0
1605962165.7907,1381.0
1605962165.7927,1384.0
1605962165.7947,1369.0
1605962165.7968,1357.0
1605962165.7987,1359.0
1605962165.8007,1345.0
1605962165.8027,1323.0
1605962165.8047,1298.0
1605962165.8068,1281.0
1605962165.8087,1269.0
1605962165.8107,1245.0
1605962165.8127,1225.0
1605962165.8147,1215.0
1605962165.8168,1196.0
1605962165.8187,1196.0
1605962165.8207,1193.0
1605962165.8227,1166.0
1605962165.8248,1152.0
1605962165.8268,1142.0
1605962165.8287,1125.0
1605962165.8307,1118.0
1605962166.2582,1115.0
1605962166.2591,1105.0
1605962166.2616,1086.0
1605962166.2642,1066.0
1605962166.2663,1064.0
1605962166.2682,1062.0
1605962166.2703,1042.0
1605962166.2722,1025.0
1605962166.2742,1027.0
1605962166.2761,1018.0
1605962166.2781,991.0
1605962166.2801,991.0
1605962166.2822,1015.0
1605962166.2843,998.0
1605962166.2862,942.0
1605962166.2881,910.0
1605962166.2901,917.0
1605962166.2922,917.0
1605962166.2942,910.0
1605962166.2961,922.0
1605962166.2981,925.0
1605962166.3001,898.0
1605962166.3021,893.0
1605962166.3042,908.0
1605962166.3061,893.0
1605962166.3082,859.0
1605962166.3102,844.0
1605962166.3121,849.0
1605962166.3141,808.0
1605962166.3162,588.0
1605962166.3181,229.0
1605962166.3201,241.0
1605962166.3221,1020.0
1605962166.3241,1691.0
1605962166.3262,1333.0
1605962166.3281,771.0
1605962166.3301,769.0
1605962166.3321,805.0
1605962166.3341,688.0
1605962166.3361,676.0
1605962166.3381,710.0
1605962166.3401,678.0
1605962166.3422,654.0
1605962166.3441,671.0
1605962166.3461,681.0
1605962166.3481,664.0
1605962166.3501,649.0
1605962166.3521,634.0
1605962166.3541,615.0
1605962166.3561,600.0
1605962166.3581,600.0
1605962166.3601,595.0
1605962166.3621,573.0
1605962166.3641,563.0
1605962166.3661,554.0
1605962166.3681,541.0
1605962166.3701,534.0
1605962166.3721,505.0
1605962166.3741,478.0
1605962166.3761,485.0
1605962166.3781,488.0
1605962166.3801,473.0
1605962166.3821,468.0
1605962166.3841,471.0
1605962166.3863,480.0
1605962166.3881,500.0
1605962166.3901,515.0
1605962166.3921,522.0
1605962166.3942,524.0
1605962166.3961,541.0
1605962166.3982,573.0
1605962166.4002,590.0
1605962166.4022,590.0
1605962166.7975,600.0
1605962166.7983,615.0
1605962166.8006,607.0
1605962166.8023,600.0
1605962166.8043,598.0
1605962166.8063,590.0
1605962166.8082,576.0
1605962166.8103,554.0
1605962166.8122,554.0
1605962166.8142,551.0
1605962166.8163,520.0
1605962166.8182,515.0
1605962166.8202,534.0
1605962166.8222,527.0
1605962166.8242,515.0
1605962166.8263,520.0
1605962166.8282,522.0
1605962166.8302,498.0
1605962166.8323,478.0
1605962166.8342,488.0
1605962166.8362,505.0
1605962166.8381,505.0
1605962166.8401,490.0
1605962166.8421,478.0
1605962166.8441,488.0
1605962166.8471,500.0
1605962166.8481,488.0
1605962166.8501,476.0
1605962166.8521,485.0
1605962166.8541,493.0
1605962166.8562,483.0
1605962166.8582,468.0
1605962166.8601,468.0
1605962166.8621,473.0
1605962166.8641,476.0
1605962166.8662,473.0
1605962166.8681,451.0
1605962166.8702,415.0
1605962166.8721,405.0
1605962166.8741,424.0
1605962166.8762,434.0
1605962166.8781,424.0
1605962166.8803,422.0
1605962166.8822,434.0
1605962166.8841,444.0
1605962166.8862,439.0
1605962166.8881,427.0
1605962166.8901,422.0
1605962166.8921,412.0
1605962166.8941,395.0
1605962166.8962,393.0
1605962166.8981,312.0
1605962166.9001,-7.0
1605962166.9021,-295.0
1605962166.9041,126.0
1605962166.9062,1042.0
1605962166.9081,1213.0
1605962166.9101,598.0
1605962166.9121,322.0
1605962166.9141,417.0
1605962166.9162,354.0
1605962166.9181,278.0
1605962166.9201,312.0
1605962166.9221,310.0
1605962166.9241,285.0
1605962166.9262,297.0
1605962166.9281,305.0
1605962166.9301,295.0
1605962166.9321,278.0
1605962166.9341,270.0
1605962166.9362,278.0
1605962166.9381,285.0
1605962166.9401,270.0
1605962167.3982,251.0
1605962167.3994,241.0
1605962167.4019,241.0
1605962167.4045,231.0
1605962167.4065,207.0
1605962167.4085,197.0
1605962167.4106,205.0
1605962167.4125,187.0
1605962167.4145,151.0
1605962167.4165,153.0
1605962167.4184,173.0
1605962167.4204,173.0
1605962167.4224,163.0
1605962167.4244,166.0
1605962167.4264,178.0
1605962167.4284,197.0
1605962167.4304,227.0
1605962167.4324,249.0
1605962167.4344,258.0
1605962167.4364,273.0
1605962167.4385,288.0
1605962167.4404,310.0
1605962167.4424,336.0
1605962167.4443,349.0
1605962167.4464,344.0
1605962167.4484,332.0
1605962167.4504,329.0
1605962167.4524,339.0
1605962167.4543,334.0
1605962167.4564,332.0
1605962167.4584,327.0
1605962167.4604,312.0
1605962167.4624,314.0
1605962167.4644,314.0
1605962167.4664,297.0
1605962167.4684,283.0
1605962167.4704,283.0
1605962167.4724,305.0
1605962167.4744,302.0
1605962167.4764,280.0
1605962167.4784,285.0
1605962167.4804,295.0
1605962167.4824,290.0
1605962167.4844,290.0
1605962167.4864,295.0
1605962167.4884,297.0
1605962167.4904,288.0
1605962167.4924,280.0
1605962167.4944,292.0
1605962167.4964,310.0
1605962167.4984,302.0
1605962167.5003,280.0
1605962167.5024,278.0
1605962167.5044,285.0
1605962167.5064,275.0
1605962167.5084,278.0
1605962167.5104,280.0
1605962167.5124,275.0
1605962167.5145,275.0
1605962167.5164,270.0
1605962167.5184,275.0
1605962167.5204,280.0
1605962167.5224,241.0
1605962167.5243,222.0
1605962167.5264,251.0
1605962167.5284,253.0
1605962167.5304,231.0
1605962167.5324,244.0
1605962167.5343,273.0
1605962167.5363,270.0
1605962167.5383,251.0
1605962167.5405,251.0
1605962167.5425,251.0
1605962167.9677,236.0
1605962167.9687,219.0
1605962167.9702,224.0
1605962167.9722,192.0
1605962167.9742,-73.0
1605962167.9762,-427.0
1605962167.9781,-192.0
1605962167.9801,708.0
1605962167.9821,1113.0
1605962167.9841,563.0
1605962167.9862,168.0
1605962167.9881,253.0
1605962167.9901,224.0
1605962167.9921,134.0
1605962167.9941,178.0
1605962167.9961,192.0
1605962167.9981,158.0
1605962168.0001,158.0
1605962168.0021,168.0
1605962168.0041,158.0
1605962168.0061,156.0
1605962168.008,158.0
1605962168.01,144.0
1605962168.012,131.0
1605962168.014,136.0
1605962168.0161,146.0
1605962168.0181,151.0
1605962168.02,136.0
1605962168.0221,119.0
1605962168.0241,112.0
1605962168.0261,97.0
1605962168.0281,78.0
1605962168.03,68.0
1605962168.032,68.0
1605962168.034,63.0
1605962168.0361,53.0
1605962168.038,43.0
1605962168.04,56.0
1605962168.042,80.0
1605962168.044,102.0
1605962168.0461,109.0
1605962168.0481,114.0
1605962168.05,136.0
1605962168.0521,163.0
1605962168.054,180.0
1605962168.0561,207.0
1605962168.058,231.0
1605962168.06,229.0
1605962168.062,229.0
1605962168.0642,251.0
1605962168.0661,275.0
1605962168.0681,280.0
1605962168.07,261.0
1605962168.072,246.0
1605962168.074,246.0
1605962168.0761,249.0
1605962168.078,244.0
1605962168.08,234.0
1605962168.0821,224.0
1605962168.0841,222.0
1605962168.0861,234.0
1605962168.0881,234.0
1605962168.09,214.0
1605962168.092,202.0
1605962168.094,214.0
1605962168.0961,229.0
1605962168.098,219.0
1605962168.1001,205.0
1605962168.102,212.0
1605962168.104,222.0
1605962168.1061,227.0
1605962168.108,224.0
1605962168.1101,222.0
1605962168.5363,219.0
1605962168.5372,217.0
1605962168.5391,214.0
1605962168.5411,209.0
1605962168.5431,195.0
1605962168.5451,195.0
1605962168.5471,224.0
1605962168.5491,239.0
1605962168.5511,209.0
1605962168.553,195.0
1605962168.5551,217.0
1605962168.5577,227.0
1605962168.559,200.0
1605962168.561,180.0
1605962168.563,180.0
1605962168.565,180.0
1605962168.5671,168.0
1605962168.569,144.0
1605962168.571,146.0
1605962168.573,161.0
1605962168.575,146.0
1605962168.5771,146.0
1605962168.579,163.0
1605962168.5811,173.0
1605962168.583,187.0
1605962168.5837,185.0
1605962168.585,168.0
1605962168.5872,168.0
1605962168.5891,180.0
1605962168.591,173.0
1605962168.593,163.0
1605962168.595,139.0
1605962168.5971,-63.0
1605962168.599,-422.0
1605962168.601,-407.0
1605962168.603,368.0
1605962168.605,1069.0
1605962168.607,744.0
1605962168.6091,175.0
1605962168.611,168.0
1605962168.6117,197.0
1605962168.613,70.0
1605962168.615,100.0
1605962168.617,161.0
1605962168.619,114.0
1605962168.621,102.0
1605962168.623,122.0
1605962168.625,104.0
1605962168.6271,92.0
1605962168.629,117.0
1605962168.6311,129.0
1605962168.633,114.0
1605962168.635,100.0
1605962168.6371,83.0
1605962168.639,80.0
1605962168.641,80.0
1605962168.6417,63.0
1605962168.643,53.0
1605962168.645,53.0
1605962168.647,36.0
1605962168.649,26.0
1605962168.651,24.0
1605962168.653,9.0
1605962168.655,-2.0
1605962168.6571,2.0
1605962168.659,4.0
1605962168.661,12.0
1605962168.663,36.0
1605962168.665,51.0
1605962168.667,48.0
1605962168.669,65.0
1605962168.671,104.0
1605962168.6717,144.0
1605962169.0777,166.0
1605962169.0787,175.0
1605962169.0812,197.0
1605962169.0838,219.0
1605962169.0858,231.0
1605962169.0879,239.0
1605962169.0899,231.0
1605962169.0916,224.0
1605962169.0936,219.0
1605962169.0956,207.0
1605962169.0976,197.0
1605962169.0997,202.0
1605962169.1016,202.0
1605962169.1036,183.0
1605962169.1056,166.0
1605962169.1064,178.0
1605962169.1086,197.0
1605962169.1106,183.0
1605962169.1127,161.0
1605962169.1147,161.0
1605962169.1167,161.0
1605962169.1186,153.0
1605962169.1206,161.0
1605962169.1226,168.0
1605962169.1246,170.0
1605962169.1266,170.0
1605962169.1286,175.0
1605962169.1306,180.0
1605962169.1326,178.0
1605962169.1346,173.0
1605962169.1367,170.0
1605962169.1373,168.0
1605962169.1386,156.0
1605962169.1406,148.0
1605962169.1426,151.0
1605962169.1446,153.0
1605962169.1467,168.0
1605962169.1486,173.0
1605962169.1506,158.0
1605962169.1526,163.0
1605962169.1547,170.0
1605962169.1567,151.0
1605962169.1586,146.0
1605962169.1606,168.0
1605962169.1626,168.0
1605962169.1646,148.0
1605962169.1667,136.0
1605962169.1673,124.0
1605962169.1696,124.0
1605962169.1716,151.0
1605962169.1737,141.0
1605962169.1756,126.0
1605962169.1776,148.0
1605962169.1796,158.0
1605962169.1816,144.0
1605962169.1836,151.0
1605962169.1859,166.0
1605962169.1877,158.0
1605962169.1896,158.0
1605962169.1916,168.0
1605962169.1936,163.0
1605962169.1956,129.0
1605962169.1978,-48.0
1605962169.1984,-385.0
1605962169.2006,-437.0
1605962169.2026,256.0
1605962169.2046,1010.0
1605962169.2067,781.0
1605962169.2086,187.0
1605962169.2106,139.0
1605962169.2126,212.0
1605962169.2146,102.0
1605962169.2167,87.0
1605962169.6173,134.0
1605962169.6181,104.0
1605962169.6205,83.0
1605962169.6217,102.0
1605962169.6231,95.0
1605962169.6252,87.0
1605962169.6271,97.0
1605962169.6292,92.0
1605962169.6312,73.0
1605962169.6331,75.0
1605962169.6351,80.0
1605962169.6372,58.0
1605962169.6391,43.0
1605962169.6413,53.0
1605962169.6432,46.0
1605962169.6451,29.0
1605962169.6471,24.0
1605962169.6491,14.0
1605962169.6512,7.0
1605962169.6531,0.0
1605962169.6551,-12.0
1605962169.6571,-14.0
1605962169.6591,-7.0
1605962169.6611,0.0
1605962169.6631,4.0
1605962169.6651,14.0
1605962169.6671,31.0
1605962169.6691,48.0
1605962169.6711,70.0
1605962169.6731,107.0
1605962169.6751,131.0
1605962169.6771,148.0
1605962169.6791,173.0
1605962169.6811,190.0
1605962169.682,200.0
1605962169.6831,200.0
1605962169.6851,197.0
1605962169.6871,200.0
1605962169.6891,197.0
1605962169.6911,197.0
1605962169.6931,200.0
1605962169.6951,197.0
1605962169.6971,192.0
1605962169.6991,187.0
1605962169.7011,180.0
1605962169.7031,175.0
1605962169.7051,173.0
1605962169.7071,170.0
1605962169.7091,163.0
1605962169.7111,168.0
1605962169.7118,173.0
1605962169.7131,156.0
1605962169.7151,146.0
1605962169.7171,146.0
1605962169.7191,136.0
1605962169.7211,141.0
1605962169.7231,158.0
1605962169.7251,166.0
1605962169.7271,170.0
1605962169.7291,173.0
1605962169.7311,161.0
1605962169.7331,151.0
1605962169.7351,161.0
1605962169.7371,163.0
1605962169.7391,151.0
1605962169.7411,156.0
1605962169.7418,168.0
1605962169.7431,166.0
1605962169.7452,156.0
1605962169.7472,141.0
1605962169.7491,141.0
1605962169.7511,158.0
1605962169.7531,161.0
1605962170.1873,148.0
1605962170.1882,146.0
1605962170.1907,158.0
1605962170.1933,161.0
1605962170.1953,144.0
1605962170.1974,129.0
1605962170.1994,107.0
1605962170.2013,85.0
1605962170.2033,85.0
1605962170.2053,109.0
1605962170.2072,122.0
1605962170.2092,122.0
1605962170.2115,129.0
1605962170.2133,126.0
1605962170.2152,122.0
1605962170.2173,148.0
1605962170.2192,163.0
1605962170.2212,129.0
1605962170.2232,112.0
1605962170.2252,136.0
1605962170.2272,144.0
1605962170.2292,122.0
1605962170.2312,-2.0
1605962170.2332,-332.0
1605962170.2352,-549.0
1605962170.2373,-39.0
1605962170.2392,859.0
1605962170.2412,905.0
1605962170.2432,266.0
1605962170.2452,63.0
1605962170.2472,180.0
1605962170.2492,114.0
1605962170.2512,53.0
1605962170.2532,100.0
1605962170.2552,104.0
1605962170.2573,73.0
1605962170.2592,75.0
1605962170.2612,78.0
1605962170.2632,53.0
1605962170.2652,61.0
1605962170.2672,90.0
1605962170.2692,87.0
1605962170.2712,80.0
1605962170.2732,78.0
1605962170.2752,73.0
1605962170.2772,63.0
1605962170.2792,41.0
1605962170.2812,29.0
1605962170.2832,24.0
1605962170.2852,9.0
1605962170.2872,0.0
1605962170.2892,9.0
1605962170.2912,17.0
1605962170.2932,-4.0
1605962170.2952,-12.0
1605962170.2972,7.0
1605962170.2992,4.0
1605962170.3012,-7.0
1605962170.3032,7.0
1605962170.3052,29.0
1605962170.3072,36.0
1605962170.3092,46.0
1605962170.3112,78.0
1605962170.3134,114.0
1605962170.3152,124.0
1605962170.3172,144.0
1605962170.3192,168.0
1605962170.3212,170.0
1605962170.3232,190.0
1605962170.3252,195.0
1605962170.3273,153.0
1605962170.3292,153.0
1605962170.3312,187.0
1605962170.7874,173.0
1605962170.7883,158.0
1605962170.7908,173.0
1605962170.7934,180.0
1605962170.7954,163.0
1605962170.7974,134.0
1605962170.7995,107.0
1605962170.8015,104.0
1605962170.8034,131.0
1605962170.8054,153.0
1605962170.8074,119.0
1605962170.8094,78.0
1605962170.8114,107.0
1605962170.8134,148.0
1605962170.8154,131.0
1605962170.8174,126.0
1605962170.8194,141.0
1605962170.8214,107.0
1605962170.8234,90.0
1605962170.8254,136.0
1605962170.8273,175.0
1605962170.8293,153.0
1605962170.8314,102.0
1605962170.8333,114.0
1605962170.8354,161.0
1605962170.8374,122.0
1605962170.8394,95.0
1605962170.8413,146.0
1605962170.8433,156.0
1605962170.8453,122.0
1605962170.8474,122.0
1605962170.8494,124.0
1605962170.8513,129.0
1605962170.8533,166.0
1605962170.8553,175.0
1605962170.8574,139.0
1605962170.8593,102.0
1605962170.8613,85.0
1605962170.8633,117.0
1605962170.8653,178.0
1605962170.8674,173.0
1605962170.8695,107.0
1605962170.8714,68.0
1605962170.8733,56.0
1605962170.8753,61.0
1605962170.8774,117.0
1605962170.8793,156.0
1605962170.8813,126.0
1605962170.8833,131.0
1605962170.8853,180.0
1605962170.8874,170.0
1605962170.8893,139.0
1605962170.8913,134.0
1605962170.8933,122.0
1605962170.8953,122.0
1605962170.8974,129.0
1605962170.8993,63.0
1605962170.9013,-187.0
1605962170.9033,-541.0
1605962170.9053,-388.0
1605962170.9073,537.0
1605962170.9093,1047.0
1605962170.9113,520.0
1605962170.9133,117.0
1605962170.9153,197.0
1605962170.9174,153.0
1605962170.9193,56.0
1605962170.9214,87.0
1605962170.9233,83.0
1605962170.9253,43.0
1605962170.9274,83.0
1605962170.9293,122.0
1605962170.9313,107.0
1605962171.3275,90.0
1605962171.3282,80.0
1605962171.3306,68.0
1605962171.3332,51.0
1605962171.3353,34.0
1605962171.3373,24.0
1605962171.3393,24.0
1605962171.3412,39.0
1605962171.3433,41.0
1605962171.3452,19.0
1605962171.3473,0.0
1605962171.3492,7.0
1605962171.3513,4.0
1605962171.3532,-31.0
1605962171.3552,-73.0
1605962171.3573,-73.0
1605962171.3592,-41.0
1605962171.3612,-36.0
1605962171.3632,-36.0
1605962171.3654,-7.0
1605962171.3673,-2.0
1605962171.3692,2.0
1605962171.3712,39.0
1605962171.3732,43.0
1605962171.3752,24.0
1605962171.3773,56.0
1605962171.3792,109.0
1605962171.3812,117.0
1605962171.3832,104.0
1605962171.3852,122.0
1605962171.3872,158.0
1605962171.3892,168.0
1605962171.3912,131.0
1605962171.3932,141.0
1605962171.3952,183.0
1605962171.3973,156.0
1605962171.3993,117.0
1605962171.4014,131.0
1605962171.4033,134.0
1605962171.4052,104.0
1605962171.4073,104.0
1605962171.4092,109.0
1605962171.4112,92.0
1605962171.4132,95.0
1605962171.4152,104.0
1605962171.4172,92.0
1605962171.4192,92.0
1605962171.4212,102.0
1605962171.4232,107.0
1605962171.4252,104.0
1605962171.4272,100.0
1605962171.4292,109.0
1605962171.4312,119.0
1605962171.4332,119.0
1605962171.4352,119.0
1605962171.4372,117.0
1605962171.4392,114.0
1605962171.4412,117.0
1605962171.4432,122.0
1605962171.4452,122.0
1605962171.4472,114.0
1605962171.4492,112.0
1605962171.4513,109.0
1605962171.4532,95.0
1605962171.4552,126.0
1605962171.4572,163.0
1605962171.4592,151.0
1605962171.4612,134.0
1605962171.4632,117.0
1605962171.4652,95.0
1605962171.4674,100.0
1605962171.4693,134.0
1605962171.4712,153.0
1605962171.8677,117.0
1605962171.8685,75.0
1605962171.8709,61.0
1605962171.8735,58.0
1605962171.8755,65.0
1605962171.8775,80.0
1605962171.8795,85.0
1605962171.8815,92.0
1605962171.8835,95.0
1605962171.8855,87.0
1605962171.8875,102.0
1605962171.8895,134.0
1605962171.8915,124.0
1605962171.8935,95.0
1605962171.8955,100.0
1605962171.8975,102.0
1605962171.8995,70.0
1605962171.9015,-68.0
1605962171.9035,-388.0
1605962171.9055,-522.0
1605962171.9075,85.0
1605962171.9095,888.0
1605962171.9115,766.0
1605962171.9135,190.0
1605962171.9155,104.0
1605962171.9175,153.0
1605962171.9195,39.0
1605962171.9215,51.0
1605962171.9235,109.0
1605962171.9255,48.0
1605962171.9275,19.0
1605962171.9295,61.0
1605962171.9315,58.0
1605962171.9335,36.0
1605962171.9355,46.0
1605962171.9375,51.0
1605962171.9395,39.0
1605962171.9415,41.0
1605962171.9435,41.0
1605962171.9455,19.0
1605962171.9475,2.0
1605962171.9495,0.0
1605962171.9515,-12.0
1605962171.9535,-19.0
1605962171.9555,-7.0
1605962171.9575,-12.0
1605962171.9595,-36.0
1605962171.9615,-56.0
1605962171.9637,-75.0
1605962171.9655,-90.0
1605962171.9675,-85.0
1605962171.9695,-70.0
1605962171.9715,-73.0
1605962171.9735,-65.0
1605962171.9755,-41.0
1605962171.9775,-36.0
1605962171.9795,-9.0
1605962171.9815,46.0
1605962171.9835,68.0
1605962171.9855,75.0
1605962171.9875,114.0
1605962171.9895,146.0
1605962171.9915,146.0
1605962171.9935,153.0
1605962171.9955,161.0
1605962171.9975,163.0
1605962171.9995,158.0
1605962172.0015,148.0
1605962172.0035,144.0
1605962172.0055,161.0
1605962172.0075,163.0
1605962172.0095,139.0
1605962172.0115,122.0
1605962172.4378,112.0
1605962172.4388,112.0
1605962172.4412,131.0
1605962172.4438,134.0
1605962172.4459,122.0
1605962172.4478,107.0
1605962172.4498,85.0
1605962172.4518,73.0
1605962172.4538,90.0
1605962172.4559,107.0
1605962172.4577,114.0
1605962172.4597,112.0
1605962172.4618,102.0
1605962172.4637,95.0
1605962172.4658,117.0
1605962172.4677,134.0
1605962172.4697,119.0
1605962172.4717,117.0
1605962172.4737,126.0
1605962172.4758,124.0
1605962172.4777,126.0
1605962172.4797,112.0
1605962172.4817,109.0
1605962172.4837,144.0
1605962172.4858,156.0
1605962172.4877,131.0
1605962172.4899,119.0
1605962172.4918,129.0
1605962172.4938,134.0
1605962172.496,112.0
1605962172.4978,100.0
1605962172.506,102.0
1605962172.5078,97.0
1605962172.5097,87.0
1605962172.5117,87.0
1605962172.5137,97.0
1605962172.5158,114.0
1605962172.5177,134.0
1605962172.5197,144.0
1605962172.5217,129.0
1605962172.5238,112.0
1605962172.5258,114.0
1605962172.5277,119.0
1605962172.5297,112.0
1605962172.5317,102.0
1605962172.5337,-17.0
1605962172.5358,-339.0
1605962172.5377,-534.0
1605962172.5397,0.0
1605962172.5417,876.0
1605962172.5437,886.0
1605962172.5458,253.0
1605962172.5477,68.0
1605962172.5497,146.0
1605962172.5517,68.0
1605962172.5537,43.0
1605962172.5558,83.0
1605962172.5577,65.0
1605962172.5597,61.0
1605962172.5617,73.0
1605962172.5637,58.0
1605962172.5658,41.0
1605962172.5677,53.0
1605962172.5697,65.0
1605962172.5717,34.0
1605962172.5737,14.0
1605962172.5758,36.0
1605962172.5777,51.0
1605962172.5797,26.0
1605962172.5817,2.0
1605962172.5837,4.0
1605962172.5858,4.0
1605962172.5877,-9.0
1605962172.9776,-26.0
1605962172.9784,-34.0
1605962172.9808,-29.0
1605962172.9834,-46.0
1605962172.9857,-73.0
1605962172.9875,-65.0
1605962172.9894,-43.0
1605962172.9914,-61.0
1605962172.9934,-78.0
1605962172.9954,-39.0
1605962172.9973,-2.0
1605962172.9994,0.0
1605962173.0014,19.0
1605962173.0034,53.0
1605962173.0054,68.0
1605962173.0073,97.0
1605962173.0093,144.0
1605962173.0113,156.0
1605962173.0134,151.0
1605962173.0153,151.0
1605962173.0174,146.0
1605962173.0193,146.0
1605962173.0213,153.0
1605962173.0233,139.0
1605962173.0254,124.0
1605962173.0273,129.0
1605962173.0293,134.0
1605962173.0313,136.0
1605962173.0333,129.0
1605962173.0353,102.0
1605962173.0374,95.0
1605962173.0394,112.0
1605962173.0414,107.0
1605962173.0433,92.0
1605962173.0454,102.0
1605962173.0473,112.0
1605962173.0494,104.0
1605962173.0513,114.0
1605962173.0533,131.0
1605962173.0553,117.0
1605962173.0574,104.0
1605962173.0593,114.0
1605962173.0614,131.0
1605962173.0633,122.0
1605962173.0653,97.0
1605962173.0674,112.0
1605962173.0693,146.0
1605962173.0713,144.0
1605962173.0734,122.0
1605962173.0753,107.0
1605962173.0774,109.0
1605962173.0793,126.0
1605962173.0814,124.0
1605962173.0833,117.0
1605962173.0854,109.0
1605962173.0875,87.0
1605962173.0894,65.0
1605962173.0913,68.0
1605962173.0933,85.0
1605962173.0955,87.0
1605962173.0974,85.0
1605962173.0993,114.0
1605962173.1013,141.0
1605962173.1034,129.0
1605962173.1053,117.0
1605962173.1073,109.0
1605962173.1094,104.0
1605962173.1113,104.0
1605962173.1133,107.0
1605962173.1154,112.0
1605962173.1174,41.0
1605962173.1193,-229.0
1605962173.1213,-549.0
1605962173.5474,-305.0
1605962173.5484,593.0
1605962173.5497,979.0
1605962173.5517,422.0
1605962173.5537,36.0
1605962173.5557,117.0
1605962173.5576,95.0
1605962173.5596,21.0
1605962173.5616,48.0
1605962173.5636,41.0
1605962173.5656,9.0
1605962173.5676,34.0
1605962173.5696,63.0
1605962173.5716,51.0
1605962173.5736,31.0
1605962173.5756,31.0
1605962173.5776,24.0
1605962173.5796,19.0
1605962173.5816,31.0
1605962173.5836,19.0
1605962173.5856,-4.0
1605962173.5876,-2.0
1605962173.5896,2.0
1605962173.5916,-17.0
1605962173.5936,-24.0
1605962173.5956,-12.0
1605962173.5976,-31.0
1605962173.5996,-58.0
1605962173.6016,-58.0
1605962173.6036,-61.0
1605962173.6056,-61.0
1605962173.6076,-51.0
1605962173.6096,-43.0
1605962173.6118,-48.0
1605962173.6137,-56.0
1605962173.6156,-36.0
1605962173.6176,7.0
1605962173.6196,36.0
1605962173.6216,56.0
1605962173.6236,70.0
1605962173.6256,83.0
1605962173.6276,100.0
1605962173.6296,119.0
1605962173.6316,126.0
1605962173.6336,122.0
1605962173.6356,129.0
1605962173.6376,131.0
1605962173.6396,119.0
1605962173.6416,129.0
1605962173.6436,129.0
1605962173.6456,107.0
1605962173.6476,97.0
1605962173.6496,100.0
1605962173.6516,104.0
1605962173.6536,100.0
1605962173.6556,97.0
1605962173.6576,92.0
1605962173.6596,73.0
1605962173.6616,85.0
1605962173.6636,114.0
1605962173.6656,109.0
1605962173.6677,92.0
1605962173.6696,87.0
1605962173.6716,97.0
1605962173.6736,109.0
1605962173.6756,104.0
1605962173.6776,92.0
1605962173.6796,92.0
1605962173.6816,107.0
1605962173.6836,119.0
1605962173.6856,109.0
1605962173.6876,95.0
1605962173.6896,85.0
1605962174.1471,87.0
1605962174.1477,109.0
1605962174.1493,112.0
1605962174.1511,95.0
1605962174.1531,117.0
1605962174.1551,119.0
1605962174.1571,63.0
1605962174.1591,39.0
1605962174.161,61.0
1605962174.163,56.0
1605962174.1651,63.0
1605962174.1673,97.0
1605962174.1691,102.0
1605962174.1711,102.0
1605962174.1731,109.0
1605962174.1751,95.0
1605962174.1771,95.0
1605962174.1791,92.0
1605962174.1811,70.0
1605962174.1831,80.0
1605962174.185,85.0
1605962174.1872,-61.0
1605962174.189,-405.0
1605962174.1915,-554.0
1605962174.1931,58.0
1605962174.1951,888.0
1605962174.197,783.0
1605962174.199,183.0
1605962174.201,61.0
1605962174.203,119.0
1605962174.2051,41.0
1605962174.2071,39.0
1605962174.2092,70.0
1605962174.2111,36.0
1605962174.2131,21.0
1605962174.215,41.0
1605962174.2171,34.0
1605962174.2193,21.0
1605962174.2212,29.0
1605962174.223,24.0
1605962174.2251,12.0
1605962174.2271,12.0
1605962174.229,7.0
1605962174.2312,9.0
1605962174.2331,12.0
1605962174.2352,-4.0
1605962174.2371,-17.0
1605962174.2391,-21.0
1605962174.2411,-31.0
1605962174.2431,-36.0
1605962174.2451,-41.0
1605962174.2471,-63.0
1605962174.2491,-68.0
1605962174.2512,-46.0
1605962174.2531,-46.0
1605962174.2551,-68.0
1605962174.2572,-73.0
1605962174.2591,-51.0
1605962174.2611,-9.0
1605962174.2631,17.0
1605962174.265,21.0
1605962174.2672,34.0
1605962174.2692,58.0
1605962174.2712,85.0
1605962174.2731,114.0
1605962174.2751,134.0
1605962174.2771,141.0
1605962174.2791,136.0
1605962174.281,134.0
1605962174.2831,144.0
1605962174.285,151.0
1605962174.2871,148.0
1605962174.289,129.0
1605962174.6869,112.0
1605962174.6876,122.0
1605962174.69,124.0
1605962174.6926,112.0
1605962174.6946,100.0
1605962174.6967,97.0
1605962174.6986,97.0
1605962174.7006,83.0
1605962174.7026,83.0
1605962174.7046,102.0
1605962174.7067,95.0
1605962174.7085,70.0
1605962174.7106,78.0
1605962174.7126,95.0
1605962174.7147,83.0
1605962174.7166,78.0
1605962174.7185,85.0
1605962174.7205,80.0
1605962174.7226,80.0
1605962174.7245,97.0
1605962174.7266,97.0
1605962174.7285,80.0
1605962174.7305,78.0
1605962174.7325,83.0
1605962174.7346,83.0
1605962174.7366,80.0
1605962174.7385,87.0
1605962174.7405,95.0
1605962174.7425,90.0
1605962174.7446,80.0
1605962174.7466,63.0
1605962174.7485,61.0
1605962174.7505,70.0
1605962174.7525,63.0
1605962174.7546,58.0
1605962174.7566,78.0
1605962174.7586,87.0
1605962174.7605,87.0
1605962174.7625,95.0
1605962174.7646,100.0
1605962174.7668,92.0
1605962174.7686,78.0
1605962174.7705,65.0
1605962174.7726,63.0
1605962174.7745,51.0
1605962174.7766,-124.0
1605962174.7785,-483.0
1605962174.7805,-495.0
1605962174.7825,285.0
1605962174.7833,971.0
1605962174.7846,629.0
1605962174.7866,97.0
1605962174.7885,102.0
1605962174.7905,114.0
1605962174.7925,-4.0
1605962174.7945,19.0
1605962174.7966,70.0
1605962174.7985,21.0
1605962174.8005,4.0
1605962174.8025,46.0
1605962174.8045,39.0
1605962174.8066,9.0
1605962174.8085,19.0
1605962174.8106,34.0
1605962174.8125,21.0
1605962174.8132,19.0
1605962174.8146,19.0
1605962174.8166,4.0
1605962174.8186,-2.0
1605962174.8206,-9.0
1605962174.8226,-19.0
1605962174.8245,-21.0
1605962174.8266,-31.0
1605962175.2577,-48.0
1605962175.2587,-58.0
1605962175.2611,-73.0
1605962175.2638,-73.0
1605962175.2658,-68.0
1605962175.2677,-75.0
1605962175.2698,-73.0
1605962175.2717,-53.0
1605962175.2724,-31.0
1605962175.2737,-26.0
1605962175.2757,-21.0
1605962175.2777,7.0
1605962175.2796,39.0
1605962175.2816,58.0
1605962175.2837,80.0
1605962175.2857,102.0
1605962175.2878,109.0
1605962175.2896,112.0
1605962175.2918,131.0
1605962175.2937,146.0
1605962175.2958,136.0
1605962175.2976,114.0
1605962175.2996,109.0
1605962175.3017,134.0
1605962175.3023,158.0
1605962175.3036,134.0
1605962175.3057,100.0
1605962175.3076,107.0
1605962175.3096,114.0
1605962175.3116,104.0
1605962175.3136,107.0
1605962175.3157,102.0
1605962175.3176,75.0
1605962175.3196,85.0
1605962175.3217,131.0
1605962175.3236,119.0
1605962175.3258,75.0
1605962175.3276,85.0
1605962175.3296,102.0
1605962175.3317,90.0
1605962175.3323,92.0
1605962175.3336,109.0
1605962175.3357,100.0
1605962175.3376,78.0
1605962175.3396,75.0
1605962175.3416,92.0
1605962175.3436,112.0
1605962175.3457,114.0
1605962175.3476,95.0
1605962175.3496,85.0
1605962175.3517,104.0
1605962175.3536,117.0
1605962175.3557,100.0
1605962175.3576,90.0
1605962175.3596,75.0
1605962175.3616,56.0
1605962175.3623,75.0
1605962175.3636,87.0
1605962175.3657,65.0
1605962175.3676,68.0
1605962175.3696,97.0
1605962175.3716,107.0
1605962175.3736,90.0
1605962175.3758,97.0
1605962175.3776,109.0
1605962175.3797,92.0
1605962175.3816,83.0
1605962175.3836,107.0
1605962175.3857,122.0
1605962175.388,21.0
1605962175.3897,-295.0
1605962175.3916,-612.0
1605962175.3923,-270.0
1605962175.7971,683.0
1605962175.7979,981.0
1605962175.8003,363.0
1605962175.8029,36.0
1605962175.8049,146.0
1605962175.807,85.0
1605962175.809,0.0
1605962175.8109,48.0
1605962175.8129,51.0
1605962175.8149,14.0
1605962175.8169,19.0
1605962175.819,21.0
1605962175.821,12.0
1605962175.8216,19.0
1605962175.8229,17.0
1605962175.8249,0.0
1605962175.827,7.0
1605962175.8289,14.0
1605962175.8309,2.0
1605962175.8329,-4.0
1605962175.8349,-14.0
1605962175.8369,-29.0
1605962175.8389,-36.0
1605962175.8409,-34.0
1605962175.843,-43.0
1605962175.8449,-68.0
1605962175.8469,-73.0
1605962175.8489,-65.0
1605962175.8496,-63.0
1605962175.8509,-68.0
1605962175.8529,-80.0
1605962175.8549,-65.0
1605962175.8569,-43.0
1605962175.8589,-48.0
1605962175.8609,-29.0
1605962175.8629,9.0
1605962175.8649,26.0
1605962175.8668,46.0
1605962175.8689,80.0
1605962175.8709,112.0
1605962175.8729,117.0
1605962175.8749,119.0
1605962175.8769,158.0
1605962175.8789,170.0
1605962175.8796,146.0
1605962175.8809,148.0
1605962175.883,163.0
1605962175.8851,163.0
1605962175.887,151.0
1605962175.8889,131.0
1605962175.8909,131.0
1605962175.8929,134.0
1605962175.8949,114.0
1605962175.8969,104.0
1605962175.8989,112.0
1605962175.9009,107.0
1605962175.9029,95.0
1605962175.9049,100.0
1605962175.9069,107.0
1605962175.9089,107.0
1605962175.9096,104.0
1605962175.9109,97.0
1605962175.9129,102.0
1605962175.9149,112.0
1605962175.9169,112.0
1605962175.9189,109.0
1605962175.9209,112.0
1605962175.9229,100.0
1605962175.9249,87.0
1605962175.9269,90.0
1605962175.9289,97.0
1605962175.9309,102.0
1605962175.9329,104.0
1605962176.3676,112.0
1605962176.3685,104.0
1605962176.3709,83.0
1605962176.3736,68.0
1605962176.3757,73.0
1605962176.3775,73.0
1605962176.3795,48.0
1605962176.3815,36.0
1605962176.3835,58.0
1605962176.3855,70.0
1605962176.3875,70.0
1605962176.3895,90.0
1605962176.3915,100.0
1605962176.3935,90.0
1605962176.3956,87.0
1605962176.3975,83.0
1605962176.3995,68.0
1605962176.4002,58.0
1605962176.4015,56.0
1605962176.4035,-53.0
1605962176.4055,-380.0
1605962176.4075,-585.0
1605962176.4095,-46.0
1605962176.4116,847.0
1605962176.4135,864.0
1605962176.4157,217.0
1605962176.4175,34.0
1605962176.4195,131.0
1605962176.4215,36.0
1605962176.4235,4.0
1605962176.4255,65.0
1605962176.4275,46.0
1605962176.4295,17.0
1605962176.4302,36.0
1605962176.4316,34.0
1605962176.4335,12.0
1605962176.4355,14.0
1605962176.4375,19.0
1605962176.4395,21.0
1605962176.4415,29.0
1605962176.4435,26.0
1605962176.4455,12.0
1605962176.4475,0.0
1605962176.4495,-12.0
1605962176.4515,-14.0
1605962176.4535,-19.0
1605962176.4555,-34.0
1605962176.4575,-43.0
1605962176.4595,-43.0
1605962176.4615,-56.0
1605962176.4635,-68.0
1605962176.4656,-68.0
1605962176.4676,-61.0
1605962176.4695,-58.0
1605962176.4715,-56.0
1605962176.4735,-39.0
1605962176.4757,-21.0
1605962176.4775,-9.0
1605962176.4795,9.0
1605962176.4815,41.0
1605962176.4835,75.0
1605962176.4855,100.0
1605962176.4875,119.0
1605962176.4895,129.0
1605962176.4915,139.0
1605962176.4935,156.0
1605962176.4955,151.0
1605962176.4975,134.0
1605962176.4995,146.0
1605962176.5015,146.0
1605962176.5035,122.0
1605962176.5055,124.0
1605962176.5075,129.0
1605962176.9074,107.0
1605962176.9081,97.0
1605962176.9106,104.0
1605962176.9134,95.0
1605962176.9152,90.0
1605962176.9172,114.0
1605962176.9192,114.0
1605962176.9212,83.0
1605962176.9232,73.0
1605962176.9252,95.0
1605962176.9272,97.0
1605962176.9292,83.0
1605962176.9312,80.0
1605962176.9332,97.0
1605962176.9352,104.0
1605962176.9372,85.0
1605962176.9392,65.0
1605962176.9412,75.0
1605962176.9432,97.0
1605962176.9452,100.0
1605962176.9472,92.0
1605962176.9492,80.0
1605962176.9512,83.0
1605962176.9532,102.0
1605962176.9552,97.0
1605962176.9572,83.0
1605962176.9591,90.0
1605962176.9611,87.0
1605962176.9631,68.0
1605962176.9651,61.0
1605962176.9672,65.0
1605962176.9691,51.0
1605962176.9711,36.0
1605962176.9731,56.0
1605962176.9751,78.0
1605962176.9772,87.0
1605962176.9791,97.0
1605962176.9811,92.0
1605962176.9831,78.0
1605962176.9851,78.0
1605962176.9871,83.0
1605962176.9891,85.0
1605962176.9911,78.0
1605962176.9931,-26.0
1605962176.9951,-329.0
1605962176.9972,-595.0
1605962176.9991,-185.0
1605962177.0011,734.0
1605962177.0031,917.0
1605962177.0051,283.0
1605962177.0072,12.0
1605962177.0091,124.0
1605962177.0111,53.0
1605962177.0131,-17.0
1605962177.0153,43.0
1605962177.0172,53.0
1605962177.0191,12.0
1605962177.0211,21.0
1605962177.0231,36.0
1605962177.0251,24.0
1605962177.0272,21.0
1605962177.0291,9.0
1605962177.0311,-12.0
1605962177.0331,-7.0
1605962177.0351,17.0
1605962177.0372,19.0
1605962177.0391,-7.0
1605962177.0411,-21.0
1605962177.0431,-24.0
1605962177.0451,-41.0
1605962177.0472,-48.0
1605962177.0491,-51.0
1605962177.0511,-70.0
1605962177.5066,-85.0
1605962177.5074,-75.0
1605962177.5098,-63.0
1605962177.5125,-70.0
1605962177.5145,-78.0
1605962177.5165,-65.0
1605962177.5185,-56.0
1605962177.5204,-53.0
1605962177.5224,-41.0
1605962177.5244,-17.0
1605962177.5265,4.0
1605962177.5284,36.0
1605962177.5305,70.0
1605962177.5324,90.0
1605962177.5344,112.0
1605962177.5364,124.0
1605962177.5384,122.0
1605962177.5404,119.0
1605962177.5425,122.0
1605962177.5444,122.0
1605962177.5465,107.0
1605962177.5484,117.0
1605962177.5504,148.0
1605962177.5524,144.0
1605962177.5544,109.0
1605962177.5565,92.0
1605962177.5584,97.0
1605962177.5604,92.0
1605962177.5624,80.0
1605962177.5644,70.0
1605962177.5664,83.0
1605962177.5684,109.0
1605962177.5706,102.0
1605962177.5725,80.0
1605962177.5744,92.0
1605962177.5764,100.0
1605962177.5784,85.0
1605962177.5804,75.0
1605962177.5824,68.0
1605962177.5844,87.0
1605962177.5864,117.0
1605962177.5884,104.0
1605962177.5904,85.0
1605962177.5924,80.0
1605962177.5944,80.0
1605962177.5965,85.0
1605962177.5984,78.0
1605962177.6004,65.0
1605962177.6024,78.0
1605962177.6044,104.0
1605962177.6064,100.0
1605962177.6084,92.0
1605962177.6104,87.0
1605962177.6124,46.0
1605962177.6144,17.0
1605962177.6164,48.0
1605962177.6184,61.0
1605962177.6204,56.0
1605962177.6224,63.0
1605962177.6245,70.0
1605962177.6264,83.0
1605962177.6284,92.0
1605962177.6304,83.0
1605962177.6324,68.0
1605962177.6344,68.0
1605962177.6364,78.0
1605962177.6384,75.0
1605962177.6404,58.0
1605962177.6424,-78.0
1605962177.6444,-412.0
1605962177.6464,-588.0
1605962177.6484,-14.0
1605962177.6504,854.0
1605962178.0473,812.0
1605962178.0481,178.0
1605962178.0505,41.0
1605962178.0532,136.0
1605962178.0551,31.0
1605962178.0571,2.0
1605962178.0592,53.0
1605962178.0611,34.0
1605962178.0631,21.0
1605962178.0651,21.0
1605962178.0673,-4.0
1605962178.0692,-12.0
1605962178.0711,7.0
1605962178.0731,-2.0
1605962178.0751,-7.0
1605962178.0772,4.0
1605962178.0791,-7.0
1605962178.0811,-24.0
1605962178.0831,-24.0
1605962178.0851,-26.0
1605962178.0872,-31.0
1605962178.0891,-36.0
1605962178.0911,-46.0
1605962178.0931,-56.0
1605962178.0951,-63.0
1605962178.0971,-75.0
1605962178.0992,-87.0
1605962178.1011,-87.0
1605962178.1031,-80.0
1605962178.1051,-80.0
1605962178.1071,-73.0
1605962178.1091,-51.0
1605962178.1111,-26.0
1605962178.1131,-9.0
1605962178.1151,-2.0
1605962178.1171,17.0
1605962178.1191,58.0
1605962178.1211,80.0
1605962178.1231,92.0
1605962178.1251,117.0
1605962178.1271,134.0
1605962178.1291,134.0
1605962178.1311,129.0
1605962178.1331,134.0
1605962178.1351,136.0
1605962178.1371,124.0
1605962178.1391,119.0
1605962178.1411,124.0
1605962178.1431,114.0
1605962178.1451,102.0
1605962178.1471,102.0
1605962178.149,97.0
1605962178.1511,87.0
1605962178.1531,80.0
1605962178.1551,75.0
1605962178.1571,83.0
1605962178.1591,97.0
1605962178.1611,87.0
1605962178.1631,73.0
1605962178.1651,80.0
1605962178.1671,90.0
1605962178.1693,85.0
1605962178.1711,85.0
1605962178.1731,90.0
1605962178.1751,83.0
1605962178.1772,70.0
1605962178.1791,83.0
1605962178.1811,92.0
1605962178.1831,85.0
1605962178.1851,75.0
1605962178.1871,75.0
1605962178.1891,87.0
1605962178.1911,92.0
1605962178.6174,75.0
1605962178.6181,65.0
1605962178.6205,73.0
1605962178.6231,78.0
1605962178.6251,78.0
1605962178.6271,83.0
1605962178.6292,68.0
1605962178.6311,34.0
1605962178.6331,34.0
1605962178.6351,48.0
1605962178.6371,39.0
1605962178.6391,36.0
1605962178.6411,68.0
1605962178.6431,87.0
1605962178.6451,73.0
1605962178.6471,65.0
1605962178.6491,73.0
1605962178.6511,68.0
1605962178.6531,65.0
1605962178.6551,65.0
1605962178.6571,70.0
1605962178.6591,-12.0
1605962178.6611,-334.0
1605962178.6631,-617.0
1605962178.6651,-219.0
1605962178.6671,690.0
1605962178.6691,908.0
1605962178.6711,312.0
1605962178.6731,19.0
1605962178.6751,107.0
1605962178.6771,46.0
1605962178.6791,-21.0
1605962178.6811,29.0
1605962178.6831,43.0
1605962178.6851,17.0
1605962178.6872,19.0
1605962178.6891,29.0
1605962178.6911,14.0
1605962178.6931,-2.0
1605962178.6953,-2.0
1605962178.6972,2.0
1605962178.6991,-12.0
1605962178.7011,-21.0
1605962178.7031,-12.0
1605962178.7051,-7.0
1605962178.7071,-19.0
1605962178.7091,-36.0
1605962178.7111,-48.0
1605962178.7131,-56.0
1605962178.7151,-51.0
1605962178.7171,-61.0
1605962178.7191,-83.0
1605962178.7211,-83.0
1605962178.7231,-80.0
1605962178.7251,-97.0
1605962178.7271,-104.0
1605962178.7291,-75.0
1605962178.7311,-48.0
1605962178.7331,-48.0
1605962178.7351,-46.0
1605962178.7371,-24.0
1605962178.7391,9.0
1605962178.7411,48.0
1605962178.7431,75.0
1605962178.7451,87.0
1605962178.7471,109.0
1605962178.7492,126.0
1605962178.7511,117.0
1605962178.7531,117.0
1605962178.7551,139.0
1605962178.7571,134.0
1605962178.7591,112.0
1605962178.7611,119.0
1605962179.1573,134.0
1605962179.1581,104.0
1605962179.1605,83.0
1605962179.1631,117.0
1605962179.1651,134.0
1605962179.1671,95.0
1605962179.1691,73.0
1605962179.1711,85.0
1605962179.1731,87.0
1605962179.1751,73.0
1605962179.1771,61.0
1605962179.1791,61.0
1605962179.1811,70.0
1605962179.1831,73.0
1605962179.1851,73.0
1605962179.1871,80.0
1605962179.1891,80.0
1605962179.1912,73.0
1605962179.1931,75.0
1605962179.1951,78.0
1605962179.1971,73.0
1605962179.1991,78.0
1605962179.2011,85.0
1605962179.2031,70.0
1605962179.205,56.0
1605962179.2071,80.0
1605962179.2091,87.0
1605962179.2111,63.0
1605962179.213,73.0
1605962179.2151,92.0
1605962179.2171,83.0
1605962179.2191,68.0
1605962179.221,58.0
1605962179.223,41.0
1605962179.225,36.0
1605962179.2271,51.0
1605962179.2291,51.0
1605962179.2311,39.0
1605962179.233,51.0
1605962179.2351,73.0
1605962179.2371,80.0
1605962179.2391,87.0
1605962179.241,90.0
1605962179.2431,73.0
1605962179.2451,53.0
1605962179.2471,51.0
1605962179.2491,70.0
1605962179.251,65.0
1605962179.253,-83.0
1605962179.2551,-439.0
1605962179.2571,-607.0
1605962179.259,12.0
1605962179.261,898.0
1605962179.263,822.0
1605962179.2651,166.0
1605962179.2671,34.0
1605962179.2691,141.0
1605962179.271,39.0
1605962179.273,-9.0
1605962179.2751,43.0
1605962179.2771,31.0
1605962179.2791,9.0
1605962179.281,19.0
1605962179.283,21.0
1605962179.2851,19.0
1605962179.2871,9.0
1605962179.2891,0.0
1605962179.2911,14.0
1605962179.2932,19.0
1605962179.2951,-9.0
1605962179.2971,-17.0
1605962179.299,7.0
1605962179.301,7.0
1605962179.7273,-26.0
1605962179.728,-58.0
1605962179.7305,-58.0
1605962179.7331,-43.0
1605962179.7352,-48.0
1605962179.7371,-80.0
1605962179.739,-112.0
1605962179.741,-112.0
1605962179.7431,-97.0
1605962179.745,-100.0
1605962179.7471,-90.0
1605962179.7491,-73.0
1605962179.7511,-56.0
1605962179.753,-34.0
1605962179.755,-17.0
1605962179.757,17.0
1605962179.759,65.0
1605962179.761,75.0
1605962179.7631,85.0
1605962179.765,124.0
1605962179.7671,141.0
1605962179.769,139.0
1605962179.771,136.0
1605962179.773,131.0
1605962179.775,136.0
1605962179.777,144.0
1605962179.779,126.0
1605962179.781,109.0
1605962179.783,109.0
1605962179.785,97.0
1605962179.7871,87.0
1605962179.789,87.0
1605962179.791,78.0
1605962179.793,80.0
1605962179.795,104.0
1605962179.7971,97.0
1605962179.799,68.0
1605962179.801,63.0
1605962179.803,75.0
1605962179.805,65.0
1605962179.807,61.0
1605962179.809,78.0
1605962179.811,75.0
1605962179.813,78.0
1605962179.815,92.0
1605962179.817,87.0
1605962179.8192,80.0
1605962179.821,78.0
1605962179.823,75.0
1605962179.825,75.0
1605962179.8271,87.0
1605962179.829,85.0
1605962179.831,70.0
1605962179.833,65.0
1605962179.835,75.0
1605962179.837,92.0
1605962179.839,109.0
1605962179.841,104.0
1605962179.843,80.0
1605962179.845,48.0
1605962179.8471,21.0
1605962179.849,36.0
1605962179.851,68.0
1605962179.853,61.0
1605962179.855,51.0
1605962179.857,58.0
1605962179.859,80.0
1605962179.8611,102.0
1605962179.863,92.0
1605962179.865,70.0
1605962179.867,73.0
1605962179.869,75.0
1605962179.871,70.0
1605962180.2973,70.0
1605962180.2981,17.0
1605962180.3005,-234.0
1605962180.3031,-566.0
1605962180.3051,-375.0
1605962180.3071,515.0
1605962180.3091,986.0
1605962180.3111,446.0
1605962180.3131,12.0
1605962180.3151,109.0
1605962180.3171,80.0
1605962180.3191,-46.0
1605962180.3211,4.0
1605962180.3231,53.0
1605962180.3252,17.0
1605962180.327,9.0
1605962180.329,19.0
1605962180.3311,0.0
1605962180.333,-12.0
1605962180.3351,2.0
1605962180.3371,4.0
1605962180.3391,-14.0
1605962180.341,-14.0
1605962180.3431,2.0
1605962180.3452,-9.0
1605962180.3471,-34.0
1605962180.349,-34.0
1605962180.351,-39.0
1605962180.353,-58.0
1605962180.355,-63.0
1605962180.3571,-63.0
1605962180.359,-75.0
1605962180.361,-87.0
1605962180.363,-78.0
1605962180.365,-75.0
1605962180.3671,-92.0
1605962180.3691,-80.0
1605962180.371,-43.0
1605962180.373,-29.0
1605962180.3751,-26.0
1605962180.3771,-14.0
1605962180.3791,7.0
1605962180.381,36.0
1605962180.383,78.0
1605962180.385,97.0
1605962180.3871,104.0
1605962180.3891,114.0
1605962180.3911,131.0
1605962180.393,144.0
1605962180.3951,141.0
1605962180.3971,134.0
1605962180.399,129.0
1605962180.401,134.0
1605962180.403,134.0
1605962180.4051,117.0
1605962180.4071,100.0
1605962180.409,97.0
1605962180.411,97.0
1605962180.413,90.0
1605962180.415,83.0
1605962180.4171,75.0
1605962180.4191,73.0
1605962180.421,73.0
1605962180.423,73.0
1605962180.425,78.0
1605962180.4271,87.0
1605962180.429,85.0
1605962180.431,73.0
1605962180.433,73.0
1605962180.435,85.0
1605962180.4371,83.0
1605962180.439,73.0
1605962180.441,80.0
1605962180.8967,87.0
1605962180.8974,85.0
1605962180.9001,85.0
1605962180.9025,85.0
1605962180.9045,75.0
1605962180.9066,58.0
1605962180.9085,58.0
1605962180.9105,65.0
1605962180.9125,58.0
1605962180.9145,56.0
1605962180.9165,65.0
1605962180.9185,58.0
1605962180.9205,43.0
1605962180.9225,26.0
1605962180.9245,19.0
1605962180.9265,34.0
1605962180.9285,34.0
1605962180.9305,24.0
1605962180.9325,39.0
1605962180.9344,65.0
1605962180.9365,70.0
1605962180.9384,58.0
1605962180.9404,56.0
1605962180.9424,61.0
1605962180.9444,58.0
1605962180.9465,53.0
1605962180.9484,53.0
1605962180.9505,41.0
1605962180.9525,-58.0
1605962180.9546,-344.0
1605962180.9565,-578.0
1605962180.9585,-161.0
1605962180.9605,725.0
1605962180.9624,878.0
1605962180.9644,258.0
1605962180.9665,0.0
1605962180.9685,104.0
1605962180.9704,46.0
1605962180.9724,-14.0
1605962180.9744,26.0
1605962180.9765,29.0
1605962180.9784,7.0
1605962180.9804,17.0
1605962180.9824,21.0
1605962180.9844,7.0
1605962180.9865,4.0
1605962180.9884,14.0
1605962180.9904,4.0
1605962180.9924,-14.0
1605962180.9945,-9.0
1605962180.9965,2.0
1605962180.9984,-9.0
1605962181.0004,-36.0
1605962181.0026,-36.0
1605962181.0045,-31.0
1605962181.0065,-51.0
1605962181.0084,-63.0
1605962181.0104,-68.0
1605962181.0124,-83.0
1605962181.0144,-92.0
1605962181.0165,-95.0
1605962181.0185,-87.0
1605962181.0204,-70.0
1605962181.0224,-58.0
1605962181.0244,-53.0
1605962181.0265,-43.0
1605962181.0284,-12.0
1605962181.0304,4.0
1605962181.0324,12.0
1605962181.0344,43.0
1605962181.0365,73.0
1605962181.0384,90.0
1605962181.0405,112.0
1605962181.4374,126.0
1605962181.4381,124.0
1605962181.4406,124.0
1605962181.4432,136.0
1605962181.4452,131.0
1605962181.4472,109.0
1605962181.4492,102.0
1605962181.4512,109.0
1605962181.4532,107.0
1605962181.4552,95.0
1605962181.4572,75.0
1605962181.4591,68.0
1605962181.4611,78.0
1605962181.4631,75.0
1605962181.4651,68.0
1605962181.4658,65.0
1605962181.4671,58.0
1605962181.4691,63.0
1605962181.4711,65.0
1605962181.4731,43.0
1605962181.4751,36.0
1605962181.4771,61.0
1605962181.4791,83.0
1605962181.4811,75.0
1605962181.4831,61.0
1605962181.4851,58.0
1605962181.4871,70.0
1605962181.4891,80.0
1605962181.4911,78.0
1605962181.4931,65.0
1605962181.4952,58.0
1605962181.496,65.0
1605962181.4972,90.0
1605962181.4991,90.0
1605962181.5011,58.0
1605962181.5031,58.0
1605962181.5052,83.0
1605962181.5071,87.0
1605962181.5091,83.0
1605962181.5111,78.0
1605962181.5131,51.0
1605962181.5151,29.0
1605962181.5171,51.0
1605962181.5191,73.0
1605962181.5211,43.0
1605962181.5231,29.0
1605962181.5238,65.0
1605962181.5251,95.0
1605962181.5271,85.0
1605962181.5291,63.0
1605962181.5311,68.0
1605962181.5331,87.0
1605962181.5351,85.0
1605962181.5371,65.0
1605962181.5391,61.0
1605962181.5411,19.0
1605962181.5431,-207.0
1605962181.5451,-541.0
1605962181.5471,-417.0
1605962181.5491,427.0
1605962181.5511,979.0
1605962181.5531,532.0
1605962181.5538,53.0
1605962181.5551,87.0
1605962181.5571,87.0
1605962181.5591,-14.0
1605962181.5611,14.0
1605962181.5631,48.0
1605962181.5651,14.0
1605962181.5671,7.0
1605962181.5691,19.0
1605962181.5711,12.0
1605962181.5731,0.0
1605962181.9771,-12.0
1605962181.9778,-9.0
1605962181.9802,2.0
1605962181.9815,4.0
1605962181.9829,-12.0
1605962181.9849,-26.0
1605962181.9869,-36.0
1605962181.9889,-53.0
1605962181.9909,-48.0
1605962181.993,-26.0
1605962181.9949,-51.0
1605962181.9969,-85.0
1605962181.9988,-90.0
1605962182.0008,-104.0
1605962182.0029,-112.0
1605962182.0048,-100.0
1605962182.0069,-95.0
1605962182.0088,-83.0
1605962182.0108,-56.0
1605962182.0115,-46.0
1605962182.0128,-58.0
1605962182.0149,-48.0
1605962182.0169,9.0
1605962182.0188,53.0
1605962182.0208,58.0
1605962182.0228,65.0
1605962182.0248,80.0
1605962182.0268,97.0
1605962182.0288,102.0
1605962182.0308,95.0
1605962182.0328,112.0
1605962182.0348,134.0
1605962182.0369,124.0
1605962182.0388,104.0
1605962182.0408,97.0
1605962182.0415,95.0
1605962182.0428,87.0
1605962182.0448,80.0
1605962182.0469,73.0
1605962182.0488,65.0
1605962182.0508,73.0
1605962182.0529,78.0
1605962182.0548,63.0
1605962182.0569,53.0
1605962182.0588,61.0
1605962182.0608,63.0
1605962182.0628,58.0
1605962182.0649,53.0
1605962182.0669,65.0
1605962182.0688,65.0
1605962182.0708,56.0
1605962182.0715,61.0
1605962182.0728,73.0
1605962182.0748,78.0
1605962182.0769,61.0
1605962182.0788,46.0
1605962182.0808,70.0
1605962182.0828,95.0
1605962182.0848,80.0
1605962182.0868,63.0
1605962182.089,70.0
1605962182.0909,78.0
1605962182.0928,61.0
1605962182.0948,53.0
1605962182.0968,70.0
1605962182.0988,75.0
1605962182.1008,43.0
1605962182.1015,12.0
1605962182.1028,19.0
1605962182.1048,46.0
1605962182.1068,43.0
1605962182.1088,39.0
1605962182.1108,46.0
1605962182.5178,56.0
1605962182.5185,68.0
1605962182.5202,68.0
1605962182.5221,68.0
1605962182.5241,70.0
1605962182.5262,65.0
1605962182.5281,58.0
1605962182.5288,43.0
1605962182.5301,-2.0
1605962182.5321,-183.0
1605962182.5341,-510.0
1605962182.5361,-539.0
1605962182.5381,185.0
1605962182.5401,920.0
1605962182.5421,654.0
1605962182.5441,65.0
1605962182.5461,29.0
1605962182.5482,90.0
1605962182.5501,-7.0
1605962182.5521,7.0
1605962182.5541,46.0
1605962182.5561,0.0
1605962182.5581,-12.0
1605962182.5588,12.0
1605962182.5601,-4.0
1605962182.5621,-14.0
1605962182.5641,7.0
1605962182.5661,12.0
1605962182.5681,-17.0
1605962182.5701,-36.0
1605962182.5721,-34.0
1605962182.5741,-17.0
1605962182.5761,-12.0
1605962182.5781,-36.0
1605962182.5801,-53.0
1605962182.5821,-56.0
1605962182.5841,-70.0
1605962182.5861,-75.0
1605962182.5882,-65.0
1605962182.5888,-90.0
1605962182.5901,-112.0
1605962182.5921,-97.0
1605962182.5941,-87.0
1605962182.5961,-102.0
1605962182.5981,-95.0
1605962182.6001,-63.0
1605962182.6021,-41.0
1605962182.6041,-31.0
1605962182.6061,-12.0
1605962182.6081,21.0
1605962182.6101,63.0
1605962182.6121,83.0
1605962182.6141,80.0
1605962182.6161,100.0
1605962182.6181,126.0
1605962182.6187,129.0
1605962182.6201,129.0
1605962182.6221,124.0
1605962182.6241,124.0
1605962182.6261,136.0
1605962182.6281,119.0
1605962182.6301,97.0
1605962182.6321,92.0
1605962182.6341,92.0
1605962182.6361,90.0
1605962182.6381,85.0
1605962182.6401,80.0
1605962182.6421,75.0
1605962182.6441,68.0
1605962182.6461,65.0
1605962182.6467,65.0
1605962182.6482,70.0
1605962182.6501,70.0
1605962183.1173,65.0
1605962183.118,65.0
1605962183.1204,68.0
1605962183.1232,70.0
1605962183.1251,75.0
1605962183.127,68.0
1605962183.129,51.0
1605962183.131,53.0
1605962183.133,70.0
1605962183.135,75.0
1605962183.137,58.0
1605962183.139,58.0
1605962183.141,75.0
1605962183.143,75.0
1605962183.145,63.0
1605962183.147,65.0
1605962183.1492,70.0
1605962183.1511,51.0
1605962183.153,34.0
1605962183.155,56.0
1605962183.157,63.0
1605962183.159,31.0
1605962183.1611,24.0
1605962183.163,68.0
1605962183.165,92.0
1605962183.167,73.0
1605962183.169,58.0
1605962183.171,73.0
1605962183.173,83.0
1605962183.175,68.0
1605962183.177,51.0
1605962183.179,51.0
1605962183.181,-2.0
1605962183.183,-251.0
1605962183.185,-583.0
1605962183.187,-375.0
1605962183.189,527.0
1605962183.191,996.0
1605962183.193,463.0
1605962183.195,14.0
1605962183.1971,83.0
1605962183.199,75.0
1605962183.201,-17.0
1605962183.203,17.0
1605962183.205,53.0
1605962183.2071,29.0
1605962183.209,0.0
1605962183.211,-4.0
1605962183.213,-2.0
1605962183.215,-4.0
1605962183.217,-12.0
1605962183.219,-19.0
1605962183.221,-12.0
1605962183.223,-4.0
1605962183.225,-12.0
1605962183.227,-17.0
1605962183.229,-21.0
1605962183.231,-36.0
1605962183.233,-41.0
1605962183.235,-48.0
1605962183.237,-68.0
1605962183.239,-85.0
1605962183.241,-85.0
1605962183.243,-80.0
1605962183.245,-95.0
1605962183.247,-104.0
1605962183.249,-90.0
1605962183.2512,-75.0
1605962183.2531,-70.0
1605962183.255,-56.0
1605962183.2571,-34.0
1605962183.2591,-12.0
1605962183.2611,14.0
1605962183.6574,46.0
1605962183.6581,75.0
1605962183.6605,100.0
1605962183.6632,114.0
1605962183.6652,112.0
1605962183.6671,114.0
1605962183.6692,134.0
1605962183.6712,139.0
1605962183.6731,129.0
1605962183.6751,134.0
1605962183.6771,126.0
1605962183.6791,102.0
1605962183.6812,92.0
1605962183.6831,95.0
1605962183.6852,85.0
1605962183.6871,70.0
1605962183.6891,73.0
1605962183.6911,80.0
1605962183.6932,80.0
1605962183.6951,80.0
1605962183.6971,65.0
1605962183.6991,58.0
1605962183.7011,73.0
1605962183.7031,73.0
1605962183.7051,68.0
1605962183.7071,70.0
1605962183.7091,63.0
1605962183.7111,56.0
1605962183.7131,73.0
1605962183.7151,87.0
1605962183.7171,78.0
1605962183.7191,70.0
1605962183.7211,70.0
1605962183.7233,70.0
1605962183.7251,78.0
1605962183.7271,80.0
1605962183.7291,85.0
1605962183.7311,85.0
1605962183.7331,80.0
1605962183.7351,80.0
1605962183.7371,63.0
1605962183.7391,29.0
1605962183.7411,26.0
1605962183.7431,43.0
1605962183.7451,43.0
1605962183.7473,48.0
1605962183.7492,65.0
1605962183.7511,73.0
1605962183.7531,65.0
1605962183.7551,61.0
1605962183.7571,65.0
1605962183.7591,65.0
1605962183.7611,68.0
1605962183.7631,75.0
1605962183.7651,68.0
1605962183.7671,34.0
1605962183.7691,-158.0
1605962183.7711,-522.0
1605962183.7731,-529.0
1605962183.7751,241.0
1605962183.7771,957.0
1605962183.7791,646.0
1605962183.7811,75.0
1605962183.7831,53.0
1605962183.7851,100.0
1605962183.7871,-2.0
1605962183.7891,7.0
1605962183.7911,34.0
1605962183.7931,-7.0
1605962183.7951,-7.0
1605962183.7971,24.0
1605962183.7991,26.0
1605962183.8011,9.0
1605962184.2272,4.0
1605962184.2279,12.0
1605962184.2304,2.0
1605962184.233,-21.0
1605962184.235,-46.0
1605962184.237,-43.0
1605962184.239,-24.0
1605962184.241,-24.0
1605962184.243,-51.0
1605962184.245,-75.0
1605962184.247,-87.0
1605962184.249,-83.0
1605962184.251,-85.0
1605962184.2531,-112.0
1605962184.255,-122.0
1605962184.257,-114.0
1605962184.259,-102.0
1605962184.261,-92.0
1605962184.263,-78.0
1605962184.265,-63.0
1605962184.2669,-51.0
1605962184.2689,-21.0
1605962184.2709,2.0
1605962184.2732,17.0
1605962184.275,39.0
1605962184.277,63.0
1605962184.2789,97.0
1605962184.2809,114.0
1605962184.2829,114.0
1605962184.2849,129.0
1605962184.287,139.0
1605962184.2889,119.0
1605962184.2909,95.0
1605962184.2929,95.0
1605962184.2949,117.0
1605962184.297,122.0
1605962184.2989,92.0
1605962184.3009,80.0
1605962184.3029,87.0
1605962184.3049,78.0
1605962184.307,70.0
1605962184.3089,80.0
1605962184.3109,70.0
1605962184.3129,53.0
1605962184.315,53.0
1605962184.317,63.0
1605962184.319,83.0
1605962184.3209,95.0
1605962184.3229,78.0
1605962184.3249,65.0
1605962184.3269,75.0
1605962184.3289,65.0
1605962184.3309,58.0
1605962184.3329,80.0
1605962184.3349,78.0
1605962184.3369,56.0
1605962184.3389,70.0
1605962184.3409,80.0
1605962184.3429,73.0
1605962184.3449,65.0
1605962184.347,61.0
1605962184.3489,61.0
1605962184.3509,75.0
1605962184.353,87.0
1605962184.3549,68.0
1605962184.357,48.0
1605962184.3589,48.0
1605962184.3609,36.0
1605962184.363,31.0
1605962184.365,29.0
1605962184.367,34.0
1605962184.3689,78.0
1605962184.3709,102.0
1605962184.7972,78.0
1605962184.7982,58.0
1605962184.8005,61.0
1605962184.8031,75.0
1605962184.805,75.0
1605962184.807,56.0
1605962184.809,48.0
1605962184.811,-24.0
1605962184.8131,-300.0
1605962184.815,-607.0
1605962184.817,-305.0
1605962184.819,607.0
1605962184.821,930.0
1605962184.823,351.0
1605962184.825,7.0
1605962184.827,95.0
1605962184.829,41.0
1605962184.831,-29.0
1605962184.833,36.0
1605962184.835,39.0
1605962184.837,-12.0
1605962184.839,2.0
1605962184.841,17.0
1605962184.843,-2.0
1605962184.845,0.0
1605962184.847,-2.0
1605962184.849,-26.0
1605962184.851,-19.0
1605962184.853,-4.0
1605962184.855,-14.0
1605962184.857,-26.0
1605962184.859,-24.0
1605962184.861,-39.0
1605962184.863,-61.0
1605962184.865,-65.0
1605962184.867,-68.0
1605962184.8691,-73.0
1605962184.871,-78.0
1605962184.873,-83.0
1605962184.875,-92.0
1605962184.877,-100.0
1605962184.879,-100.0
1605962184.881,-83.0
1605962184.883,-68.0
1605962184.885,-61.0
1605962184.887,-34.0
1605962184.889,-7.0
1605962184.891,0.0
1605962184.893,29.0
1605962184.895,78.0
1605962184.897,87.0
1605962184.899,85.0
1605962184.9012,109.0
1605962184.903,122.0
1605962184.905,109.0
1605962184.907,119.0
1605962184.909,136.0
1605962184.911,129.0
1605962184.913,107.0
1605962184.915,102.0
1605962184.917,114.0
1605962184.919,102.0
1605962184.921,90.0
1605962184.923,95.0
1605962184.925,80.0
1605962184.927,63.0
1605962184.929,78.0
1605962184.931,90.0
1605962184.933,75.0
1605962184.935,68.0
1605962184.937,68.0
1605962184.939,63.0
1605962184.941,68.0
1605962185.3373,75.0
1605962185.338,70.0
1605962185.3405,68.0
1605962185.3431,70.0
1605962185.3451,70.0
1605962185.3471,70.0
1605962185.3491,70.0
1605962185.3511,68.0
1605962185.3531,65.0
1605962185.3551,56.0
1605962185.357,48.0
1605962185.359,43.0
1605962185.361,43.0
1605962185.363,56.0
1605962185.365,61.0
1605962185.367,58.0
1605962185.369,56.0
1605962185.371,53.0
1605962185.373,46.0
1605962185.375,36.0
1605962185.377,24.0
1605962185.379,17.0
1605962185.381,9.0
1605962185.383,7.0
1605962185.385,26.0
1605962185.387,39.0
1605962185.389,53.0
1605962185.391,75.0
1605962185.393,68.0
1605962185.395,43.0
1605962185.3972,41.0
1605962185.3991,56.0
1605962185.401,56.0
1605962185.403,46.0
1605962185.405,17.0
1605962185.407,-190.0
1605962185.409,-551.0
1605962185.4111,-527.0
1605962185.413,278.0
1605962185.415,939.0
1605962185.417,576.0
1605962185.419,58.0
1605962185.421,78.0
1605962185.423,87.0
1605962185.425,-29.0
1605962185.427,-9.0
1605962185.429,26.0
1605962185.431,-4.0
1605962185.433,-7.0
1605962185.435,9.0
1605962185.437,2.0
1605962185.439,-14.0
1605962185.441,-19.0
1605962185.443,-12.0
1605962185.445,-4.0
1605962185.447,-14.0
1605962185.449,-29.0
1605962185.451,-29.0
1605962185.453,-31.0
1605962185.455,-34.0
1605962185.457,-36.0
1605962185.459,-56.0
1605962185.461,-83.0
1605962185.463,-85.0
1605962185.465,-80.0
1605962185.467,-97.0
1605962185.469,-107.0
1605962185.471,-100.0
1605962185.473,-102.0
1605962185.475,-109.0
1605962185.477,-102.0
1605962185.479,-80.0
1605962185.481,-51.0
1605962185.9072,-31.0
1605962185.908,-14.0
1605962185.9104,7.0
1605962185.9132,34.0
1605962185.9151,61.0
1605962185.9171,83.0
1605962185.9191,87.0
1605962185.9211,90.0
1605962185.9233,112.0
1605962185.9251,134.0
1605962185.927,122.0
1605962185.929,90.0
1605962185.931,83.0
1605962185.933,104.0
1605962185.935,107.0
1605962185.937,85.0
1605962185.939,75.0
1605962185.941,80.0
1605962185.943,78.0
1605962185.945,61.0
1605962185.947,53.0
1605962185.949,73.0
1605962185.951,80.0
1605962185.9531,61.0
1605962185.955,56.0
1605962185.957,65.0
1605962185.959,58.0
1605962185.961,58.0
1605962185.963,68.0
1605962185.965,63.0
1605962185.967,56.0
1605962185.969,70.0
1605962185.971,65.0
1605962185.973,41.0
1605962185.975,51.0
1605962185.977,68.0
1605962185.979,63.0
1605962185.9811,53.0
1605962185.983,51.0
1605962185.985,46.0
1605962185.987,53.0
1605962185.989,75.0
1605962185.991,58.0
1605962185.993,34.0
1605962185.995,65.0
1605962185.997,83.0
1605962185.999,68.0
1605962186.001,63.0
1605962186.003,39.0
1605962186.005,0.0
1605962186.007,12.0
1605962186.009,53.0
1605962186.011,56.0
1605962186.013,19.0
1605962186.015,36.0
1605962186.017,87.0
1605962186.019,75.0
1605962186.021,48.0
1605962186.023,68.0
1605962186.0253,73.0
1605962186.0271,61.0
1605962186.0291,63.0
1605962186.031,58.0
1605962186.033,21.0
1605962186.035,-151.0
1605962186.037,-495.0
1605962186.039,-546.0
1605962186.041,200.0
1605962186.043,957.0
1605962186.045,661.0
1605962186.047,63.0
1605962186.049,46.0
1605962186.051,109.0
1605962186.4774,-4.0
1605962186.4784,2.0
1605962186.4809,48.0
1605962186.4835,-4.0
1605962186.4856,-24.0
1605962186.4875,9.0
1605962186.4895,-2.0
1605962186.4915,-17.0
1605962186.4935,-7.0
1605962186.4955,-17.0
1605962186.4974,-36.0
1605962186.4994,-29.0
1605962186.5014,-21.0
1605962186.5035,-39.0
1605962186.5055,-56.0
1605962186.5073,-56.0
1605962186.5093,-58.0
1605962186.5113,-65.0
1605962186.5134,-63.0
1605962186.5154,-80.0
1605962186.5174,-102.0
1605962186.5193,-102.0
1605962186.5213,-97.0
1605962186.5233,-104.0
1605962186.5254,-117.0
1605962186.5273,-119.0
1605962186.5293,-107.0
1605962186.5313,-92.0
1605962186.5333,-75.0
1605962186.5354,-48.0
1605962186.5374,-19.0
1605962186.5393,2.0
1605962186.5413,29.0
1605962186.5433,63.0
1605962186.5454,104.0
1605962186.5473,114.0
1605962186.5493,109.0
1605962186.5515,124.0
1605962186.5534,134.0
1605962186.5554,139.0
1605962186.5573,148.0
1605962186.5593,139.0
1605962186.5614,114.0
1605962186.5633,100.0
1605962186.5654,100.0
1605962186.5673,104.0
1605962186.5693,97.0
1605962186.5713,83.0
1605962186.5734,75.0
1605962186.5754,78.0
1605962186.5774,85.0
1605962186.5793,83.0
1605962186.5813,65.0
1605962186.5834,56.0
1605962186.5854,65.0
1605962186.5874,75.0
1605962186.5894,68.0
1605962186.5913,63.0
1605962186.5933,58.0
1605962186.5954,53.0
1605962186.5974,70.0
1605962186.5993,78.0
1605962186.6013,63.0
1605962186.6033,58.0
1605962186.6054,65.0
1605962186.6073,75.0
1605962186.6093,63.0
1605962186.6114,48.0
1605962186.6133,70.0
1605962186.6154,75.0
1605962186.6173,56.0
1605962186.6193,58.0
1605962186.6214,65.0
1605962187.0475,58.0
1605962187.0484,61.0
1605962187.0509,68.0
1605962187.0535,63.0
1605962187.0556,70.0
1605962187.0574,63.0
1605962187.0595,9.0
1605962187.0614,-12.0
1605962187.0634,14.0
1605962187.0655,26.0
1605962187.0674,21.0
1605962187.0694,26.0
1605962187.0715,41.0
1605962187.0735,51.0
1605962187.0755,46.0
1605962187.0776,39.0
1605962187.0795,39.0
1605962187.0814,46.0
1605962187.0834,58.0
1605962187.0855,46.0
1605962187.0874,21.0
1605962187.0894,-61.0
1605962187.0914,-344.0
1605962187.0934,-617.0
1605962187.0955,-234.0
1605962187.0974,678.0
1605962187.0994,893.0
1605962187.1014,280.0
1605962187.1034,-2.0
1605962187.1054,102.0
1605962187.1074,29.0
1605962187.1094,-36.0
1605962187.1114,17.0
1605962187.1134,7.0
1605962187.1154,-12.0
1605962187.1174,17.0
1605962187.1194,19.0
1605962187.1214,9.0
1605962187.1234,7.0
1605962187.1255,-2.0
1605962187.1274,-17.0
1605962187.1294,-24.0
1605962187.1314,-12.0
1605962187.1334,-4.0
1605962187.1355,-17.0
1605962187.1374,-29.0
1605962187.1394,-46.0
1605962187.1414,-58.0
1605962187.1434,-48.0
1605962187.1454,-58.0
1605962187.1474,-78.0
1605962187.1493,-90.0
1605962187.1514,-102.0
1605962187.1534,-102.0
1605962187.1554,-92.0
1605962187.1574,-100.0
1605962187.1594,-95.0
1605962187.1614,-63.0
1605962187.1634,-53.0
1605962187.1654,-53.0
1605962187.1674,-26.0
1605962187.1694,2.0
1605962187.1714,34.0
1605962187.1734,58.0
1605962187.1755,70.0
1605962187.1774,80.0
1605962187.1796,104.0
1605962187.1814,124.0
1605962187.1834,117.0
1605962187.1855,109.0
1605962187.1874,112.0
1605962187.1894,107.0
1605962187.1914,112.0
1605962187.6165,117.0
1605962187.6173,97.0
1605962187.6198,83.0
1605962187.6224,92.0
1605962187.6244,95.0
1605962187.6264,80.0
1605962187.6285,70.0
1605962187.6304,63.0
1605962187.6324,56.0
1605962187.6344,53.0
1605962187.6363,58.0
1605962187.6383,53.0
1605962187.6403,46.0
1605962187.6423,41.0
1605962187.6443,34.0
1605962187.6464,46.0
1605962187.6484,75.0
1605962187.6503,65.0
1605962187.6523,43.0
1605962187.6543,61.0
1605962187.6564,75.0
1605962187.6583,53.0
1605962187.6603,51.0
1605962187.6623,68.0
1605962187.6643,73.0
1605962187.6664,75.0
1605962187.6683,63.0
1605962187.6703,46.0
1605962187.6723,63.0
1605962187.6743,83.0
1605962187.6764,63.0
1605962187.6783,51.0
1605962187.6803,61.0
1605962187.6823,70.0
1605962187.6843,68.0
1605962187.6863,61.0
1605962187.6883,65.0
1605962187.6903,85.0
1605962187.6923,85.0
1605962187.6943,39.0
1605962187.6963,7.0
1605962187.6984,34.0
1605962187.7003,48.0
1605962187.7023,29.0
1605962187.7045,24.0
1605962187.7064,39.0
1605962187.7083,58.0
1605962187.7103,78.0
1605962187.7123,83.0
1605962187.7143,75.0
1605962187.7164,65.0
1605962187.7183,68.0
1605962187.7203,70.0
1605962187.7224,48.0
1605962187.7307,14.0
1605962187.7324,-144.0
1605962187.7343,-495.0
1605962187.7363,-551.0
1605962187.7383,192.0
1605962187.7403,930.0
1605962187.7423,637.0
1605962187.7443,70.0
1605962187.7464,58.0
1605962187.7484,95.0
1605962187.7503,-17.0
1605962187.7523,-4.0
1605962187.7543,39.0
1605962187.7564,0.0
1605962187.7583,-7.0
1605962187.759,26.0
1605962187.7612,19.0
1605962187.7633,-7.0
1605962187.7653,-7.0
1605962188.1572,-9.0
1605962188.158,-26.0
1605962188.1604,-14.0
1605962188.163,0.0
1605962188.1651,-24.0
1605962188.167,-46.0
1605962188.169,-43.0
1605962188.171,-48.0
1605962188.173,-61.0
1605962188.175,-63.0
1605962188.1769,-70.0
1605962188.179,-92.0
1605962188.1797,-100.0
1605962188.1819,-102.0
1605962188.1839,-114.0
1605962188.1859,-117.0
1605962188.1879,-109.0
1605962188.1899,-102.0
1605962188.1919,-85.0
1605962188.1939,-63.0
1605962188.196,-46.0
1605962188.1979,-36.0
1605962188.2001,-9.0
1605962188.202,34.0
1605962188.2039,56.0
1605962188.206,61.0
1605962188.2079,73.0
1605962188.2099,100.0
1605962188.2107,112.0
1605962188.213,107.0
1605962188.2149,107.0
1605962188.217,95.0
1605962188.2189,70.0
1605962188.2209,83.0
1605962188.2229,97.0
1605962188.2249,83.0
1605962188.2269,75.0
1605962188.2289,68.0
1605962188.2309,61.0
1605962188.2329,75.0
1605962188.2349,73.0
1605962188.2369,53.0
1605962188.2389,48.0
1605962188.2409,61.0
1605962188.2417,58.0
1605962188.2439,43.0
1605962188.246,43.0
1605962188.248,48.0
1605962188.2499,53.0
1605962188.2519,65.0
1605962188.2539,63.0
1605962188.256,56.0
1605962188.2579,56.0
1605962188.2599,63.0
1605962188.2619,63.0
1605962188.2639,58.0
1605962188.266,65.0
1605962188.2679,78.0
1605962188.27,78.0
1605962188.2719,65.0
1605962188.2727,58.0
1605962188.2749,61.0
1605962188.2769,61.0
1605962188.2791,46.0
1605962188.2809,56.0
1605962188.2829,80.0
1605962188.2849,75.0
1605962188.2869,58.0
1605962188.2889,51.0
1605962188.2909,53.0
1605962188.2929,65.0
1605962188.2949,68.0
1605962188.2969,65.0
1605962188.6975,58.0
1605962188.6983,41.0
1605962188.7007,36.0
1605962188.7034,31.0
1605962188.7054,34.0
1605962188.7073,46.0
1605962188.7095,39.0
1605962188.7114,29.0
1605962188.7133,46.0
1605962188.7154,63.0
1605962188.7173,65.0
1605962188.7193,61.0
1605962188.7213,51.0
1605962188.7233,48.0
1605962188.7254,43.0
1605962188.7273,39.0
1605962188.7293,41.0
1605962188.7301,-17.0
1605962188.7323,-280.0
1605962188.7343,-583.0
1605962188.7363,-307.0
1605962188.7383,576.0
1605962188.7403,917.0
1605962188.7423,358.0
1605962188.7443,0.0
1605962188.7463,83.0
1605962188.7483,39.0
1605962188.7503,-31.0
1605962188.7523,19.0
1605962188.7543,24.0
1605962188.7563,-14.0
1605962188.7583,-7.0
1605962188.7603,19.0
1605962188.761,21.0
1605962188.7633,2.0
1605962188.7654,-4.0
1605962188.7673,-4.0
1605962188.7694,-24.0
1605962188.7713,-36.0
1605962188.7733,-29.0
1605962188.7754,-31.0
1605962188.7773,-43.0
1605962188.7793,-58.0
1605962188.7813,-63.0
1605962188.7833,-58.0
1605962188.7854,-65.0
1605962188.7873,-80.0
1605962188.7893,-92.0
1605962188.79,-109.0
1605962188.7923,-119.0
1605962188.7943,-119.0
1605962188.7965,-104.0
1605962188.7984,-83.0
1605962188.8003,-90.0
1605962188.8023,-100.0
1605962188.8043,-85.0
1605962188.8064,-53.0
1605962188.8083,-31.0
1605962188.8103,-21.0
1605962188.8123,17.0
1605962188.8143,61.0
1605962188.8164,65.0
1605962188.8183,65.0
1605962188.8203,95.0
1605962188.821,107.0
1605962188.8233,95.0
1605962188.8254,92.0
1605962188.8273,95.0
1605962188.8293,92.0
1605962188.8313,97.0
1605962188.8333,95.0
1605962188.8354,80.0
1605962188.8373,63.0
1605962189.2673,56.0
1605962189.2683,63.0
1605962189.2708,61.0
1605962189.2734,61.0
1605962189.2754,70.0
1605962189.2773,68.0
1605962189.2781,56.0
1605962189.2804,53.0
1605962189.2823,51.0
1605962189.2843,41.0
1605962189.2863,46.0
1605962189.2883,56.0
1605962189.2903,56.0
1605962189.2923,41.0
1605962189.2943,43.0
1605962189.2963,53.0
1605962189.2983,61.0
1605962189.3003,75.0
1605962189.3023,80.0
1605962189.3043,61.0
1605962189.3063,53.0
1605962189.3083,58.0
1605962189.309,63.0
1605962189.3113,61.0
1605962189.3133,61.0
1605962189.3153,61.0
1605962189.3173,53.0
1605962189.3193,51.0
1605962189.3213,65.0
1605962189.3235,80.0
1605962189.3254,73.0
1605962189.3274,53.0
1605962189.3293,46.0
1605962189.3313,53.0
1605962189.3333,58.0
1605962189.3354,56.0
1605962189.3373,48.0
1605962189.3393,29.0
1605962189.34,9.0
1605962189.3423,12.0
1605962189.3443,36.0
1605962189.3463,41.0
1605962189.3483,34.0
1605962189.3503,48.0
1605962189.3523,85.0
1605962189.3543,78.0
1605962189.3564,48.0
1605962189.3583,61.0
1605962189.3603,75.0
1605962189.3623,53.0
1605962189.3643,39.0
1605962189.3663,58.0
1605962189.3683,36.0
1605962189.3703,-175.0
1605962189.3723,-539.0
1605962189.3743,-534.0
1605962189.3763,241.0
1605962189.3783,937.0
1605962189.3803,620.0
1605962189.3823,78.0
1605962189.3843,68.0
1605962189.3863,104.0
1605962189.3883,-2.0
1605962189.3903,-12.0
1605962189.3923,19.0
1605962189.3943,0.0
1605962189.3963,-9.0
1605962189.3983,-2.0
1605962189.4003,2.0
1605962189.4023,4.0
1605962189.4043,7.0
1605962189.4063,7.0
1605962189.4083,-12.0
1605962189.8069,-41.0
1605962189.8076,-39.0
1605962189.81,-14.0
1605962189.8127,-19.0
1605962189.8147,-53.0
1605962189.8167,-68.0
1605962189.8187,-61.0
1605962189.8209,-70.0
1605962189.8227,-100.0
1605962189.8246,-104.0
1605962189.8267,-107.0
1605962189.8286,-134.0
1605962189.8306,-136.0
1605962189.8326,-129.0
1605962189.8346,-139.0
1605962189.8366,-136.0
1605962189.8386,-107.0
1605962189.8406,-83.0
1605962189.8426,-68.0
1605962189.8446,-56.0
1605962189.8467,-29.0
1605962189.8486,14.0
1605962189.8506,58.0
1605962189.8526,63.0
1605962189.8546,53.0
1605962189.8566,83.0
1605962189.8586,114.0
1605962189.8606,109.0
1605962189.8626,109.0
1605962189.8646,139.0
1605962189.8666,139.0
1605962189.8686,100.0
1605962189.8706,87.0
1605962189.8726,97.0
1605962189.8746,92.0
1605962189.8766,85.0
1605962189.8786,78.0
1605962189.8806,61.0
1605962189.8826,58.0
1605962189.8846,61.0
1605962189.8866,61.0
1605962189.8886,63.0
1605962189.8906,63.0
1605962189.8926,65.0
1605962189.8946,63.0
1605962189.8966,56.0
1605962189.8986,61.0
1605962189.9006,65.0
1605962189.9026,70.0
1605962189.9046,78.0
1605962189.9066,83.0
1605962189.9086,75.0
1605962189.9106,70.0
1605962189.9126,75.0
1605962189.9146,75.0
1605962189.9167,68.0
1605962189.9186,61.0
1605962189.9206,73.0
1605962189.9228,92.0
1605962189.9247,92.0
1605962189.9266,73.0
1605962189.9286,65.0
1605962189.9306,75.0
1605962189.9326,75.0
1605962189.9346,73.0
1605962189.9366,83.0
1605962189.9386,78.0
1605962189.9406,56.0
1605962189.9426,36.0
1605962189.9446,31.0
1605962189.9466,43.0
1605962189.9486,51.0
1605962189.9506,41.0
1605962190.3772,39.0
1605962190.3779,58.0
1605962190.3804,78.0
1605962190.383,83.0
1605962190.385,65.0
1605962190.387,48.0
1605962190.389,53.0
1605962190.391,63.0
1605962190.393,58.0
1605962190.395,48.0
1605962190.397,17.0
1605962190.399,-156.0
1605962190.401,-490.0
1605962190.403,-520.0
1605962190.405,212.0
1605962190.407,932.0
1605962190.409,649.0
1605962190.411,75.0
1605962190.413,41.0
1605962190.415,90.0
1605962190.417,-7.0
1605962190.4189,0.0
1605962190.421,31.0
1605962190.423,-2.0
1605962190.425,-12.0
1605962190.4269,4.0
1605962190.4289,2.0
1605962190.4309,-2.0
1605962190.4329,-14.0
1605962190.4349,-34.0
1605962190.437,-17.0
1605962190.4389,-4.0
1605962190.4409,-17.0
1605962190.4429,-19.0
1605962190.4449,-24.0
1605962190.4469,-51.0
1605962190.4491,-70.0
1605962190.451,-61.0
1605962190.453,-53.0
1605962190.4549,-80.0
1605962190.4569,-102.0
1605962190.4589,-104.0
1605962190.4609,-112.0
1605962190.4629,-107.0
1605962190.4649,-102.0
1605962190.4669,-112.0
1605962190.469,-114.0
1605962190.4709,-100.0
1605962190.4729,-78.0
1605962190.4749,-51.0
1605962190.4769,-31.0
1605962190.4789,-12.0
1605962190.4809,29.0
1605962190.4829,70.0
1605962190.4849,83.0
1605962190.4869,85.0
1605962190.4889,97.0
1605962190.4909,104.0
1605962190.4929,107.0
1605962190.495,117.0
1605962190.497,114.0
1605962190.4989,104.0
1605962190.5009,100.0
1605962190.5029,92.0
1605962190.5049,85.0
1605962190.5069,90.0
1605962190.5089,95.0
1605962190.5109,85.0
1605962190.5129,70.0
1605962190.5149,58.0
1605962190.5169,46.0
1605962190.5189,51.0
1605962190.5209,75.0
1605962190.9774,83.0
1605962190.9783,61.0
1605962190.9808,46.0
1605962190.9835,63.0
1605962190.9855,87.0
1605962190.9874,75.0
1605962190.9895,41.0
1605962190.9914,41.0
1605962190.9934,61.0
1605962190.9955,63.0
1605962190.9974,51.0
1605962190.9994,43.0
1605962191.0014,53.0
1605962191.0034,61.0
1605962191.0057,46.0
1605962191.0074,48.0
1605962191.0094,65.0
1605962191.0114,65.0
1605962191.0134,43.0
1605962191.0153,43.0
1605962191.0174,61.0
1605962191.0194,63.0
1605962191.0214,58.0
1605962191.0234,58.0
1605962191.0254,43.0
1605962191.0273,4.0
1605962191.0293,9.0
1605962191.0313,56.0
1605962191.0333,48.0
1605962191.0354,12.0
1605962191.0373,21.0
1605962191.0393,56.0
1605962191.0413,73.0
1605962191.0433,65.0
1605962191.0454,63.0
1605962191.0473,65.0
1605962191.0493,56.0
1605962191.0513,41.0
1605962191.0535,41.0
1605962191.0554,29.0
1605962191.0573,-148.0
1605962191.0593,-512.0
1605962191.0614,-524.0
1605962191.0633,241.0
1605962191.0653,930.0
1605962191.0673,610.0
1605962191.0693,68.0
1605962191.0713,53.0
1605962191.0733,87.0
1605962191.0754,-14.0
1605962191.0773,-9.0
1605962191.0793,19.0
1605962191.0813,-14.0
1605962191.0819,-7.0
1605962191.0833,12.0
1605962191.0854,-2.0
1605962191.0873,-2.0
1605962191.0893,-2.0
1605962191.0913,-12.0
1605962191.0933,-2.0
1605962191.0954,-7.0
1605962191.0973,-34.0
1605962191.0993,-41.0
1605962191.1013,-36.0
1605962191.1033,-43.0
1605962191.1055,-56.0
1605962191.1074,-63.0
1605962191.1093,-65.0
1605962191.1113,-75.0
1605962191.112,-90.0
1605962191.1133,-112.0
1605962191.1153,-134.0
1605962191.1173,-129.0
1605962191.547,-95.0
1605962191.548,-87.0
1605962191.5498,-114.0
1605962191.5517,-109.0
1605962191.5537,-70.0
1605962191.5557,-56.0
1605962191.5577,-48.0
1605962191.5597,-19.0
1605962191.5617,4.0
1605962191.5637,21.0
1605962191.5644,39.0
1605962191.5656,48.0
1605962191.5676,58.0
1605962191.5696,83.0
1605962191.5716,87.0
1605962191.5736,73.0
1605962191.5757,75.0
1605962191.5776,85.0
1605962191.5796,70.0
1605962191.5816,68.0
1605962191.5836,70.0
1605962191.5856,53.0
1605962191.5876,48.0
1605962191.5896,61.0
1605962191.5916,51.0
1605962191.5936,46.0
1605962191.5943,51.0
1605962191.5957,41.0
1605962191.5976,36.0
1605962191.5996,43.0
1605962191.6016,48.0
1605962191.6036,51.0
1605962191.6056,56.0
1605962191.6076,53.0
1605962191.6096,56.0
1605962191.6116,65.0
1605962191.6136,65.0
1605962191.6156,61.0
1605962191.6176,61.0
1605962191.6196,56.0
1605962191.6216,51.0
1605962191.6236,56.0
1605962191.6243,65.0
1605962191.6258,63.0
1605962191.6277,56.0
1605962191.6296,63.0
1605962191.6316,65.0
1605962191.6336,56.0
1605962191.6356,58.0
1605962191.6376,65.0
1605962191.6396,61.0
1605962191.6416,58.0
1605962191.6436,48.0
1605962191.6456,14.0
1605962191.6476,9.0
1605962191.6496,39.0
1605962191.6516,46.0
1605962191.6536,43.0
1605962191.6543,58.0
1605962191.6557,68.0
1605962191.6576,68.0
1605962191.6596,68.0
1605962191.6616,61.0
1605962191.6636,58.0
1605962191.6656,56.0
1605962191.6676,51.0
1605962191.6696,43.0
1605962191.6716,14.0
1605962191.6736,-136.0
1605962191.6756,-461.0
1605962191.6776,-566.0
1605962191.6796,90.0
1605962191.6816,881.0
1605962192.0868,693.0
1605962192.0878,102.0
1605962192.0902,31.0
1605962192.0929,95.0
1605962192.0948,-2.0
1605962192.097,-12.0
1605962192.0988,21.0
1605962192.1008,-19.0
1605962192.1028,-48.0
1605962192.1048,-26.0
1605962192.1068,-2.0
1605962192.1088,-12.0
1605962192.1109,-34.0
1605962192.1128,-46.0
1605962192.1148,-46.0
1605962192.1155,-51.0
1605962192.1168,-53.0
1605962192.1188,-43.0
1605962192.1208,-36.0
1605962192.1228,-51.0
1605962192.1248,-68.0
1605962192.127,-80.0
1605962192.1288,-92.0
1605962192.1307,-102.0
1605962192.1328,-97.0
1605962192.1348,-95.0
1605962192.1368,-104.0
1605962192.1388,-119.0
1605962192.1408,-129.0
1605962192.1428,-126.0
1605962192.1448,-104.0
1605962192.1455,-87.0
1605962192.1468,-85.0
1605962192.1488,-70.0
1605962192.1508,-41.0
1605962192.1528,-9.0
1605962192.1548,24.0
1605962192.1568,53.0
1605962192.1588,63.0
1605962192.1608,68.0
1605962192.1628,78.0
1605962192.1648,87.0
1605962192.1668,87.0
1605962192.1688,90.0
1605962192.1708,87.0
1605962192.1728,85.0
1605962192.1748,83.0
1605962192.1754,80.0
1605962192.1768,80.0
1605962192.1788,80.0
1605962192.1808,68.0
1605962192.1828,56.0
1605962192.1848,56.0
1605962192.1868,58.0
1605962192.1888,56.0
1605962192.1907,48.0
1605962192.1928,48.0
1605962192.1948,53.0
1605962192.1968,53.0
1605962192.1987,46.0
1605962192.2008,51.0
1605962192.2028,63.0
1605962192.2048,53.0
1605962192.2054,39.0
1605962192.2068,39.0
1605962192.2088,56.0
1605962192.2108,63.0
1605962192.2128,51.0
1605962192.2148,48.0
1605962192.2168,58.0
1605962192.2188,58.0
1605962192.2208,53.0
1605962192.2229,51.0
1605962192.6269,53.0
1605962192.6276,68.0
1605962192.63,80.0
1605962192.6327,80.0
1605962192.6334,73.0
1605962192.6357,65.0
1605962192.6377,46.0
1605962192.6397,14.0
1605962192.6417,14.0
1605962192.6437,21.0
1605962192.6458,17.0
1605962192.6476,34.0
1605962192.6496,51.0
1605962192.6516,46.0
1605962192.6536,43.0
1605962192.6557,53.0
1605962192.6576,65.0
1605962192.6596,68.0
1605962192.6616,68.0
1605962192.6637,61.0
1605962192.6643,43.0
1605962192.6657,12.0
1605962192.6677,-175.0
1605962192.6697,-532.0
1605962192.6716,-563.0
1605962192.6736,180.0
1605962192.6757,920.0
1605962192.6776,654.0
1605962192.6796,80.0
1605962192.6816,36.0
1605962192.6836,80.0
1605962192.6856,-19.0
1605962192.6876,4.0
1605962192.6896,46.0
1605962192.6916,-4.0
1605962192.6937,-12.0
1605962192.6943,12.0
1605962192.6957,4.0
1605962192.6977,0.0
1605962192.6996,7.0
1605962192.7016,-4.0
1605962192.7036,-17.0
1605962192.7057,-19.0
1605962192.7076,-26.0
1605962192.7096,-29.0
1605962192.7116,-26.0
1605962192.7136,-41.0
1605962192.7156,-53.0
1605962192.7176,-36.0
1605962192.7196,-48.0
1605962192.7218,-83.0
1605962192.7237,-97.0
1605962192.7243,-109.0
1605962192.7257,-109.0
1605962192.7276,-112.0
1605962192.7296,-131.0
1605962192.7316,-126.0
1605962192.7336,-100.0
1605962192.7356,-85.0
1605962192.7376,-75.0
1605962192.7396,-63.0
1605962192.7416,-43.0
1605962192.7436,-12.0
1605962192.7457,26.0
1605962192.7476,61.0
1605962192.7496,80.0
1605962192.7516,102.0
1605962192.7536,124.0
1605962192.7543,119.0
1605962192.7557,117.0
1605962192.7576,124.0
1605962192.7596,114.0
1605962192.7616,112.0
1605962193.167,114.0
1605962193.1676,102.0
1605962193.1713,80.0
1605962193.1737,85.0
1605962193.1756,95.0
1605962193.1776,83.0
1605962193.1796,65.0
1605962193.1816,53.0
1605962193.1836,46.0
1605962193.1856,51.0
1605962193.1876,53.0
1605962193.1896,56.0
1605962193.1916,53.0
1605962193.1936,43.0
1605962193.1957,51.0
1605962193.1976,61.0
1605962193.1996,61.0
1605962193.2003,61.0
1605962193.2016,56.0
1605962193.2036,48.0
1605962193.2056,51.0
1605962193.2076,63.0
1605962193.2096,75.0
1605962193.2116,65.0
1605962193.2136,58.0
1605962193.2157,68.0
1605962193.2176,70.0
1605962193.2196,61.0
1605962193.2218,63.0
1605962193.2237,73.0
1605962193.2257,70.0
1605962193.2276,51.0
1605962193.2296,53.0
1605962193.2303,56.0
1605962193.2316,36.0
1605962193.2336,34.0
1605962193.2356,53.0
1605962193.2376,65.0
1605962193.2396,70.0
1605962193.2416,65.0
1605962193.2436,51.0
1605962193.2456,48.0
1605962193.2476,70.0
1605962193.2496,80.0
1605962193.2516,61.0
1605962193.2536,46.0
1605962193.2556,31.0
1605962193.2576,-95.0
1605962193.2596,-437.0
1605962193.2603,-627.0
1605962193.2616,-31.0
1605962193.2636,864.0
1605962193.2656,805.0
1605962193.2676,158.0
1605962193.2696,19.0
1605962193.2716,114.0
1605962193.2737,12.0
1605962193.2756,-26.0
1605962193.2776,29.0
1605962193.2796,12.0
1605962193.2818,-12.0
1605962193.2836,4.0
1605962193.2857,-4.0
1605962193.2877,-19.0
1605962193.2896,-2.0
1605962193.2903,7.0
1605962193.2916,0.0
1605962193.2936,-12.0
1605962193.2957,-21.0
1605962193.2976,-12.0
1605962193.2996,-12.0
1605962193.3016,-31.0
1605962193.3036,-46.0
1605962193.7371,-53.0
1605962193.7379,-65.0
1605962193.7402,-85.0
1605962193.7429,-100.0
1605962193.7449,-107.0
1605962193.7456,-117.0
1605962193.7471,-124.0
1605962193.749,-136.0
1605962193.7509,-126.0
1605962193.7529,-109.0
1605962193.7549,-109.0
1605962193.7569,-83.0
1605962193.7589,-51.0
1605962193.7609,-36.0
1605962193.7629,0.0
1605962193.7649,36.0
1605962193.7669,56.0
1605962193.7689,83.0
1605962193.7709,97.0
1605962193.7729,107.0
1605962193.7748,131.0
1605962193.7755,129.0
1605962193.7769,119.0
1605962193.7789,119.0
1605962193.7809,107.0
1605962193.7829,95.0
1605962193.7848,102.0
1605962193.7869,112.0
1605962193.7888,112.0
1605962193.7909,92.0
1605962193.7929,75.0
1605962193.7949,75.0
1605962193.7969,73.0
1605962193.7989,68.0
1605962193.801,63.0
1605962193.8028,43.0
1605962193.8035,31.0
1605962193.8049,41.0
1605962193.8069,46.0
1605962193.8089,43.0
1605962193.8108,53.0
1605962193.8129,56.0
1605962193.8149,46.0
1605962193.8169,43.0
1605962193.8189,41.0
1605962193.8209,48.0
1605962193.8228,51.0
1605962193.8248,53.0
1605962193.8269,68.0
1605962193.8288,68.0
1605962193.8308,48.0
1605962193.8328,43.0
1605962193.8335,46.0
1605962193.8349,56.0
1605962193.8369,65.0
1605962193.8388,58.0
1605962193.8408,51.0
1605962193.843,48.0
1605962193.8449,39.0
1605962193.8469,31.0
1605962193.8489,36.0
1605962193.8508,29.0
1605962193.8528,21.0
1605962193.8548,48.0
1605962193.8569,70.0
1605962193.8589,61.0
1605962193.8609,53.0
1605962193.8629,63.0
1605962193.8635,73.0
1605962193.8649,63.0
1605962193.8669,39.0
1605962193.8689,34.0
1605962193.8709,19.0
1605962194.3675,-168.0
1605962194.3689,-532.0
1605962194.3712,-556.0
1605962194.374,217.0
1605962194.3759,947.0
1605962194.3779,627.0
1605962194.38,48.0
1605962194.3819,36.0
1605962194.3839,80.0
1605962194.3859,-36.0
1605962194.3878,-24.0
1605962194.3885,29.0
1605962194.3898,-4.0
1605962194.3918,-29.0
1605962194.3939,-2.0
1605962194.3958,0.0
1605962194.3978,-14.0
1605962194.3998,-7.0
1605962194.4018,-2.0
1605962194.4038,-12.0
1605962194.4058,-21.0
1605962194.4078,-34.0
1605962194.4098,-39.0
1605962194.4118,-41.0
1605962194.4138,-34.0
1605962194.4158,-39.0
1605962194.4178,-63.0
1605962194.4184,-78.0
1605962194.4198,-75.0
1605962194.4218,-87.0
1605962194.4238,-109.0
1605962194.4258,-126.0
1605962194.4278,-131.0
1605962194.4298,-134.0
1605962194.4318,-112.0
1605962194.434,-83.0
1605962194.4358,-83.0
1605962194.4378,-73.0
1605962194.4398,-39.0
1605962194.4418,-12.0
1605962194.4438,4.0
1605962194.4458,34.0
1605962194.4478,61.0
1605962194.4484,73.0
1605962194.4498,87.0
1605962194.4518,117.0
1605962194.4538,131.0
1605962194.4558,124.0
1605962194.4578,114.0
1605962194.4598,117.0
1605962194.4618,119.0
1605962194.4638,112.0
1605962194.4658,97.0
1605962194.4678,87.0
1605962194.4698,85.0
1605962194.4718,75.0
1605962194.4738,68.0
1605962194.4758,80.0
1605962194.4778,97.0
1605962194.4785,83.0
1605962194.4798,56.0
1605962194.4818,51.0
1605962194.4838,58.0
1605962194.4858,48.0
1605962194.4878,39.0
1605962194.4898,39.0
1605962194.4918,53.0
1605962194.4938,58.0
1605962194.4958,53.0
1605962194.4978,63.0
1605962194.4998,65.0
1605962194.5018,63.0
1605962194.5038,61.0
1605962194.877,51.0
1605962194.878,51.0
1605962194.8804,51.0
1605962194.8831,51.0
1605962194.8851,61.0
1605962194.8871,63.0
1605962194.8891,61.0
1605962194.8911,58.0
1605962194.8931,63.0
1605962194.8951,70.0
1605962194.897,56.0
1605962194.899,53.0
1605962194.901,61.0
1605962194.9032,43.0
1605962194.9051,31.0
1605962194.907,19.0
1605962194.9077,7.0
1605962194.909,21.0
1605962194.911,21.0
1605962194.913,4.0
1605962194.915,26.0
1605962194.9169,51.0
1605962194.919,41.0
1605962194.9209,34.0
1605962194.9229,46.0
1605962194.925,46.0
1605962194.927,43.0
1605962194.9289,39.0
1605962194.931,29.0
1605962194.9329,31.0
1605962194.935,-19.0
1605962194.937,-270.0
1605962194.9376,-595.0
1605962194.9389,-405.0
1605962194.9409,471.0
1605962194.943,939.0
1605962194.945,422.0
1605962194.9471,-2.0
1605962194.949,75.0
1605962194.951,46.0
1605962194.9529,-41.0
1605962194.955,7.0
1605962194.957,21.0
1605962194.9589,-4.0
1605962194.961,-2.0
1605962194.963,-4.0
1605962194.965,-9.0
1605962194.9669,-2.0
1605962194.9676,0.0
1605962194.969,-14.0
1605962194.9709,-21.0
1605962194.973,-26.0
1605962194.975,-39.0
1605962194.9769,-43.0
1605962194.9789,-34.0
1605962194.9809,-39.0
1605962194.9829,-61.0
1605962194.985,-68.0
1605962194.9869,-61.0
1605962194.9889,-70.0
1605962194.9909,-95.0
1605962194.9929,-109.0
1605962194.9949,-122.0
1605962194.997,-122.0
1605962194.9978,-107.0
1605962194.999,-97.0
1605962195.0009,-92.0
1605962195.003,-78.0
1605962195.005,-61.0
1605962195.0069,-41.0
1605962195.009,-9.0
1605962195.0109,17.0
1605962195.0129,34.0
1605962195.4474,56.0
1605962195.4483,80.0
1605962195.4507,95.0
1605962195.4534,117.0
1605962195.4554,131.0
1605962195.4574,119.0
1605962195.4581,107.0
1605962195.4594,102.0
1605962195.4614,92.0
1605962195.4633,90.0
1605962195.4653,83.0
1605962195.4673,75.0
1605962195.4693,78.0
1605962195.4714,73.0
1605962195.4736,70.0
1605962195.4755,70.0
1605962195.4775,51.0
1605962195.4794,34.0
1605962195.4815,41.0
1605962195.4835,48.0
1605962195.4854,48.0
1605962195.4875,48.0
1605962195.488,39.0
1605962195.4895,36.0
1605962195.4914,46.0
1605962195.4933,31.0
1605962195.4954,29.0
1605962195.4973,63.0
1605962195.4993,70.0
1605962195.5013,41.0
1605962195.5034,41.0
1605962195.5054,68.0
1605962195.5073,70.0
1605962195.5093,51.0
1605962195.5113,48.0
1605962195.5133,58.0
1605962195.5153,58.0
1605962195.5173,48.0
1605962195.518,43.0
1605962195.5193,41.0
1605962195.5213,41.0
1605962195.5233,56.0
1605962195.5255,70.0
1605962195.5273,63.0
1605962195.5293,48.0
1605962195.5313,56.0
1605962195.5333,53.0
1605962195.5353,48.0
1605962195.5373,46.0
1605962195.5393,17.0
1605962195.5413,7.0
1605962195.5433,29.0
1605962195.5453,29.0
1605962195.5473,26.0
1605962195.548,41.0
1605962195.5493,56.0
1605962195.5513,58.0
1605962195.5533,51.0
1605962195.5553,63.0
1605962195.5573,75.0
1605962195.5593,56.0
1605962195.5613,31.0
1605962195.5633,39.0
1605962195.5653,61.0
1605962195.5673,-41.0
1605962195.5693,-380.0
1605962195.5713,-632.0
1605962195.5734,-163.0
1605962195.5753,742.0
1605962195.576,849.0
1605962195.5773,229.0
1605962195.5793,12.0
1605962195.5813,107.0
1605962195.9867,19.0
1605962195.9874,-26.0
1605962195.9898,24.0
1605962195.9925,9.0
1605962195.9945,-17.0
1605962195.9966,0.0
1605962195.9985,12.0
1605962196.0005,0.0
1605962196.0025,-31.0
1605962196.0045,-53.0
1605962196.0052,-41.0
1605962196.0065,-24.0
1605962196.0084,-36.0
1605962196.0105,-48.0
1605962196.0124,-43.0
1605962196.0132,-48.0
1605962196.0154,-65.0
1605962196.0174,-65.0
1605962196.0194,-63.0
1605962196.0215,-80.0
1605962196.0236,-102.0
1605962196.0256,-114.0
1605962196.0274,-122.0
1605962196.0294,-124.0
1605962196.0314,-122.0
1605962196.032,-129.0
1605962196.0334,-131.0
1605962196.0355,-109.0
1605962196.0374,-92.0
1605962196.0394,-78.0
1605962196.0414,-48.0
1605962196.0434,-14.0
1605962196.0455,9.0
1605962196.0474,34.0
1605962196.0494,61.0
1605962196.0514,80.0
1605962196.0534,95.0
1605962196.0555,100.0
1605962196.0574,102.0
1605962196.0594,102.0
1605962196.0614,95.0
1605962196.062,92.0
1605962196.0634,100.0
1605962196.0654,102.0
1605962196.0674,90.0
1605962196.0694,75.0
1605962196.0715,65.0
1605962196.0734,73.0
1605962196.0755,80.0
1605962196.0774,70.0
1605962196.0794,53.0
1605962196.0814,56.0
1605962196.0834,63.0
1605962196.0855,53.0
1605962196.0874,56.0
1605962196.0894,75.0
1605962196.0914,63.0
1605962196.092,43.0
1605962196.0934,58.0
1605962196.0955,58.0
1605962196.0974,46.0
1605962196.0994,58.0
1605962196.1014,65.0
1605962196.1034,61.0
1605962196.1055,58.0
1605962196.1074,46.0
1605962196.1094,39.0
1605962196.1114,70.0
1605962196.1134,97.0
1605962196.1154,70.0
1605962196.1174,41.0
1605962196.1196,58.0
1605962196.1214,73.0
1605962196.5571,58.0
1605962196.558,48.0
1605962196.5604,53.0
1605962196.5631,56.0
1605962196.5652,48.0
1605962196.5671,34.0
1605962196.5692,34.0
1605962196.5711,48.0
1605962196.5731,41.0
1605962196.5751,43.0
1605962196.577,58.0
1605962196.579,29.0
1605962196.581,-2.0
1605962196.583,21.0
1605962196.5837,36.0
1605962196.5851,21.0
1605962196.587,34.0
1605962196.589,61.0
1605962196.591,61.0
1605962196.593,48.0
1605962196.5951,48.0
1605962196.597,63.0
1605962196.599,73.0
1605962196.601,58.0
1605962196.603,39.0
1605962196.6051,43.0
1605962196.6071,21.0
1605962196.6091,-190.0
1605962196.6111,-561.0
1605962196.6131,-515.0
1605962196.6137,319.0
1605962196.6151,969.0
1605962196.617,561.0
1605962196.6191,26.0
1605962196.621,80.0
1605962196.623,117.0
1605962196.6251,-17.0
1605962196.627,-14.0
1605962196.629,21.0
1605962196.631,-2.0
1605962196.633,2.0
1605962196.635,19.0
1605962196.637,2.0
1605962196.639,-12.0
1605962196.641,-14.0
1605962196.643,-12.0
1605962196.6436,-7.0
1605962196.645,-4.0
1605962196.647,-21.0
1605962196.6491,-34.0
1605962196.651,-24.0
1605962196.653,-21.0
1605962196.6551,-39.0
1605962196.657,-58.0
1605962196.659,-65.0
1605962196.661,-65.0
1605962196.663,-78.0
1605962196.6651,-109.0
1605962196.667,-129.0
1605962196.669,-124.0
1605962196.671,-131.0
1605962196.673,-134.0
1605962196.6736,-104.0
1605962196.675,-80.0
1605962196.677,-83.0
1605962196.679,-68.0
1605962196.6811,-34.0
1605962196.683,-17.0
1605962196.6851,12.0
1605962196.687,53.0
1605962196.689,70.0
1605962196.691,80.0
1605962196.693,100.0
1605962197.0974,107.0
1605962197.0983,112.0
1605962197.1008,117.0
1605962197.1034,114.0
1605962197.104,90.0
1605962197.1054,83.0
1605962197.1073,100.0
1605962197.1094,95.0
1605962197.1113,73.0
1605962197.1133,58.0
1605962197.1153,53.0
1605962197.1173,61.0
1605962197.1193,70.0
1605962197.1213,65.0
1605962197.1233,56.0
1605962197.1254,41.0
1605962197.1273,41.0
1605962197.1293,41.0
1605962197.1313,36.0
1605962197.1333,43.0
1605962197.1339,43.0
1605962197.1353,46.0
1605962197.1373,63.0
1605962197.1393,68.0
1605962197.1413,61.0
1605962197.1433,58.0
1605962197.1453,61.0
1605962197.1475,53.0
1605962197.1493,53.0
1605962197.1513,58.0
1605962197.1533,53.0
1605962197.1553,63.0
1605962197.1573,80.0
1605962197.1593,68.0
1605962197.1613,58.0
1605962197.1633,75.0
1605962197.1639,75.0
1605962197.1653,56.0
1605962197.1673,53.0
1605962197.1693,61.0
1605962197.1713,68.0
1605962197.1733,61.0
1605962197.1753,56.0
1605962197.1773,53.0
1605962197.1793,56.0
1605962197.1813,68.0
1605962197.1833,73.0
1605962197.1853,78.0
1605962197.1873,73.0
1605962197.1893,46.0
1605962197.1913,21.0
1605962197.1933,12.0
1605962197.1939,24.0
1605962197.1953,48.0
1605962197.1973,48.0
1605962197.1993,36.0
1605962197.2013,41.0
1605962197.2033,56.0
1605962197.2053,61.0
1605962197.2073,68.0
1605962197.2093,73.0
1605962197.2113,58.0
1605962197.2133,43.0
1605962197.2153,46.0
1605962197.2173,51.0
1605962197.2193,14.0
1605962197.2213,-183.0
1605962197.2233,-524.0
1605962197.2239,-502.0
1605962197.2253,280.0
1605962197.2273,944.0
1605962197.2293,585.0
1605962197.2313,41.0
1605962197.6974,61.0
1605962197.6983,102.0
1605962197.7008,-12.0
1605962197.7034,0.0
1605962197.7055,29.0
1605962197.7078,-12.0
1605962197.7095,-14.0
1605962197.7114,-2.0
1605962197.7134,-14.0
1605962197.7141,-12.0
1605962197.7155,-9.0
1605962197.7173,-24.0
1605962197.7193,-36.0
1605962197.7214,-21.0
1605962197.7233,-9.0
1605962197.7254,-26.0
1605962197.7273,-43.0
1605962197.7293,-51.0
1605962197.7313,-46.0
1605962197.7333,-48.0
1605962197.7354,-83.0
1605962197.7373,-100.0
1605962197.7393,-95.0
1605962197.7413,-109.0
1605962197.7433,-126.0
1605962197.7439,-122.0
1605962197.7454,-122.0
1605962197.7473,-124.0
1605962197.7493,-109.0
1605962197.7513,-83.0
1605962197.7533,-85.0
1605962197.7554,-87.0
1605962197.7573,-43.0
1605962197.7593,-2.0
1605962197.7613,24.0
1605962197.7633,53.0
1605962197.7653,63.0
1605962197.7673,68.0
1605962197.7693,92.0
1605962197.7713,114.0
1605962197.7733,112.0
1605962197.7739,107.0
1605962197.7753,104.0
1605962197.7773,92.0
1605962197.7793,83.0
1605962197.7813,92.0
1605962197.7833,107.0
1605962197.7853,109.0
1605962197.7873,92.0
1605962197.7893,68.0
1605962197.7913,68.0
1605962197.7933,78.0
1605962197.7953,68.0
1605962197.7973,56.0
1605962197.7993,61.0
1605962197.8013,75.0
1605962197.8035,70.0
1605962197.804,56.0
1605962197.8055,46.0
1605962197.8073,41.0
1605962197.8093,56.0
1605962197.8113,68.0
1605962197.8133,68.0
1605962197.8153,63.0
1605962197.8173,53.0
1605962197.8193,61.0
1605962197.8213,85.0
1605962197.8233,78.0
1605962197.8253,63.0
1605962197.8273,63.0
1605962197.8293,61.0
1605962197.8313,61.0
1605962197.8333,70.0
1605962198.2673,78.0
1605962198.2682,63.0
1605962198.2707,48.0
1605962198.2733,58.0
1605962198.2754,65.0
1605962198.2773,61.0
1605962198.2793,58.0
1605962198.2813,58.0
1605962198.2833,46.0
1605962198.2853,41.0
1605962198.2872,56.0
1605962198.2892,58.0
1605962198.2912,51.0
1605962198.2932,53.0
1605962198.2953,63.0
1605962198.2972,58.0
1605962198.2979,48.0
1605962198.2992,24.0
1605962198.3012,-4.0
1605962198.3033,14.0
1605962198.3054,43.0
1605962198.3073,41.0
1605962198.3092,29.0
1605962198.3112,17.0
1605962198.3132,41.0
1605962198.3152,75.0
1605962198.3172,65.0
1605962198.3192,46.0
1605962198.3212,51.0
1605962198.3232,63.0
1605962198.3253,63.0
1605962198.3272,51.0
1605962198.3278,29.0
1605962198.3292,-129.0
1605962198.3314,-471.0
1605962198.3333,-578.0
1605962198.3353,51.0
1605962198.3372,837.0
1605962198.3392,693.0
1605962198.3412,100.0
1605962198.3432,26.0
1605962198.3452,107.0
1605962198.3472,-4.0
1605962198.3492,-26.0
1605962198.3512,24.0
1605962198.3532,-2.0
1605962198.3552,-17.0
1605962198.3572,-2.0
1605962198.3578,-17.0
1605962198.3592,-21.0
1605962198.3612,-2.0
1605962198.3632,-7.0
1605962198.3652,-21.0
1605962198.3672,-24.0
1605962198.3692,-43.0
1605962198.3712,-56.0
1605962198.3732,-41.0
1605962198.3752,-41.0
1605962198.3772,-63.0
1605962198.3792,-78.0
1605962198.3812,-73.0
1605962198.3832,-70.0
1605962198.3852,-95.0
1605962198.3872,-122.0
1605962198.3878,-126.0
1605962198.3892,-119.0
1605962198.3912,-124.0
1605962198.3932,-124.0
1605962198.3952,-107.0
1605962198.3972,-95.0
1605962198.3992,-90.0
1605962198.4012,-70.0
1605962198.4032,-46.0
1605962198.8069,-21.0
1605962198.8078,4.0
1605962198.8102,24.0
1605962198.813,43.0
1605962198.8136,80.0
1605962198.8149,112.0
1605962198.8168,112.0
1605962198.8189,104.0
1605962198.8208,102.0
1605962198.8228,102.0
1605962198.8248,100.0
1605962198.8268,97.0
1605962198.829,90.0
1605962198.8309,85.0
1605962198.8328,85.0
1605962198.8348,73.0
1605962198.8368,58.0
1605962198.8388,70.0
1605962198.8408,80.0
1605962198.8428,78.0
1605962198.8434,70.0
1605962198.8448,58.0
1605962198.8468,39.0
1605962198.8488,41.0
1605962198.8508,68.0
1605962198.8528,70.0
1605962198.8548,56.0
1605962198.8568,58.0
1605962198.8588,58.0
1605962198.8608,48.0
1605962198.8628,58.0
1605962198.8648,80.0
1605962198.8668,73.0
1605962198.8688,56.0
1605962198.8708,65.0
1605962198.8728,75.0
1605962198.8734,61.0
1605962198.8748,51.0
1605962198.8768,53.0
1605962198.8788,58.0
1605962198.8808,56.0
1605962198.8827,51.0
1605962198.8848,51.0
1605962198.8868,58.0
1605962198.8888,70.0
1605962198.8908,70.0
1605962198.8928,48.0
1605962198.8948,36.0
1605962198.8968,46.0
1605962198.8988,65.0
1605962198.9008,68.0
1605962198.9028,51.0
1605962198.9034,46.0
1605962198.9048,51.0
1605962198.9068,51.0
1605962198.9088,51.0
1605962198.9108,46.0
1605962198.9128,46.0
1605962198.9148,34.0
1605962198.9168,9.0
1605962198.9188,17.0
1605962198.9208,36.0
1605962198.9227,31.0
1605962198.9251,26.0
1605962198.9269,34.0
1605962198.9288,51.0
1605962198.9308,58.0
1605962198.9328,58.0
1605962198.9334,56.0
1605962198.9348,46.0
1605962198.9368,36.0
1605962198.9388,46.0
1605962198.9408,56.0
1605962199.3472,17.0
1605962199.3482,-190.0
1605962199.3506,-541.0
1605962199.3533,-520.0
1605962199.3554,249.0
1605962199.3573,905.0
1605962199.3593,563.0
1605962199.3613,34.0
1605962199.3632,39.0
1605962199.3652,68.0
1605962199.3672,-34.0
1605962199.3678,-24.0
1605962199.3692,7.0
1605962199.3712,-26.0
1605962199.3732,-31.0
1605962199.3753,-9.0
1605962199.3772,-17.0
1605962199.3792,-41.0
1605962199.3812,-41.0
1605962199.3832,-39.0
1605962199.3852,-43.0
1605962199.3872,-46.0
1605962199.3892,-46.0
1605962199.3912,-46.0
1605962199.3933,-58.0
1605962199.3952,-70.0
1605962199.3958,-65.0
1605962199.3972,-63.0
1605962199.3992,-90.0
1605962199.4012,-107.0
1605962199.4032,-104.0
1605962199.4052,-109.0
1605962199.4072,-134.0
1605962199.4091,-141.0
1605962199.4111,-141.0
1605962199.4131,-151.0
1605962199.4151,-139.0
1605962199.4171,-107.0
1605962199.4191,-90.0
1605962199.4211,-85.0
1605962199.4231,-68.0
1605962199.4254,-34.0
1605962199.4257,2.0
1605962199.4272,39.0
1605962199.4291,75.0
1605962199.4312,80.0
1605962199.4331,75.0
1605962199.4352,95.0
1605962199.4371,109.0
1605962199.4391,107.0
1605962199.4411,112.0
1605962199.4431,112.0
1605962199.4452,100.0
1605962199.4472,90.0
1605962199.4491,95.0
1605962199.4511,97.0
1605962199.4531,85.0
1605962199.4552,73.0
1605962199.4558,73.0
1605962199.4572,78.0
1605962199.4591,73.0
1605962199.4611,53.0
1605962199.4631,46.0
1605962199.4651,70.0
1605962199.4672,83.0
1605962199.4691,63.0
1605962199.4712,48.0
1605962199.4731,53.0
1605962199.4752,63.0
1605962199.4772,73.0
1605962199.4792,78.0
1605962199.4811,63.0
1605962199.4831,51.0
1605962199.9167,65.0
1605962199.9176,70.0
1605962199.9193,63.0
1605962199.9213,70.0
1605962199.9233,73.0
1605962199.9253,56.0
1605962199.9273,48.0
1605962199.9292,46.0
1605962199.9312,48.0
1605962199.9332,56.0
1605962199.9353,51.0
1605962199.9372,46.0
1605962199.9392,53.0
1605962199.9412,56.0
1605962199.9418,58.0
1605962199.9432,65.0
1605962199.9453,53.0
1605962199.9472,41.0
1605962199.9492,51.0
1605962199.9514,56.0
1605962199.9532,43.0
1605962199.9553,36.0
1605962199.9572,29.0
1605962199.9592,26.0
1605962199.9612,34.0
1605962199.9632,24.0
1605962199.9652,12.0
1605962199.9672,21.0
1605962199.9692,31.0
1605962199.9712,39.0
1605962199.9718,53.0
1605962199.9732,65.0
1605962199.9752,68.0
1605962199.9772,46.0
1605962199.9792,34.0
1605962199.9812,48.0
1605962199.9832,58.0
1605962199.9852,-31.0
1605962199.9872,-332.0
1605962199.9892,-627.0
1605962199.9912,-314.0
1605962199.9931,578.0
1605962199.9952,920.0
1605962199.9972,361.0
1605962199.9992,2.0
1605962200.0012,85.0
1605962200.0018,36.0
1605962200.0032,-46.0
1605962200.0052,7.0
1605962200.0072,19.0
1605962200.0092,-19.0
1605962200.0112,-34.0
1605962200.0132,-24.0
1605962200.0152,-12.0
1605962200.0172,-19.0
1605962200.0192,-24.0
1605962200.0212,-21.0
1605962200.0232,-26.0
1605962200.0252,-31.0
1605962200.0272,-34.0
1605962200.0292,-48.0
1605962200.0312,-58.0
1605962200.0318,-56.0
1605962200.0332,-56.0
1605962200.0352,-73.0
1605962200.0372,-90.0
1605962200.0392,-92.0
1605962200.0412,-92.0
1605962200.0432,-107.0
1605962200.0452,-124.0
1605962200.0473,-126.0
1605962200.0492,-129.0
1605962200.0512,-122.0
1605962200.4573,-100.0
1605962200.4582,-97.0
1605962200.4606,-87.0
1605962200.4633,-53.0
1605962200.4653,-29.0
1605962200.4659,-7.0
1605962200.4673,17.0
1605962200.4693,29.0
1605962200.4713,48.0
1605962200.4733,70.0
1605962200.4753,83.0
1605962200.4772,102.0
1605962200.4794,124.0
1605962200.4813,119.0
1605962200.4832,97.0
1605962200.4853,87.0
1605962200.4872,100.0
1605962200.4892,92.0
1605962200.4912,87.0
1605962200.4932,95.0
1605962200.4952,80.0
1605962200.4958,61.0
1605962200.4972,56.0
1605962200.4992,56.0
1605962200.5012,63.0
1605962200.5032,75.0
1605962200.5053,65.0
1605962200.5072,51.0
1605962200.5092,51.0
1605962200.5112,51.0
1605962200.5133,46.0
1605962200.5152,53.0
1605962200.5172,56.0
1605962200.5192,58.0
1605962200.5212,73.0
1605962200.5232,78.0
1605962200.5252,73.0
1605962200.5258,75.0
1605962200.5272,75.0
1605962200.5292,63.0
1605962200.5312,56.0
1605962200.5332,58.0
1605962200.5352,61.0
1605962200.5372,58.0
1605962200.5392,68.0
1605962200.5412,80.0
1605962200.5432,75.0
1605962200.5452,68.0
1605962200.5473,61.0
1605962200.5492,63.0
1605962200.5512,68.0
1605962200.5532,65.0
1605962200.5552,73.0
1605962200.5558,75.0
1605962200.5572,48.0
1605962200.5592,24.0
1605962200.5612,36.0
1605962200.5632,48.0
1605962200.5652,31.0
1605962200.5672,24.0
1605962200.5692,58.0
1605962200.5712,70.0
1605962200.5732,58.0
1605962200.5752,58.0
1605962200.5772,70.0
1605962200.5792,65.0
1605962200.5812,56.0
1605962200.5831,61.0
1605962200.5852,61.0
1605962200.5858,-4.0
1605962200.5872,-256.0
1605962200.5892,-583.0
1605962200.5912,-397.0
1605962201.0868,478.0
1605962201.0877,957.0
1605962201.0901,451.0
1605962201.0919,9.0
1605962201.0938,63.0
1605962201.0959,39.0
1605962201.0978,-63.0
1605962201.0998,-24.0
1605962201.1004,7.0
1605962201.1018,-19.0
1605962201.1038,-17.0
1605962201.1059,-2.0
1605962201.1078,-17.0
1605962201.1098,-26.0
1605962201.1118,-34.0
1605962201.1138,-36.0
1605962201.1157,-29.0
1605962201.1177,-48.0
1605962201.1197,-73.0
1605962201.1217,-58.0
1605962201.1238,-46.0
1605962201.1258,-65.0
1605962201.1277,-90.0
1605962201.1297,-85.0
1605962201.1303,-75.0
1605962201.1317,-95.0
1605962201.1339,-117.0
1605962201.1358,-129.0
1605962201.1377,-134.0
1605962201.1397,-126.0
1605962201.1418,-119.0
1605962201.1437,-122.0
1605962201.1457,-109.0
1605962201.1477,-83.0
1605962201.1497,-68.0
1605962201.1517,-70.0
1605962201.1537,-41.0
1605962201.1558,-7.0
1605962201.1577,4.0
1605962201.1597,29.0
1605962201.1603,68.0
1605962201.1617,90.0
1605962201.1637,97.0
1605962201.1657,104.0
1605962201.1677,107.0
1605962201.1697,102.0
1605962201.1717,102.0
1605962201.1738,102.0
1605962201.1757,97.0
1605962201.1777,87.0
1605962201.1797,87.0
1605962201.1817,95.0
1605962201.1837,85.0
1605962201.1857,73.0
1605962201.1877,65.0
1605962201.1897,58.0
1605962201.1903,51.0
1605962201.1917,53.0
1605962201.1937,68.0
1605962201.1957,65.0
1605962201.1977,58.0
1605962201.1997,70.0
1605962201.2017,68.0
1605962201.2037,51.0
1605962201.2057,58.0
1605962201.2077,68.0
1605962201.2097,61.0
1605962201.2117,53.0
1605962201.2137,70.0
1605962201.2157,85.0
1605962201.2177,65.0
1605962201.2197,48.0
1605962201.2203,61.0
1605962201.6272,63.0
1605962201.6281,56.0
1605962201.6306,56.0
1605962201.6333,53.0
1605962201.6355,51.0
1605962201.6372,73.0
1605962201.6393,85.0
1605962201.6412,63.0
1605962201.6432,51.0
1605962201.6452,41.0
1605962201.6473,21.0
1605962201.6492,19.0
1605962201.6498,26.0
1605962201.6512,7.0
1605962201.6532,0.0
1605962201.6553,36.0
1605962201.6573,58.0
1605962201.6591,58.0
1605962201.6612,68.0
1605962201.6632,61.0
1605962201.6651,43.0
1605962201.6671,43.0
1605962201.6691,41.0
1605962201.6711,48.0
1605962201.6731,34.0
1605962201.6752,-139.0
1605962201.6771,-490.0
1605962201.6791,-578.0
1605962201.6797,90.0
1605962201.6811,874.0
1605962201.6831,698.0
1605962201.6851,117.0
1605962201.6871,31.0
1605962201.6892,80.0
1605962201.6911,-19.0
1605962201.6931,-24.0
1605962201.6952,26.0
1605962201.6971,12.0
1605962201.6991,-12.0
1605962201.7011,-12.0
1605962201.7031,4.0
1605962201.7051,19.0
1605962201.7071,9.0
1605962201.7091,-17.0
1605962201.7097,-26.0
1605962201.7111,-24.0
1605962201.7131,-39.0
1605962201.7151,-46.0
1605962201.7171,-41.0
1605962201.7191,-43.0
1605962201.7211,-58.0
1605962201.7231,-73.0
1605962201.7252,-70.0
1605962201.7271,-68.0
1605962201.7291,-75.0
1605962201.7313,-92.0
1605962201.7332,-122.0
1605962201.7352,-136.0
1605962201.7371,-134.0
1605962201.7392,-122.0
1605962201.7397,-92.0
1605962201.7411,-83.0
1605962201.7431,-85.0
1605962201.7452,-68.0
1605962201.7471,-56.0
1605962201.7491,-43.0
1605962201.7511,-2.0
1605962201.7531,31.0
1605962201.7551,36.0
1605962201.7571,56.0
1605962201.7591,80.0
1605962201.7611,78.0
1605962201.7631,68.0
1605962202.1668,90.0
1605962202.1678,102.0
1605962202.1701,92.0
1605962202.1713,80.0
1605962202.1728,73.0
1605962202.1749,87.0
1605962202.1768,92.0
1605962202.1789,70.0
1605962202.1808,56.0
1605962202.1828,51.0
1605962202.1849,36.0
1605962202.1868,26.0
1605962202.1889,34.0
1605962202.1908,41.0
1605962202.1928,41.0
1605962202.1949,46.0
1605962202.1968,43.0
1605962202.1988,31.0
1605962202.2008,43.0
1605962202.2014,61.0
1605962202.2028,65.0
1605962202.2048,73.0
1605962202.2068,68.0
1605962202.2088,61.0
1605962202.2108,63.0
1605962202.2128,58.0
1605962202.2149,51.0
1605962202.2168,56.0
1605962202.2188,63.0
1605962202.2208,65.0
1605962202.2228,56.0
1605962202.2248,53.0
1605962202.2268,65.0
1605962202.2289,65.0
1605962202.2308,63.0
1605962202.2314,51.0
1605962202.2328,26.0
1605962202.2348,19.0
1605962202.2368,26.0
1605962202.2387,29.0
1605962202.2408,31.0
1605962202.2427,46.0
1605962202.2448,58.0
1605962202.2467,63.0
1605962202.2487,70.0
1605962202.2508,73.0
1605962202.2528,61.0
1605962202.2548,53.0
1605962202.2568,48.0
1605962202.2587,43.0
1605962202.2608,41.0
1605962202.2614,-43.0
1605962202.2627,-344.0
1605962202.2648,-622.0
1605962202.2667,-239.0
1605962202.2681,681.0
1605962202.2697,905.0
1605962202.2718,290.0
1605962202.2738,-4.0
1605962202.2758,100.0
1605962202.2777,34.0
1605962202.2798,-43.0
1605962202.2817,12.0
1605962202.2838,14.0
1605962202.2858,-34.0
1605962202.2878,-24.0
1605962202.2885,-2.0
1605962202.2907,-17.0
1605962202.2928,-17.0
1605962202.2948,-7.0
1605962202.2968,-19.0
1605962202.2989,-34.0
1605962202.3008,-26.0
1605962202.7372,-21.0
1605962202.7381,-36.0
1605962202.7405,-39.0
1605962202.7432,-34.0
1605962202.7453,-65.0
1605962202.7472,-90.0
1605962202.7492,-80.0
1605962202.7499,-95.0
1605962202.7512,-124.0
1605962202.7532,-124.0
1605962202.7551,-114.0
1605962202.7573,-129.0
1605962202.7591,-144.0
1605962202.7611,-122.0
1605962202.7631,-100.0
1605962202.7651,-104.0
1605962202.7671,-107.0
1605962202.7691,-68.0
1605962202.7712,-14.0
1605962202.7732,0.0
1605962202.7751,14.0
1605962202.7771,51.0
1605962202.7791,78.0
1605962202.7875,100.0
1605962202.7891,104.0
1605962202.7911,87.0
1605962202.7931,97.0
1605962202.7951,112.0
1605962202.7971,97.0
1605962202.7991,78.0
1605962202.8011,80.0
1605962202.8031,87.0
1605962202.8052,83.0
1605962202.8071,78.0
1605962202.8091,73.0
1605962202.8111,61.0
1605962202.8131,56.0
1605962202.8152,65.0
1605962202.8159,65.0
1605962202.818,61.0
1605962202.8201,58.0
1605962202.8221,51.0
1605962202.8241,51.0
1605962202.8261,61.0
1605962202.8281,61.0
1605962202.8301,53.0
1605962202.8321,51.0
1605962202.8341,48.0
1605962202.836,48.0
1605962202.8381,61.0
1605962202.8402,70.0
1605962202.8421,75.0
1605962202.844,75.0
1605962202.8461,61.0
1605962202.8467,51.0
1605962202.848,48.0
1605962202.85,46.0
1605962202.8521,58.0
1605962202.8541,83.0
1605962202.856,73.0
1605962202.8581,17.0
1605962202.86,-7.0
1605962202.8622,29.0
1605962202.8641,46.0
1605962202.8661,36.0
1605962202.8681,46.0
1605962202.8701,53.0
1605962202.8721,58.0
1605962202.8741,75.0
1605962202.8761,78.0
1605962202.8768,65.0
1605962202.879,63.0
1605962202.8811,51.0
1605962203.3071,46.0
1605962203.3082,48.0
1605962203.3106,-48.0
1605962203.3133,-368.0
1605962203.3152,-654.0
1605962203.3172,-249.0
1605962203.3193,705.0
1605962203.3212,944.0
1605962203.3232,302.0
1605962203.3253,-19.0
1605962203.3272,100.0
1605962203.3292,39.0
1605962203.3299,-58.0
1605962203.3323,2.0
1605962203.3343,24.0
1605962203.3362,-12.0
1605962203.3382,-9.0
1605962203.3402,-7.0
1605962203.3422,-24.0
1605962203.3442,-29.0
1605962203.3463,-19.0
1605962203.3482,-14.0
1605962203.3502,-24.0
1605962203.3521,-24.0
1605962203.3541,-24.0
1605962203.3562,-31.0
1605962203.3581,-43.0
1605962203.3602,-56.0
1605962203.3609,-61.0
1605962203.3631,-73.0
1605962203.3651,-75.0
1605962203.3672,-73.0
1605962203.3692,-102.0
1605962203.3712,-126.0
1605962203.3731,-109.0
1605962203.3752,-109.0
1605962203.3772,-129.0
1605962203.3792,-117.0
1605962203.3812,-87.0
1605962203.3832,-70.0
1605962203.3854,-65.0
1605962203.3872,-53.0
1605962203.3892,-26.0
1605962203.3911,9.0
1605962203.3919,46.0
1605962203.3941,70.0
1605962203.3962,87.0
1605962203.3981,92.0
1605962203.4001,92.0
1605962203.4022,109.0
1605962203.4041,129.0
1605962203.4061,129.0
1605962203.4081,117.0
1605962203.4101,104.0
1605962203.4121,104.0
1605962203.4141,100.0
1605962203.4162,85.0
1605962203.4181,80.0
1605962203.4201,65.0
1605962203.4221,53.0
1605962203.4229,75.0
1605962203.4252,80.0
1605962203.4271,63.0
1605962203.4292,53.0
1605962203.4311,46.0
1605962203.4331,43.0
1605962203.4352,48.0
1605962203.4371,51.0
1605962203.4392,46.0
1605962203.4411,48.0
1605962203.4432,56.0
1605962203.4452,43.0
1605962203.4471,41.0
1605962203.8469,68.0
1605962203.8476,80.0
1605962203.85,63.0
1605962203.8527,51.0
1605962203.8548,58.0
1605962203.8567,56.0
1605962203.8587,41.0
1605962203.8607,58.0
1605962203.8627,80.0
1605962203.8648,63.0
1605962203.8667,43.0
1605962203.8687,21.0
1605962203.8707,4.0
1605962203.8727,21.0
1605962203.8747,34.0
1605962203.8767,19.0
1605962203.8787,21.0
1605962203.8794,46.0
1605962203.8819,61.0
1605962203.8837,58.0
1605962203.8857,61.0
1605962203.8876,61.0
1605962203.8897,41.0
1605962203.8916,36.0
1605962203.8937,48.0
1605962203.8956,34.0
1605962203.8976,-104.0
1605962203.8996,-444.0
1605962203.9017,-634.0
1605962203.9036,-70.0
1605962203.9056,827.0
1605962203.9076,839.0
1605962203.9096,190.0
1605962203.9103,-7.0
1605962203.9117,87.0
1605962203.9136,2.0
1605962203.9156,-36.0
1605962203.9176,12.0
1605962203.9196,-4.0
1605962203.9216,-24.0
1605962203.9238,-7.0
1605962203.9257,-14.0
1605962203.9277,-29.0
1605962203.9296,-12.0
1605962203.9317,-4.0
1605962203.9337,-26.0
1605962203.9357,-31.0
1605962203.9376,-17.0
1605962203.9396,-26.0
1605962203.9403,-41.0
1605962203.9416,-43.0
1605962203.9436,-61.0
1605962203.9457,-75.0
1605962203.9476,-73.0
1605962203.9497,-80.0
1605962203.9517,-97.0
1605962203.9536,-107.0
1605962203.9557,-107.0
1605962203.9576,-109.0
1605962203.9596,-112.0
1605962203.9616,-114.0
1605962203.9636,-102.0
1605962203.9656,-75.0
1605962203.9676,-68.0
1605962203.9696,-68.0
1605962203.9703,-46.0
1605962203.9716,-7.0
1605962203.9736,36.0
1605962203.9757,61.0
1605962203.9778,63.0
1605962203.9797,70.0
1605962203.9817,90.0
1605962203.9837,109.0
1605962204.4472,119.0
1605962204.4482,107.0
1605962204.4506,107.0
1605962204.4533,107.0
1605962204.4553,83.0
1605962204.4573,83.0
1605962204.4594,95.0
1605962204.4613,73.0
1605962204.4619,53.0
1605962204.4633,61.0
1605962204.4653,61.0
1605962204.4673,48.0
1605962204.4693,46.0
1605962204.4713,46.0
1605962204.4733,36.0
1605962204.4752,53.0
1605962204.4772,73.0
1605962204.4792,46.0
1605962204.4812,31.0
1605962204.4832,51.0
1605962204.4853,65.0
1605962204.4872,58.0
1605962204.4892,43.0
1605962204.4912,39.0
1605962204.4919,39.0
1605962204.4932,46.0
1605962204.4953,51.0
1605962204.4972,43.0
1605962204.4992,39.0
1605962204.5012,36.0
1605962204.5032,41.0
1605962204.5052,53.0
1605962204.5072,51.0
1605962204.5092,41.0
1605962204.5112,31.0
1605962204.5132,39.0
1605962204.5151,53.0
1605962204.5172,39.0
1605962204.5192,9.0
1605962204.5212,14.0
1605962204.5218,24.0
1605962204.5231,19.0
1605962204.5252,31.0
1605962204.5272,46.0
1605962204.5292,34.0
1605962204.5312,24.0
1605962204.5332,51.0
1605962204.5354,80.0
1605962204.5372,70.0
1605962204.5392,51.0
1605962204.5412,43.0
1605962204.5432,48.0
1605962204.5452,29.0
1605962204.5472,-163.0
1605962204.5492,-527.0
1605962204.5512,-568.0
1605962204.5518,158.0
1605962204.5532,908.0
1605962204.5552,661.0
1605962204.5572,90.0
1605962204.5592,51.0
1605962204.5612,92.0
1605962204.5632,-29.0
1605962204.5652,-31.0
1605962204.5672,19.0
1605962204.5692,-4.0
1605962204.5712,-14.0
1605962204.5732,0.0
1605962204.5752,-7.0
1605962204.5772,-12.0
1605962204.5792,-4.0
1605962204.5812,-2.0
1605962204.5819,-12.0
1605962204.9866,-19.0
1605962204.9873,-24.0
1605962204.9897,-24.0
1605962204.9924,-26.0
1605962204.9945,-43.0
1605962204.9964,-56.0
1605962204.9985,-61.0
1605962205.0004,-65.0
1605962205.0024,-70.0
1605962205.0044,-87.0
1605962205.0064,-100.0
1605962205.0084,-104.0
1605962205.009,-117.0
1605962205.0104,-109.0
1605962205.0123,-100.0
1605962205.0144,-109.0
1605962205.0163,-112.0
1605962205.0184,-87.0
1605962205.0203,-48.0
1605962205.0223,-24.0
1605962205.0243,-9.0
1605962205.0264,14.0
1605962205.0283,36.0
1605962205.0304,63.0
1605962205.0324,80.0
1605962205.0345,80.0
1605962205.0363,83.0
1605962205.0383,92.0
1605962205.0391,95.0
1605962205.0403,102.0
1605962205.0423,109.0
1605962205.0443,92.0
1605962205.0463,65.0
1605962205.0483,68.0
1605962205.0503,83.0
1605962205.0523,63.0
1605962205.0543,53.0
1605962205.0563,63.0
1605962205.0584,53.0
1605962205.0603,46.0
1605962205.0623,48.0
1605962205.0643,56.0
1605962205.0663,53.0
1605962205.0683,48.0
1605962205.069,58.0
1605962205.0703,53.0
1605962205.0724,36.0
1605962205.0743,46.0
1605962205.0764,58.0
1605962205.0783,56.0
1605962205.0803,46.0
1605962205.0823,43.0
1605962205.0843,46.0
1605962205.0863,46.0
1605962205.0883,46.0
1605962205.0903,46.0
1605962205.0923,43.0
1605962205.0943,48.0
1605962205.0964,53.0
1605962205.0983,51.0
1605962205.099,41.0
1605962205.1003,31.0
1605962205.1023,36.0
1605962205.1043,56.0
1605962205.1063,70.0
1605962205.1083,63.0
1605962205.1103,36.0
1605962205.1123,4.0
1605962205.1143,0.0
1605962205.1163,24.0
1605962205.1183,31.0
1605962205.1203,17.0
1605962205.1224,24.0
1605962205.5866,43.0
1605962205.5875,46.0
1605962205.5886,56.0
1605962205.5908,65.0
1605962205.5926,51.0
1605962205.5945,41.0
1605962205.5965,48.0
1605962205.5987,51.0
1605962205.6005,39.0
1605962205.6025,-46.0
1605962205.6046,-329.0
1605962205.6065,-637.0
1605962205.6085,-336.0
1605962205.6105,573.0
1605962205.6125,888.0
1605962205.6145,319.0
1605962205.6165,-2.0
1605962205.6171,80.0
1605962205.6185,14.0
1605962205.6205,-63.0
1605962205.6225,-12.0
1605962205.6245,-7.0
1605962205.6264,-29.0
1605962205.6284,-2.0
1605962205.6305,-2.0
1605962205.6325,-29.0
1605962205.6345,-24.0
1605962205.6365,-21.0
1605962205.6385,-39.0
1605962205.6405,-34.0
1605962205.6424,-17.0
1605962205.6444,-29.0
1605962205.6465,-48.0
1605962205.6471,-48.0
1605962205.6484,-56.0
1605962205.6504,-73.0
1605962205.6524,-65.0
1605962205.6544,-73.0
1605962205.6564,-102.0
1605962205.6584,-102.0
1605962205.6604,-97.0
1605962205.6624,-107.0
1605962205.6644,-114.0
1605962205.6664,-114.0
1605962205.6684,-117.0
1605962205.6705,-107.0
1605962205.6725,-83.0
1605962205.6744,-63.0
1605962205.6764,-41.0
1605962205.6771,-12.0
1605962205.6785,-2.0
1605962205.6804,9.0
1605962205.6824,51.0
1605962205.6844,80.0
1605962205.6866,78.0
1605962205.6885,92.0
1605962205.6905,119.0
1605962205.6924,109.0
1605962205.6944,90.0
1605962205.6964,107.0
1605962205.6985,117.0
1605962205.7004,92.0
1605962205.7025,83.0
1605962205.7044,87.0
1605962205.7064,73.0
1605962205.7071,56.0
1605962205.7084,51.0
1605962205.7104,63.0
1605962205.7124,70.0
1605962205.7144,63.0
1605962205.7164,61.0
1605962205.7184,53.0
1605962205.7204,31.0
1605962206.0972,26.0
1605962206.0981,43.0
1605962206.1006,65.0
1605962206.1032,63.0
1605962206.1051,46.0
1605962206.1072,41.0
1605962206.1093,41.0
1605962206.1111,39.0
1605962206.1119,43.0
1605962206.1132,41.0
1605962206.1151,26.0
1605962206.1171,17.0
1605962206.1191,29.0
1605962206.1212,34.0
1605962206.1231,12.0
1605962206.1252,9.0
1605962206.1271,31.0
1605962206.1291,29.0
1605962206.1312,14.0
1605962206.1331,21.0
1605962206.1352,41.0
1605962206.1371,43.0
1605962206.1391,31.0
1605962206.1411,9.0
1605962206.1418,-17.0
1605962206.1431,-7.0
1605962206.1452,14.0
1605962206.1471,4.0
1605962206.1491,4.0
1605962206.1511,36.0
1605962206.1531,51.0
1605962206.1551,56.0
1605962206.1573,48.0
1605962206.1592,31.0
1605962206.1612,31.0
1605962206.1631,36.0
1605962206.1651,29.0
1605962206.1671,31.0
1605962206.1691,7.0
1605962206.1711,-231.0
1605962206.1718,-615.0
1605962206.1731,-510.0
1605962206.1751,366.0
1605962206.1771,966.0
1605962206.1791,524.0
1605962206.1811,21.0
1605962206.1831,65.0
1605962206.1851,80.0
1605962206.1871,-29.0
1605962206.1891,-12.0
1605962206.1911,12.0
1605962206.1931,-19.0
1605962206.1952,-21.0
1605962206.1971,-9.0
1605962206.1991,-17.0
1605962206.2011,-19.0
1605962206.2018,-26.0
1605962206.2031,-26.0
1605962206.2052,-7.0
1605962206.2071,-7.0
1605962206.2091,-26.0
1605962206.2111,-29.0
1605962206.2131,-26.0
1605962206.2151,-48.0
1605962206.2171,-73.0
1605962206.2191,-73.0
1605962206.2211,-70.0
1605962206.2231,-95.0
1605962206.2251,-122.0
1605962206.2271,-124.0
1605962206.2291,-124.0
1605962206.2311,-126.0
1605962206.2317,-126.0
1605962206.6369,-131.0
1605962206.6378,-131.0
1605962206.6402,-117.0
1605962206.6429,-97.0
1605962206.6449,-56.0
1605962206.6468,-12.0
1605962206.6489,-9.0
1605962206.6508,2.0
1605962206.6528,46.0
1605962206.6549,80.0
1605962206.6557,97.0
1605962206.6568,102.0
1605962206.6588,104.0
1605962206.6608,100.0
1605962206.6628,102.0
1605962206.6649,122.0
1605962206.6668,122.0
1605962206.6688,95.0
1605962206.6708,85.0
1605962206.6729,97.0
1605962206.6749,107.0
1605962206.6768,97.0
1605962206.6788,75.0
1605962206.6808,61.0
1605962206.6828,53.0
1605962206.6848,58.0
1605962206.6855,58.0
1605962206.6868,46.0
1605962206.6888,36.0
1605962206.6908,14.0
1605962206.6928,21.0
1605962206.6949,63.0
1605962206.6968,68.0
1605962206.6988,53.0
1605962206.7008,61.0
1605962206.7027,65.0
1605962206.7049,63.0
1605962206.7068,61.0
1605962206.7088,46.0
1605962206.7108,39.0
1605962206.7128,56.0
1605962206.7148,73.0
1605962206.7155,80.0
1605962206.7168,75.0
1605962206.7188,68.0
