Time,ECG
1602932605.2331,55
1602932605.2357,164
1602932605.2383,1033
1602932605.2409,2963
1602932605.2433,4624
1602932605.2456,5361
1602932605.2474,6043
1602932605.2487,6804
1602932605.2507,7304
1602932605.2527,7760
1602932605.2547,8257
1602932605.2568,8623
1602932605.2592,8929
1602932605.2613,9273
1602932605.2633,9586
1602932605.2653,9833
1602932605.2671,10149
1602932605.2687,10626
1602932605.2707,11012
1602932605.2727,10881
1602932605.2747,10512
1602932605.2767,10689
1602932605.2787,11230
1602932605.2807,11449
1602932605.2827,11507
1602932605.2847,11701
1602932605.2867,11846
1602932605.2886,11904
1602932605.2906,12011
1602932605.2926,12132
1602932605.2946,12215
1602932605.2967,12290
1602932605.2986,12385
1602932605.3006,12460
1602932605.3026,12499
1602932605.3046,12547
1602932605.3067,12605
1602932605.3086,12642
1602932605.3106,12666
1602932605.3126,12676
1602932605.3146,12688
1602932605.3167,12744
1602932605.3186,12794
1602932605.3206,12780
1602932605.3226,12768
1602932605.3246,12785
1602932605.3267,12773
1602932605.3286,12751
1602932605.3306,12741
1602932605.3326,12714
1602932605.3355,12678
1602932605.3366,12654
1602932605.3386,12625
1602932605.3406,12588
1602932605.3426,12537
1602932605.3446,12474
1602932605.3466,12433
1602932605.3486,12377
1602932605.3506,12312
1602932605.3525,12266
1602932605.3546,12198
1602932605.3566,12113
1602932605.3586,12052
1602932605.3605,11987
1602932605.3625,11902
1602932605.3645,11829
1602932605.3666,11764
1602932605.3685,11686
1602932605.3705,11616
1602932605.3725,11560
1602932605.3745,11497
1602932605.3766,11429
1602932605.3785,11361
1602932605.7708,11284
1602932605.7716,11204
1602932605.7741,11131
1602932605.7768,11053
1602932605.7787,10964
1602932605.7807,10886
1602932605.7828,10823
1602932605.7847,10745
1602932605.7868,10641
1602932605.7887,10539
1602932605.7907,10481
1602932605.7927,10413
1602932605.7947,10284
1602932605.7967,10168
1602932605.7987,10100
1602932605.8007,10018
1602932605.8027,9913
1602932605.8047,9829
1602932605.8067,9753
1602932605.8087,9656
1602932605.8107,9555
1602932605.8127,9489
1602932605.8147,9421
1602932605.8167,9317
1602932605.8187,9222
1602932605.8207,9137
1602932605.8226,9043
1602932605.8246,8956
1602932605.8269,8878
1602932605.8287,8798
1602932605.8306,8715
1602932605.8326,8628
1602932605.8346,8531
1602932605.8367,8437
1602932605.8387,8359
1602932605.8406,8291
1602932605.8426,8211
1602932605.8446,8121
1602932605.8467,8034
1602932605.8486,7956
1602932605.8507,7888
1602932605.8526,7833
1602932605.8546,7762
1602932605.8567,7660
1602932605.8586,7566
1602932605.8607,7496
1602932605.8627,7413
1602932605.8647,7309
1602932605.8667,7229
1602932605.8686,7171
1602932605.8706,7088
1602932605.8726,7001
1602932605.8747,6935
1602932605.8767,6865
1602932605.8786,6775
1602932605.8806,6741
1602932605.8826,6877
1602932605.8846,7030
1602932605.8867,6746
1602932605.8886,6072
1602932605.8906,5837
1602932605.8926,6167
1602932605.8946,6264
1602932605.8967,6089
1602932605.8986,6072
1602932605.9006,6072
1602932605.9026,5960
1602932605.9046,5885
1602932605.9066,5856
1602932605.9086,5781
1602932605.9106,5691
1602932605.9126,5643
1602932605.9147,5609
1602932606.3109,5546
1602932606.3115,5466
1602932606.3139,5400
1602932606.3166,5354
1602932606.3185,5306
1602932606.3205,5243
1602932606.3227,5180
1602932606.3246,5131
1602932606.3266,5078
1602932606.3285,5020
1602932606.3305,4961
1602932606.3325,4906
1602932606.3346,4855
1602932606.3366,4809
1602932606.3385,4760
1602932606.3405,4704
1602932606.3425,4646
1602932606.3445,4595
1602932606.3465,4549
1602932606.3485,4491
1602932606.3505,4416
1602932606.3525,4348
1602932606.3545,4299
1602932606.3565,4239
1602932606.3585,4171
1602932606.3605,4100
1602932606.3625,4028
1602932606.3644,3969
1602932606.3666,3931
1602932606.3686,3885
1602932606.3705,3826
1602932606.3725,3775
1602932606.3745,3734
1602932606.3765,3700
1602932606.3785,3659
1602932606.3805,3608
1602932606.3825,3564
1602932606.3845,3535
1602932606.3865,3497
1602932606.3885,3453
1602932606.3905,3404
1602932606.3925,3361
1602932606.3945,3336
1602932606.3965,3307
1602932606.3985,3256
1602932606.4005,3198
1602932606.4026,3157
1602932606.4045,3130
1602932606.4066,3094
1602932606.4085,3060
1602932606.4105,3031
1602932606.4125,2995
1602932606.4145,2951
1602932606.4165,2912
1602932606.4185,2876
1602932606.4205,2832
1602932606.4225,2805
1602932606.4246,2791
1602932606.4266,2750
1602932606.4285,2701
1602932606.4305,2679
1602932606.4325,2648
1602932606.4346,2607
1602932606.4365,2587
1602932606.4385,2558
1602932606.4405,2512
1602932606.4425,2488
1602932606.4445,2471
1602932606.4465,2444
1602932606.4485,2425
1602932606.4505,2400
1602932606.4525,2362
1602932606.4545,2335
1602932606.8803,2306
1602932606.8811,2269
1602932606.8836,2248
1602932606.8862,2243
1602932606.8881,2233
1602932606.8901,2199
1602932606.8922,2148
1602932606.8941,2117
1602932606.8961,2102
1602932606.8981,2078
1602932606.9001,2037
1602932606.9021,2005
1602932606.9041,1993
1602932606.9062,1976
1602932606.9081,1947
1602932606.9101,1927
1602932606.9121,1915
1602932606.9141,1881
1602932606.9163,1867
1602932606.9181,1983
1602932606.9201,2231
1602932606.9221,2226
1602932606.9240,1692
1602932606.9261,1234
1602932606.9280,1447
1602932606.9301,1767
1602932606.9320,1729
1602932606.9340,1673
1602932606.9361,1712
1602932606.9381,1678
1602932606.9400,1639
1602932606.9421,1644
1602932606.9440,1615
1602932606.9461,1581
1602932606.9481,1583
1602932606.9502,1583
1602932606.9521,1554
1602932606.9541,1522
1602932606.9561,1503
1602932606.9580,1498
1602932606.9600,1498
1602932606.9620,1493
1602932606.9640,1476
1602932606.9661,1467
1602932606.9680,1459
1602932606.9700,1442
1602932606.9720,1428
1602932606.9740,1423
1602932606.9761,1421
1602932606.9781,1411
1602932606.9800,1404
1602932606.9820,1396
1602932606.9840,1379
1602932606.9861,1350
1602932606.9881,1319
1602932606.9901,1304
1602932606.9920,1302
1602932606.9940,1290
1602932606.9961,1265
1602932606.9980,1229
1602932607.0000,1200
1602932607.0021,1168
1602932607.0040,1132
1602932607.0061,1120
1602932607.0080,1117
1602932607.0100,1093
1602932607.0120,1071
1602932607.0141,1054
1602932607.0161,1040
1602932607.0181,1033
1602932607.0201,1025
1602932607.0220,1016
1602932607.0241,1013
1602932607.4210,1008
1602932607.4216,989
1602932607.4241,977
1602932607.4267,977
1602932607.4287,972
1602932607.4307,960
1602932607.4327,945
1602932607.4347,931
1602932607.4367,919
1602932607.4387,914
1602932607.4407,897
1602932607.4426,877
1602932607.4446,875
1602932607.4468,885
1602932607.4487,877
1602932607.4507,853
1602932607.4526,848
1602932607.4546,839
1602932607.4567,819
1602932607.4588,812
1602932607.4607,812
1602932607.4626,807
1602932607.4646,797
1602932607.4667,776
1602932607.4687,763
1602932607.4707,763
1602932607.4727,763
1602932607.4747,756
1602932607.4767,754
1602932607.4786,742
1602932607.4807,725
1602932607.4827,725
1602932607.4846,734
1602932607.4867,725
1602932607.4886,703
1602932607.4906,688
1602932607.4927,683
1602932607.4948,688
1602932607.4967,700
1602932607.4986,717
1602932607.5006,717
1602932607.5026,700
1602932607.5046,686
1602932607.5067,676
1602932607.5086,664
1602932607.5106,649
1602932607.5126,635
1602932607.5146,637
1602932607.5166,647
1602932607.5187,649
1602932607.5207,637
1602932607.5226,628
1602932607.5246,625
1602932607.5267,611
1602932607.5286,642
1602932607.5306,839
1602932607.5326,1057
1602932607.5347,870
1602932607.5367,295
1602932607.5386,99
1602932607.5407,458
1602932607.5427,642
1602932607.5446,548
1602932607.5467,565
1602932607.5488,615
1602932607.5507,572
1602932607.5526,548
1602932607.5547,567
1602932607.5567,572
1602932607.5587,565
1602932607.5606,562
1602932607.5627,572
1602932607.5646,574
1602932607.9901,567
1602932607.9906,582
1602932607.9929,589
1602932607.9946,567
1602932607.9966,550
1602932607.9986,545
1602932608.0006,550
1602932608.0027,560
1602932608.0046,555
1602932608.0067,543
1602932608.0086,548
1602932608.0108,552
1602932608.0127,548
1602932608.0147,567
1602932608.0167,608
1602932608.0187,603
1602932608.0206,567
1602932608.0226,548
1602932608.0247,528
1602932608.0267,502
1602932608.0287,494
1602932608.0307,489
1602932608.0326,468
1602932608.0346,441
1602932608.0367,434
1602932608.0387,441
1602932608.0407,429
1602932608.0427,402
1602932608.0446,395
1602932608.0467,392
1602932608.0486,390
1602932608.0506,390
1602932608.0526,388
1602932608.0547,385
1602932608.0567,390
1602932608.0587,388
1602932608.0606,375
1602932608.0627,373
1602932608.0646,390
1602932608.0667,392
1602932608.0687,383
1602932608.0706,395
1602932608.0728,400
1602932608.0748,385
1602932608.0766,385
1602932608.0787,388
1602932608.0807,373
1602932608.0827,373
1602932608.0847,390
1602932608.0867,380
1602932608.0887,358
1602932608.0906,349
1602932608.0926,339
1602932608.0946,351
1602932608.0967,363
1602932608.0987,349
1602932608.1007,337
1602932608.1026,337
1602932608.1047,332
1602932608.1067,332
1602932608.1087,339
1602932608.1107,339
1602932608.1126,337
1602932608.1146,339
1602932608.1167,332
1602932608.1186,320
1602932608.1207,315
1602932608.1227,320
1602932608.1246,317
1602932608.1267,322
1602932608.1287,329
1602932608.1307,320
1602932608.1327,320
1602932608.5910,349
1602932608.5917,363
1602932608.5941,346
1602932608.5967,337
1602932608.5987,344
1602932608.6007,332
1602932608.6027,300
1602932608.6047,281
1602932608.6067,291
1602932608.6087,295
1602932608.6106,288
1602932608.6127,291
1602932608.6147,300
1602932608.6167,293
1602932608.6186,281
1602932608.6206,283
1602932608.6226,383
1602932608.6246,632
1602932608.6266,744
1602932608.6286,334
1602932608.6308,-189
1602932608.6327,-87
1602932608.6347,291
1602932608.6366,322
1602932608.6386,254
1602932608.6406,320
1602932608.6426,329
1602932608.6446,283
1602932608.6467,293
1602932608.6486,312
1602932608.6507,310
1602932608.6526,317
1602932608.6546,315
1602932608.6567,293
1602932608.6587,291
1602932608.6606,317
1602932608.6626,344
1602932608.6647,341
1602932608.6667,332
1602932608.6687,332
1602932608.6707,324
1602932608.6727,322
1602932608.6746,339
1602932608.6767,356
1602932608.6787,356
1602932608.6806,351
1602932608.6827,351
1602932608.6846,356
1602932608.6867,354
1602932608.6886,356
1602932608.6907,363
1602932608.6926,351
1602932608.6947,329
1602932608.6967,322
1602932608.6986,317
1602932608.7007,310
1602932608.7026,300
1602932608.7047,288
1602932608.7067,276
1602932608.7086,259
1602932608.7107,242
1602932608.7127,232
1602932608.7146,218
1602932608.7167,206
1602932608.7187,203
1602932608.7207,206
1602932608.7227,210
1602932608.7246,213
1602932608.7267,206
1602932608.7287,210
1602932608.7307,223
1602932608.7328,218
1602932608.7347,218
1602932609.1305,230
1602932609.1311,227
1602932609.1326,218
1602932609.1346,218
1602932609.1366,218
1602932609.1387,213
1602932609.1406,208
1602932609.1426,203
1602932609.1446,201
1602932609.1467,196
1602932609.1486,189
1602932609.1506,181
1602932609.1526,184
1602932609.1546,186
1602932609.1566,172
1602932609.1586,172
1602932609.1605,189
1602932609.1625,189
1602932609.1645,189
1602932609.1666,191
1602932609.1685,184
1602932609.1705,181
1602932609.1725,184
1602932609.1746,181
1602932609.1766,177
1602932609.1785,174
1602932609.1805,172
1602932609.1825,164
1602932609.1845,167
1602932609.1866,172
1602932609.1886,169
1602932609.1905,164
1602932609.1925,167
1602932609.1946,174
1602932609.1966,179
1602932609.1986,191
1602932609.2006,210
1602932609.2026,208
1602932609.2046,189
1602932609.2066,184
1602932609.2085,189
1602932609.2105,174
1602932609.2126,160
1602932609.2146,167
1602932609.2166,172
1602932609.2185,167
1602932609.2206,169
1602932609.2226,177
1602932609.2245,179
1602932609.2267,179
1602932609.2286,266
1602932609.2305,511
1602932609.2326,654
1602932609.2346,283
1602932609.2365,-286
1602932609.2385,-254
1602932609.2406,147
1602932609.2426,213
1602932609.2446,138
1602932609.2466,206
1602932609.2486,220
1602932609.2506,174
1602932609.2525,191
1602932609.2546,223
1602932609.2566,218
1602932609.2586,215
1602932609.2607,218
1602932609.2625,206
1602932609.2645,194
1602932609.2666,201
1602932609.2685,220
1602932609.2705,235
1602932609.2726,235
1602932609.7010,225
1602932609.7019,225
1602932609.7044,244
1602932609.7070,259
1602932609.7089,254
1602932609.7110,259
1602932609.7131,276
1602932609.7150,274
1602932609.7170,261
1602932609.7189,261
1602932609.7209,269
1602932609.7230,271
1602932609.7250,271
1602932609.7270,261
1602932609.7289,249
1602932609.7309,244
1602932609.7329,237
1602932609.7349,223
1602932609.7369,213
1602932609.7389,206
1602932609.7409,191
1602932609.7416,174
1602932609.7439,167
1602932609.7459,160
1602932609.7479,147
1602932609.7499,143
1602932609.7518,145
1602932609.7541,145
1602932609.7560,152
1602932609.7579,160
1602932609.7600,160
1602932609.7619,152
1602932609.7639,157
1602932609.7659,181
1602932609.7679,189
1602932609.7699,174
1602932609.7706,186
1602932609.7729,213
1602932609.7749,203
1602932609.7769,191
1602932609.7789,196
1602932609.7809,198
1602932609.7829,189
1602932609.7849,186
1602932609.7869,189
1602932609.7889,184
1602932609.7909,191
1602932609.7929,198
1602932609.7950,184
1602932609.7969,179
1602932609.7989,196
1602932609.8009,196
1602932609.8016,191
1602932609.8039,189
1602932609.8059,186
1602932609.8079,181
1602932609.8100,174
1602932609.8119,172
1602932609.8139,181
1602932609.8159,189
1602932609.8179,189
1602932609.8199,181
1602932609.8219,174
1602932609.8239,172
1602932609.8260,172
1602932609.8279,169
1602932609.8299,167
1602932609.8319,162
1602932609.8326,174
1602932609.8349,201
1602932609.8369,213
1602932609.8388,196
1602932609.8409,181
1602932610.2708,191
1602932610.2718,194
1602932610.2736,174
1602932610.2756,177
1602932610.2775,191
1602932610.2797,184
1602932610.2816,172
1602932610.2835,174
1602932610.2842,174
1602932610.2855,167
1602932610.2875,167
1602932610.2895,232
1602932610.2915,443
1602932610.2935,628
1602932610.2955,356
1602932610.2975,-223
1602932610.2995,-312
1602932610.3015,77
1602932610.3035,213
1602932610.3055,140
1602932610.3075,196
1602932610.3095,230
1602932610.3115,194
1602932610.3135,198
1602932610.3142,213
1602932610.3165,203
1602932610.3185,194
1602932610.3205,196
1602932610.3225,203
1602932610.3245,208
1602932610.3266,227
1602932610.3285,259
1602932610.3305,259
1602932610.3325,237
1602932610.3345,227
1602932610.3365,223
1602932610.3385,237
1602932610.3405,274
1602932610.3425,269
1602932610.3445,252
1602932610.3452,274
1602932610.3465,286
1602932610.3485,281
1602932610.3505,271
1602932610.3525,271
1602932610.3545,278
1602932610.3566,286
1602932610.3585,305
1602932610.3605,291
1602932610.3625,252
1602932610.3645,235
1602932610.3665,218
1602932610.3685,206
1602932610.3705,213
1602932610.3725,208
1602932610.3745,181
1602932610.3754,177
1602932610.3777,179
1602932610.3795,172
1602932610.3815,155
1602932610.3835,147
1602932610.3855,172
1602932610.3875,189
1602932610.3895,167
1602932610.3915,162
1602932610.3935,181
1602932610.3955,169
1602932610.3975,162
1602932610.3995,196
1602932610.4015,218
1602932610.4035,223
1602932610.4055,220
1602932610.4062,206
1602932610.8106,203
1602932610.8115,203
1602932610.8132,201
1602932610.8151,198
1602932610.8171,196
1602932610.8191,196
1602932610.8211,210
1602932610.8230,206
1602932610.8251,169
1602932610.8271,160
1602932610.8291,181
1602932610.8310,184
1602932610.8330,172
1602932610.8337,174
1602932610.8360,198
1602932610.8380,194
1602932610.8400,167
1602932610.8420,172
1602932610.8440,179
1602932610.8460,179
1602932610.8481,196
1602932610.8500,196
1602932610.8520,172
1602932610.8540,160
1602932610.8561,174
1602932610.8580,191
1602932610.8600,184
1602932610.8620,162
1602932610.8640,145
1602932610.8647,138
1602932610.8670,177
1602932610.8690,220
1602932610.8711,210
1602932610.8730,203
1602932610.8752,208
1602932610.8771,191
1602932610.8790,181
1602932610.8810,164
1602932610.8830,152
1602932610.8851,157
1602932610.8870,164
1602932610.8890,172
1602932610.8910,186
1602932610.8930,189
1602932610.8950,160
1602932610.8958,162
1602932610.8980,300
1602932610.9000,548
1602932610.9021,594
1602932610.9040,135
1602932610.9060,-315
1602932610.9080,-130
1602932610.9100,210
1602932610.9120,198
1602932610.9140,138
1602932610.9161,203
1602932610.9180,210
1602932610.9201,157
1602932610.9220,164
1602932610.9240,194
1602932610.9261,177
1602932610.9267,179
1602932610.9290,230
1602932610.9310,230
1602932610.9330,194
1602932610.9350,218
1602932610.9370,252
1602932610.9390,244
1602932610.9410,218
1602932610.9430,223
1602932610.9450,227
1602932610.9471,210
1602932610.9490,232
1602932611.3506,249
1602932611.3512,230
1602932611.3537,249
1602932611.3563,276
1602932611.3582,266
1602932611.3603,237
1602932611.3623,240
1602932611.3643,264
1602932611.3663,235
1602932611.3683,223
1602932611.3702,257
1602932611.3723,225
1602932611.3745,181
1602932611.3763,196
1602932611.3782,186
1602932611.3802,160
1602932611.3822,152
1602932611.3842,143
1602932611.3863,133
1602932611.3882,128
1602932611.3902,135
1602932611.3922,150
1602932611.3943,135
1602932611.3963,101
1602932611.3982,106
1602932611.4002,143
1602932611.4022,152
1602932611.4042,133
1602932611.4062,116
1602932611.4082,152
1602932611.4102,191
1602932611.4122,162
1602932611.4142,147
1602932611.4163,169
1602932611.4182,174
1602932611.4202,189
1602932611.4222,179
1602932611.4242,140
1602932611.4263,172
1602932611.4282,225
1602932611.4302,194
1602932611.4322,162
1602932611.4342,162
1602932611.4363,152
1602932611.4383,169
1602932611.4402,160
1602932611.4423,143
1602932611.4442,169
1602932611.4463,194
1602932611.4482,196
1602932611.4502,189
1602932611.4522,179
1602932611.4542,164
1602932611.4563,160
1602932611.4582,198
1602932611.4602,206
1602932611.4622,150
1602932611.4642,164
1602932611.4662,230
1602932611.4682,191
1602932611.4702,140
1602932611.4722,203
1602932611.4743,223
1602932611.4764,162
1602932611.4783,179
1602932611.4802,210
1602932611.4823,198
1602932611.4843,220
1602932611.4863,257
1602932611.4882,242
1602932611.4903,201
1602932611.4922,196
1602932611.4943,240
1602932611.9792,244
1602932611.9800,191
1602932611.9825,220
1602932611.9852,271
1602932611.9871,266
1602932611.9891,271
1602932611.9911,274
1602932611.9931,232
1602932611.9952,181
1602932611.9971,276
1602932611.9991,557
1602932612.0011,778
1602932612.0031,502
1602932612.0051,-77
1602932612.0071,-92
1602932612.0091,254
1602932612.0111,249
1602932612.0131,203
1602932612.0151,361
1602932612.0171,361
1602932612.0190,230
1602932612.0210,271
1602932612.0230,349
1602932612.0250,327
1602932612.0270,322
1602932612.0290,339
1602932612.0310,320
1602932612.0330,303
1602932612.0350,305
1602932612.0371,317
1602932612.0390,341
1602932612.0410,339
1602932612.0430,344
1602932612.0450,385
1602932612.0471,371
1602932612.0490,329
1602932612.0510,344
1602932612.0530,346
1602932612.0550,332
1602932612.0571,375
1602932612.0590,380
1602932612.0612,349
1602932612.0631,409
1602932612.0650,448
1602932612.0671,404
1602932612.0690,404
1602932612.0711,397
1602932612.0731,354
1602932612.0751,361
1602932612.0771,356
1602932612.0790,291
1602932612.0810,247
1602932612.0831,254
1602932612.0850,274
1602932612.0870,264
1602932612.0890,227
1602932612.0910,235
1602932612.0931,266
1602932612.0951,276
1602932612.0971,278
1602932612.0991,247
1602932612.1010,227
1602932612.1030,232
1602932612.1050,244
1602932612.1070,278
1602932612.1090,259
1602932612.1110,206
1602932612.1130,218
1602932612.1150,249
1602932612.1170,242
1602932612.1190,249
1602932612.1210,247
1602932612.1230,220
1602932612.5508,271
1602932612.5516,339
1602932612.5541,293
1602932612.5568,215
1602932612.5586,281
1602932612.5606,337
1602932612.5627,225
1602932612.5646,160
1602932612.5667,230
1602932612.5686,252
1602932612.5707,201
1602932612.5726,210
1602932612.5746,254
1602932612.5767,223
1602932612.5786,138
1602932612.5806,162
1602932612.5827,261
1602932612.5847,227
1602932612.5867,123
1602932612.5888,140
1602932612.5906,198
1602932612.5926,172
1602932612.5946,160
1602932612.5967,177
1602932612.5986,213
1602932612.6006,259
1602932612.6026,189
1602932612.6046,157
1602932612.6066,223
1602932612.6086,184
1602932612.6107,126
1602932612.6126,191
1602932612.6146,257
1602932612.6166,227
1602932612.6186,201
1602932612.6206,210
1602932612.6227,191
1602932612.6246,196
1602932612.6266,235
1602932612.6286,191
1602932612.6306,118
1602932612.6326,118
1602932612.6346,181
1602932612.6366,232
1602932612.6386,189
1602932612.6406,140
1602932612.6426,203
1602932612.6446,375
1602932612.6466,586
1602932612.6486,533
1602932612.6506,21
1602932612.6526,-317
1602932612.6546,-38
1602932612.6566,220
1602932612.6586,169
1602932612.6606,164
1602932612.6626,206
1602932612.6647,191
1602932612.6666,186
1602932612.6686,186
1602932612.6706,172
1602932612.6726,179
1602932612.6746,196
1602932612.6766,184
1602932612.6786,179
1602932612.6806,208
1602932612.6826,223
1602932612.6846,235
1602932612.6866,240
1602932612.6886,220
1602932612.6907,213
1602932612.6926,201
1602932612.6947,201
1602932613.0602,230
1602932613.0609,247
1602932613.0634,252
1602932613.0660,242
1602932613.0680,235
1602932613.0700,261
1602932613.0720,278
1602932613.0740,247
1602932613.0760,218
1602932613.0779,240
1602932613.0800,271
1602932613.0819,269
1602932613.0840,235
1602932613.0860,203
1602932613.0879,177
1602932613.0899,160
1602932613.0919,152
1602932613.0939,133
1602932613.0960,116
1602932613.0979,116
1602932613.0999,109
1602932613.1019,94
1602932613.1039,87
1602932613.1059,60
1602932613.1079,60
1602932613.1099,116
1602932613.1119,123
1602932613.1139,94
1602932613.1159,123
1602932613.1179,145
1602932613.1199,138
1602932613.1219,140
1602932613.1239,126
1602932613.1259,101
1602932613.1279,97
1602932613.1299,116
1602932613.1319,152
1602932613.1339,143
1602932613.1360,101
1602932613.1379,111
1602932613.1399,145
1602932613.1419,143
1602932613.1439,111
1602932613.1459,101
1602932613.1479,143
1602932613.1499,169
1602932613.1519,130
1602932613.1539,94
1602932613.1561,101
1602932613.1580,99
1602932613.1599,101
1602932613.1619,126
1602932613.1640,109
1602932613.1659,89
1602932613.1679,116
1602932613.1699,104
1602932613.1719,63
1602932613.1739,65
1602932613.1759,65
1602932613.1779,50
1602932613.1799,48
1602932613.1819,29
1602932613.1839,0
1602932613.1860,24
1602932613.1879,48
1602932613.1899,-2
1602932613.1919,-43
1602932613.1939,-33
1602932613.1959,-29
1602932613.1979,-31
1602932613.1999,-41
1602932613.2019,-55
1602932613.2039,-55
1602932613.6303,-63
1602932613.6311,-89
1602932613.6336,-104
1602932613.6362,-109
1602932613.6381,-118
1602932613.6402,-126
1602932613.6422,-130
1602932613.6442,-138
1602932613.6462,-157
1602932613.6481,-167
1602932613.6501,-38
1602932613.6521,232
1602932613.6541,257
1602932613.6562,-276
1602932613.6581,-739
1602932613.6601,-477
1602932613.6621,-109
1602932613.6641,-160
1602932613.6662,-206
1602932613.6681,-126
1602932613.6701,-135
1602932613.6721,-169
1602932613.6741,-147
1602932613.6761,-133
1602932613.6781,-128
1602932613.6801,-118
1602932613.6824,-109
1602932613.6842,-99
1602932613.6861,-104
1602932613.6881,-106
1602932613.6901,-75
1602932613.6921,-50
1602932613.6941,-67
1602932613.6961,-58
1602932613.6981,-26
1602932613.7001,-26
1602932613.7021,-43
1602932613.7041,-26
1602932613.7062,-7
1602932613.7081,2
1602932613.7101,21
1602932613.7121,29
1602932613.7141,12
1602932613.7161,2
1602932613.7181,12
1602932613.7201,12
1602932613.7221,4
1602932613.7241,12
1602932613.7262,19
1602932613.7281,14
1602932613.7301,-19
1602932613.7321,-38
1602932613.7341,-21
1602932613.7361,-33
1602932613.7381,-89
1602932613.7401,-101
1602932613.7421,-75
1602932613.7441,-82
1602932613.7462,-109
1602932613.7481,-123
1602932613.7501,-133
1602932613.7521,-104
1602932613.7541,-48
1602932613.7561,-38
1602932613.7581,-58
1602932613.7601,-43
1602932613.7621,-29
1602932613.7641,-38
1602932613.7662,-24
1602932613.7681,-2
1602932613.7701,-24
1602932613.7721,-29
1602932613.7741,19
1602932614.2022,36
1602932614.2028,24
1602932614.2045,31
1602932614.2066,29
1602932614.2088,9
1602932614.2105,0
1602932614.2124,4
1602932614.2144,12
1602932614.2165,-2
1602932614.2185,-33
1602932614.2204,-24
1602932614.2225,19
1602932614.2245,43
1602932614.2265,38
1602932614.2284,29
1602932614.2304,21
1602932614.2324,24
1602932614.2344,16
1602932614.2365,16
1602932614.2385,46
1602932614.2405,50
1602932614.2424,21
1602932614.2444,24
1602932614.2464,58
1602932614.2484,63
1602932614.2504,55
1602932614.2524,60
1602932614.2545,63
1602932614.2565,60
1602932614.2584,67
1602932614.2604,84
1602932614.2626,89
1602932614.2645,82
1602932614.2665,94
1602932614.2684,109
1602932614.2704,104
1602932614.2725,94
1602932614.2744,97
1602932614.2764,92
1602932614.2784,75
1602932614.2804,72
1602932614.2824,99
1602932614.2844,116
1602932614.2864,87
1602932614.2885,89
1602932614.2905,254
1602932614.2924,523
1602932614.2944,494
1602932614.2965,-41
1602932614.2984,-424
1602932614.3004,-150
1602932614.3024,140
1602932614.3044,77
1602932614.3066,70
1602932614.3084,164
1602932614.3106,150
1602932614.3124,116
1602932614.3144,140
1602932614.3164,152
1602932614.3184,150
1602932614.3205,164
1602932614.3226,172
1602932614.3244,157
1602932614.3265,145
1602932614.3284,164
1602932614.3304,181
1602932614.3324,172
1602932614.3344,164
1602932614.3364,169
1602932614.3385,186
1602932614.3404,210
1602932614.3424,208
1602932614.3444,189
1602932614.7407,191
1602932614.7417,220
1602932614.7442,235
1602932614.7467,220
1602932614.7487,206
1602932614.7508,206
1602932614.7527,215
1602932614.7547,230
1602932614.7566,225
1602932614.7586,194
1602932614.7607,164
1602932614.7627,160
1602932614.7647,152
1602932614.7667,123
1602932614.7687,116
1602932614.7706,128
1602932614.7726,116
1602932614.7746,106
1602932614.7766,94
1602932614.7786,77
1602932614.7806,87
1602932614.7826,92
1602932614.7848,77
1602932614.7867,77
1602932614.7886,84
1602932614.7906,87
1602932614.7926,106
1602932614.7946,116
1602932614.7967,113
1602932614.7987,126
1602932614.8007,118
1602932614.8027,111
1602932614.8048,121
1602932614.8068,121
1602932614.8087,109
1602932614.8106,113
1602932614.8126,118
1602932614.8146,113
1602932614.8167,106
1602932614.8187,109
1602932614.8206,121
1602932614.8226,116
1602932614.8247,104
1602932614.8267,111
1602932614.8286,116
1602932614.8306,99
1602932614.8327,87
1602932614.8346,97
1602932614.8367,104
1602932614.8386,106
1602932614.8406,116
1602932614.8426,118
1602932614.8446,101
1602932614.8467,89
1602932614.8487,89
1602932614.8506,92
1602932614.8526,94
1602932614.8546,94
1602932614.8566,109
1602932614.8586,126
1602932614.8606,116
1602932614.8626,99
1602932614.8646,87
1602932614.8667,92
1602932614.8686,123
1602932614.8706,145
1602932614.8726,128
1602932614.8746,101
1602932614.8766,84
1602932614.8786,94
1602932614.8806,133
1602932614.8827,138
1602932614.8846,92
1602932615.3111,72
1602932615.3119,87
1602932615.3144,94
1602932615.3170,84
1602932615.3189,89
1602932615.3210,99
1602932615.3230,135
1602932615.3250,295
1602932615.3270,497
1602932615.3290,368
1602932615.3309,-157
1602932615.3331,-397
1602932615.3350,-77
1602932615.3369,128
1602932615.3389,48
1602932615.3409,84
1602932615.3429,157
1602932615.3450,116
1602932615.3469,99
1602932615.3489,123
1602932615.3509,116
1602932615.3529,121
1602932615.3549,147
1602932615.3569,152
1602932615.3589,138
1602932615.3609,118
1602932615.3629,126
1602932615.3649,162
1602932615.3670,167
1602932615.3689,147
1602932615.3709,160
1602932615.3729,177
1602932615.3749,174
1602932615.3769,179
1602932615.3789,194
1602932615.3809,201
1602932615.3829,196
1602932615.3849,196
1602932615.3869,203
1602932615.3889,203
1602932615.3909,208
1602932615.3928,218
1602932615.3950,206
1602932615.3970,191
1602932615.3989,194
1602932615.4009,181
1602932615.4029,160
1602932615.4049,160
1602932615.4069,152
1602932615.4089,123
1602932615.4110,111
1602932615.4129,106
1602932615.4149,87
1602932615.4170,87
1602932615.4189,97
1602932615.4209,77
1602932615.4229,70
1602932615.4249,84
1602932615.4270,75
1602932615.4289,80
1602932615.4309,101
1602932615.4329,82
1602932615.4351,77
1602932615.4369,101
1602932615.4389,99
1602932615.4409,101
1602932615.4430,113
1602932615.4449,99
1602932615.4469,97
1602932615.4489,113
1602932615.4509,111
1602932615.4529,94
1602932615.4549,94
1602932615.8804,104
1602932615.8813,99
1602932615.8837,92
1602932615.8865,97
1602932615.8884,109
1602932615.8905,106
1602932615.8924,94
1602932615.8944,101
1602932615.8963,109
1602932615.8984,87
1602932615.9003,63
1602932615.9023,63
1602932615.9044,87
1602932615.9064,101
1602932615.9083,87
1602932615.9103,67
1602932615.9123,77
1602932615.9143,87
1602932615.9165,89
1602932615.9183,94
1602932615.9203,94
1602932615.9224,77
1602932615.9243,67
1602932615.9263,67
1602932615.9283,70
1602932615.9303,70
1602932615.9323,84
1602932615.9343,116
1602932615.9364,130
1602932615.9384,111
1602932615.9403,80
1602932615.9423,92
1602932615.9443,135
1602932615.9463,126
1602932615.9484,82
1602932615.9503,87
1602932615.9523,101
1602932615.9543,84
1602932615.9563,72
1602932615.9583,87
1602932615.9605,106
1602932615.9610,94
1602932615.9623,109
1602932615.9643,295
1602932615.9663,552
1602932615.9683,436
1602932615.9702,-123
1602932615.9724,-380
1602932615.9743,-58
1602932615.9764,152
1602932615.9783,77
1602932615.9803,82
1602932615.9823,135
1602932615.9843,123
1602932615.9863,118
1602932615.9884,128
1602932615.9903,113
1602932615.9910,109
1602932615.9923,118
1602932615.9943,133
1602932615.9964,152
1602932615.9983,160
1602932616.0003,140
1602932616.0023,130
1602932616.0043,145
1602932616.0063,152
1602932616.0083,164
1602932616.0103,177
1602932616.0123,172
1602932616.0143,167
1602932616.0163,172
1602932616.0183,177
1602932616.0204,194
1602932616.4208,215
1602932616.4217,215
1602932616.4241,201
1602932616.4268,194
1602932616.4288,203
1602932616.4308,208
1602932616.4328,186
1602932616.4348,167
1602932616.4368,172
1602932616.4387,167
1602932616.4407,133
1602932616.4427,109
1602932616.4448,94
1602932616.4468,70
1602932616.4475,75
1602932616.4498,97
1602932616.4517,75
1602932616.4537,53
1602932616.4561,67
1602932616.4578,65
1602932616.4597,53
1602932616.4617,60
1602932616.4637,82
1602932616.4658,92
1602932616.4678,84
1602932616.4697,77
1602932616.4717,84
1602932616.4737,84
1602932616.4758,75
1602932616.4777,82
1602932616.4784,99
1602932616.4797,89
1602932616.4817,67
1602932616.4838,75
1602932616.4858,106
1602932616.4877,118
1602932616.4897,104
1602932616.4917,87
1602932616.4937,77
1602932616.4958,84
1602932616.4977,99
1602932616.4998,89
1602932616.5017,67
1602932616.5037,60
1602932616.5058,55
1602932616.5077,46
1602932616.5083,50
1602932616.5097,70
1602932616.5117,84
1602932616.5137,80
1602932616.5159,82
1602932616.5177,101
1602932616.5197,84
1602932616.5217,58
1602932616.5237,67
1602932616.5258,67
1602932616.5278,53
1602932616.5297,58
1602932616.5318,58
1602932616.5338,53
1602932616.5358,63
1602932616.5377,70
1602932616.5384,67
1602932616.5397,87
1602932616.5417,113
1602932616.5437,118
1602932616.5458,109
1602932616.5477,94
1602932616.5498,75
1602932616.5520,58
1602932616.5538,53
1602932616.5558,60
1602932616.5577,67
1602932616.9907,67
1602932616.9917,77
1602932616.9941,84
1602932616.9968,84
1602932616.9974,186
1602932616.9987,446
1602932617.0007,526
1602932617.0027,55
1602932617.0048,-455
1602932617.0067,-283
1602932617.0086,99
1602932617.0107,101
1602932617.0126,38
1602932617.0147,94
1602932617.0167,101
1602932617.0187,84
1602932617.0206,99
1602932617.0226,94
1602932617.0246,92
1602932617.0267,128
1602932617.0273,121
1602932617.0286,80
1602932617.0307,97
1602932617.0326,135
1602932617.0346,130
1602932617.0367,128
1602932617.0386,143
1602932617.0406,140
1602932617.0426,135
1602932617.0448,140
1602932617.0467,152
1602932617.0486,172
1602932617.0506,177
1602932617.0526,152
1602932617.0546,143
1602932617.0553,174
1602932617.0566,196
1602932617.0586,186
1602932617.0608,169
1602932617.0627,167
1602932617.0646,162
1602932617.0667,135
1602932617.0687,133
1602932617.0706,150
1602932617.0726,133
1602932617.0747,121
1602932617.0767,123
1602932617.0788,92
1602932617.0807,58
1602932617.0826,53
1602932617.0846,63
1602932617.0855,48
1602932617.0866,24
1602932617.0886,36
1602932617.0906,58
1602932617.0927,53
1602932617.0947,53
1602932617.0967,70
1602932617.0986,75
1602932617.1007,53
1602932617.1026,58
1602932617.1047,92
1602932617.1066,104
1602932617.1087,87
1602932617.1107,80
1602932617.1126,82
1602932617.1146,84
1602932617.1153,82
1602932617.1167,77
1602932617.1187,97
1602932617.1206,126
1602932617.1226,111
1602932617.1246,92
1602932617.5306,104
1602932617.5313,92
1602932617.5337,70
1602932617.5365,82
1602932617.5384,87
1602932617.5404,80
1602932617.5424,84
1602932617.5431,89
1602932617.5444,75
1602932617.5465,65
1602932617.5483,80
1602932617.5503,92
1602932617.5523,97
1602932617.5544,99
1602932617.5564,82
1602932617.5583,75
1602932617.5603,94
1602932617.5623,99
1602932617.5643,80
1602932617.5664,65
1602932617.5683,58
1602932617.5704,67
1602932617.5724,99
1602932617.5730,135
1602932617.5743,130
1602932617.5766,104
1602932617.5785,104
1602932617.5804,106
1602932617.5823,87
1602932617.5843,75
1602932617.5864,70
1602932617.5884,72
1602932617.5903,82
1602932617.5923,89
1602932617.5943,87
1602932617.5963,75
1602932617.5983,82
1602932617.6003,160
1602932617.6024,341
1602932617.6044,526
1602932617.6063,356
1602932617.6083,-194
1602932617.6103,-397
1602932617.6123,-21
1602932617.6143,174
1602932617.6163,67
1602932617.6183,92
1602932617.6204,155
1602932617.6224,113
1602932617.6243,109
1602932617.6264,157
1602932617.6283,157
1602932617.6303,138
1602932617.6323,150
1602932617.6343,155
1602932617.6364,140
1602932617.6384,135
1602932617.6403,150
1602932617.6423,157
1602932617.6443,145
1602932617.6464,160
1602932617.6483,184
1602932617.6503,174
1602932617.6523,169
1602932617.6544,184
1602932617.6563,194
1602932617.6583,220
1602932617.6603,230
1602932617.6623,203
1602932617.6643,213
1602932617.6664,232
1602932617.6683,220
1602932617.6704,210
1602932618.1007,201
1602932618.1016,196
1602932618.1040,186
1602932618.1069,167
1602932618.1087,177
1602932618.1108,169
1602932618.1128,126
1602932618.1147,116
1602932618.1168,109
1602932618.1187,92
1602932618.1207,89
1602932618.1227,80
1602932618.1247,65
1602932618.1267,53
1602932618.1286,55
1602932618.1306,82
1602932618.1328,87
1602932618.1346,70
1602932618.1367,82
1602932618.1386,111
1602932618.1406,109
1602932618.1426,84
1602932618.1446,65
1602932618.1467,67
1602932618.1487,99
1602932618.1506,113
1602932618.1526,101
1602932618.1546,97
1602932618.1566,94
1602932618.1586,87
1602932618.1606,87
1602932618.1626,89
1602932618.1646,89
1602932618.1667,109
1602932618.1686,111
1602932618.1706,92
1602932618.1726,84
1602932618.1746,87
1602932618.1766,99
1602932618.1786,101
1602932618.1806,89
1602932618.1827,75
1602932618.1846,70
1602932618.1867,82
1602932618.1886,94
1602932618.1906,101
1602932618.1926,89
1602932618.1946,72
1602932618.1966,82
1602932618.1987,104
1602932618.2006,94
1602932618.2026,82
1602932618.2046,77
1602932618.2066,65
1602932618.2088,70
1602932618.2107,80
1602932618.2126,84
1602932618.2147,116
1602932618.2167,123
1602932618.2186,87
1602932618.2206,82
1602932618.2226,101
1602932618.2246,82
1602932618.2266,60
1602932618.2286,82
1602932618.2306,89
1602932618.2327,72
1602932618.2346,72
1602932618.2366,80
1602932618.2386,80
1602932618.2406,75
1602932618.2426,135
1602932618.2446,363
1602932618.7007,565
1602932618.7016,303
1602932618.7041,-276
1602932618.7067,-375
1602932618.7087,2
1602932618.7108,121
1602932618.7128,41
1602932618.7147,99
1602932618.7167,121
1602932618.7186,60
1602932618.7206,70
1602932618.7227,111
1602932618.7247,111
1602932618.7268,109
1602932618.7286,111
1602932618.7306,97
1602932618.7326,87
1602932618.7346,97
1602932618.7367,111
1602932618.7386,104
1602932618.7406,106
1602932618.7428,128
1602932618.7447,143
1602932618.7466,160
1602932618.7486,174
1602932618.7506,155
1602932618.7526,140
1602932618.7546,157
1602932618.7566,181
1602932618.7587,177
1602932618.7607,162
1602932618.7626,172
1602932618.7648,186
1602932618.7667,179
1602932618.7741,164
1602932618.7757,174
1602932618.7776,172
1602932618.7796,143
1602932618.7816,145
1602932618.7836,150
1602932618.7856,116
1602932618.7876,84
1602932618.7896,82
1602932618.7917,77
1602932618.7937,55
1602932618.7957,38
1602932618.7976,36
1602932618.7996,41
1602932618.8016,50
1602932618.8036,58
1602932618.8056,67
1602932618.8077,67
1602932618.8097,63
1602932618.8116,77
1602932618.8136,82
1602932618.8156,72
1602932618.8176,80
1602932618.8196,84
1602932618.8216,67
1602932618.8236,58
1602932618.8258,75
1602932618.8276,101
1602932618.8296,99
1602932618.8316,67
1602932618.8336,67
1602932618.8356,106
1602932618.8376,118
1602932618.8396,94
1602932618.8417,82
1602932618.8436,75
1602932618.8457,55
1602932618.8476,65
1602932618.8496,97
1602932619.2405,87
1602932619.2410,67
1602932619.2429,70
1602932619.2447,67
1602932619.2466,72
1602932619.2486,80
1602932619.2506,58
1602932619.2526,60
1602932619.2547,92
1602932619.2566,82
1602932619.2588,63
1602932619.2607,63
1602932619.2628,53
1602932619.2647,41
1602932619.2666,55
1602932619.2687,92
1602932619.2707,99
1602932619.2727,77
1602932619.2746,67
1602932619.2766,70
1602932619.2786,70
1602932619.2806,63
1602932619.2826,46
1602932619.2846,48
1602932619.2867,67
1602932619.2886,67
1602932619.2906,65
1602932619.2926,77
1602932619.2946,70
1602932619.2966,60
1602932619.2986,157
1602932619.3006,402
1602932619.3026,540
1602932619.3047,186
1602932619.3066,-358
1602932619.3086,-327
1602932619.3106,48
1602932619.3126,101
1602932619.3146,33
1602932619.3166,104
1602932619.3186,121
1602932619.3207,84
1602932619.3226,121
1602932619.3246,135
1602932619.3266,104
1602932619.3286,101
1602932619.3306,126
1602932619.3326,135
1602932619.3343,128
1602932619.3398,118
1602932619.3416,130
1602932619.3436,145
1602932619.3456,128
1602932619.3476,135
1602932619.3496,169
1602932619.3516,164
1602932619.3537,160
1602932619.3557,177
1602932619.3576,181
1602932619.3596,184
1602932619.3616,194
1602932619.3638,201
1602932619.3657,213
1602932619.3676,210
1602932619.3697,194
1602932619.3716,191
1602932619.3736,194
1602932619.3757,184
1602932619.3776,169
1602932619.3796,162
1602932619.3816,152
1602932619.3836,130
1602932619.3857,104
1602932619.7799,80
1602932619.7805,80
1602932619.7820,84
1602932619.7839,65
1602932619.7859,58
1602932619.7879,65
1602932619.7899,63
1602932619.7919,60
1602932619.7939,65
1602932619.7960,63
1602932619.7980,55
1602932619.8000,63
1602932619.8019,75
1602932619.8039,67
1602932619.8059,60
1602932619.8079,67
1602932619.8100,77
1602932619.8119,94
1602932619.8139,97
1602932619.8161,75
1602932619.8179,75
1602932619.8199,104
1602932619.8219,116
1602932619.8239,106
1602932619.8260,89
1602932619.8279,77
1602932619.8299,72
1602932619.8320,82
1602932619.8339,92
1602932619.8359,89
1602932619.8379,84
1602932619.8399,87
1602932619.8420,84
1602932619.8439,89
1602932619.8460,99
1602932619.8480,84
1602932619.8499,70
1602932619.8519,84
1602932619.8540,97
1602932619.8561,84
1602932619.8580,67
1602932619.8599,77
1602932619.8619,104
1602932619.8640,109
1602932619.8660,92
1602932619.8679,87
1602932619.8699,92
1602932619.8719,99
1602932619.8739,109
1602932619.8760,111
1602932619.8779,109
1602932619.8799,101
1602932619.8819,99
1602932619.8839,97
1602932619.8859,75
1602932619.8879,63
1602932619.8899,75
1602932619.8919,84
1602932619.8939,89
1602932619.8959,87
1602932619.8979,77
1602932619.8999,70
1602932619.9019,106
1602932619.9039,274
1602932619.9059,509
1602932619.9079,419
1602932619.9099,-140
1602932619.9119,-448
1602932619.9140,-113
1602932619.9224,130
1602932619.9237,38
1602932619.9260,53
1602932619.9279,140
1602932620.3508,113
1602932620.3517,84
1602932620.3542,113
1602932620.3568,118
1602932620.3588,118
1602932620.3608,130
1602932620.3629,111
1602932620.3648,84
1602932620.3668,89
1602932620.3688,99
1602932620.3707,104
1602932620.3727,113
1602932620.3748,113
1602932620.3768,109
1602932620.3787,133
1602932620.3807,167
1602932620.3827,164
1602932620.3849,150
1602932620.3868,155
1602932620.3887,172
1602932620.3907,181
1602932620.3927,189
1602932620.3947,189
1602932620.3967,189
1602932620.3987,186
1602932620.4007,174
1602932620.4027,162
1602932620.4047,160
1602932620.4067,160
1602932620.4087,145
1602932620.4107,123
1602932620.4127,113
1602932620.4148,111
1602932620.4168,99
1602932620.4187,75
1602932620.4207,58
1602932620.4227,50
1602932620.4247,55
1602932620.4267,67
1602932620.4287,65
1602932620.4307,48
1602932620.4327,26
1602932620.4347,43
1602932620.4368,94
1602932620.4387,92
1602932620.4408,65
1602932620.4427,77
1602932620.4447,87
1602932620.4468,77
1602932620.4488,84
1602932620.4507,94
1602932620.4527,92
1602932620.4547,89
1602932620.4567,77
1602932620.4588,77
1602932620.4607,104
1602932620.4627,99
1602932620.4647,77
1602932620.4668,89
1602932620.4687,94
1602932620.4707,70
1602932620.4727,67
1602932620.4747,87
1602932620.4767,84
1602932620.4787,75
1602932620.4807,77
1602932620.4827,84
1602932620.4847,82
1602932620.4869,72
1602932620.4887,82
1602932620.4907,101
1602932620.4927,97
1602932620.4947,82
1602932620.8905,80
1602932620.8912,89
1602932620.8936,92
1602932620.8963,70
1602932620.8982,70
1602932620.9002,89
1602932620.9024,92
1602932620.9042,97
1602932620.9062,116
1602932620.9083,111
1602932620.9102,97
1602932620.9122,97
1602932620.9143,84
1602932620.9163,67
1602932620.9182,70
1602932620.9202,89
1602932620.9222,80
1602932620.9242,63
1602932620.9262,80
1602932620.9282,92
1602932620.9302,72
1602932620.9322,70
1602932620.9342,128
1602932620.9362,310
1602932620.9382,528
1602932620.9402,397
1602932620.9422,-162
1602932620.9442,-424
1602932620.9463,-72
1602932620.9482,174
1602932620.9502,84
1602932620.9522,72
1602932620.9542,140
1602932620.9562,135
1602932620.9582,126
1602932620.9602,133
1602932620.9623,121
1602932620.9642,121
1602932620.9663,140
1602932620.9682,155
1602932620.9702,143
1602932620.9722,130
1602932620.9742,140
1602932620.9762,152
1602932620.9782,167
1602932620.9802,177
1602932620.9825,172
1602932620.9842,160
1602932620.9862,174
1602932620.9882,196
1602932620.9902,191
1602932620.9922,186
1602932620.9942,203
1602932620.9963,208
1602932620.9982,201
1602932621.0002,210
1602932621.0022,220
1602932621.0042,210
1602932621.0062,203
1602932621.0082,208
1602932621.0102,206
1602932621.0122,181
1602932621.0142,157
1602932621.0163,150
1602932621.0182,140
1602932621.0202,118
1602932621.0222,113
1602932621.0242,113
1602932621.0263,99
1602932621.0282,80
1602932621.0302,72
1602932621.0322,72
1602932621.0342,84
1602932621.4609,92
1602932621.4618,84
1602932621.4643,72
1602932621.4669,80
1602932621.4689,92
1602932621.4708,80
1602932621.4729,84
1602932621.4748,101
1602932621.4769,101
1602932621.4788,106
1602932621.4808,111
1602932621.4828,99
1602932621.4848,87
1602932621.4868,87
1602932621.4888,104
1602932621.4908,116
1602932621.4928,104
1602932621.4948,92
1602932621.4968,97
1602932621.4988,106
1602932621.5008,106
1602932621.5028,106
1602932621.5048,111
1602932621.5068,101
1602932621.5090,97
1602932621.5108,106
1602932621.5128,104
1602932621.5148,97
1602932621.5169,99
1602932621.5189,99
1602932621.5208,94
1602932621.5228,92
1602932621.5248,99
1602932621.5268,109
1602932621.5288,97
1602932621.5308,87
1602932621.5328,99
1602932621.5348,106
1602932621.5368,92
1602932621.5388,77
1602932621.5408,89
1602932621.5428,118
1602932621.5448,126
1602932621.5468,113
1602932621.5488,113
1602932621.5508,113
1602932621.5528,106
1602932621.5548,94
1602932621.5568,80
1602932621.5588,80
1602932621.5608,75
1602932621.5628,70
1602932621.5648,87
1602932621.5668,104
1602932621.5688,89
1602932621.5708,80
1602932621.5728,82
1602932621.5747,118
1602932621.5768,298
1602932621.5788,543
1602932621.5808,402
1602932621.5828,-179
1602932621.5847,-412
1602932621.5868,-63
1602932621.5887,135
1602932621.5908,48
1602932621.5928,80
1602932621.5947,140
1602932621.5968,106
1602932621.5987,109
1602932621.6008,128
1602932621.6028,113
1602932621.6048,116
1602932622.1208,133
1602932622.1221,135
1602932622.1248,128
1602932622.1272,121
1602932622.1291,126
1602932622.1311,135
1602932622.1333,147
1602932622.1351,150
1602932622.1371,135
1602932622.1391,143
1602932622.1411,164
1602932622.1431,169
1602932622.1451,164
1602932622.1470,172
1602932622.1490,186
1602932622.1510,181
1602932622.1530,179
1602932622.1550,186
1602932622.1571,198
1602932622.1590,206
1602932622.1610,184
1602932622.1631,172
1602932622.1650,177
1602932622.1671,169
1602932622.1690,155
1602932622.1710,133
1602932622.1731,111
1602932622.1750,101
1602932622.1770,104
1602932622.1791,92
1602932622.1810,67
1602932622.1830,55
1602932622.1850,65
1602932622.1870,77
1602932622.1890,70
1602932622.1910,48
1602932622.1930,46
1602932622.1950,58
1602932622.1971,63
1602932622.1990,65
1602932622.2010,80
1602932622.2030,94
1602932622.2050,92
1602932622.2070,82
1602932622.2090,89
1602932622.2110,94
1602932622.2130,84
1602932622.2150,77
1602932622.2171,84
1602932622.2190,99
1602932622.2210,99
1602932622.2230,92
1602932622.2250,84
1602932622.2273,84
1602932622.2291,106
1602932622.2310,109
1602932622.2330,84
1602932622.2350,89
1602932622.2371,97
1602932622.2390,75
1602932622.2411,72
1602932622.2430,97
1602932622.2450,92
1602932622.2471,75
1602932622.2490,87
1602932622.2510,99
1602932622.2530,80
1602932622.2550,75
1602932622.2570,94
1602932622.2590,99
1602932622.2610,84
1602932622.2630,82
1602932622.2651,97
1602932622.6005,99
1602932622.6013,92
1602932622.6036,77
1602932622.6063,70
1602932622.6083,84
1602932622.6103,118
1602932622.6123,140
1602932622.6143,116
1602932622.6151,87
1602932622.6172,101
1602932622.6193,113
1602932622.6212,97
1602932622.6233,77
1602932622.6253,65
1602932622.6272,60
1602932622.6292,53
1602932622.6312,58
1602932622.6332,80
1602932622.6352,72
1602932622.6372,43
1602932622.6393,63
1602932622.6412,215
1602932622.6432,470
1602932622.6452,465
1602932622.6459,-53
1602932622.6472,-446
1602932622.6492,-189
1602932622.6514,99
1602932622.6533,58
1602932622.6552,48
1602932622.6573,109
1602932622.6594,82
1602932622.6613,67
1602932622.6632,99
1602932622.6653,106
1602932622.6673,94
1602932622.6692,106
1602932622.6712,118
1602932622.6732,101
1602932622.6752,82
1602932622.6760,109
1602932622.6772,140
1602932622.6792,130
1602932622.6812,126
1602932622.6833,138
1602932622.6852,128
1602932622.6872,135
1602932622.6893,164
1602932622.6912,169
1602932622.6932,167
1602932622.6952,179
1602932622.6972,184
1602932622.6992,181
1602932622.7012,181
1602932622.7032,189
1602932622.7053,191
1602932622.7060,181
1602932622.7082,179
1602932622.7103,184
1602932622.7122,162
1602932622.7142,133
1602932622.7163,123
1602932622.7182,123
1602932622.7202,123
1602932622.7222,109
1602932622.7243,84
1602932622.7263,72
1602932622.7282,67
1602932622.7302,60
1602932622.7322,63
1602932622.7343,72
1602932622.7362,65
1602932622.7369,50
1602932623.1702,55
1602932623.1712,80
1602932623.1736,87
1602932623.1763,65
1602932623.1783,55
1602932623.1803,80
1602932623.1825,97
1602932623.1843,84
1602932623.1862,75
1602932623.1885,82
1602932623.1904,87
1602932623.1922,82
1602932623.1943,75
1602932623.1962,75
1602932623.1969,72
1602932623.1991,82
1602932623.2012,101
1602932623.2032,101
1602932623.2051,89
1602932623.2072,75
1602932623.2091,65
1602932623.2111,65
1602932623.2131,77
1602932623.2151,80
1602932623.2171,67
1602932623.2191,72
1602932623.2212,84
1602932623.2231,70
1602932623.2252,63
1602932623.2272,84
1602932623.2278,94
1602932623.2302,82
1602932623.2322,80
1602932623.2342,84
1602932623.2361,80
1602932623.2382,70
1602932623.2401,65
1602932623.2422,65
1602932623.2441,58
1602932623.2462,63
1602932623.2481,80
1602932623.2502,82
1602932623.2521,72
1602932623.2542,77
1602932623.2561,97
1602932623.2582,106
1602932623.2588,101
1602932623.2602,106
1602932623.2621,111
1602932623.2642,92
1602932623.2662,70
1602932623.2681,65
1602932623.2701,75
1602932623.2722,80
1602932623.2741,75
1602932623.2762,67
1602932623.2782,84
1602932623.2802,97
1602932623.2821,72
1602932623.2841,126
1602932623.2863,366
1602932623.2882,552
1602932623.2889,278
1602932623.2902,-286
1602932623.2921,-363
1602932623.2942,26
1602932623.2962,145
1602932623.2982,38
1602932623.3001,72
1602932623.3022,113
1602932623.3041,82
1602932623.3061,89
1602932623.3081,116
1602932623.7410,104
1602932623.7419,97
1602932623.7444,113
1602932623.7456,121
1602932623.7470,99
1602932623.7489,87
1602932623.7510,126
1602932623.7530,152
1602932623.7550,128
1602932623.7569,111
1602932623.7589,113
1602932623.7609,116
1602932623.7629,128
1602932623.7649,138
1602932623.7670,135
1602932623.7690,135
1602932623.7709,145
1602932623.7729,157
1602932623.7750,164
1602932623.7756,164
1602932623.7769,169
1602932623.7789,167
1602932623.7809,145
1602932623.7828,135
1602932623.7849,140
1602932623.7869,130
1602932623.7890,104
1602932623.7909,94
1602932623.7929,109
1602932623.7949,104
1602932623.7969,67
1602932623.7989,41
1602932623.8010,29
1602932623.8029,29
1602932623.8049,46
1602932623.8056,53
1602932623.8069,36
1602932623.8089,33
1602932623.8111,43
1602932623.8130,41
1602932623.8149,46
1602932623.8169,50
1602932623.8189,50
1602932623.8209,58
1602932623.8230,60
1602932623.8249,55
1602932623.8269,65
1602932623.8289,70
1602932623.8309,58
1602932623.8329,55
1602932623.8349,63
1602932623.8356,58
1602932623.8369,58
1602932623.8390,63
1602932623.8410,55
1602932623.8429,55
1602932623.8449,53
1602932623.8469,36
1602932623.8489,48
1602932623.8509,63
1602932623.8529,43
1602932623.8549,24
1602932623.8569,31
1602932623.8590,48
1602932623.8610,63
1602932623.8630,65
1602932623.8649,46
1602932623.8669,43
1602932623.8689,48
1602932623.8709,31
1602932623.8729,21
1602932623.8749,33
1602932623.8769,33
1602932624.2803,24
1602932624.2815,21
1602932624.2839,14
1602932624.2865,9
1602932624.2885,26
1602932624.2905,29
1602932624.2926,19
1602932624.2945,55
1602932624.2966,101
1602932624.2985,82
1602932624.3005,41
1602932624.3025,33
1602932624.3045,21
1602932624.3065,9
1602932624.3085,26
1602932624.3105,31
1602932624.3128,24
1602932624.3146,14
1602932624.3165,2
1602932624.3185,0
1602932624.3205,16
1602932624.3225,26
1602932624.3245,55
1602932624.3265,223
1602932624.3285,477
1602932624.3304,383
1602932624.3325,-186
1602932624.3345,-485
1602932624.3364,-169
1602932624.3385,70
1602932624.3405,21
1602932624.3425,46
1602932624.3445,89
1602932624.3465,46
1602932624.3484,43
1602932624.3505,84
1602932624.3524,92
1602932624.3544,94
1602932624.3564,99
1602932624.3584,87
1602932624.3604,84
1602932624.3624,92
1602932624.3644,101
1602932624.3665,118
1602932624.3684,123
1602932624.3704,118
1602932624.3724,111
1602932624.3744,106
1602932624.3764,128
1602932624.3784,164
1602932624.3804,167
1602932624.3824,155
1602932624.3844,167
1602932624.3864,177
1602932624.3884,174
1602932624.3904,184
1602932624.3924,189
1602932624.3944,177
1602932624.3964,167
1602932624.3984,172
1602932624.4005,169
1602932624.4025,155
1602932624.4045,150
1602932624.4065,150
1602932624.4084,128
1602932624.4104,89
1602932624.4125,77
1602932624.4147,72
1602932624.4165,55
1602932624.4185,50
1602932624.4205,50
1602932624.4224,38
1602932624.4245,24
1602932624.8207,29
1602932624.8216,43
1602932624.8240,58
1602932624.8267,67
1602932624.8286,70
1602932624.8306,60
1602932624.8327,46
1602932624.8346,48
1602932624.8366,65
1602932624.8386,70
1602932624.8406,72
1602932624.8426,72
1602932624.8447,77
1602932624.8466,84
1602932624.8486,67
1602932624.8506,70
1602932624.8526,101
1602932624.8546,92
1602932624.8566,60
1602932624.8586,60
1602932624.8606,75
1602932624.8626,84
1602932624.8646,80
1602932624.8666,80
1602932624.8686,92
1602932624.8706,84
1602932624.8726,63
1602932624.8746,70
1602932624.8766,87
1602932624.8786,92
1602932624.8806,77
1602932624.8826,67
1602932624.8846,77
1602932624.8866,84
1602932624.8886,70
1602932624.8906,65
1602932624.8926,80
1602932624.8946,89
1602932624.8966,82
1602932624.8985,67
1602932624.9006,63
1602932624.9025,77
1602932624.9046,101
1602932624.9065,126
1602932624.9085,118
1602932624.9107,97
1602932624.9127,99
1602932624.9146,113
1602932624.9166,106
1602932624.9185,87
1602932624.9205,77
1602932624.9225,82
1602932624.9246,87
1602932624.9266,92
1602932624.9286,99
1602932624.9306,99
1602932624.9325,89
1602932624.9345,82
1602932624.9365,133
1602932624.9386,339
1602932624.9406,555
1602932624.9426,334
1602932624.9446,-249
1602932624.9466,-371
1602932624.9486,7
1602932624.9505,130
1602932624.9526,46
1602932624.9546,99
1602932624.9566,140
1602932624.9585,99
1602932624.9605,101
1602932624.9625,118
1602932624.9646,109
1602932625.4207,118
1602932625.4216,130
1602932625.4241,113
1602932625.4268,128
1602932625.4287,150
1602932625.4307,121
1602932625.4327,106
1602932625.4347,135
1602932625.4366,138
1602932625.4386,130
1602932625.4406,147
1602932625.4426,160
1602932625.4446,150
1602932625.4466,160
1602932625.4486,181
1602932625.4507,177
1602932625.4526,181
1602932625.4546,201
1602932625.4567,201
1602932625.4586,194
1602932625.4606,186
1602932625.4626,181
1602932625.4646,189
1602932625.4669,172
1602932625.4687,157
1602932625.4706,167
1602932625.4726,152
1602932625.4746,118
1602932625.4767,99
1602932625.4786,84
1602932625.4806,65
1602932625.4826,55
1602932625.4846,60
1602932625.4866,60
1602932625.4886,55
1602932625.4906,67
1602932625.4926,63
1602932625.4946,33
1602932625.4967,53
1602932625.4986,97
1602932625.5006,84
1602932625.5026,63
1602932625.5046,70
1602932625.5066,72
1602932625.5086,82
1602932625.5106,97
1602932625.5126,94
1602932625.5146,89
1602932625.5166,84
1602932625.5186,75
1602932625.5206,72
1602932625.5226,84
1602932625.5246,101
1602932625.5266,104
1602932625.5286,82
1602932625.5306,60
1602932625.5326,67
1602932625.5347,77
1602932625.5366,70
1602932625.5386,80
1602932625.5406,87
1602932625.5426,75
1602932625.5446,53
1602932625.5466,41
1602932625.5486,55
1602932625.5506,80
1602932625.5526,80
1602932625.5546,65
1602932625.5566,58
1602932625.5586,63
1602932625.5606,50
1602932625.5626,38
1602932625.5646,75
1602932625.9614,94
1602932625.9625,58
1602932625.9647,43
1602932625.9673,67
1602932625.9692,84
1602932625.9713,94
1602932625.9734,99
1602932625.9753,111
1602932625.9774,106
1602932625.9793,92
1602932625.9813,87
1602932625.9833,80
1602932625.9854,63
1602932625.9873,50
1602932625.9892,46
1602932625.9912,53
1602932625.9932,65
1602932625.9952,63
1602932625.9972,65
1602932625.9992,75
1602932626.0012,67
1602932626.0032,130
1602932626.0052,356
1602932626.0072,540
1602932626.0092,252
1602932626.0112,-310
1602932626.0132,-351
1602932626.0152,24
1602932626.0172,109
1602932626.0192,36
1602932626.0212,109
1602932626.0232,130
1602932626.0252,75
1602932626.0272,84
1602932626.0292,116
1602932626.0312,106
1602932626.0332,113
1602932626.0352,133
1602932626.0372,118
1602932626.0392,113
1602932626.0412,123
1602932626.0432,126
1602932626.0452,123
1602932626.0472,126
1602932626.0492,138
1602932626.0512,150
1602932626.0532,155
1602932626.0552,160
1602932626.0573,145
1602932626.0592,138
1602932626.0612,167
1602932626.0632,186
1602932626.0655,186
1602932626.0673,191
1602932626.0692,191
1602932626.0712,177
1602932626.0732,167
1602932626.0752,169
1602932626.0772,177
1602932626.0792,174
1602932626.0812,157
1602932626.0832,135
1602932626.0852,123
1602932626.0872,116
1602932626.0892,97
1602932626.0912,70
1602932626.0932,48
1602932626.0952,43
1602932626.0972,60
1602932626.0992,63
1602932626.1012,41
1602932626.1032,43
1602932626.1052,50
1602932626.5306,50
1602932626.5316,65
1602932626.5340,75
1602932626.5367,60
1602932626.5386,55
1602932626.5406,67
1602932626.5427,58
1602932626.5447,41
1602932626.5467,53
1602932626.5486,70
1602932626.5506,67
1602932626.5525,60
1602932626.5546,65
1602932626.5566,67
1602932626.5586,60
1602932626.5606,58
1602932626.5626,58
1602932626.5646,72
1602932626.5666,84
1602932626.5685,75
1602932626.5705,60
1602932626.5725,60
1602932626.5745,60
1602932626.5766,65
1602932626.5786,67
1602932626.5806,63
1602932626.5825,70
1602932626.5845,70
1602932626.5866,60
1602932626.5886,60
1602932626.5908,60
1602932626.5926,58
1602932626.5946,60
1602932626.5966,60
1602932626.5985,55
1602932626.6006,58
1602932626.6025,55
1602932626.6045,50
1602932626.6065,60
1602932626.6086,65
1602932626.6106,50
1602932626.6125,43
1602932626.6145,67
1602932626.6166,89
1602932626.6185,77
1602932626.6205,67
1602932626.6225,75
1602932626.6245,72
1602932626.6266,63
1602932626.6285,55
1602932626.6305,58
1602932626.6325,53
1602932626.6345,46
1602932626.6365,50
1602932626.6385,53
1602932626.6405,60
1602932626.6425,63
1602932626.6445,55
1602932626.6466,126
1602932626.6486,344
1602932626.6506,523
1602932626.6525,264
1602932626.6545,-293
1602932626.6566,-363
1602932626.6585,12
1602932626.6605,109
1602932626.6625,14
1602932626.6645,70
1602932626.6666,104
1602932626.6685,50
1602932626.6705,58
1602932626.6725,94
1602932626.6745,97
1602932627.0707,97
1602932627.0716,104
1602932627.0740,97
1602932627.0767,99
1602932627.0786,109
1602932627.0806,109
1602932627.0828,99
1602932627.0846,94
1602932627.0868,89
1602932627.0886,99
1602932627.0906,113
1602932627.0926,116
1602932627.0946,118
1602932627.0967,126
1602932627.0986,128
1602932627.1006,133
1602932627.1026,138
1602932627.1046,145
1602932627.1066,164
1602932627.1086,177
1602932627.1106,150
1602932627.1126,130
1602932627.1146,152
1602932627.1166,155
1602932627.1186,130
1602932627.1206,113
1602932627.1226,104
1602932627.1246,82
1602932627.1266,60
1602932627.1286,46
1602932627.1306,33
1602932627.1326,21
1602932627.1346,16
1602932627.1365,12
1602932627.1386,2
1602932627.1406,-2
1602932627.1427,9
1602932627.1445,12
1602932627.1466,2
1602932627.1485,2
1602932627.1505,26
1602932627.1525,43
1602932627.1545,33
1602932627.1565,26
1602932627.1586,36
1602932627.1605,38
1602932627.1625,26
1602932627.1645,33
1602932627.1666,46
1602932627.1685,33
1602932627.1706,24
1602932627.1726,36
1602932627.1746,48
1602932627.1766,46
1602932627.1786,36
1602932627.1805,38
1602932627.1826,36
1602932627.1845,29
1602932627.1865,31
1602932627.1888,36
1602932627.1906,33
1602932627.1925,31
1602932627.1946,36
1602932627.1966,41
1602932627.1985,29
1602932627.2005,29
1602932627.2026,38
1602932627.2045,24
1602932627.2066,4
1602932627.2085,14
1602932627.2105,36
1602932627.2125,46
1602932627.2146,36
1602932627.6406,19
1602932627.6416,9
1602932627.6440,16
1602932627.6467,43
1602932627.6487,67
1602932627.6506,63
1602932627.6527,38
1602932627.6546,33
1602932627.6566,36
1602932627.6586,36
1602932627.6606,41
1602932627.6626,31
1602932627.6646,12
1602932627.6665,26
1602932627.6685,46
1602932627.6705,43
1602932627.6726,36
1602932627.6745,38
1602932627.6765,48
1602932627.6786,138
1602932627.6805,366
1602932627.6825,489
1602932627.6846,126
1602932627.6865,-417
1602932627.6886,-361
1602932627.6905,41
1602932627.6925,89
1602932627.6945,4
1602932627.6966,67
1602932627.6985,99
1602932627.7007,63
1602932627.7025,55
1602932627.7045,63
1602932627.7065,75
1602932627.7085,104
1602932627.7105,111
1602932627.7126,97
1602932627.7147,99
1602932627.7166,97
1602932627.7185,99
1602932627.7205,113
1602932627.7225,113
1602932627.7246,111
1602932627.7266,130
1602932627.7286,145
1602932627.7305,140
1602932627.7325,138
1602932627.7345,150
1602932627.7365,155
1602932627.7385,164
1602932627.7405,181
1602932627.7425,181
1602932627.7445,172
1602932627.7466,179
1602932627.7486,198
1602932627.7505,206
1602932627.7525,184
1602932627.7545,160
1602932627.7565,150
1602932627.7585,143
1602932627.7605,123
1602932627.7625,106
1602932627.7645,94
1602932627.7665,75
1602932627.7686,50
1602932627.7705,36
1602932627.7725,43
1602932627.7745,63
1602932627.7766,58
1602932627.7785,50
1602932627.7805,67
1602932627.7825,67
1602932627.7846,50
1602932628.2407,60
1602932628.2415,77
1602932628.2433,75
1602932628.2453,63
1602932628.2472,67
1602932628.2492,84
1602932628.2512,87
1602932628.2532,82
1602932628.2552,77
1602932628.2572,84
1602932628.2592,94
1602932628.2612,94
1602932628.2632,92
1602932628.2652,92
1602932628.2672,82
1602932628.2694,72
1602932628.2712,65
1602932628.2731,67
1602932628.2751,82
1602932628.2771,82
1602932628.2791,70
1602932628.2811,70
1602932628.2831,67
1602932628.2851,63
1602932628.2872,70
1602932628.2891,75
1602932628.2912,72
1602932628.2932,72
1602932628.2951,65
1602932628.2971,58
1602932628.2992,70
1602932628.3011,77
1602932628.3031,65
1602932628.3051,63
1602932628.3071,65
1602932628.3091,70
1602932628.3111,89
1602932628.3131,111
1602932628.3151,104
1602932628.3171,89
1602932628.3192,84
1602932628.3211,82
1602932628.3231,94
1602932628.3251,101
1602932628.3271,84
1602932628.3291,70
1602932628.3311,70
1602932628.3331,67
1602932628.3351,89
1602932628.3371,104
1602932628.3391,80
1602932628.3411,63
1602932628.3431,157
1602932628.3451,392
1602932628.3471,540
1602932628.3492,208
1602932628.3511,-341
1602932628.3532,-317
1602932628.3551,82
1602932628.3571,130
1602932628.3592,36
1602932628.3612,113
1602932628.3631,150
1602932628.3651,94
1602932628.3672,89
1602932628.3692,116
1602932628.3713,123
1602932628.3732,128
1602932628.3751,128
1602932628.3771,128
1602932628.3791,130
1602932628.3811,130
1602932628.3831,130
1602932628.7801,138
1602932628.7808,150
1602932628.7832,155
1602932628.7858,147
1602932628.7878,135
1602932628.7898,138
1602932628.7919,152
1602932628.7938,167
1602932628.7959,169
1602932628.7978,172
1602932628.7998,169
1602932628.8018,164
1602932628.8038,169
1602932628.8058,177
1602932628.8078,167
1602932628.8098,150
1602932628.8118,143
1602932628.8138,150
1602932628.8158,140
1602932628.8178,111
1602932628.8197,99
1602932628.8218,92
1602932628.8238,67
1602932628.8258,58
1602932628.8277,70
1602932628.8298,72
1602932628.8318,53
1602932628.8337,41
1602932628.8358,38
1602932628.8377,36
1602932628.8398,33
1602932628.8419,46
1602932628.8437,53
1602932628.8458,48
1602932628.8477,55
1602932628.8497,63
1602932628.8518,70
1602932628.8538,89
1602932628.8558,94
1602932628.8578,80
1602932628.8597,75
1602932628.8618,77
1602932628.8637,72
1602932628.8659,67
1602932628.8679,72
1602932628.8698,84
1602932628.8718,75
1602932628.8738,55
1602932628.8745,65
1602932628.8758,84
1602932628.8778,84
1602932628.8798,77
1602932628.8818,82
1602932628.8838,94
1602932628.8858,84
1602932628.8878,70
1602932628.8898,75
1602932628.8917,72
1602932628.8938,65
1602932628.8958,77
1602932628.8977,80
1602932628.8998,75
1602932628.9018,72
1602932628.9038,72
1602932628.9045,84
1602932628.9058,84
1602932628.9078,65
1602932628.9098,60
1602932628.9118,72
1602932628.9138,82
1602932628.9158,94
1602932628.9178,106
1602932628.9198,104
1602932629.3502,92
1602932629.3511,87
1602932629.3535,77
1602932629.3562,58
1602932629.3568,53
1602932629.3592,65
1602932629.3612,75
1602932629.3632,67
1602932629.3653,50
1602932629.3671,46
1602932629.3692,43
1602932629.3712,50
1602932629.3731,174
1602932629.3751,421
1602932629.3771,477
1602932629.3791,46
1602932629.3811,-402
1602932629.3831,-244
1602932629.3851,87
1602932629.3871,77
1602932629.3878,29
1602932629.3891,101
1602932629.3913,111
1602932629.3931,80
1602932629.3951,84
1602932629.3971,92
1602932629.3991,92
1602932629.4011,106
1602932629.4031,116
1602932629.4051,116
1602932629.4071,109
1602932629.4092,121
1602932629.4111,138
1602932629.4131,121
1602932629.4150,111
1602932629.4171,121
1602932629.4178,128
1602932629.4191,143
1602932629.4211,152
1602932629.4231,150
1602932629.4251,155
1602932629.4271,167
1602932629.4291,177
1602932629.4311,174
1602932629.4331,177
1602932629.4351,196
1602932629.4371,203
1602932629.4391,179
1602932629.4411,162
1602932629.4431,164
1602932629.4451,160
1602932629.4471,155
1602932629.4478,145
1602932629.4491,118
1602932629.4511,99
1602932629.4531,92
1602932629.4551,67
1602932629.4572,53
1602932629.4591,63
1602932629.4611,63
1602932629.4631,50
1602932629.4651,48
1602932629.4671,50
1602932629.4691,48
1602932629.4711,46
1602932629.4731,53
1602932629.4751,65
1602932629.4771,63
1602932629.4778,53
1602932629.4791,65
1602932629.4811,72
1602932629.4831,60
1602932629.4852,60
1602932629.8909,72
1602932629.8919,72
1602932629.8943,65
1602932629.8968,60
1602932629.8989,72
1602932629.9009,89
1602932629.9028,77
1602932629.9048,60
1602932629.9068,65
1602932629.9088,77
1602932629.9109,70
1602932629.9115,58
1602932629.9128,48
1602932629.9148,50
1602932629.9168,63
1602932629.9188,58
1602932629.9208,36
1602932629.9228,50
1602932629.9248,77
1602932629.9268,63
1602932629.9288,48
1602932629.9308,58
1602932629.9328,63
1602932629.9348,63
1602932629.9368,63
1602932629.9388,55
1602932629.9408,50
1602932629.9415,48
1602932629.9428,50
1602932629.9448,75
1602932629.9468,99
1602932629.9488,92
1602932629.9508,70
1602932629.9528,53
1602932629.9548,60
1602932629.9568,87
1602932629.9588,84
1602932629.9609,46
1602932629.9628,33
1602932629.9648,43
1602932629.9669,55
1602932629.9688,67
1602932629.9708,72
1602932629.9715,67
1602932629.9728,48
1602932629.9748,84
1602932629.9769,293
1602932629.9788,528
1602932629.9808,337
1602932629.9828,-244
1602932629.9848,-421
1602932629.9870,-46
1602932629.9888,135
1602932629.9908,33
1602932629.9928,48
1602932629.9948,89
1602932629.9969,63
1602932629.9988,87
1602932630.0008,111
1602932630.0015,82
1602932630.0028,84
1602932630.0048,111
1602932630.0068,109
1602932630.0089,101
1602932630.0108,94
1602932630.0128,77
1602932630.0148,87
1602932630.0169,116
1602932630.0189,113
1602932630.0208,97
1602932630.0228,109
1602932630.0248,118
1602932630.0268,118
1602932630.4907,138
1602932630.4916,157
1602932630.4940,150
1602932630.4967,145
1602932630.4987,167
1602932630.5007,177
1602932630.5028,157
1602932630.5047,143
1602932630.5066,140
1602932630.5086,133
1602932630.5106,123
1602932630.5126,121
1602932630.5147,111
1602932630.5166,87
1602932630.5173,60
1602932630.5196,55
1602932630.5216,43
1602932630.5235,26
1602932630.5256,26
1602932630.5276,24
1602932630.5296,9
1602932630.5316,19
1602932630.5336,29
1602932630.5356,21
1602932630.5376,16
1602932630.5396,21
1602932630.5416,29
1602932630.5436,36
1602932630.5456,31
1602932630.5478,26
1602932630.5484,36
1602932630.5496,46
1602932630.5515,46
1602932630.5536,43
1602932630.5556,46
1602932630.5576,43
1602932630.5579,38
1602932630.5588,46
1602932630.5605,60
1602932630.5626,58
1602932630.5645,53
1602932630.5666,53
1602932630.5686,41
1602932630.5706,29
1602932630.5725,38
1602932630.5745,48
1602932630.5751,43
1602932630.5766,36
1602932630.5785,41
1602932630.5805,38
1602932630.5825,24
1602932630.5845,7
1602932630.5866,9
1602932630.5885,31
1602932630.5905,41
1602932630.5925,38
1602932630.5945,43
1602932630.5966,41
1602932630.5985,21
1602932630.6006,12
1602932630.6026,14
1602932630.6045,16
1602932630.6051,24
1602932630.6065,48
1602932630.6085,60
1602932630.6105,48
1602932630.6125,41
1602932630.6146,31
1602932630.6166,29
1602932630.6185,33
1602932630.6205,14
1602932630.6225,4
1602932630.6245,14
1602932631.0000,12
1602932631.0007,16
1602932631.0030,31
1602932631.0057,26
1602932631.0065,14
1602932631.0077,38
1602932631.0097,191
1602932631.0120,446
1602932631.0138,385
1602932631.0158,-198
1602932631.0177,-548
1602932631.0197,-210
1602932631.0217,58
1602932631.0237,-29
1602932631.0257,-7
1602932631.0277,80
1602932631.0297,33
1602932631.0317,7
1602932631.0337,53
1602932631.0357,70
1602932631.0363,50
1602932631.0377,46
1602932631.0397,50
1602932631.0417,63
1602932631.0437,80
1602932631.0457,87
1602932631.0477,84
1602932631.0497,89
1602932631.0517,99
1602932631.0537,94
1602932631.0557,92
1602932631.0577,109
1602932631.0597,121
1602932631.0617,128
1602932631.0637,152
1602932631.0658,167
1602932631.0663,155
1602932631.0677,152
1602932631.0697,164
1602932631.0717,167
1602932631.0736,162
1602932631.0758,162
1602932631.0777,160
1602932631.0797,140
1602932631.0817,138
1602932631.0837,145
1602932631.0857,126
1602932631.0877,97
1602932631.0897,72
1602932631.0917,60
1602932631.0937,58
1602932631.0957,46
1602932631.0963,33
1602932631.0977,29
1602932631.0997,24
1602932631.1017,26
1602932631.1037,36
1602932631.1057,38
1602932631.1079,36
1602932631.1098,46
1602932631.1117,63
1602932631.1137,65
1602932631.1157,55
1602932631.1176,50
1602932631.1197,67
1602932631.1216,92
1602932631.1237,94
1602932631.1257,80
1602932631.1263,77
1602932631.1277,77
1602932631.1297,77
1602932631.1317,84
1602932631.1337,87
1602932631.5706,82
1602932631.5714,97
1602932631.5730,106
1602932631.5749,80
1602932631.5770,65
1602932631.5790,70
1602932631.5809,60
1602932631.5830,58
1602932631.5836,67
1602932631.5850,72
1602932631.5869,77
1602932631.5889,77
1602932631.5909,70
1602932631.5929,70
1602932631.5949,77
1602932631.5969,77
1602932631.5989,70
1602932631.6009,80
1602932631.6029,84
1602932631.6049,72
1602932631.6069,70
1602932631.6090,92
1602932631.6109,116
1602932631.6129,121
1602932631.6135,109
1602932631.6149,99
1602932631.6169,94
1602932631.6189,89
1602932631.6209,87
1602932631.6229,77
1602932631.6249,60
1602932631.6269,60
1602932631.6288,72
1602932631.6308,75
1602932631.6329,77
1602932631.6349,87
1602932631.6370,84
1602932631.6389,101
1602932631.6408,247
1602932631.6429,482
1602932631.6435,458
1602932631.6449,-50
1602932631.6469,-429
1602932631.6489,-167
1602932631.6508,118
1602932631.6529,65
1602932631.6548,60
1602932631.6569,135
1602932631.6589,118
1602932631.6609,99
1602932631.6629,109
1602932631.6648,97
1602932631.6669,99
1602932631.6689,138
1602932631.6708,147
1602932631.6729,126
1602932631.6735,121
1602932631.6748,121
1602932631.6769,123
1602932631.6788,140
1602932631.6808,140
1602932631.6829,123
1602932631.6849,143
1602932631.6868,172
1602932631.6889,169
1602932631.6909,167
1602932631.6929,184
1602932631.6948,184
1602932631.6969,167
1602932631.6989,181
1602932631.7008,215
1602932631.7029,210
1602932631.7035,191
1602932632.1705,191
1602932632.1714,181
1602932632.1738,172
1602932632.1765,174
1602932632.1784,155
1602932632.1805,126
1602932632.1825,121
1602932632.1845,106
1602932632.1866,87
1602932632.1885,84
1602932632.1905,77
1602932632.1925,60
1602932632.1945,53
1602932632.1965,58
1602932632.1987,65
1602932632.1991,60
1602932632.2005,63
1602932632.2024,75
1602932632.2044,77
1602932632.2064,70
1602932632.2085,70
1602932632.2104,75
1602932632.2124,82
1602932632.2144,87
1602932632.2165,87
1602932632.2184,80
1602932632.2205,82
1602932632.2224,92
1602932632.2244,99
1602932632.2265,106
1602932632.2284,109
1602932632.2290,97
1602932632.2304,94
1602932632.2324,89
1602932632.2344,77
1602932632.2364,77
1602932632.2384,82
1602932632.2404,82
1602932632.2424,72
1602932632.2444,77
1602932632.2465,94
1602932632.2484,89
1602932632.2504,77
1602932632.2525,77
1602932632.2544,75
1602932632.2564,70
1602932632.2584,75
1602932632.2590,82
1602932632.2604,80
1602932632.2624,80
1602932632.2644,77
1602932632.2664,70
1602932632.2684,65
1602932632.2704,70
1602932632.2724,92
1602932632.2744,113
1602932632.2764,116
1602932632.2784,109
1602932632.2804,97
1602932632.2824,92
1602932632.2844,75
1602932632.2863,50
1602932632.2884,60
1602932632.2890,65
1602932632.2903,50
1602932632.2926,63
1602932632.2944,87
1602932632.2965,82
1602932632.2984,53
1602932632.3004,97
1602932632.3024,305
1602932632.3044,523
1602932632.3064,337
1602932632.7407,-225
1602932632.7416,-400
1602932632.7439,-43
1602932632.7450,123
1602932632.7466,33
1602932632.7487,80
1602932632.7507,135
1602932632.7528,87
1602932632.7546,80
1602932632.7565,116
1602932632.7585,104
1602932632.7606,77
1602932632.7626,87
1602932632.7646,101
1602932632.7667,87
1602932632.7686,82
1602932632.7706,104
1602932632.7726,113
1602932632.7746,101
1602932632.7752,113
1602932632.7766,130
1602932632.7786,123
1602932632.7806,121
1602932632.7826,140
1602932632.7846,160
1602932632.7866,164
1602932632.7886,160
1602932632.7906,162
1602932632.7926,172
1602932632.7946,181
1602932632.7965,179
1602932632.7986,167
1602932632.8006,162
1602932632.8026,155
1602932632.8046,140
1602932632.8051,143
1602932632.8065,145
1602932632.8085,111
1602932632.8106,99
1602932632.8126,104
1602932632.8146,75
1602932632.8166,50
1602932632.8185,50
1602932632.8207,46
1602932632.8226,41
1602932632.8246,43
1602932632.8266,55
1602932632.8285,50
1602932632.8305,36
1602932632.8325,41
1602932632.8345,65
1602932632.8351,63
1602932632.8365,55
1602932632.8385,70
1602932632.8405,77
1602932632.8425,70
1602932632.8445,77
1602932632.8465,84
1602932632.8485,77
1602932632.8505,80
1602932632.8525,89
1602932632.8545,87
1602932632.8565,75
1602932632.8585,67
1602932632.8606,72
1602932632.8625,89
1602932632.8646,89
1602932632.8728,80
1602932632.8745,75
1602932632.8765,75
1602932632.8785,70
1602932632.8805,70
1602932632.8825,77
1602932633.2498,72
1602932633.2505,70
1602932633.2516,75
1602932633.2535,70
1602932633.2556,65
1602932633.2576,72
1602932633.2582,77
1602932633.2595,67
1602932633.2616,67
1602932633.2636,72
1602932633.2656,70
1602932633.2676,70
1602932633.2695,67
1602932633.2716,65
1602932633.2736,80
1602932633.2756,97
1602932633.2776,84
1602932633.2796,67
1602932633.2816,70
1602932633.2836,67
1602932633.2855,65
1602932633.2878,53
1602932633.2881,38
1602932633.2895,41
1602932633.2915,41
1602932633.2935,29
1602932633.2956,41
1602932633.2976,63
1602932633.2996,53
1602932633.3015,99
1602932633.3036,305
1602932633.3055,499
1602932633.3075,269
1602932633.3095,-278
1602932633.3116,-380
1602932633.3135,-21
1602932633.3156,92
1602932633.3175,0
1602932633.3182,46
1602932633.3195,97
1602932633.3215,72
1602932633.3235,67
1602932633.3256,77
1602932633.3275,70
1602932633.3295,82
1602932633.3315,106
1602932633.3335,101
1602932633.3355,87
1602932633.3375,89
1602932633.3395,99
1602932633.3416,101
1602932633.3436,94
1602932633.3455,97
1602932633.3475,116
1602932633.3481,123
1602932633.3495,123
1602932633.3515,135
1602932633.3535,140
1602932633.3556,140
1602932633.3575,147
1602932633.3595,155
1602932633.3615,164
1602932633.3635,169
1602932633.3655,162
1602932633.3675,150
1602932633.3695,140
1602932633.3715,130
1602932633.3735,130
1602932633.3755,133
1602932633.3775,118
1602932633.3782,89
1602932633.3795,65
1602932633.3817,55
1602932633.8207,55
1602932633.8216,43
1602932633.8240,24
1602932633.8266,21
1602932633.8286,31
1602932633.8307,24
1602932633.8328,9
1602932633.8347,12
1602932633.8367,16
1602932633.8386,9
1602932633.8407,7
1602932633.8427,9
1602932633.8447,14
1602932633.8454,19
1602932633.8466,26
1602932633.8486,24
1602932633.8506,16
1602932633.8527,24
1602932633.8546,26
1602932633.8566,14
1602932633.8586,26
1602932633.8606,50
1602932633.8626,50
1602932633.8646,43
1602932633.8667,38
1602932633.8686,26
1602932633.8706,26
1602932633.8726,36
1602932633.8746,24
1602932633.8753,16
1602932633.8766,26
1602932633.8786,26
1602932633.8806,16
1602932633.8827,26
1602932633.8846,41
1602932633.8865,33
1602932633.8886,19
1602932633.8906,12
1602932633.8926,12
1602932633.8946,21
1602932633.8966,33
1602932633.8986,21
1602932633.9006,0
1602932633.9025,19
1602932633.9046,38
1602932633.9053,36
1602932633.9065,63
1602932633.9086,80
1602932633.9106,50
1602932633.9126,43
1602932633.9147,53
1602932633.9166,33
1602932633.9186,19
1602932633.9206,14
1602932633.9226,9
1602932633.9246,12
1602932633.9266,14
1602932633.9286,7
1602932633.9306,-4
1602932633.9325,-9
1602932633.9346,0
1602932633.9352,109
1602932633.9366,375
1602932633.9386,511
1602932633.9406,87
1602932633.9426,-492
1602932633.9445,-407
1602932633.9466,9
1602932633.9486,50
1602932633.9506,-19
1602932633.9526,53
1602932633.9546,58
1602932633.9565,21
1602932634.3606,55
1602932634.3615,80
1602932634.3639,58
1602932634.3666,50
1602932634.3686,63
1602932634.3706,63
1602932634.3726,63
1602932634.3746,67
1602932634.3766,63
1602932634.3785,53
1602932634.3806,53
1602932634.3825,67
1602932634.3846,92
1602932634.3866,106
1602932634.3885,109
1602932634.3905,104
1602932634.3925,113
1602932634.3931,126
1602932634.3945,128
1602932634.3965,130
1602932634.3985,140
1602932634.4005,152
1602932634.4025,162
1602932634.4045,152
1602932634.4065,135
1602932634.4085,126
1602932634.4107,121
1602932634.4125,113
1602932634.4147,109
1602932634.4166,104
1602932634.4185,87
1602932634.4205,63
1602932634.4225,48
1602932634.4231,36
1602932634.4245,24
1602932634.4265,26
1602932634.4285,31
1602932634.4305,31
1602932634.4326,24
1602932634.4345,29
1602932634.4365,41
1602932634.4385,46
1602932634.4405,43
1602932634.4425,46
1602932634.4445,46
1602932634.4466,58
1602932634.4485,72
1602932634.4505,63
1602932634.4525,67
1602932634.4531,87
1602932634.4545,77
1602932634.4565,70
1602932634.4585,92
1602932634.4606,94
1602932634.4625,67
1602932634.4645,60
1602932634.4665,80
1602932634.4685,77
1602932634.4705,63
1602932634.4725,70
1602932634.4745,82
1602932634.4765,75
1602932634.4785,67
1602932634.4805,70
1602932634.4825,77
1602932634.4831,87
1602932634.4845,92
1602932634.4865,87
1602932634.4885,77
1602932634.4905,65
1602932634.4925,60
1602932634.4945,65
1602932634.4965,65
1602932634.9306,53
1602932634.9315,63
1602932634.9331,84
1602932634.9351,89
1602932634.9371,87
1602932634.9391,84
1602932634.9415,82
1602932634.9421,84
1602932634.9431,67
1602932634.9451,50
1602932634.9470,55
1602932634.9491,53
1602932634.9511,41
1602932634.9531,53
1602932634.9551,65
1602932634.9571,55
1602932634.9591,53
1602932634.9611,55
1602932634.9632,104
1602932634.9651,303
1602932634.9670,521
1602932634.9690,334
1602932634.9710,-254
1602932634.9716,-446
1602932634.9730,-55
1602932634.9750,135
1602932634.9770,31
1602932634.9791,63
1602932634.9810,133
1602932634.9830,97
1602932634.9850,82
1602932634.9870,104
1602932634.9890,109
1602932634.9910,113
1602932634.9930,118
1602932634.9950,109
1602932634.9970,109
1602932634.9990,118
1602932635.0010,121
1602932635.0016,128
1602932635.0030,128
1602932635.0050,128
1602932635.0070,143
1602932635.0090,150
1602932635.0110,145
1602932635.0130,157
1602932635.0150,174
1602932635.0170,167
1602932635.0190,164
1602932635.0210,177
1602932635.0230,184
1602932635.0250,201
1602932635.0270,206
1602932635.0290,189
1602932635.0310,181
1602932635.0316,181
1602932635.0330,169
1602932635.0352,160
1602932635.0370,150
1602932635.0390,128
1602932635.0410,111
1602932635.0430,101
1602932635.0450,89
1602932635.0470,84
1602932635.0490,87
1602932635.0510,70
1602932635.0530,53
1602932635.0550,55
1602932635.0570,60
1602932635.0590,55
1602932635.0610,53
1602932635.0616,58
1602932635.0630,63
1602932635.5306,72
1602932635.5315,70
1602932635.5340,50
1602932635.5366,60
1602932635.5386,97
1602932635.5406,101
1602932635.5427,72
1602932635.5446,67
1602932635.5466,80
1602932635.5486,75
1602932635.5506,58
1602932635.5526,58
1602932635.5534,55
1602932635.5546,60
1602932635.5566,75
1602932635.5586,70
1602932635.5605,65
1602932635.5626,80
1602932635.5645,82
1602932635.5666,75
1602932635.5685,77
1602932635.5706,80
1602932635.5725,77
1602932635.5746,77
1602932635.5766,70
1602932635.5785,67
1602932635.5806,82
1602932635.5825,94
1602932635.5831,75
1602932635.5845,53
1602932635.5865,60
1602932635.5886,67
1602932635.5905,75
1602932635.5925,111
1602932635.5945,121
1602932635.5967,89
1602932635.5986,89
1602932635.6005,111
1602932635.6025,97
1602932635.6045,75
1602932635.6066,75
1602932635.6085,75
1602932635.6105,75
1602932635.6125,77
1602932635.6131,70
1602932635.6145,67
1602932635.6166,70
1602932635.6185,63
1602932635.6206,87
1602932635.6225,240
1602932635.6245,465
1602932635.6266,431
1602932635.6285,-58
1602932635.6305,-424
1602932635.6325,-169
1602932635.6345,123
1602932635.6365,58
1602932635.6385,31
1602932635.6405,111
1602932635.6425,99
1602932635.6431,75
1602932635.6445,101
1602932635.6466,101
1602932635.6485,92
1602932635.6505,97
1602932635.6525,99
1602932635.6545,99
1602932635.6566,99
1602932635.6585,99
1602932635.6605,113
1602932635.6625,118
1602932635.6645,116
1602932635.6665,128
1602932636.0706,138
1602932636.0715,133
1602932636.0732,138
1602932636.0756,155
1602932636.0776,167
1602932636.0796,181
1602932636.0816,186
1602932636.0836,174
1602932636.0855,167
1602932636.0875,169
1602932636.0895,167
1602932636.0915,155
1602932636.0935,147
1602932636.0957,150
1602932636.0976,147
1602932636.0995,130
1602932636.1015,109
1602932636.1035,92
1602932636.1041,82
1602932636.1056,75
1602932636.1075,60
1602932636.1095,50
1602932636.1115,33
1602932636.1135,24
1602932636.1155,31
1602932636.1176,36
1602932636.1196,36
1602932636.1215,41
1602932636.1235,41
1602932636.1255,41
1602932636.1276,50
1602932636.1295,53
1602932636.1315,53
1602932636.1335,63
1602932636.1341,72
1602932636.1354,67
1602932636.1375,65
1602932636.1395,72
1602932636.1415,63
1602932636.1435,58
1602932636.1454,77
1602932636.1475,89
1602932636.1495,75
1602932636.1515,65
1602932636.1534,63
1602932636.1555,65
1602932636.1575,77
1602932636.1595,87
1602932636.1614,72
1602932636.1634,63
1602932636.1641,67
1602932636.1656,67
1602932636.1675,63
1602932636.1695,60
1602932636.1715,67
1602932636.1734,70
1602932636.1755,58
1602932636.1775,50
1602932636.1795,55
1602932636.1815,58
1602932636.1835,55
1602932636.1854,55
1602932636.1875,55
1602932636.1895,65
1602932636.1917,92
1602932636.1935,99
1602932636.1941,82
1602932636.1955,87
1602932636.1975,94
1602932636.1995,77
1602932636.2015,55
1602932636.2035,55
1602932636.2055,65
1602932636.6406,70
1602932636.6415,63
1602932636.6440,65
1602932636.6466,70
1602932636.6485,41
1602932636.6505,33
1602932636.6511,186
1602932636.6527,448
1602932636.6545,455
1602932636.6566,-19
1602932636.6585,-436
1602932636.6605,-235
1602932636.6625,75
1602932636.6645,46
1602932636.6666,14
1602932636.6685,89
1602932636.6705,82
1602932636.6725,48
1602932636.6745,72
1602932636.6765,80
1602932636.6785,60
1602932636.6805,75
1602932636.6811,94
1602932636.6825,84
1602932636.6845,77
1602932636.6865,89
1602932636.6884,109
1602932636.6905,109
1602932636.6925,101
1602932636.6944,104
1602932636.6965,116
1602932636.6984,138
1602932636.7005,145
1602932636.7025,135
1602932636.7045,133
1602932636.7066,140
1602932636.7084,152
1602932636.7105,160
1602932636.7111,167
1602932636.7125,174
1602932636.7145,172
1602932636.7166,167
1602932636.7186,160
1602932636.7205,147
1602932636.7225,128
1602932636.7244,106
1602932636.7265,99
1602932636.7285,99
1602932636.7305,80
1602932636.7325,50
1602932636.7344,43
1602932636.7365,43
1602932636.7385,33
1602932636.7390,31
1602932636.7405,26
1602932636.7424,16
1602932636.7444,21
1602932636.7465,33
1602932636.7484,43
1602932636.7504,53
1602932636.7524,46
1602932636.7544,43
1602932636.7564,48
1602932636.7584,50
1602932636.7604,58
1602932636.7624,53
1602932636.7645,38
1602932636.7665,46
1602932636.7684,67
1602932636.7690,77
1602932636.7704,72
1602932636.7725,58
1602932636.7744,53
1602932637.2106,53
1602932637.2114,48
1602932637.2128,50
1602932637.2148,58
1602932637.2167,60
1602932637.2188,55
1602932637.2208,50
1602932637.2228,50
1602932637.2248,46
1602932637.2254,31
1602932637.2268,26
1602932637.2288,26
1602932637.2308,31
1602932637.2328,46
1602932637.2348,50
1602932637.2368,43
1602932637.2387,50
1602932637.2407,55
1602932637.2428,43
1602932637.2448,41
1602932637.2470,46
1602932637.2488,53
1602932637.2508,67
1602932637.2528,72
1602932637.2547,58
1602932637.2554,60
1602932637.2567,70
1602932637.2588,60
1602932637.2608,33
1602932637.2628,24
1602932637.2647,33
1602932637.2668,36
1602932637.2687,36
1602932637.2707,43
1602932637.2727,43
1602932637.2747,33
1602932637.2767,26
1602932637.2787,106
1602932637.2807,356
1602932637.2827,492
1602932637.2847,82
1602932637.2854,-460
1602932637.2867,-356
1602932637.2887,26
1602932637.2907,43
1602932637.2927,-29
1602932637.2947,38
1602932637.2968,48
1602932637.2987,16
1602932637.3007,48
1602932637.3027,63
1602932637.3047,38
1602932637.3067,41
1602932637.3087,55
1602932637.3107,67
1602932637.3127,72
1602932637.3147,67
1602932637.3154,72
1602932637.3167,70
1602932637.3187,67
1602932637.3208,77
1602932637.3227,87
1602932637.3247,87
1602932637.3267,92
1602932637.3287,104
1602932637.3307,116
1602932637.3327,118
1602932637.3347,113
1602932637.3367,118
1602932637.3387,138
1602932637.3407,143
1602932637.3429,126
1602932637.3448,123
1602932637.7501,116
1602932637.7510,109
1602932637.7534,121
1602932637.7560,116
1602932637.7580,87
1602932637.7601,63
1602932637.7622,41
1602932637.7641,16
1602932637.7661,9
1602932637.7680,-4
1602932637.7700,-33
1602932637.7720,-36
1602932637.7740,-29
1602932637.7761,-36
1602932637.7780,-33
1602932637.7786,-26
1602932637.7800,-31
1602932637.7820,-21
1602932637.7840,0
1602932637.7860,2
1602932637.7879,0
1602932637.7900,9
1602932637.7920,12
1602932637.7940,0
1602932637.7960,9
1602932637.7980,33
1602932637.8000,29
1602932637.8020,12
1602932637.8040,14
1602932637.8060,16
1602932637.8080,12
1602932637.8086,21
1602932637.8099,24
1602932637.8121,7
1602932637.8140,14
1602932637.8160,38
1602932637.8179,33
1602932637.8199,24
1602932637.8220,31
1602932637.8240,31
1602932637.8260,29
1602932637.8280,36
1602932637.8300,38
1602932637.8319,29
1602932637.8340,31
1602932637.8360,48
1602932637.8380,50
1602932637.8385,41
1602932637.8399,38
1602932637.8422,43
1602932637.8440,53
1602932637.8461,70
1602932637.8480,75
1602932637.8499,63
1602932637.8520,67
1602932637.8539,82
1602932637.8560,82
1602932637.8580,77
1602932637.8600,63
1602932637.8620,41
1602932637.8640,38
1602932637.8660,55
1602932637.8680,63
1602932637.8685,58
1602932637.8700,65
1602932637.8720,72
1602932637.8740,65
1602932637.8760,162
1602932637.8779,419
1602932637.8800,502
1602932637.8819,58
1602932637.8840,-438
1602932637.8860,-286
1602932638.2904,75
1602932638.2911,70
1602932638.2935,26
1602932638.2962,106
1602932638.2982,101
1602932638.3002,65
1602932638.3022,84
1602932638.3028,82
1602932638.3042,67
1602932638.3062,84
1602932638.3082,94
1602932638.3102,89
1602932638.3122,94
1602932638.3142,99
1602932638.3162,111
1602932638.3181,113
1602932638.3202,99
1602932638.3222,104
1602932638.3242,128
1602932638.3262,138
1602932638.3282,135
1602932638.3302,138
1602932638.3321,138
1602932638.3327,135
1602932638.3341,145
1602932638.3363,162
1602932638.3382,181
1602932638.3403,189
1602932638.3422,169
1602932638.3441,147
1602932638.3462,150
1602932638.3481,157
1602932638.3502,160
1602932638.3521,145
1602932638.3541,121
1602932638.3562,126
1602932638.3581,118
1602932638.3601,84
1602932638.3621,70
1602932638.3627,72
1602932638.3641,65
1602932638.3662,55
1602932638.3681,46
1602932638.3701,48
1602932638.3721,58
1602932638.3741,58
1602932638.3762,58
1602932638.3781,67
1602932638.3801,84
1602932638.3821,89
1602932638.3841,82
1602932638.3861,80
1602932638.3881,87
1602932638.3901,84
1602932638.3921,80
1602932638.3927,87
1602932638.3941,97
1602932638.3961,84
1602932638.3981,80
1602932638.4001,104
1602932638.4021,101
1602932638.4041,89
1602932638.4061,99
1602932638.4081,104
1602932638.4102,97
1602932638.4121,89
1602932638.4141,87
1602932638.4162,92
1602932638.4181,97
1602932638.4201,92
1602932638.4221,89
1602932638.4227,94
1602932638.4241,92
1602932638.9205,87
1602932638.9215,92
1602932638.9239,99
1602932638.9266,92
1602932638.9285,82
1602932638.9308,75
1602932638.9327,70
1602932638.9346,77
1602932638.9366,99
1602932638.9385,111
1602932638.9405,104
1602932638.9425,104
1602932638.9446,101
1602932638.9466,84
1602932638.9472,82
1602932638.9485,84
1602932638.9505,67
1602932638.9525,60
1602932638.9544,72
1602932638.9565,72
1602932638.9585,63
1602932638.9605,65
1602932638.9625,63
1602932638.9645,84
1602932638.9665,230
1602932638.9685,472
1602932638.9705,477
1602932638.9725,-4
1602932638.9745,-429
1602932638.9764,-213
1602932638.9770,118
1602932638.9785,84
1602932638.9806,33
1602932638.9825,97
1602932638.9845,101
1602932638.9864,84
1602932638.9884,99
1602932638.9904,97
1602932638.9925,82
1602932638.9945,99
1602932638.9965,109
1602932638.9985,109
1602932639.0004,126
1602932639.0024,126
1602932639.0045,111
1602932639.0065,111
1602932639.0070,118
1602932639.0084,126
1602932639.0104,135
1602932639.0124,135
1602932639.0144,140
1602932639.0165,160
1602932639.0184,162
1602932639.0204,152
1602932639.0224,169
1602932639.0244,189
1602932639.0267,181
1602932639.0285,169
1602932639.0304,172
1602932639.0325,177
1602932639.0345,172
1602932639.0364,157
1602932639.0370,152
1602932639.0384,147
1602932639.0404,126
1602932639.0424,106
1602932639.0444,92
1602932639.0465,72
1602932639.0484,55
1602932639.0504,55
1602932639.0525,50
1602932639.0544,33
1602932639.0565,31
1602932639.4305,46
1602932639.4315,48
1602932639.4331,53
1602932639.4355,58
1602932639.4375,58
1602932639.4395,60
1602932639.4415,65
1602932639.4436,63
1602932639.4455,60
1602932639.4475,55
1602932639.4495,41
1602932639.4515,41
1602932639.4535,53
1602932639.4556,55
1602932639.4575,50
1602932639.4595,53
1602932639.4616,50
1602932639.4635,46
1602932639.4641,46
1602932639.4655,58
1602932639.4675,70
1602932639.4695,67
1602932639.4715,58
1602932639.4734,58
1602932639.4755,60
1602932639.4775,58
1602932639.4795,53
1602932639.4815,65
1602932639.4835,80
1602932639.4855,70
1602932639.4875,60
1602932639.4895,58
1602932639.4914,55
1602932639.4935,53
1602932639.4943,55
1602932639.4956,60
1602932639.4975,67
1602932639.4995,92
1602932639.5015,113
1602932639.5035,99
1602932639.5055,72
1602932639.5075,82
1602932639.5094,101
1602932639.5114,89
1602932639.5134,63
1602932639.5155,60
1602932639.5175,67
1602932639.5195,65
1602932639.5215,53
1602932639.5234,60
1602932639.5240,84
1602932639.5255,72
1602932639.5275,67
1602932639.5295,186
1602932639.5315,429
1602932639.5334,497
1602932639.5355,77
1602932639.5374,-395
1602932639.5395,-259
1602932639.5415,80
1602932639.5435,80
1602932639.5455,19
1602932639.5474,87
1602932639.5494,99
1602932639.5515,70
1602932639.5535,82
1602932639.5540,87
1602932639.5555,82
1602932639.5574,97
1602932639.5595,99
1602932639.5615,87
1602932639.5634,84
1602932639.5655,89
1602932640.0007,104
1602932640.0017,121
1602932640.0042,123
1602932640.0077,113
1602932640.0088,106
1602932640.0108,104
1602932640.0128,123
1602932640.0147,135
1602932640.0153,133
1602932640.0167,135
1602932640.0187,145
1602932640.0207,143
1602932640.0229,135
1602932640.0250,145
1602932640.0269,152
1602932640.0287,143
1602932640.0307,135
1602932640.0327,140
1602932640.0347,135
1602932640.0367,118
1602932640.0387,94
1602932640.0407,80
1602932640.0427,75
1602932640.0447,58
1602932640.0453,29
1602932640.0467,21
1602932640.0487,36
1602932640.0507,26
1602932640.0527,14
1602932640.0547,16
1602932640.0567,12
1602932640.0586,14
1602932640.0607,31
1602932640.0626,36
1602932640.0647,33
1602932640.0667,33
1602932640.0687,33
1602932640.0706,33
1602932640.0726,43
1602932640.0748,50
1602932640.0752,50
1602932640.0766,48
1602932640.0787,48
1602932640.0806,50
1602932640.0826,50
1602932640.0847,60
1602932640.0866,60
1602932640.0887,43
1602932640.0907,46
1602932640.0926,60
1602932640.0947,58
1602932640.0967,43
1602932640.0987,36
1602932640.1007,50
1602932640.1027,67
1602932640.1047,53
1602932640.1053,31
1602932640.1066,29
1602932640.1087,46
1602932640.1107,65
1602932640.1127,60
1602932640.1147,41
1602932640.1167,38
1602932640.1188,38
1602932640.1207,31
1602932640.1227,36
1602932640.1247,58
1602932640.1267,70
1602932640.1287,58
1602932640.1307,43
1602932640.1327,55
1602932640.1347,63
1602932640.1367,48
1602932640.5403,33
1602932640.5410,33
1602932640.5434,36
1602932640.5461,33
1602932640.5480,31
1602932640.5500,38
1602932640.5521,41
1602932640.5540,24
1602932640.5561,21
1602932640.5580,147
1602932640.5600,417
1602932640.5620,453
1602932640.5626,-53
1602932640.5640,-514
1602932640.5660,-288
1602932640.5680,48
1602932640.5700,2
1602932640.5720,-21
1602932640.5740,65
1602932640.5761,43
1602932640.5780,14
1602932640.5800,48
1602932640.5820,41
1602932640.5840,29
1602932640.5860,48
1602932640.5880,48
1602932640.5900,43
1602932640.5920,60
1602932640.5926,65
1602932640.5940,55
1602932640.5960,67
1602932640.5980,82
1602932640.5999,75
1602932640.6020,63
1602932640.6040,70
1602932640.6060,94
1602932640.6080,109
1602932640.6100,113
1602932640.6119,116
1602932640.6140,118
1602932640.6160,130
1602932640.6181,143
1602932640.6200,130
1602932640.6220,123
1602932640.6226,145
1602932640.6240,138
1602932640.6260,101
1602932640.6280,92
1602932640.6300,87
1602932640.6319,65
1602932640.6340,53
1602932640.6360,38
1602932640.6380,24
1602932640.6400,24
1602932640.6419,26
1602932640.6440,9
1602932640.6460,-14
1602932640.6480,-7
1602932640.6500,0
1602932640.6520,-19
1602932640.6526,-19
1602932640.6540,4
1602932640.6560,9
1602932640.6580,7
1602932640.6600,16
1602932640.6620,29
1602932640.6639,41
1602932640.6660,43
1602932640.6680,43
1602932640.6700,50
1602932640.6720,46
1602932640.6740,36
1602932640.6760,50
1602932641.1104,70
1602932641.1113,67
1602932641.1129,50
1602932641.1154,48
1602932641.1174,55
1602932641.1194,43
1602932641.1214,29
1602932641.1234,41
1602932641.1254,55
1602932641.1274,43
1602932641.1294,16
1602932641.1314,14
1602932641.1334,50
1602932641.1354,75
1602932641.1373,53
1602932641.1393,33
1602932641.1413,50
1602932641.1433,65
1602932641.1439,55
1602932641.1455,46
1602932641.1474,48
1602932641.1493,55
1602932641.1513,72
1602932641.1533,89
1602932641.1554,82
1602932641.1573,70
1602932641.1593,97
1602932641.1613,121
1602932641.1633,99
1602932641.1653,67
1602932641.1673,55
1602932641.1693,58
1602932641.1713,65
1602932641.1733,65
1602932641.1739,53
1602932641.1754,63
1602932641.1772,77
1602932641.1793,72
1602932641.1813,138
1602932641.1833,363
1602932641.1853,538
1602932641.1873,269
1602932641.1893,-300
1602932641.1913,-392
1602932641.1933,-2
1602932641.1953,121
1602932641.1973,14
1602932641.1993,55
1602932641.2013,106
1602932641.2033,84
1602932641.2039,97
1602932641.2052,106
1602932641.2073,82
1602932641.2093,77
1602932641.2113,97
1602932641.2133,101
1602932641.2153,92
1602932641.2173,84
1602932641.2193,116
1602932641.2213,143
1602932641.2233,126
1602932641.2253,106
1602932641.2273,126
1602932641.2293,145
1602932641.2313,140
1602932641.2333,145
1602932641.2338,155
1602932641.2353,152
1602932641.2372,150
1602932641.2393,167
1602932641.2414,184
1602932641.2433,184
1602932641.2453,181
1602932641.6498,179
1602932641.6504,177
1602932641.6527,177
1602932641.6555,167
1602932641.6575,147
1602932641.6595,128
1602932641.6601,109
1602932641.6615,94
1602932641.6634,84
1602932641.6655,70
1602932641.6675,55
1602932641.6695,41
1602932641.6715,36
1602932641.6735,46
1602932641.6755,55
1602932641.6774,58
1602932641.6794,53
1602932641.6814,55
1602932641.6834,58
1602932641.6854,60
1602932641.6874,75
1602932641.6894,67
1602932641.6900,48
1602932641.6914,70
1602932641.6934,99
1602932641.6955,89
1602932641.6974,84
1602932641.6994,92
1602932641.7014,92
1602932641.7034,89
1602932641.7054,87
1602932641.7074,80
1602932641.7094,75
1602932641.7114,87
1602932641.7134,99
1602932641.7155,87
1602932641.7174,80
1602932641.7194,82
1602932641.7200,75
1602932641.7215,87
1602932641.7234,104
1602932641.7256,97
1602932641.7274,87
1602932641.7294,89
1602932641.7314,80
1602932641.7334,63
1602932641.7354,60
1602932641.7374,70
1602932641.7396,77
1602932641.7415,82
1602932641.7434,77
1602932641.7455,65
1602932641.7474,65
1602932641.7494,101
1602932641.7500,138
1602932641.7514,123
1602932641.7534,94
1602932641.7554,87
1602932641.7574,87
1602932641.7594,89
1602932641.7614,82
1602932641.7634,70
1602932641.7654,70
1602932641.7674,77
1602932641.7694,58
1602932641.7714,50
1602932641.7734,84
1602932641.7754,97
1602932641.7774,80
1602932641.7794,109
1602932641.7800,293
1602932641.7814,528
1602932641.7834,375
1602932642.2803,-191
1602932642.2812,-400
1602932642.2837,-53
1602932642.2855,109
1602932642.2873,9
1602932642.2893,41
1602932642.2913,94
1602932642.2933,48
1602932642.2954,63
1602932642.2973,123
1602932642.2992,111
1602932642.2999,89
1602932642.3013,97
1602932642.3034,97
1602932642.3054,99
1602932642.3073,109
1602932642.3093,99
1602932642.3113,87
1602932642.3133,82
1602932642.3153,89
1602932642.3174,123
1602932642.3193,140
1602932642.3213,126
1602932642.3233,133
1602932642.3253,157
1602932642.3272,164
1602932642.3295,160
1602932642.3298,155
1602932642.3313,155
1602932642.3333,164
1602932642.3354,162
1602932642.3372,152
1602932642.3393,162
1602932642.3413,174
1602932642.3432,162
1602932642.3453,135
1602932642.3472,116
1602932642.3493,104
1602932642.3513,82
1602932642.3532,70
1602932642.3553,67
1602932642.3572,58
1602932642.3593,38
1602932642.3599,26
1602932642.3613,33
1602932642.3632,43
1602932642.3653,41
1602932642.3672,48
1602932642.3692,60
1602932642.3712,48
1602932642.3732,33
1602932642.3753,41
1602932642.3772,50
1602932642.3792,55
1602932642.3812,65
1602932642.3833,58
1602932642.3853,55
1602932642.3872,70
1602932642.3892,75
1602932642.3898,70
1602932642.3913,72
1602932642.3932,75
1602932642.3953,63
1602932642.3972,67
1602932642.3993,80
1602932642.4012,72
1602932642.4032,72
1602932642.4052,82
1602932642.4073,70
1602932642.4093,53
1602932642.4112,58
1602932642.4132,65
1602932642.4153,67
1602932642.8206,75
1602932642.8215,75
1602932642.8239,60
1602932642.8266,55
1602932642.8288,60
1602932642.8306,63
1602932642.8327,80
1602932642.8346,92
1602932642.8366,75
1602932642.8386,63
1602932642.8406,63
1602932642.8426,60
1602932642.8446,50
1602932642.8465,43
1602932642.8485,53
1602932642.8505,82
1602932642.8525,84
1602932642.8532,72
1602932642.8545,70
1602932642.8565,55
1602932642.8586,38
1602932642.8606,53
1602932642.8625,63
1602932642.8645,50
1602932642.8666,46
1602932642.8685,50
1602932642.8705,46
1602932642.8725,43
1602932642.8745,48
1602932642.8765,72
1602932642.8785,210
1602932642.8805,443
1602932642.8825,390
1602932642.8831,-130
1602932642.8845,-453
1602932642.8866,-155
1602932642.8885,92
1602932642.8905,12
1602932642.8925,7
1602932642.8945,77
1602932642.8965,58
1602932642.8985,43
1602932642.9005,63
1602932642.9025,58
1602932642.9045,53
1602932642.9066,60
1602932642.9085,53
1602932642.9106,41
1602932642.9126,50
1602932642.9132,80
1602932642.9145,92
1602932642.9165,82
1602932642.9185,80
1602932642.9205,89
1602932642.9225,97
1602932642.9246,97
1602932642.9266,94
1602932642.9285,99
1602932642.9305,109
1602932642.9325,128
1602932642.9345,140
1602932642.9366,130
1602932642.9385,126
1602932642.9405,135
1602932642.9424,130
1602932642.9431,123
1602932642.9445,126
1602932642.9465,118
1602932642.9485,99
1602932642.9505,87
1602932642.9525,77
1602932642.9545,65
1602932642.9565,55
1602932643.3602,38
1602932643.3608,26
1602932643.3632,19
1602932643.3659,7
1602932643.3678,-2
1602932643.3685,-2
1602932643.3699,-4
1602932643.3719,-7
1602932643.3739,-2
1602932643.3759,-2
1602932643.3779,-4
1602932643.3798,4
1602932643.3818,7
1602932643.3839,-4
1602932643.3859,-7
1602932643.3880,12
1602932643.3898,33
1602932643.3918,38
1602932643.3938,31
1602932643.3959,24
1602932643.3978,21
1602932643.3984,9
1602932643.3998,7
1602932643.4018,24
1602932643.4038,24
1602932643.4058,9
1602932643.4078,9
1602932643.4098,16
1602932643.4118,26
1602932643.4138,36
1602932643.4159,31
1602932643.4179,21
1602932643.4199,12
1602932643.4219,7
1602932643.4238,14
1602932643.4258,19
1602932643.4278,9
1602932643.4284,4
1602932643.4298,14
1602932643.4318,24
1602932643.4338,24
1602932643.4358,24
1602932643.4378,16
1602932643.4398,16
1602932643.4418,19
1602932643.4438,9
1602932643.4459,12
1602932643.4478,38
1602932643.4498,55
1602932643.4518,46
1602932643.4538,33
1602932643.4558,43
1602932643.4578,43
1602932643.4584,21
1602932643.4598,4
1602932643.4618,12
1602932643.4638,24
1602932643.4651,29
1602932643.4669,24
1602932643.4688,16
1602932643.4708,21
1602932643.4728,19
1602932643.4748,21
1602932643.4768,145
1602932643.4788,404
1602932643.4809,446
1602932643.4828,-55
1602932643.4848,-531
1602932643.4854,-312
1602932643.4868,46
1602932643.4888,26
1602932643.4908,-7
1602932643.4928,55
1602932643.9305,50
1602932643.9314,36
1602932643.9338,50
1602932643.9365,60
1602932643.9385,46
1602932643.9405,43
1602932643.9426,72
1602932643.9445,77
1602932643.9464,65
1602932643.9484,75
1602932643.9504,75
1602932643.9512,65
1602932643.9524,84
1602932643.9544,99
1602932643.9564,87
1602932643.9584,80
1602932643.9604,87
1602932643.9624,94
1602932643.9644,121
1602932643.9664,150
1602932643.9684,145
1602932643.9704,133
1602932643.9724,140
1602932643.9744,143
1602932643.9764,135
1602932643.9784,128
1602932643.9804,118
1602932643.9810,118
1602932643.9824,130
1602932643.9844,126
1602932643.9865,94
1602932643.9884,72
1602932643.9904,72
1602932643.9924,67
1602932643.9944,53
1602932643.9964,48
1602932643.9984,31
1602932644.0003,4
1602932644.0024,14
1602932644.0043,36
1602932644.0064,31
1602932644.0084,36
1602932644.0103,55
1602932644.0109,50
1602932644.0124,43
1602932644.0144,67
1602932644.0166,82
1602932644.0184,67
1602932644.0203,63
1602932644.0224,92
1602932644.0243,104
1602932644.0264,84
1602932644.0284,92
1602932644.0303,97
1602932644.0324,84
1602932644.0343,84
1602932644.0364,80
1602932644.0384,84
1602932644.0389,109
1602932644.0404,109
1602932644.0423,92
1602932644.0443,80
1602932644.0466,72
1602932644.0484,80
1602932644.0504,99
1602932644.0523,101
1602932644.0544,75
1602932644.0564,72
1602932644.0583,111
1602932644.0604,116
1602932644.0624,92
1602932644.0644,97
1602932644.0664,109
1602932644.5006,101
1602932644.5018,92
1602932644.5042,99
1602932644.5068,97
1602932644.5088,80
1602932644.5109,70
1602932644.5129,84
1602932644.5148,92
1602932644.5168,89
1602932644.5188,101
1602932644.5209,106
1602932644.5229,89
1602932644.5248,94
1602932644.5269,97
1602932644.5275,75
1602932644.5289,67
1602932644.5309,67
1602932644.5329,55
1602932644.5349,48
1602932644.5369,65
1602932644.5389,82
1602932644.5408,72
1602932644.5429,60
1602932644.5449,67
1602932644.5468,164
1602932644.5488,400
1602932644.5508,514
1602932644.5528,133
1602932644.5548,-388
1602932644.5568,-310
1602932644.5574,77
1602932644.5588,111
1602932644.5608,33
1602932644.5628,113
1602932644.5648,140
1602932644.5668,92
1602932644.5688,94
1602932644.5708,109
1602932644.5728,113
1602932644.5748,123
1602932644.5769,121
1602932644.5788,118
1602932644.5808,128
1602932644.5828,128
1602932644.5848,126
1602932644.5867,118
1602932644.5873,111
1602932644.5888,123
1602932644.5908,145
1602932644.5928,150
1602932644.5947,157
1602932644.5967,172
1602932644.5988,179
1602932644.6007,179
1602932644.6028,177
1602932644.6047,177
1602932644.6068,181
1602932644.6087,184
1602932644.6108,172
1602932644.6127,157
1602932644.6148,160
1602932644.6167,181
1602932644.6173,172
1602932644.6188,138
1602932644.6208,135
1602932644.6227,135
1602932644.6247,106
1602932644.6267,87
1602932644.6287,67
1602932644.6307,63
1602932644.6328,89
1602932644.6347,87
1602932644.6367,65
1602932645.0104,53
1602932645.0112,50
1602932645.0137,50
1602932645.0163,46
1602932645.0168,46
1602932645.0182,55
1602932645.0202,65
1602932645.0223,77
1602932645.0242,82
1602932645.0263,58
1602932645.0282,33
1602932645.0302,46
1602932645.0322,75
1602932645.0343,80
1602932645.0362,67
1602932645.0382,53
1602932645.0402,50
1602932645.0422,67
1602932645.0444,82
1602932645.0463,77
1602932645.0468,67
1602932645.0482,67
1602932645.0502,72
1602932645.0522,63
1602932645.0542,63
1602932645.0562,80
1602932645.0582,72
1602932645.0602,55
1602932645.0622,60
1602932645.0642,58
1602932645.0662,58
1602932645.0682,82
1602932645.0702,87
1602932645.0722,67
1602932645.0742,65
1602932645.0762,72
1602932645.0768,63
1602932645.0782,63
1602932645.0802,70
1602932645.0822,70
1602932645.0842,75
1602932645.0863,77
1602932645.0882,67
1602932645.0902,67
1602932645.0921,87
1602932645.0942,94
1602932645.0962,92
1602932645.0982,92
1602932645.1002,87
1602932645.1022,77
1602932645.1042,67
1602932645.1062,63
1602932645.1068,58
1602932645.1082,65
1602932645.1102,80
1602932645.1122,72
1602932645.1142,60
1602932645.1162,65
1602932645.1182,58
1602932645.1202,53
1602932645.1222,157
1602932645.1242,404
1602932645.1262,531
1602932645.1282,167
1602932645.1302,-361
1602932645.1322,-320
1602932645.1342,29
1602932645.1362,72
1602932645.1368,19
1602932645.1383,92
1602932645.1402,101
1602932645.1422,67
1602932645.1442,80
1602932645.6104,87
1602932645.6112,77
1602932645.6136,84
1602932645.6163,89
1602932645.6183,80
1602932645.6203,84
1602932645.6224,94
1602932645.6243,92
1602932645.6264,94
1602932645.6269,109
1602932645.6283,111
1602932645.6303,116
1602932645.6323,128
1602932645.6343,126
1602932645.6363,126
1602932645.6383,140
1602932645.6403,150
1602932645.6423,155
1602932645.6442,150
1602932645.6463,157
1602932645.6483,186
1602932645.6502,177
1602932645.6523,135
1602932645.6543,143
1602932645.6563,169
1602932645.6568,157
1602932645.6583,130
1602932645.6603,116
1602932645.6622,101
1602932645.6643,75
1602932645.6663,65
1602932645.6682,70
1602932645.6702,63
1602932645.6722,41
1602932645.6742,36
1602932645.6763,46
1602932645.6782,43
1602932645.6802,41
1602932645.6823,38
1602932645.6843,36
1602932645.6864,41
1602932645.6868,58
1602932645.6883,60
1602932645.6904,50
1602932645.6923,53
1602932645.6943,65
1602932645.6963,65
1602932645.6985,60
1602932645.7004,70
1602932645.7023,67
1602932645.7042,63
1602932645.7063,75
1602932645.7082,80
1602932645.7102,67
1602932645.7122,67
1602932645.7142,80
1602932645.7163,84
1602932645.7168,80
1602932645.7182,67
1602932645.7202,48
1602932645.7222,41
1602932645.7242,50
1602932645.7263,58
1602932645.7282,58
1602932645.7302,50
1602932645.7322,46
1602932645.7342,48
1602932645.7362,53
1602932645.7382,55
1602932645.7402,60
1602932645.7422,65
1602932645.7442,65
1602932645.7462,53
1602932646.2104,38
1602932646.2111,38
1602932646.2127,48
1602932646.2146,53
1602932646.2167,38
1602932646.2187,24
1602932646.2207,29
1602932646.2227,33
1602932646.2247,43
1602932646.2266,70
1602932646.2286,67
1602932646.2306,41
1602932646.2326,55
1602932646.2332,70
1602932646.2346,46
1602932646.2367,29
1602932646.2386,38
1602932646.2406,33
1602932646.2426,26
1602932646.2446,36
1602932646.2466,41
1602932646.2486,41
1602932646.2505,33
1602932646.2526,16
1602932646.2546,82
1602932646.2567,320
1602932646.2586,492
1602932646.2606,184
1602932646.2626,-356
1602932646.2631,-368
1602932646.2645,9
1602932646.2666,87
1602932646.2686,4
1602932646.2705,58
1602932646.2726,84
1602932646.2746,46
1602932646.2766,60
1602932646.2786,82
1602932646.2806,72
1602932646.2826,67
1602932646.2846,63
1602932646.2866,60
1602932646.2886,75
1602932646.2906,77
1602932646.2926,80
1602932646.2932,97
1602932646.2946,94
1602932646.2966,87
1602932646.2985,109
1602932646.3006,126
1602932646.3025,113
1602932646.3045,101
1602932646.3065,99
1602932646.3086,111
1602932646.3106,128
1602932646.3126,138
1602932646.3145,133
1602932646.3166,126
1602932646.3186,123
1602932646.3206,106
1602932646.3225,101
1602932646.3232,138
1602932646.3245,145
1602932646.3266,109
1602932646.3285,87
1602932646.3305,77
1602932646.3326,60
1602932646.3345,46
1602932646.3366,38
1602932646.3386,31
1602932646.3408,16
1602932646.3426,7
1602932646.3446,-4
1602932646.7202,-7
1602932646.7209,12
1602932646.7233,7
1602932646.7246,-12
1602932646.7260,0
1602932646.7279,21
1602932646.7299,21
1602932646.7319,31
1602932646.7339,36
1602932646.7359,16
1602932646.7379,4
1602932646.7399,12
1602932646.7419,12
1602932646.7439,2
1602932646.7459,-9
1602932646.7480,-2
1602932646.7499,14
1602932646.7519,14
1602932646.7538,0
1602932646.7545,2
1602932646.7559,14
1602932646.7579,9
1602932646.7599,-2
1602932646.7619,-2
1602932646.7638,2
1602932646.7659,9
1602932646.7678,21
1602932646.7698,16
1602932646.7718,7
1602932646.7739,9
1602932646.7759,7
1602932646.7779,-4
1602932646.7799,-4
1602932646.7819,12
1602932646.7838,21
1602932646.7845,7
1602932646.7859,-7
1602932646.7879,4
1602932646.7899,24
1602932646.7918,16
1602932646.7939,-4
1602932646.7959,16
1602932646.7979,43
1602932646.7998,31
1602932646.8019,19
1602932646.8039,21
1602932646.8059,21
1602932646.8080,19
1602932646.8099,-2
1602932646.8119,-19
1602932646.8139,4
1602932646.8144,29
1602932646.8159,19
1602932646.8179,4
1602932646.8200,7
1602932646.8219,16
1602932646.8239,26
1602932646.8259,80
1602932646.8279,283
1602932646.8298,497
1602932646.8319,278
1602932646.8339,-329
1602932646.8359,-489
1602932646.8379,-72
1602932646.8399,101
1602932646.8419,-4
1602932646.8439,36
1602932646.8445,97
1602932646.8459,65
1602932646.8478,72
1602932646.8498,99
1602932646.8519,77
1602932646.8539,70
1602932647.2901,92
1602932647.2908,92
1602932647.2932,70
1602932647.2959,72
1602932647.2978,82
1602932647.2998,89
1602932647.3019,97
1602932647.3038,99
1602932647.3044,106
1602932647.3059,111
1602932647.3078,101
1602932647.3098,106
1602932647.3118,133
1602932647.3139,152
1602932647.3159,155
1602932647.3178,155
1602932647.3198,152
1602932647.3218,145
1602932647.3238,152
1602932647.3258,169
1602932647.3278,157
1602932647.3298,140
1602932647.3318,145
1602932647.3339,138
1602932647.3345,123
1602932647.3358,111
1602932647.3378,92
1602932647.3398,75
1602932647.3417,67
1602932647.3438,50
1602932647.3458,38
1602932647.3478,43
1602932647.3500,26
1602932647.3518,9
1602932647.3538,29
1602932647.3558,43
1602932647.3578,31
1602932647.3598,31
1602932647.3618,38
1602932647.3637,41
1602932647.3643,53
1602932647.3658,63
1602932647.3678,50
1602932647.3698,58
1602932647.3718,82
1602932647.3738,75
1602932647.3758,65
1602932647.3778,82
1602932647.3799,99
1602932647.3818,89
1602932647.3838,80
1602932647.3858,84
1602932647.3878,77
1602932647.3898,58
1602932647.3918,55
1602932647.3938,75
1602932647.3944,82
1602932647.3958,72
1602932647.3978,72
1602932647.3998,75
1602932647.4018,67
1602932647.4037,72
1602932647.4058,82
1602932647.4078,77
1602932647.4098,72
1602932647.4118,80
1602932647.4138,77
1602932647.4158,63
1602932647.4178,60
1602932647.4198,70
1602932647.4218,75
1602932647.4238,72
1602932647.4244,82
1602932647.8302,94
1602932647.8309,87
1602932647.8333,80
1602932647.8360,87
1602932647.8380,97
1602932647.8400,94
1602932647.8420,72
1602932647.8440,48
1602932647.8461,48
1602932647.8480,63
1602932647.8502,67
1602932647.8520,65
1602932647.8540,72
1602932647.8560,67
1602932647.8566,99
1602932647.8579,291
1602932647.8600,523
1602932647.8620,356
1602932647.8640,-227
1602932647.8660,-443
1602932647.8680,-65
1602932647.8700,157
1602932647.8720,60
1602932647.8740,65
1602932647.8760,128
1602932647.8779,99
1602932647.8800,77
1602932647.8820,97
1602932647.8840,109
1602932647.8922,109
1602932647.8939,104
1602932647.8959,101
1602932647.8980,104
1602932647.8999,104
1602932647.9019,97
1602932647.9040,101
1602932647.9059,128
1602932647.9079,140
1602932647.9099,130
1602932647.9119,128
1602932647.9139,150
1602932647.9160,167
1602932647.9179,157
1602932647.9200,162
1602932647.9205,172
1602932647.9218,164
1602932647.9239,162
1602932647.9260,181
1602932647.9280,191
1602932647.9299,186
1602932647.9319,177
1602932647.9339,157
1602932647.9360,145
1602932647.9379,150
1602932647.9399,147
1602932647.9419,128
1602932647.9439,104
1602932647.9459,80
1602932647.9479,63
1602932647.9499,43
1602932647.9505,33
1602932647.9521,31
1602932647.9539,33
1602932647.9560,36
1602932647.9579,46
1602932647.9599,60
1602932647.9619,50
1602932647.9639,29
1602932647.9659,33
1602932647.9679,43
1602932647.9700,46
1602932647.9719,55
1602932647.9739,75
1602932648.4004,77
1602932648.4012,53
1602932648.4036,43
1602932648.4062,58
1602932648.4082,72
1602932648.4102,72
1602932648.4122,60
1602932648.4142,48
1602932648.4163,41
1602932648.4182,48
1602932648.4202,58
1602932648.4222,58
1602932648.4242,46
1602932648.4263,46
1602932648.4282,63
1602932648.4302,55
1602932648.4309,33
1602932648.4322,33
1602932648.4342,38
1602932648.4362,31
1602932648.4382,31
1602932648.4401,33
1602932648.4422,29
1602932648.4442,26
1602932648.4462,14
1602932648.4482,0
1602932648.4502,7
1602932648.4523,48
1602932648.4542,89
1602932648.4562,82
1602932648.4582,48
1602932648.4602,38
1602932648.4608,50
1602932648.4622,41
1602932648.4642,12
1602932648.4662,9
1602932648.4682,16
1602932648.4701,21
1602932648.4722,24
1602932648.4743,21
1602932648.4762,26
1602932648.4782,36
1602932648.4802,41
1602932648.4822,111
1602932648.4842,329
1602932648.4862,485
1602932648.4882,162
1602932648.4901,-390
1602932648.4908,-375
1602932648.4922,19
1602932648.4942,82
1602932648.4962,-9
1602932648.4982,41
1602932648.5002,75
1602932648.5022,58
1602932648.5041,60
1602932648.5062,60
1602932648.5081,65
1602932648.5102,87
1602932648.5122,84
1602932648.5142,70
1602932648.5162,75
1602932648.5182,87
1602932648.5202,80
1602932648.5208,67
1602932648.5222,82
1602932648.5241,106
1602932648.5262,111
1602932648.5282,121
1602932648.5302,133
1602932648.5322,128
1602932648.5342,121
1602932648.5362,130
1602932649.0004,157
1602932649.0012,164
1602932649.0036,147
1602932649.0063,155
1602932649.0083,169
1602932649.0103,152
1602932649.0124,128
1602932649.0131,113
1602932649.0143,106
1602932649.0164,109
1602932649.0183,106
1602932649.0203,82
1602932649.0223,50
1602932649.0243,31
1602932649.0263,29
1602932649.0283,14
1602932649.0303,-2
1602932649.0325,0
1602932649.0343,2
1602932649.0363,-7
1602932649.0383,-7
1602932649.0403,0
1602932649.0423,0
1602932649.0429,9
1602932649.0443,16
1602932649.0464,14
1602932649.0482,14
1602932649.0502,21
1602932649.0522,26
1602932649.0542,31
1602932649.0563,36
1602932649.0583,33
1602932649.0602,26
1602932649.0622,26
1602932649.0642,33
1602932649.0662,43
1602932649.0682,50
1602932649.0702,48
1602932649.0722,41
1602932649.0728,36
1602932649.0742,26
1602932649.0763,24
1602932649.0782,29
1602932649.0802,16
1602932649.0822,19
1602932649.0842,46
1602932649.0862,60
1602932649.0882,53
1602932649.0902,43
1602932649.0922,36
1602932649.0942,31
1602932649.0963,24
1602932649.0982,19
1602932649.1003,19
1602932649.1022,24
1602932649.1028,29
1602932649.1042,38
1602932649.1063,55
1602932649.1082,60
1602932649.1102,48
1602932649.1122,43
1602932649.1142,43
1602932649.1162,36
1602932649.1182,31
1602932649.1202,31
1602932649.1222,29
1602932649.1242,24
1602932649.1262,26
1602932649.1284,24
1602932649.1303,16
1602932649.1322,7
1602932649.1328,0
1602932649.1342,97
1602932649.5403,361
1602932649.5410,485
1602932649.5434,65
1602932649.5461,-472
1602932649.5481,-361
1602932649.5500,19
1602932649.5521,36
1602932649.5540,-29
1602932649.5561,41
1602932649.5580,46
1602932649.5600,9
1602932649.5607,19
1602932649.5620,29
1602932649.5641,26
1602932649.5661,31
1602932649.5680,31
1602932649.5701,19
1602932649.5720,21
1602932649.5740,46
1602932649.5760,55
1602932649.5780,58
1602932649.5800,58
1602932649.5820,53
1602932649.5840,65
1602932649.5860,82
1602932649.5880,82
1602932649.5900,87
1602932649.5906,106
1602932649.5920,109
1602932649.5940,106
1602932649.5960,116
1602932649.5980,128
1602932649.6000,128
1602932649.6020,126
1602932649.6039,121
1602932649.6060,113
1602932649.6080,113
1602932649.6099,111
1602932649.6121,84
1602932649.6140,58
1602932649.6160,48
1602932649.6180,43
1602932649.6200,21
1602932649.6206,0
1602932649.6220,-2
1602932649.6240,-9
1602932649.6262,-21
1602932649.6280,-14
1602932649.6299,-7
1602932649.6320,-16
1602932649.6340,-21
1602932649.6360,-14
1602932649.6380,-4
1602932649.6400,-9
1602932649.6420,-12
1602932649.6440,-12
1602932649.6460,-9
1602932649.6480,7
1602932649.6500,21
1602932649.6506,26
1602932649.6520,26
1602932649.6540,29
1602932649.6560,31
1602932649.6580,31
1602932649.6600,26
1602932649.6620,21
1602932649.6640,21
1602932649.6660,29
1602932649.6680,24
1602932649.6701,4
1602932649.6720,-2
1602932649.6740,31
1602932649.6760,72
1602932650.1104,50
1602932650.1112,14
1602932650.1136,16
1602932650.1162,21
1602932650.1182,16
1602932650.1203,26
1602932650.1223,26
1602932650.1242,16
1602932650.1263,12
1602932650.1282,9
1602932650.1302,2
1602932650.1322,0
1602932650.1342,19
1602932650.1362,53
1602932650.1382,65
1602932650.1402,43
1602932650.1422,38
1602932650.1428,48
1602932650.1442,46
1602932650.1462,38
1602932650.1482,36
1602932650.1502,29
1602932650.1522,29
1602932650.1542,38
1602932650.1564,43
1602932650.1583,46
1602932650.1602,43
1602932650.1622,36
1602932650.1642,135
1602932650.1662,409
1602932650.1682,516
1602932650.1702,63
1602932650.1722,-465
1602932650.1734,-317
1602932650.1752,63
1602932650.1772,53
1602932650.1792,0
1602932650.1813,92
1602932650.1832,92
1602932650.1852,43
1602932650.1872,67
1602932650.1892,84
1602932650.1912,67
1602932650.1928,77
1602932650.1941,99
1602932650.1962,99
1602932650.1982,94
1602932650.2002,94
1602932650.2008,94
1602932650.2022,97
1602932650.2042,116
1602932650.2062,130
1602932650.2082,126
1602932650.2102,118
1602932650.2122,113
1602932650.2142,121
1602932650.2162,133
1602932650.2182,155
1602932650.2202,184
1602932650.2222,196
1602932650.2242,184
1602932650.2262,164
1602932650.2282,160
1602932650.2302,179
1602932650.2308,189
1602932650.2322,177
1602932650.2342,155
1602932650.2362,135
1602932650.2382,123
1602932650.2402,109
1602932650.2422,80
1602932650.2442,65
1602932650.2462,63
1602932650.6804,43
1602932650.6812,36
1602932650.6828,53
1602932650.6847,48
1602932650.6853,33
1602932650.6866,36
1602932650.6886,38
1602932650.6906,46
1602932650.6926,50
1602932650.6947,43
1602932650.6965,43
1602932650.6986,43
1602932650.7006,41
1602932650.7026,46
1602932650.7046,67
1602932650.7066,82
1602932650.7086,67
1602932650.7106,55
1602932650.7126,63
1602932650.7146,70
1602932650.7152,60
1602932650.7166,67
1602932650.7186,84
1602932650.7206,77
1602932650.7226,65
1602932650.7246,77
1602932650.7265,75
1602932650.7285,60
1602932650.7305,70
1602932650.7326,80
1602932650.7346,72
1602932650.7365,75
1602932650.7385,84
1602932650.7405,77
1602932650.7425,65
1602932650.7445,70
1602932650.7451,75
1602932650.7465,77
1602932650.7485,87
1602932650.7505,94
1602932650.7525,80
1602932650.7545,55
1602932650.7566,58
1602932650.7585,89
1602932650.7605,109
1602932650.7625,109
1602932650.7645,121
1602932650.7666,121
1602932650.7685,99
1602932650.7705,99
1602932650.7725,99
1602932650.7745,77
1602932650.7751,72
1602932650.7767,82
1602932650.7786,67
1602932650.7805,65
1602932650.7825,92
1602932650.7845,94
1602932650.7865,92
1602932650.7885,77
1602932650.7905,72
1602932650.7925,220
1602932650.7945,487
1602932650.7965,485
1602932650.7985,-26
1602932650.8005,-446
1602932650.8025,-213
1602932650.8045,101
1602932650.8051,65
1602932650.8065,41
1602932650.8085,113
1602932650.8105,104
1602932650.8125,77
1602932651.2202,92
1602932651.2210,92
1602932651.2234,80
1602932651.2261,87
1602932651.2281,109
1602932651.2301,121
1602932651.2322,109
1602932651.2341,106
1602932651.2360,116
1602932651.2366,116
1602932651.2380,111
1602932651.2400,109
1602932651.2420,111
1602932651.2440,116
1602932651.2461,123
1602932651.2480,138
1602932651.2500,152
1602932651.2520,167
1602932651.2540,177
1602932651.2560,172
1602932651.2580,169
1602932651.2600,177
1602932651.2620,184
1602932651.2640,174
1602932651.2660,164
1602932651.2666,169
1602932651.2680,169
1602932651.2700,150
1602932651.2720,121
1602932651.2740,111
1602932651.2761,111
1602932651.2781,97
1602932651.2801,75
1602932651.2820,58
1602932651.2840,48
1602932651.2859,46
1602932651.2880,41
1602932651.2900,48
1602932651.2920,60
1602932651.2940,53
1602932651.2960,46
1602932651.2966,46
1602932651.2980,50
1602932651.3000,65
1602932651.3020,67
1602932651.3040,63
1602932651.3060,70
1602932651.3079,80
1602932651.3100,82
1602932651.3120,75
1602932651.3140,75
1602932651.3160,80
1602932651.3180,82
1602932651.3200,89
1602932651.3220,92
1602932651.3239,87
1602932651.3260,82
1602932651.3266,77
1602932651.3280,72
1602932651.3300,72
1602932651.3320,75
1602932651.3340,75
1602932651.3360,80
1602932651.3380,84
1602932651.3400,87
1602932651.3420,87
1602932651.3440,72
1602932651.3460,75
1602932651.3480,94
1602932651.3500,87
1602932651.3520,75
1602932651.3540,80
1602932651.3560,94
1602932651.7602,97
1602932651.7608,89
1602932651.7632,84
1602932651.7659,84
1602932651.7678,77
1602932651.7699,75
1602932651.7718,97
1602932651.7739,111
1602932651.7759,101
1602932651.7781,97
1602932651.7799,97
1602932651.7819,99
1602932651.7838,94
1602932651.7858,77
1602932651.7864,65
1602932651.7878,77
1602932651.7898,89
1602932651.7918,84
1602932651.7938,82
1602932651.7959,87
1602932651.7978,82
1602932651.7998,67
1602932651.8018,80
1602932651.8038,215
1602932651.8058,463
1602932651.8078,465
1602932651.8098,-38
1602932651.8118,-429
1602932651.8138,-150
1602932651.8158,152
1602932651.8164,70
1602932651.8178,36
1602932651.8198,121
1602932651.8218,111
1602932651.8238,84
1602932651.8258,106
1602932651.8278,109
1602932651.8298,97
1602932651.8318,111
1602932651.8338,121
1602932651.8358,113
1602932651.8378,106
1602932651.8398,109
1602932651.8418,130
1602932651.8438,145
1602932651.8458,133
1602932651.8464,128
1602932651.8478,135
1602932651.8498,138
1602932651.8518,145
1602932651.8538,160
1602932651.8559,167
1602932651.8578,169
1602932651.8598,177
1602932651.8618,189
1602932651.8638,196
1602932651.8658,196
1602932651.8678,191
1602932651.8698,186
1602932651.8718,179
1602932651.8740,169
1602932651.8759,167
1602932651.8764,160
1602932651.8778,143
1602932651.8798,116
1602932651.8818,99
1602932651.8838,92
1602932651.8858,80
1602932651.8878,67
1602932651.8898,63
1602932651.8918,48
1602932651.8938,41
1602932651.8958,48
1602932652.3604,50
1602932652.3612,43
1602932652.3620,36
1602932652.3635,46
1602932652.3656,63
1602932652.3675,55
1602932652.3695,43
1602932652.3715,48
1602932652.3735,53
1602932652.3755,50
1602932652.3775,53
1602932652.3795,63
1602932652.3815,72
