,ecg
1607170570.99,6893.0
1607170570.9929,7827.0
1607170570.9955,8799.0
1607170570.9986,9395.0
1607170571.0,9909.0
1607170571.002,10443.0
1607170571.004,10838.0
1607170571.006,11174.0
1607170571.008,11516.0
1607170571.01,11796.0
1607170571.012,12013.0
1607170571.014,12226.0
1607170571.016,12416.0
1607170571.018,12554.0
1607170571.02,12653.0
1607170571.022,12716.0
1607170571.0241,12728.0
1607170571.0259,12694.0
1607170571.0281,12638.0
1607170571.03,12585.0
1607170571.032,12549.0
1607170571.034,12518.0
1607170571.036,12494.0
1607170571.038,12491.0
1607170571.04,12503.0
1607170571.0421,12506.0
1607170571.044,12511.0
1607170571.046,12523.0
1607170571.048,12527.0
1607170571.0499,12525.0
1607170571.0519,12520.0
1607170571.0539,12518.0
1607170571.0559,12515.0
1607170571.0579,12494.0
1607170571.0599,12467.0
1607170571.0619,12455.0
1607170571.0639,12436.0
1607170571.0659,12392.0
1607170571.068,12358.0
1607170571.0699,12334.0
1607170571.0719,12289.0
1607170571.074,12235.0
1607170571.076,12209.0
1607170571.078,12182.0
1607170571.0799,12112.0
1607170571.0819,12038.0
1607170571.0839,11992.0
1607170571.0859,11946.0
1607170571.088,11886.0
1607170571.0898,11823.0
1607170571.0921,11772.0
1607170571.0939,11717.0
1607170571.0958,11647.0
1607170571.0979,11577.0
1607170571.0999,11519.0
1607170571.1018,11466.0
1607170571.1038,11401.0
1607170571.1058,11323.0
1607170571.1079,11253.0
1607170571.1099,11195.0
1607170571.1118,11125.0
1607170571.1138,11048.0
1607170571.1158,10983.0
1607170571.1179,10918.0
1607170571.1198,10838.0
1607170571.1218,10761.0
1607170571.1238,10691.0
1607170571.1259,10628.0
1607170571.1279,10558.0
1607170571.1298,10472.0
1607170571.1318,10387.0
1607170571.1338,10322.0
1607170571.1358,10245.0
1607170571.5281,10163.0
1607170571.529,10098.0
1607170571.5315,10023.0
1607170571.5341,9934.0
1607170571.5361,9854.0
1607170571.5381,9789.0
1607170571.5402,9712.0
1607170571.5422,9629.0
1607170571.5441,9550.0
1607170571.5461,9487.0
1607170571.5482,9420.0
1607170571.5501,9311.0
1607170571.5521,9217.0
1607170571.5541,9161.0
1607170571.5561,9084.0
1607170571.5581,8988.0
1607170571.5601,8918.0
1607170571.562,8853.0
1607170571.5641,8770.0
1607170571.5661,8688.0
1607170571.5681,8616.0
1607170571.57,8541.0
1607170571.5721,8462.0
1607170571.5741,8382.0
1607170571.5763,8312.0
1607170571.5781,8244.0
1607170571.58,8167.0
1607170571.582,8085.0
1607170571.5842,8006.0
1607170571.5861,7933.0
1607170571.5881,7858.0
1607170571.5901,7784.0
1607170571.5921,7714.0
1607170571.5941,7644.0
1607170571.596,7574.0
1607170571.5981,7501.0
1607170571.6,7422.0
1607170571.6021,7342.0
1607170571.604,7270.0
1607170571.6061,7202.0
1607170571.608,7130.0
1607170571.6101,7062.0
1607170571.612,6990.0
1607170571.614,6915.0
1607170571.616,6847.0
1607170571.618,6780.0
1607170571.62,6710.0
1607170571.622,6640.0
1607170571.6241,6575.0
1607170571.626,6510.0
1607170571.6281,6437.0
1607170571.63,6370.0
1607170571.632,6307.0
1607170571.634,6239.0
1607170571.636,6169.0
1607170571.638,6123.0
1607170571.64,6090.0
1607170571.6421,6037.0
1607170571.644,5974.0
1607170571.646,5904.0
1607170571.6481,5817.0
1607170571.65,5733.0
1607170571.652,5670.0
1607170571.654,5619.0
1607170571.656,5564.0
1607170571.6581,5501.0
1607170571.6601,5443.0
1607170571.662,5388.0
1607170571.664,5322.0
1607170571.666,5257.0
1607170571.6681,5264.0
1607170571.67,5508.0
1607170571.672,6080.0
1607170572.1286,6551.0
1607170572.1295,6254.0
1607170572.132,5180.0
1607170572.1346,4227.0
1607170572.1366,4186.0
1607170572.1386,4599.0
1607170572.141,4688.0
1607170572.1426,4613.0
1607170572.1446,4623.0
1607170572.1466,4584.0
1607170572.1487,4521.0
1607170572.1505,4497.0
1607170572.1526,4463.0
1607170572.1545,4413.0
1607170572.1565,4377.0
1607170572.1586,4343.0
1607170572.1606,4299.0
1607170572.1625,4266.0
1607170572.1645,4234.0
1607170572.1665,4193.0
1607170572.1686,4150.0
1607170572.1705,4123.0
1607170572.1725,4099.0
1607170572.1746,4070.0
1607170572.1766,4044.0
1607170572.1785,4024.0
1607170572.1805,4007.0
1607170572.1825,3993.0
1607170572.1845,3981.0
1607170572.1865,3964.0
1607170572.1885,3962.0
1607170572.1906,3964.0
1607170572.1926,3959.0
1607170572.1945,3957.0
1607170572.1965,3947.0
1607170572.1985,3916.0
1607170572.2005,3860.0
1607170572.2025,3776.0
1607170572.2045,3657.0
1607170572.2065,3508.0
1607170572.2086,3356.0
1607170572.2105,3218.0
1607170572.2125,3100.0
1607170572.2145,3001.0
1607170572.2165,2926.0
1607170572.2185,2873.0
1607170572.2206,2830.0
1607170572.2225,2794.0
1607170572.2246,2765.0
1607170572.2266,2743.0
1607170572.2285,2719.0
1607170572.2305,2690.0
1607170572.2325,2668.0
1607170572.2345,2651.0
1607170572.2366,2630.0
1607170572.2386,2605.0
1607170572.2406,2584.0
1607170572.2428,2564.0
1607170572.2445,2543.0
1607170572.2465,2519.0
1607170572.2485,2497.0
1607170572.2505,2470.0
1607170572.2525,2446.0
1607170572.2545,2420.0
1607170572.2565,2398.0
1607170572.2585,2374.0
1607170572.2605,2347.0
1607170572.2625,2318.0
1607170572.2645,2294.0
1607170572.2665,2272.0
1607170572.2685,2246.0
1607170572.2705,2217.0
1607170572.2725,2195.0
1607170572.6379,2174.0
1607170572.6386,2147.0
1607170572.641,2125.0
1607170572.6438,2106.0
1607170572.6457,2084.0
1607170572.6477,2060.0
1607170572.6497,2038.0
1607170572.6517,2019.0
1607170572.6537,2000.0
1607170572.6557,1978.0
1607170572.6577,1952.0
1607170572.6598,1932.0
1607170572.6618,1913.0
1607170572.6636,1882.0
1607170572.6656,1857.0
1607170572.6677,1848.0
1607170572.6696,1831.0
1607170572.6716,1807.0
1607170572.6737,1790.0
1607170572.6757,1773.0
1607170572.6776,1756.0
1607170572.6797,1734.0
1607170572.6816,1713.0
1607170572.6837,1701.0
1607170572.6856,1684.0
1607170572.6877,1662.0
1607170572.6896,1648.0
1607170572.6917,1633.0
1607170572.6937,1614.0
1607170572.6956,1597.0
1607170572.6977,1587.0
1607170572.6997,1575.0
1607170572.7016,1558.0
1607170572.7036,1539.0
1607170572.7056,1522.0
1607170572.7078,1510.0
1607170572.7097,1496.0
1607170572.7116,1479.0
1607170572.7136,1464.0
1607170572.7156,1452.0
1607170572.7177,1438.0
1607170572.7197,1423.0
1607170572.7216,1404.0
1607170572.7236,1387.0
1607170572.7257,1377.0
1607170572.7277,1365.0
1607170572.7296,1353.0
1607170572.7316,1339.0
1607170572.7336,1324.0
1607170572.7356,1310.0
1607170572.7377,1298.0
1607170572.7396,1283.0
1607170572.7417,1269.0
1607170572.7439,1257.0
1607170572.7456,1245.0
1607170572.7477,1233.0
1607170572.7496,1218.0
1607170572.7516,1204.0
1607170572.7537,1194.0
1607170572.7557,1179.0
1607170572.7576,1163.0
1607170572.7598,1150.0
1607170572.7616,1143.0
1607170572.7636,1129.0
1607170572.7656,1119.0
1607170572.7677,1109.0
1607170572.7696,1097.0
1607170572.7716,1088.0
1607170572.7736,1080.0
1607170572.7757,1068.0
1607170572.7777,1056.0
1607170572.7797,1052.0
1607170572.7816,1044.0
1607170573.2383,1032.0
1607170573.2392,1013.0
1607170573.2417,1001.0
1607170573.2444,996.0
1607170573.2464,989.0
1607170573.2484,974.0
1607170573.2504,955.0
1607170573.2524,943.0
1607170573.2543,941.0
1607170573.2563,933.0
1607170573.2583,919.0
1607170573.2603,907.0
1607170573.2623,912.0
1607170573.2645,926.0
1607170573.2664,931.0
1607170573.2683,921.0
1607170573.2704,904.0
1607170573.2722,885.0
1607170573.2743,859.0
1607170573.2763,837.0
1607170573.2782,830.0
1607170573.2802,830.0
1607170573.2823,827.0
1607170573.2842,817.0
1607170573.2863,808.0
1607170573.2883,798.0
1607170573.2902,789.0
1607170573.2923,815.0
1607170573.2942,1011.0
1607170573.2962,1553.0
1607170573.2982,2207.0
1607170573.3002,2239.0
1607170573.3022,1363.0
1607170573.3042,287.0
1607170573.3062,-21.0
1607170573.3083,386.0
1607170573.3103,632.0
1607170573.3122,608.0
1607170573.3142,673.0
1607170573.3162,721.0
1607170573.3182,687.0
1607170573.3203,690.0
1607170573.3222,716.0
1607170573.3243,711.0
1607170573.3264,709.0
1607170573.3283,719.0
1607170573.3302,721.0
1607170573.3322,723.0
1607170573.3342,733.0
1607170573.3362,740.0
1607170573.3383,748.0
1607170573.3402,752.0
1607170573.3423,757.0
1607170573.3442,769.0
1607170573.3462,784.0
1607170573.3483,801.0
1607170573.3502,822.0
1607170573.3522,842.0
1607170573.3542,863.0
1607170573.3562,890.0
1607170573.3583,924.0
1607170573.3603,960.0
1607170573.3623,1001.0
1607170573.3642,1035.0
1607170573.3664,1059.0
1607170573.3683,1066.0
1607170573.3703,1054.0
1607170573.3722,1013.0
1607170573.3742,931.0
1607170573.3763,813.0
1607170573.3783,685.0
1607170573.3802,567.0
1607170573.3822,465.0
1607170573.7475,388.0
1607170573.7484,340.0
1607170573.7509,311.0
1607170573.7536,291.0
1607170573.7554,284.0
1607170573.7576,284.0
1607170573.7597,287.0
1607170573.7615,287.0
1607170573.7634,291.0
1607170573.7655,304.0
1607170573.7675,308.0
1607170573.7694,306.0
1607170573.7714,308.0
1607170573.7734,320.0
1607170573.7755,328.0
1607170573.7775,330.0
1607170573.7794,335.0
1607170573.7814,342.0
1607170573.7834,345.0
1607170573.7854,345.0
1607170573.7874,347.0
1607170573.7894,347.0
1607170573.7916,347.0
1607170573.7934,345.0
1607170573.7954,342.0
1607170573.7975,340.0
1607170573.7995,340.0
1607170573.8014,335.0
1607170573.8034,332.0
1607170573.8054,332.0
1607170573.8075,330.0
1607170573.8094,330.0
1607170573.8115,332.0
1607170573.8134,330.0
1607170573.8154,328.0
1607170573.8175,328.0
1607170573.8194,330.0
1607170573.8214,330.0
1607170573.8234,330.0
1607170573.8255,328.0
1607170573.8275,328.0
1607170573.8294,328.0
1607170573.8316,328.0
1607170573.8334,330.0
1607170573.8354,330.0
1607170573.8375,328.0
1607170573.8394,328.0
1607170573.8414,325.0
1607170573.8435,328.0
1607170573.8454,328.0
1607170573.8475,328.0
1607170573.8494,328.0
1607170573.8514,328.0
1607170573.8534,325.0
1607170573.8554,325.0
1607170573.8574,325.0
1607170573.8595,320.0
1607170573.8614,318.0
1607170573.8634,316.0
1607170573.8654,318.0
1607170573.8675,318.0
1607170573.8694,318.0
1607170573.8714,318.0
1607170573.8734,318.0
1607170573.8755,316.0
1607170573.8775,316.0
1607170573.8794,313.0
1607170573.8814,313.0
1607170573.8834,313.0
1607170573.8854,313.0
1607170573.8875,311.0
1607170573.8894,308.0
1607170573.8915,304.0
1607170574.3487,299.0
1607170574.3501,299.0
1607170574.3525,301.0
1607170574.3551,299.0
1607170574.3571,289.0
1607170574.3592,279.0
1607170574.3613,279.0
1607170574.3631,284.0
1607170574.3651,282.0
1607170574.3671,279.0
1607170574.369,277.0
1607170574.371,275.0
1607170574.373,272.0
1607170574.3751,272.0
1607170574.3771,267.0
1607170574.379,263.0
1607170574.381,260.0
1607170574.383,263.0
1607170574.385,265.0
1607170574.3871,263.0
1607170574.3892,263.0
1607170574.3911,263.0
1607170574.393,263.0
1607170574.395,265.0
1607170574.397,263.0
1607170574.399,263.0
1607170574.401,263.0
1607170574.4029,260.0
1607170574.4051,258.0
1607170574.4065,260.0
1607170574.408,265.0
1607170574.4101,263.0
1607170574.4121,260.0
1607170574.414,260.0
1607170574.416,260.0
1607170574.418,258.0
1607170574.4201,255.0
1607170574.422,253.0
1607170574.424,253.0
1607170574.4261,267.0
1607170574.428,284.0
1607170574.43,294.0
1607170574.432,294.0
1607170574.434,289.0
1607170574.436,277.0
1607170574.438,255.0
1607170574.44,238.0
1607170574.4421,241.0
1607170574.4441,243.0
1607170574.446,246.0
1607170574.4479,246.0
1607170574.4499,241.0
1607170574.452,229.0
1607170574.454,217.0
1607170574.456,253.0
1607170574.458,482.0
1607170574.46,1059.0
1607170574.462,1713.0
1607170574.464,1727.0
1607170574.466,825.0
1607170574.468,-275.0
1607170574.47,-533.0
1607170574.472,-60.0
1607170574.474,173.0
1607170574.476,115.0
1607170574.478,176.0
1607170574.4801,226.0
1607170574.482,197.0
1607170574.484,209.0
1607170574.486,238.0
1607170574.488,236.0
1607170574.4903,241.0
1607170574.4921,258.0
1607170574.9184,265.0
1607170574.9193,270.0
1607170574.9218,279.0
1607170574.9245,291.0
1607170574.9265,304.0
1607170574.9283,316.0
1607170574.9303,330.0
1607170574.9323,342.0
1607170574.9343,359.0
1607170574.9363,374.0
1607170574.9383,388.0
1607170574.9404,415.0
1607170574.9424,448.0
1607170574.9443,480.0
1607170574.9463,516.0
1607170574.9483,559.0
1607170574.9503,603.0
1607170574.9522,639.0
1607170574.9543,668.0
1607170574.9563,685.0
1607170574.9583,678.0
1607170574.9603,637.0
1607170574.9623,557.0
1607170574.9642,451.0
1607170574.9663,328.0
1607170574.9683,212.0
1607170574.9703,120.0
1607170574.9722,53.0
1607170574.9743,4.0
1607170574.9763,-21.0
1607170574.9783,-33.0
1607170574.9803,-36.0
1607170574.9823,-36.0
1607170574.9842,-28.0
1607170574.9862,-16.0
1607170574.9883,-7.0
1607170574.9903,4.0
1607170574.9924,14.0
1607170574.9943,21.0
1607170574.9963,31.0
1607170574.9983,43.0
1607170575.0003,50.0
1607170575.0022,60.0
1607170575.0043,69.0
1607170575.0063,77.0
1607170575.0083,82.0
1607170575.0103,91.0
1607170575.0123,98.0
1607170575.0143,98.0
1607170575.0164,101.0
1607170575.0183,103.0
1607170575.0203,106.0
1607170575.0222,106.0
1607170575.0243,106.0
1607170575.0264,108.0
1607170575.0283,108.0
1607170575.0303,106.0
1607170575.0322,106.0
1607170575.0343,106.0
1607170575.0362,103.0
1607170575.0383,101.0
1607170575.0403,103.0
1607170575.0423,108.0
1607170575.0442,110.0
1607170575.0463,110.0
1607170575.0483,113.0
1607170575.0502,115.0
1607170575.0523,118.0
1607170575.0544,118.0
1607170575.0563,120.0
1607170575.0583,120.0
1607170575.0603,120.0
1607170575.0622,123.0
1607170575.4582,125.0
1607170575.4588,127.0
1607170575.4612,130.0
1607170575.4639,132.0
1607170575.4659,135.0
1607170575.4678,135.0
1607170575.4699,137.0
1607170575.4718,137.0
1607170575.474,139.0
1607170575.4759,142.0
1607170575.4779,139.0
1607170575.4798,135.0
1607170575.4819,135.0
1607170575.4838,139.0
1607170575.4858,139.0
1607170575.4878,142.0
1607170575.4899,144.0
1607170575.4919,147.0
1607170575.4939,147.0
1607170575.4958,147.0
1607170575.4965,149.0
1607170575.4989,154.0
1607170575.5008,154.0
1607170575.5028,152.0
1607170575.5049,154.0
1607170575.5068,154.0
1607170575.5089,152.0
1607170575.511,152.0
1607170575.5129,152.0
1607170575.5149,149.0
1607170575.5168,147.0
1607170575.5189,147.0
1607170575.5209,149.0
1607170575.5228,147.0
1607170575.5249,144.0
1607170575.5269,144.0
1607170575.5275,144.0
1607170575.5299,144.0
1607170575.5318,144.0
1607170575.5338,144.0
1607170575.5359,147.0
1607170575.5379,147.0
1607170575.5398,147.0
1607170575.5419,147.0
1607170575.5439,147.0
1607170575.5458,147.0
1607170575.5478,147.0
1607170575.5498,147.0
1607170575.5518,149.0
1607170575.5538,149.0
1607170575.5558,147.0
1607170575.5579,144.0
1607170575.5586,144.0
1607170575.5609,144.0
1607170575.5628,144.0
1607170575.5649,147.0
1607170575.5668,147.0
1607170575.5688,147.0
1607170575.5708,147.0
1607170575.5728,152.0
1607170575.5749,152.0
1607170575.5769,147.0
1607170575.5789,147.0
1607170575.5808,152.0
1607170575.5828,152.0
1607170575.5848,152.0
1607170575.5869,152.0
1607170575.5876,149.0
1607170575.5898,152.0
1607170575.5919,154.0
1607170575.5938,154.0
1607170575.5959,154.0
1607170575.5978,156.0
1607170575.998,154.0
1607170575.9988,154.0
1607170576.0016,156.0
1607170576.0039,156.0
1607170576.0058,154.0
1607170576.0081,154.0
1607170576.0099,154.0
1607170576.0118,149.0
1607170576.0125,142.0
1607170576.0148,139.0
1607170576.0167,142.0
1607170576.0188,139.0
1607170576.0209,135.0
1607170576.0228,149.0
1607170576.0248,171.0
1607170576.0269,183.0
1607170576.0289,183.0
1607170576.0308,180.0
1607170576.0328,171.0
1607170576.0348,149.0
1607170576.0368,132.0
1607170576.0388,137.0
1607170576.0408,144.0
1607170576.0428,142.0
1607170576.0511,139.0
1607170576.0528,139.0
1607170576.0547,130.0
1607170576.0567,118.0
1607170576.0588,161.0
1607170576.0608,417.0
1607170576.0628,1015.0
1607170576.0647,1638.0
1607170576.0667,1573.0
1607170576.0688,622.0
1607170576.0707,-429.0
1607170576.0727,-593.0
1607170576.0749,-108.0
1607170576.0768,82.0
1607170576.0788,26.0
1607170576.0795,94.0
1607170576.0817,139.0
1607170576.0837,110.0
1607170576.0858,123.0
1607170576.0878,149.0
1607170576.0897,147.0
1607170576.0918,152.0
1607170576.0938,168.0
1607170576.0957,173.0
1607170576.0978,178.0
1607170576.0997,193.0
1607170576.1018,205.0
1607170576.1038,212.0
1607170576.1057,219.0
1607170576.1078,234.0
1607170576.1098,248.0
1607170576.1104,265.0
1607170576.1129,282.0
1607170576.1148,306.0
1607170576.1168,342.0
1607170576.1188,376.0
1607170576.1208,402.0
1607170576.1227,436.0
1607170576.1249,477.0
1607170576.1268,521.0
1607170576.1288,564.0
1607170576.1307,591.0
1607170576.1327,593.0
1607170576.1347,593.0
1607170576.1367,579.0
1607170576.1388,497.0
1607170576.1408,369.0
1607170576.1416,243.0
1607170576.1438,135.0
1607170576.5685,50.0
1607170576.5695,-14.0
1607170576.5719,-65.0
1607170576.5746,-103.0
1607170576.5766,-127.0
1607170576.5785,-130.0
1607170576.5805,-127.0
1607170576.5824,-127.0
1607170576.5845,-125.0
1607170576.5864,-115.0
1607170576.5885,-91.0
1607170576.5904,-69.0
1607170576.5925,-57.0
1607170576.5932,-55.0
1607170576.5954,-62.0
1607170576.5975,-55.0
1607170576.5994,-28.0
1607170576.6014,-19.0
1607170576.6034,-24.0
1607170576.6054,-16.0
1607170576.6075,-7.0
1607170576.6095,-9.0
1607170576.6114,-9.0
1607170576.6134,14.0
1607170576.6154,33.0
1607170576.6175,24.0
1607170576.6194,14.0
1607170576.6214,14.0
1607170576.6234,16.0
1607170576.6242,24.0
1607170576.6265,33.0
1607170576.6285,41.0
1607170576.6304,43.0
1607170576.6324,45.0
1607170576.6346,36.0
1607170576.6364,21.0
1607170576.6384,21.0
1607170576.6404,33.0
1607170576.6425,26.0
1607170576.6444,26.0
1607170576.6464,57.0
1607170576.6485,69.0
1607170576.6504,48.0
1607170576.6524,33.0
1607170576.6544,38.0
1607170576.6552,55.0
1607170576.6574,72.0
1607170576.6595,57.0
1607170576.6614,43.0
1607170576.6634,60.0
1607170576.6654,72.0
1607170576.6674,60.0
1607170576.6695,62.0
1607170576.6714,84.0
1607170576.6734,82.0
1607170576.6755,72.0
1607170576.6775,77.0
1607170576.6794,82.0
1607170576.6814,77.0
1607170576.6834,72.0
1607170576.6854,77.0
1607170576.6862,86.0
1607170576.6884,84.0
1607170576.6904,77.0
1607170576.6925,79.0
1607170576.6944,82.0
1607170576.6964,77.0
1607170576.6984,74.0
1607170576.7004,79.0
1607170576.7024,84.0
1607170576.7044,84.0
1607170576.7065,89.0
1607170576.7085,89.0
1607170577.1076,84.0
1607170577.1083,84.0
1607170577.1108,86.0
1607170577.1134,89.0
1607170577.1154,98.0
1607170577.1174,94.0
1607170577.1194,82.0
1607170577.1214,84.0
1607170577.1234,91.0
1607170577.1254,86.0
1607170577.1275,79.0
1607170577.1294,84.0
1607170577.1316,96.0
1607170577.1334,98.0
1607170577.1353,96.0
1607170577.1374,98.0
1607170577.1393,101.0
1607170577.1414,101.0
1607170577.1434,101.0
1607170577.1453,101.0
1607170577.1474,101.0
1607170577.1494,103.0
1607170577.1514,106.0
1607170577.1533,106.0
1607170577.1553,106.0
1607170577.1574,106.0
1607170577.1594,106.0
1607170577.1613,106.0
1607170577.1633,106.0
1607170577.1653,103.0
1607170577.1674,98.0
1607170577.1693,101.0
1607170577.1713,106.0
1607170577.1733,108.0
1607170577.1754,103.0
1607170577.1774,103.0
1607170577.1793,108.0
1607170577.1813,108.0
1607170577.1833,108.0
1607170577.1853,110.0
1607170577.1874,113.0
1607170577.1893,110.0
1607170577.1914,110.0
1607170577.1934,113.0
1607170577.1955,115.0
1607170577.1974,108.0
1607170577.1994,103.0
1607170577.2014,118.0
1607170577.2034,139.0
1607170577.2054,149.0
1607170577.2075,149.0
1607170577.2094,147.0
1607170577.2114,142.0
1607170577.2134,120.0
1607170577.2155,103.0
1607170577.2174,108.0
1607170577.2194,115.0
1607170577.2214,108.0
1607170577.2234,106.0
1607170577.2254,108.0
1607170577.2275,103.0
1607170577.2295,89.0
1607170577.2314,115.0
1607170577.2336,304.0
1607170577.2354,822.0
1607170577.2374,1479.0
1607170577.2394,1549.0
1607170577.2414,714.0
1607170577.2435,-337.0
1607170577.2454,-649.0
1607170577.2474,-248.0
1607170577.2493,19.0
1607170577.2513,4.0
1607170577.7079,55.0
1607170577.7088,113.0
1607170577.7114,94.0
1607170577.7139,94.0
1607170577.7159,110.0
1607170577.718,115.0
1607170577.7202,123.0
1607170577.7219,135.0
1607170577.7241,142.0
1607170577.7259,156.0
1607170577.728,166.0
1607170577.7299,171.0
1607170577.7319,185.0
1607170577.7339,207.0
1607170577.7359,214.0
1607170577.7379,224.0
1607170577.7399,248.0
1607170577.7419,267.0
1607170577.7439,287.0
1607170577.7459,313.0
1607170577.7479,342.0
1607170577.7499,376.0
1607170577.7518,407.0
1607170577.7539,446.0
1607170577.7559,492.0
1607170577.7579,533.0
1607170577.7599,564.0
1607170577.7618,588.0
1607170577.7638,591.0
1607170577.7658,557.0
1607170577.768,487.0
1607170577.7698,383.0
1607170577.7718,260.0
1607170577.7739,142.0
1607170577.7759,41.0
1607170577.7779,-36.0
1607170577.7798,-84.0
1607170577.7818,-113.0
1607170577.7838,-132.0
1607170577.7858,-139.0
1607170577.7879,-135.0
1607170577.79,-130.0
1607170577.7919,-123.0
1607170577.7939,-113.0
1607170577.7958,-98.0
1607170577.7979,-86.0
1607170577.7998,-74.0
1607170577.8018,-67.0
1607170577.8038,-60.0
1607170577.8058,-50.0
1607170577.8079,-36.0
1607170577.8099,-26.0
1607170577.8118,-19.0
1607170577.8138,-12.0
1607170577.8158,-7.0
1607170577.8179,2.0
1607170577.8198,9.0
1607170577.8218,9.0
1607170577.8239,7.0
1607170577.8259,9.0
1607170577.8279,12.0
1607170577.8298,12.0
1607170577.8318,12.0
1607170577.8338,16.0
1607170577.8358,19.0
1607170577.8379,16.0
1607170577.8398,12.0
1607170577.8419,16.0
1607170577.8438,24.0
1607170577.8458,24.0
1607170577.8478,21.0
1607170577.8498,26.0
1607170577.8518,33.0
1607170578.2777,38.0
1607170578.2786,36.0
1607170578.2811,38.0
1607170578.2838,43.0
1607170578.2857,41.0
1607170578.2878,38.0
1607170578.2899,45.0
1607170578.2918,48.0
1607170578.2938,38.0
1607170578.2957,33.0
1607170578.2978,41.0
1607170578.2997,45.0
1607170578.3017,43.0
1607170578.3037,41.0
1607170578.3057,38.0
1607170578.3078,38.0
1607170578.3098,38.0
1607170578.3117,36.0
1607170578.3137,38.0
1607170578.3159,38.0
1607170578.3177,38.0
1607170578.3197,38.0
1607170578.3217,45.0
1607170578.3238,50.0
1607170578.3257,50.0
1607170578.3277,48.0
1607170578.3296,50.0
1607170578.3316,53.0
1607170578.3336,53.0
1607170578.3356,53.0
1607170578.3378,53.0
1607170578.3396,60.0
1607170578.3417,62.0
1607170578.3437,57.0
1607170578.3456,60.0
1607170578.3477,74.0
1607170578.3496,74.0
1607170578.3516,62.0
1607170578.3536,65.0
1607170578.3556,74.0
1607170578.3577,74.0
1607170578.3597,67.0
1607170578.3616,72.0
1607170578.3636,82.0
1607170578.3656,82.0
1607170578.3676,79.0
1607170578.3696,79.0
1607170578.3716,82.0
1607170578.3736,82.0
1607170578.3757,82.0
1607170578.3777,84.0
1607170578.3796,82.0
1607170578.3816,79.0
1607170578.3836,94.0
1607170578.3856,113.0
1607170578.3876,123.0
1607170578.3896,123.0
1607170578.3917,113.0
1607170578.3937,101.0
1607170578.3956,82.0
1607170578.3977,72.0
1607170578.3996,79.0
1607170578.4016,89.0
1607170578.4036,86.0
1607170578.4062,82.0
1607170578.4077,82.0
1607170578.4097,82.0
1607170578.4116,82.0
1607170578.4136,135.0
1607170578.4156,410.0
1607170578.4178,1052.0
1607170578.4197,1652.0
1607170578.4217,1435.0
1607170578.8186,381.0
1607170578.8195,-562.0
1607170578.8207,-627.0
1607170578.8226,-212.0
1607170578.8246,-50.0
1607170578.8266,-33.0
1607170578.8286,67.0
1607170578.8306,91.0
1607170578.8325,65.0
1607170578.8345,86.0
1607170578.8365,96.0
1607170578.8385,91.0
1607170578.8406,108.0
1607170578.8426,120.0
1607170578.8445,123.0
1607170578.8465,137.0
1607170578.8485,152.0
1607170578.8505,161.0
1607170578.8525,176.0
1607170578.8545,190.0
1607170578.8565,202.0
1607170578.8585,219.0
1607170578.8606,241.0
1607170578.8625,263.0
1607170578.8645,287.0
1607170578.8665,320.0
1607170578.8685,359.0
1607170578.8705,398.0
1607170578.8725,446.0
1607170578.8745,497.0
1607170578.8765,545.0
1607170578.8785,588.0
1607170578.8805,627.0
1607170578.8825,644.0
1607170578.8845,632.0
1607170578.8865,574.0
1607170578.8885,463.0
1607170578.8905,313.0
1607170578.8926,168.0
1607170578.8945,48.0
1607170578.8965,-41.0
1607170578.8985,-110.0
1607170578.9004,-159.0
1607170578.9025,-183.0
1607170578.9045,-193.0
1607170578.9065,-195.0
1607170578.9086,-188.0
1607170578.9105,-176.0
1607170578.9126,-168.0
1607170578.9145,-161.0
1607170578.9165,-142.0
1607170578.9185,-123.0
1607170578.9206,-115.0
1607170578.9225,-108.0
1607170578.9245,-94.0
1607170578.9265,-82.0
1607170578.9285,-69.0
1607170578.9304,-60.0
1607170578.9325,-50.0
1607170578.9345,-43.0
1607170578.9365,-45.0
1607170578.9385,-41.0
1607170578.9407,-28.0
1607170578.9426,-26.0
1607170578.9445,-28.0
1607170578.9465,-19.0
1607170578.9485,-12.0
1607170578.9505,-19.0
1607170578.9525,-21.0
1607170578.9545,-19.0
1607170578.9565,-19.0
1607170578.9585,-19.0
1607170578.9605,-24.0
1607170579.3883,-31.0
1607170579.3892,-26.0
1607170579.3918,-16.0
1607170579.3944,-19.0
1607170579.3963,-19.0
1607170579.3984,-9.0
1607170579.4005,-12.0
1607170579.4023,-21.0
1607170579.4043,-21.0
1607170579.4063,-12.0
1607170579.4083,-9.0
1607170579.4103,-12.0
1607170579.4123,-7.0
1607170579.4142,2.0
1607170579.4162,7.0
1607170579.4183,7.0
1607170579.4202,4.0
1607170579.4222,12.0
1607170579.4243,16.0
1607170579.4263,12.0
1607170579.4283,14.0
1607170579.4302,26.0
1607170579.4322,28.0
1607170579.4342,21.0
1607170579.4362,26.0
1607170579.4382,31.0
1607170579.4404,33.0
1607170579.4423,43.0
1607170579.4443,43.0
1607170579.4462,36.0
1607170579.4482,38.0
1607170579.4502,41.0
1607170579.4522,41.0
1607170579.4542,43.0
1607170579.4562,41.0
1607170579.4583,36.0
1607170579.4603,48.0
1607170579.4622,72.0
1607170579.4642,86.0
1607170579.4662,86.0
1607170579.4682,82.0
1607170579.4702,72.0
1607170579.4722,53.0
1607170579.4742,38.0
1607170579.4763,48.0
1607170579.4782,53.0
1607170579.4802,50.0
1607170579.4822,55.0
1607170579.4843,55.0
1607170579.4862,45.0
1607170579.4883,36.0
1607170579.4903,62.0
1607170579.4923,248.0
1607170579.4942,793.0
1607170579.4962,1517.0
1607170579.4982,1664.0
1607170579.5002,837.0
1607170579.5022,-328.0
1607170579.5043,-764.0
1607170579.5063,-361.0
1607170579.5083,-57.0
1607170579.5103,-72.0
1607170579.5122,-2.0
1607170579.5142,65.0
1607170579.5162,33.0
1607170579.5182,36.0
1607170579.5202,65.0
1607170579.5222,57.0
1607170579.5242,62.0
1607170579.5263,82.0
1607170579.5282,89.0
1607170579.5302,96.0
1607170579.5322,110.0
1607170579.9281,123.0
1607170579.9288,132.0
1607170579.9312,149.0
1607170579.9338,168.0
1607170579.936,178.0
1607170579.9379,197.0
1607170579.9399,229.0
1607170579.9419,255.0
1607170579.9438,270.0
1607170579.9459,291.0
1607170579.9478,337.0
1607170579.9498,390.0
1607170579.9518,436.0
1607170579.9539,487.0
1607170579.9558,542.0
1607170579.9579,581.0
1607170579.9598,591.0
1607170579.9618,569.0
1607170579.9639,521.0
1607170579.9658,422.0
1607170579.9678,279.0
1607170579.9698,137.0
1607170579.9718,16.0
1607170579.9739,-77.0
1607170579.9759,-135.0
1607170579.9778,-168.0
1607170579.9798,-188.0
1607170579.9818,-200.0
1607170579.9838,-202.0
1607170579.9858,-195.0
1607170579.9879,-183.0
1607170579.9898,-173.0
1607170579.992,-166.0
1607170579.9938,-154.0
1607170579.9958,-142.0
1607170579.9978,-132.0
1607170579.9998,-120.0
1607170580.0018,-106.0
1607170580.0039,-94.0
1607170580.0058,-82.0
1607170580.0079,-69.0
1607170580.0099,-57.0
1607170580.0118,-50.0
1607170580.0138,-43.0
1607170580.0159,-36.0
1607170580.0178,-28.0
1607170580.0198,-24.0
1607170580.0218,-26.0
1607170580.0239,-26.0
1607170580.0258,-21.0
1607170580.0278,-16.0
1607170580.0299,-19.0
1607170580.0318,-21.0
1607170580.0338,-24.0
1607170580.0358,-26.0
1607170580.038,-24.0
1607170580.0398,-16.0
1607170580.0419,-19.0
1607170580.0438,-26.0
1607170580.0458,-24.0
1607170580.0478,-16.0
1607170580.0498,-14.0
1607170580.0518,-14.0
1607170580.0538,-7.0
1607170580.0558,-4.0
1607170580.0578,-7.0
1607170580.0599,-4.0
1607170580.0618,2.0
1607170580.0638,7.0
1607170580.0658,9.0
1607170580.0678,14.0
1607170580.0698,14.0
1607170580.0718,19.0
1607170580.4978,21.0
1607170580.4987,21.0
1607170580.5012,24.0
1607170580.5039,26.0
1607170580.5058,26.0
1607170580.5078,24.0
1607170580.51,21.0
1607170580.5118,21.0
1607170580.5138,16.0
1607170580.5158,19.0
1607170580.5178,43.0
1607170580.5197,67.0
1607170580.5218,72.0
1607170580.5237,65.0
1607170580.5258,57.0
1607170580.5278,43.0
1607170580.5297,24.0
1607170580.5317,21.0
1607170580.5337,33.0
1607170580.5357,38.0
1607170580.5377,38.0
1607170580.5397,38.0
1607170580.5418,36.0
1607170580.5437,24.0
1607170580.5457,16.0
1607170580.5478,96.0
1607170580.5497,463.0
1607170580.5517,1179.0
1607170580.5537,1722.0
1607170580.5557,1372.0
1607170580.5578,214.0
1607170580.5598,-704.0
1607170580.5617,-600.0
1607170580.5639,-125.0
1607170580.5657,-43.0
1607170580.5677,-57.0
1607170580.5697,43.0
1607170580.5717,53.0
1607170580.5737,28.0
1607170580.5758,60.0
1607170580.5777,79.0
1607170580.5797,74.0
1607170580.5817,89.0
1607170580.5837,103.0
1607170580.5857,108.0
1607170580.5877,113.0
1607170580.5897,125.0
1607170580.5918,139.0
1607170580.5938,149.0
1607170580.5957,164.0
1607170580.5977,176.0
1607170580.5997,188.0
1607170580.6017,205.0
1607170580.6037,231.0
1607170580.6057,260.0
1607170580.6078,291.0
1607170580.6098,328.0
1607170580.6117,371.0
1607170580.6137,417.0
1607170580.6157,463.0
1607170580.6178,509.0
1607170580.6197,547.0
1607170580.6217,574.0
1607170580.6238,569.0
1607170580.6258,526.0
1607170580.6278,434.0
1607170580.6297,308.0
1607170580.6317,176.0
1607170580.6337,55.0
1607170580.6357,-36.0
1607170580.6377,-103.0
1607170580.6397,-149.0
1607170580.6418,-171.0
1607170581.0983,-178.0
1607170581.0992,-178.0
1607170581.1017,-173.0
1607170581.1043,-171.0
1607170581.1063,-164.0
1607170581.1082,-152.0
1607170581.1104,-147.0
1607170581.1122,-144.0
1607170581.1142,-135.0
1607170581.1162,-118.0
1607170581.1182,-108.0
1607170581.1204,-101.0
1607170581.1223,-86.0
1607170581.1242,-77.0
1607170581.1262,-69.0
1607170581.1281,-60.0
1607170581.1301,-50.0
1607170581.1322,-45.0
1607170581.1342,-41.0
1607170581.1362,-38.0
1607170581.1382,-38.0
1607170581.1401,-36.0
1607170581.1422,-33.0
1607170581.1442,-33.0
1607170581.1462,-31.0
1607170581.1483,-33.0
1607170581.1502,-38.0
1607170581.1523,-41.0
1607170581.1541,-38.0
1607170581.1562,-33.0
1607170581.1582,-36.0
1607170581.1601,-31.0
1607170581.1622,-26.0
1607170581.1642,-26.0
1607170581.1661,-26.0
1607170581.1681,-21.0
1607170581.1702,-24.0
1607170581.1721,-21.0
1607170581.1742,-21.0
1607170581.1761,-19.0
1607170581.1782,-14.0
1607170581.1801,-12.0
1607170581.1822,-12.0
1607170581.1842,-12.0
1607170581.1862,-12.0
1607170581.1882,-12.0
1607170581.1901,-9.0
1607170581.1922,-4.0
1607170581.1942,0.0
1607170581.1962,4.0
1607170581.1982,7.0
1607170581.2001,7.0
1607170581.2021,12.0
1607170581.2042,14.0
1607170581.2062,16.0
1607170581.2082,19.0
1607170581.2102,24.0
1607170581.2121,24.0
1607170581.2141,26.0
1607170581.2162,28.0
1607170581.2182,33.0
1607170581.2201,33.0
1607170581.2223,36.0
1607170581.2243,36.0
1607170581.2261,38.0
1607170581.2282,41.0
1607170581.2301,45.0
1607170581.2321,48.0
1607170581.2341,45.0
1607170581.2361,36.0
1607170581.2382,28.0
1607170581.2402,41.0
1607170581.2422,62.0
1607170581.6381,82.0
1607170581.639,94.0
1607170581.6415,89.0
1607170581.6441,72.0
1607170581.6461,55.0
1607170581.648,45.0
1607170581.6501,50.0
1607170581.6521,57.0
1607170581.654,53.0
1607170581.656,53.0
1607170581.658,57.0
1607170581.66,50.0
1607170581.6619,28.0
1607170581.664,9.0
1607170581.666,53.0
1607170581.6679,320.0
1607170581.6699,962.0
1607170581.6719,1652.0
1607170581.674,1638.0
1607170581.6759,649.0
1607170581.678,-513.0
1607170581.6799,-719.0
1607170581.682,-193.0
1607170581.6839,2.0
1607170581.6859,-77.0
1607170581.688,4.0
1607170581.6899,60.0
1607170581.6919,19.0
1607170581.6939,33.0
1607170581.6959,69.0
1607170581.698,65.0
1607170581.7,67.0
1607170581.7019,84.0
1607170581.7039,94.0
1607170581.7059,103.0
1607170581.7079,113.0
1607170581.7099,118.0
1607170581.7119,130.0
1607170581.7139,142.0
1607170581.7159,154.0
1607170581.7182,171.0
1607170581.7201,193.0
1607170581.722,212.0
1607170581.7239,231.0
1607170581.7246,260.0
1607170581.7259,296.0
1607170581.728,335.0
1607170581.73,376.0
1607170581.7319,422.0
1607170581.7339,465.0
1607170581.7359,504.0
1607170581.7379,530.0
1607170581.74,542.0
1607170581.7419,526.0
1607170581.7439,463.0
1607170581.746,359.0
1607170581.748,234.0
1607170581.75,113.0
1607170581.752,7.0
1607170581.7539,-74.0
1607170581.7547,-132.0
1607170581.7559,-166.0
1607170581.7579,-180.0
1607170581.7601,-188.0
1607170581.762,-183.0
1607170581.7639,-176.0
1607170581.7659,-166.0
1607170581.768,-156.0
1607170581.77,-142.0
1607170581.7719,-130.0
1607170581.7739,-118.0
1607170581.7759,-108.0
1607170581.778,-96.0
1607170582.1777,-89.0
1607170582.1786,-84.0
1607170582.1811,-77.0
1607170582.1837,-67.0
1607170582.1856,-60.0
1607170582.1876,-55.0
1607170582.1897,-50.0
1607170582.1916,-45.0
1607170582.1936,-48.0
1607170582.1956,-53.0
1607170582.1976,-50.0
1607170582.1995,-43.0
1607170582.2015,-43.0
1607170582.2035,-43.0
1607170582.2055,-38.0
1607170582.2076,-33.0
1607170582.2082,-33.0
1607170582.2106,-33.0
1607170582.2128,-33.0
1607170582.2146,-33.0
1607170582.2165,-31.0
1607170582.2185,-28.0
1607170582.2205,-26.0
1607170582.2225,-21.0
1607170582.2245,-21.0
1607170582.2266,-24.0
1607170582.2286,-21.0
1607170582.2305,-14.0
1607170582.2325,-16.0
1607170582.2345,-19.0
1607170582.2365,-16.0
1607170582.2385,-14.0
1607170582.2392,-14.0
1607170582.2416,-14.0
1607170582.2435,-12.0
1607170582.2455,-7.0
1607170582.2475,-4.0
1607170582.2496,-4.0
1607170582.2515,0.0
1607170582.2535,4.0
1607170582.2555,2.0
1607170582.2575,4.0
1607170582.2595,9.0
1607170582.2615,9.0
1607170582.2636,12.0
1607170582.2655,14.0
1607170582.2675,19.0
1607170582.2695,21.0
1607170582.2702,21.0
1607170582.2725,21.0
1607170582.2745,21.0
1607170582.2765,21.0
1607170582.2786,24.0
1607170582.2805,28.0
1607170582.2825,31.0
1607170582.2845,31.0
1607170582.2865,31.0
1607170582.2885,36.0
1607170582.2905,41.0
1607170582.2925,41.0
1607170582.2945,41.0
1607170582.2965,43.0
1607170582.2985,45.0
1607170582.3005,48.0
1607170582.3012,50.0
1607170582.3025,53.0
1607170582.3045,53.0
1607170582.3065,53.0
1607170582.3085,55.0
1607170582.3107,57.0
1607170582.3126,60.0
1607170582.3145,60.0
1607170582.3165,62.0
1607170582.748,62.0
1607170582.749,65.0
1607170582.7514,65.0
1607170582.7541,67.0
1607170582.756,69.0
1607170582.758,67.0
1607170582.76,60.0
1607170582.7607,55.0
1607170582.763,57.0
1607170582.765,60.0
1607170582.7671,53.0
1607170582.769,55.0
1607170582.771,57.0
1607170582.7729,57.0
1607170582.7749,57.0
1607170582.7769,60.0
1607170582.7789,62.0
1607170582.7809,65.0
1607170582.7829,62.0
1607170582.7849,65.0
1607170582.7869,65.0
1607170582.7889,60.0
1607170582.791,55.0
1607170582.7916,57.0
1607170582.7939,60.0
1607170582.7959,60.0
1607170582.798,60.0
1607170582.7999,62.0
1607170582.802,65.0
1607170582.8039,62.0
1607170582.8059,62.0
1607170582.8079,67.0
1607170582.8099,67.0
1607170582.812,67.0
1607170582.8139,67.0
1607170582.8159,69.0
1607170582.8179,67.0
1607170582.8199,67.0
1607170582.8219,67.0
1607170582.8226,69.0
1607170582.8249,69.0
1607170582.8269,67.0
1607170582.829,65.0
1607170582.8309,67.0
1607170582.833,67.0
1607170582.835,65.0
1607170582.8369,67.0
1607170582.8391,65.0
1607170582.841,60.0
1607170582.8429,57.0
1607170582.8449,60.0
1607170582.8469,74.0
1607170582.8489,94.0
1607170582.8509,106.0
1607170582.8529,106.0
1607170582.8536,96.0
1607170582.8559,79.0
1607170582.8579,60.0
1607170582.8599,55.0
1607170582.8619,65.0
1607170582.8639,62.0
1607170582.8659,60.0
1607170582.868,65.0
1607170582.8699,65.0
1607170582.8719,55.0
1607170582.8739,36.0
1607170582.8759,38.0
1607170582.878,161.0
1607170582.8799,598.0
1607170582.8819,1305.0
1607170582.8826,1693.0
1607170582.8849,1177.0
1607170582.8869,0.0
1607170583.2882,-721.0
1607170583.2891,-429.0
1607170583.2915,-16.0
1607170583.2942,-41.0
1607170583.2962,-50.0
1607170583.2982,43.0
1607170583.3002,33.0
1607170583.3021,4.0
1607170583.3041,33.0
1607170583.3061,45.0
1607170583.3081,43.0
1607170583.3088,55.0
1607170583.3111,67.0
1607170583.3131,72.0
1607170583.315,77.0
1607170583.3171,89.0
1607170583.3191,96.0
1607170583.321,103.0
1607170583.323,118.0
1607170583.3251,135.0
1607170583.3272,152.0
1607170583.3291,171.0
1607170583.3311,193.0
1607170583.333,217.0
1607170583.335,241.0
1607170583.3373,270.0
1607170583.3392,304.0
1607170583.3398,345.0
1607170583.3421,388.0
1607170583.3441,427.0
1607170583.346,463.0
1607170583.3481,492.0
1607170583.3504,499.0
1607170583.3521,484.0
1607170583.354,446.0
1607170583.356,369.0
1607170583.358,265.0
1607170583.3601,152.0
1607170583.3621,41.0
1607170583.364,-48.0
1607170583.366,-108.0
1607170583.3681,-147.0
1607170583.3701,-173.0
1607170583.3721,-183.0
1607170583.3741,-183.0
1607170583.376,-173.0
1607170583.3781,-161.0
1607170583.38,-152.0
1607170583.382,-135.0
1607170583.384,-123.0
1607170583.386,-115.0
1607170583.388,-106.0
1607170583.39,-94.0
1607170583.392,-84.0
1607170583.394,-77.0
1607170583.396,-69.0
1607170583.398,-65.0
1607170583.4,-53.0
1607170583.402,-45.0
1607170583.404,-45.0
1607170583.406,-41.0
1607170583.408,-33.0
1607170583.4101,-31.0
1607170583.412,-33.0
1607170583.414,-33.0
1607170583.416,-38.0
1607170583.4181,-38.0
1607170583.42,-36.0
1607170583.422,-31.0
1607170583.424,-26.0
1607170583.426,-19.0
1607170583.4281,-21.0
1607170583.4301,-21.0
1607170583.8579,-16.0
1607170583.8585,-14.0
1607170583.8609,-14.0
1607170583.8638,-12.0
1607170583.8656,-14.0
1607170583.8677,-24.0
1607170583.8696,-28.0
1607170583.8716,-24.0
1607170583.8736,-14.0
1607170583.8756,-12.0
1607170583.8776,-9.0
1607170583.8796,-4.0
1607170583.8816,-4.0
1607170583.8836,-4.0
1607170583.8856,4.0
1607170583.8875,7.0
1607170583.8895,4.0
1607170583.8915,12.0
1607170583.8935,19.0
1607170583.8956,14.0
1607170583.8976,14.0
1607170583.8995,24.0
1607170583.9015,28.0
1607170583.9035,26.0
1607170583.9055,21.0
1607170583.9075,21.0
1607170583.9095,24.0
1607170583.9115,28.0
1607170583.9135,31.0
1607170583.9156,33.0
1607170583.9176,33.0
1607170583.9195,33.0
1607170583.9215,38.0
1607170583.9235,41.0
1607170583.9255,36.0
1607170583.9276,38.0
1607170583.9296,45.0
1607170583.9315,50.0
1607170583.9335,48.0
1607170583.9356,45.0
1607170583.9375,50.0
1607170583.9395,55.0
1607170583.9415,53.0
1607170583.9435,45.0
1607170583.9455,48.0
1607170583.9476,53.0
1607170583.9495,53.0
1607170583.9515,55.0
1607170583.9535,57.0
1607170583.9555,60.0
1607170583.9575,57.0
1607170583.9595,57.0
1607170583.9615,60.0
1607170583.9635,60.0
1607170583.9657,57.0
1607170583.9676,50.0
1607170583.9695,50.0
1607170583.9715,55.0
1607170583.9735,60.0
1607170583.9756,57.0
1607170583.9776,50.0
1607170583.9795,48.0
1607170583.9815,50.0
1607170583.9835,48.0
1607170583.9855,48.0
1607170583.9875,45.0
1607170583.9895,43.0
1607170583.9915,43.0
1607170583.9935,53.0
1607170583.9955,53.0
1607170583.9976,48.0
1607170583.9995,45.0
1607170584.0015,43.0
1607170584.4583,41.0
1607170584.4594,41.0
1607170584.4613,43.0
1607170584.4632,45.0
1607170584.4652,48.0
1607170584.4672,43.0
1607170584.4692,33.0
1607170584.4712,36.0
1607170584.4732,43.0
1607170584.4753,43.0
1607170584.4772,36.0
1607170584.4792,36.0
1607170584.4812,45.0
1607170584.4832,50.0
1607170584.4852,41.0
1607170584.4872,28.0
1607170584.4891,38.0
1607170584.4911,67.0
1607170584.4931,82.0
1607170584.4951,84.0
1607170584.4971,84.0
1607170584.4991,72.0
1607170584.5012,48.0
1607170584.5031,43.0
1607170584.5051,48.0
1607170584.5072,50.0
1607170584.5091,50.0
1607170584.5111,48.0
1607170584.5131,53.0
1607170584.5151,53.0
1607170584.5172,41.0
1607170584.5191,26.0
1607170584.5213,50.0
1607170584.5231,236.0
1607170584.5251,776.0
1607170584.5272,1493.0
1607170584.529,1652.0
1607170584.5311,854.0
1607170584.5331,-304.0
1607170584.535,-745.0
1607170584.5372,-347.0
1607170584.5391,-50.0
1607170584.541,-79.0
1607170584.5431,-16.0
1607170584.545,50.0
1607170584.5472,19.0
1607170584.549,24.0
1607170584.5512,57.0
1607170584.553,53.0
1607170584.5551,53.0
1607170584.5571,77.0
1607170584.559,94.0
1607170584.561,96.0
1607170584.5631,103.0
1607170584.565,110.0
1607170584.5671,130.0
1607170584.569,149.0
1607170584.571,152.0
1607170584.573,161.0
1607170584.575,190.0
1607170584.5771,214.0
1607170584.579,234.0
1607170584.5811,258.0
1607170584.583,282.0
1607170584.585,306.0
1607170584.5871,345.0
1607170584.589,398.0
1607170584.591,443.0
1607170584.593,482.0
1607170584.595,518.0
1607170584.5971,552.0
1607170584.599,562.0
1607170584.601,542.0
1607170584.9982,487.0
1607170584.999,390.0
1607170585.0014,260.0
1607170585.0041,135.0
1607170585.0061,26.0
1607170585.0081,-69.0
1607170585.0102,-142.0
1607170585.0121,-178.0
1607170585.0141,-200.0
1607170585.0161,-212.0
1607170585.0183,-214.0
1607170585.02,-212.0
1607170585.022,-200.0
1607170585.024,-188.0
1607170585.026,-180.0
1607170585.0281,-166.0
1607170585.03,-149.0
1607170585.032,-139.0
1607170585.034,-132.0
1607170585.036,-120.0
1607170585.038,-103.0
1607170585.04,-91.0
1607170585.0428,-89.0
1607170585.044,-84.0
1607170585.046,-77.0
1607170585.0481,-72.0
1607170585.05,-72.0
1607170585.052,-69.0
1607170585.0541,-62.0
1607170585.056,-55.0
1607170585.058,-60.0
1607170585.06,-62.0
1607170585.062,-53.0
1607170585.064,-53.0
1607170585.066,-57.0
1607170585.068,-50.0
1607170585.07,-45.0
1607170585.072,-53.0
1607170585.074,-50.0
1607170585.076,-41.0
1607170585.078,-41.0
1607170585.08,-41.0
1607170585.082,-33.0
1607170585.084,-28.0
1607170585.086,-36.0
1607170585.088,-38.0
1607170585.09,-28.0
1607170585.092,-26.0
1607170585.094,-28.0
1607170585.096,-26.0
1607170585.098,-24.0
1607170585.1,-24.0
1607170585.102,-21.0
1607170585.1041,-19.0
1607170585.106,-19.0
1607170585.108,-21.0
1607170585.11,-21.0
1607170585.112,-21.0
1607170585.114,-21.0
1607170585.116,-14.0
1607170585.118,-7.0
1607170585.1202,-12.0
1607170585.122,-12.0
1607170585.124,-4.0
1607170585.1261,0.0
1607170585.1281,-2.0
1607170585.13,-2.0
1607170585.132,2.0
1607170585.134,4.0
1607170585.136,4.0
1607170585.138,7.0
1607170585.14,14.0
1607170585.142,14.0
1607170585.568,9.0
1607170585.5688,12.0
1607170585.5713,16.0
1607170585.5739,19.0
1607170585.5759,19.0
1607170585.578,19.0
1607170585.58,28.0
1607170585.5819,26.0
1607170585.5838,9.0
1607170585.5859,7.0
1607170585.5879,24.0
1607170585.5898,28.0
1607170585.5919,21.0
1607170585.5938,24.0
1607170585.5959,31.0
1607170585.5979,28.0
1607170585.5998,24.0
1607170585.6018,28.0
1607170585.6038,33.0
1607170585.6058,26.0
1607170585.6078,26.0
1607170585.6098,41.0
1607170585.6118,43.0
1607170585.6139,41.0
1607170585.6158,41.0
1607170585.6179,36.0
1607170585.6198,41.0
1607170585.6218,48.0
1607170585.6238,48.0
1607170585.6258,41.0
1607170585.6279,41.0
1607170585.6298,36.0
1607170585.6318,36.0
1607170585.6338,43.0
1607170585.6358,48.0
1607170585.6378,45.0
1607170585.6398,43.0
1607170585.6418,41.0
1607170585.6438,38.0
1607170585.646,45.0
1607170585.6479,60.0
1607170585.6498,74.0
1607170585.6518,86.0
1607170585.6538,84.0
1607170585.6558,69.0
1607170585.6578,53.0
1607170585.6598,43.0
1607170585.6618,43.0
1607170585.6638,45.0
1607170585.6658,45.0
1607170585.6678,43.0
1607170585.6698,38.0
1607170585.6718,38.0
1607170585.6738,31.0
1607170585.6758,21.0
1607170585.6778,79.0
1607170585.6798,376.0
1607170585.6818,1047.0
1607170585.6839,1669.0
1607170585.6858,1464.0
1607170585.6878,371.0
1607170585.6898,-634.0
1607170585.6918,-678.0
1607170585.6938,-209.0
1607170585.6958,-65.0
1607170585.6978,-84.0
1607170585.6998,7.0
1607170585.7018,31.0
1607170585.7038,2.0
1607170585.7058,31.0
1607170585.7078,57.0
1607170585.7098,48.0
1607170585.7118,57.0
1607170586.1077,79.0
1607170586.1086,86.0
1607170586.1111,96.0
1607170586.1137,110.0
1607170586.1157,115.0
1607170586.1177,123.0
1607170586.1197,135.0
1607170586.1217,156.0
1607170586.1237,171.0
1607170586.1257,178.0
1607170586.1277,197.0
1607170586.1297,226.0
1607170586.1317,253.0
1607170586.1336,277.0
1607170586.1356,313.0
1607170586.1376,361.0
1607170586.1396,415.0
1607170586.1418,460.0
1607170586.1437,499.0
1607170586.1456,535.0
1607170586.1476,557.0
1607170586.1496,554.0
1607170586.1516,523.0
1607170586.1536,443.0
1607170586.1556,325.0
1607170586.1576,195.0
1607170586.1596,69.0
1607170586.1616,-38.0
1607170586.1636,-118.0
1607170586.1656,-171.0
1607170586.1676,-207.0
1607170586.1696,-224.0
1607170586.1716,-229.0
1607170586.1736,-221.0
1607170586.1756,-209.0
1607170586.1776,-202.0
1607170586.1796,-190.0
1607170586.1816,-176.0
1607170586.1836,-159.0
1607170586.1855,-149.0
1607170586.1876,-149.0
1607170586.1896,-137.0
1607170586.1916,-113.0
1607170586.1936,-106.0
1607170586.1956,-108.0
1607170586.1976,-103.0
1607170586.1996,-96.0
1607170586.2016,-94.0
1607170586.2036,-86.0
1607170586.2056,-77.0
1607170586.2076,-74.0
1607170586.2095,-74.0
1607170586.2116,-72.0
1607170586.2135,-67.0
1607170586.2156,-65.0
1607170586.2176,-65.0
1607170586.2196,-65.0
1607170586.2216,-60.0
1607170586.2236,-57.0
1607170586.2256,-57.0
1607170586.2276,-60.0
1607170586.2296,-55.0
1607170586.2316,-48.0
1607170586.2336,-45.0
1607170586.2356,-45.0
1607170586.2376,-41.0
1607170586.2396,-36.0
1607170586.2416,-33.0
1607170586.2437,-31.0
1607170586.2456,-28.0
1607170586.2476,-26.0
1607170586.2495,-26.0
1607170586.2516,-24.0
1607170586.6477,-16.0
1607170586.6487,-12.0
1607170586.6511,-12.0
1607170586.6538,-9.0
1607170586.6557,-9.0
1607170586.6576,-9.0
1607170586.6597,-12.0
1607170586.6617,-12.0
1607170586.6636,-12.0
1607170586.6656,-9.0
1607170586.6676,-7.0
1607170586.6697,-9.0
1607170586.6716,-7.0
1607170586.6736,-4.0
1607170586.6756,-2.0
1607170586.6776,0.0
1607170586.6796,2.0
1607170586.6816,2.0
1607170586.6836,4.0
1607170586.6856,9.0
1607170586.6876,14.0
1607170586.6896,16.0
1607170586.6916,14.0
1607170586.6936,14.0
1607170586.6956,14.0
1607170586.6977,14.0
1607170586.6995,14.0
1607170586.7016,16.0
1607170586.7035,19.0
1607170586.7055,19.0
1607170586.7076,14.0
1607170586.7096,12.0
1607170586.7116,12.0
1607170586.7136,14.0
1607170586.7156,14.0
1607170586.7176,14.0
1607170586.7196,14.0
1607170586.7216,7.0
1607170586.7236,4.0
1607170586.7255,12.0
1607170586.7276,16.0
1607170586.7296,14.0
1607170586.7316,12.0
1607170586.7336,12.0
1607170586.7356,12.0
1607170586.7376,14.0
1607170586.7397,14.0
1607170586.7416,14.0
1607170586.7436,16.0
1607170586.7456,19.0
1607170586.7476,21.0
1607170586.7495,21.0
1607170586.7516,21.0
1607170586.7536,19.0
1607170586.7556,16.0
1607170586.7576,16.0
1607170586.7595,19.0
1607170586.7615,31.0
1607170586.7635,53.0
1607170586.7656,67.0
1607170586.7676,69.0
1607170586.7696,62.0
1607170586.7716,43.0
1607170586.7736,26.0
1607170586.7756,24.0
1607170586.7776,26.0
1607170586.7795,28.0
1607170586.7816,31.0
1607170586.7835,31.0
1607170586.7856,28.0
1607170586.7876,21.0
1607170586.7895,2.0
1607170586.7916,7.0
1607170587.2182,144.0
1607170587.2191,622.0
1607170587.2216,1368.0
1607170587.2242,1727.0
1607170587.2262,1119.0
1607170587.2282,-127.0
1607170587.2302,-817.0
1607170587.2321,-458.0
1607170587.2341,-53.0
1607170587.2361,-94.0
1607170587.2382,-86.0
1607170587.24,9.0
1607170587.242,-4.0
1607170587.2441,-19.0
1607170587.246,21.0
1607170587.2481,31.0
1607170587.2501,26.0
1607170587.252,43.0
1607170587.2541,57.0
1607170587.2561,62.0
1607170587.2581,72.0
1607170587.26,86.0
1607170587.2621,94.0
1607170587.264,108.0
1607170587.2662,123.0
1607170587.2681,135.0
1607170587.27,152.0
1607170587.272,173.0
1607170587.274,190.0
1607170587.276,212.0
1607170587.2781,236.0
1607170587.28,267.0
1607170587.282,306.0
1607170587.284,345.0
1607170587.286,383.0
1607170587.288,422.0
1607170587.2901,460.0
1607170587.292,489.0
1607170587.294,497.0
1607170587.296,480.0
1607170587.2981,434.0
1607170587.3,352.0
1607170587.302,236.0
1607170587.3041,118.0
1607170587.306,12.0
1607170587.3081,-72.0
1607170587.31,-137.0
1607170587.312,-178.0
1607170587.314,-200.0
1607170587.316,-207.0
1607170587.3181,-207.0
1607170587.32,-202.0
1607170587.322,-193.0
1607170587.324,-180.0
1607170587.326,-168.0
1607170587.3281,-159.0
1607170587.33,-144.0
1607170587.332,-135.0
1607170587.334,-127.0
1607170587.3361,-118.0
1607170587.3381,-108.0
1607170587.3401,-101.0
1607170587.3421,-94.0
1607170587.3441,-86.0
1607170587.3461,-79.0
1607170587.3481,-74.0
1607170587.35,-69.0
1607170587.352,-65.0
1607170587.3541,-60.0
1607170587.356,-57.0
1607170587.3581,-55.0
1607170587.3601,-53.0
1607170587.362,-50.0
1607170587.8179,-48.0
1607170587.8187,-45.0
1607170587.8215,-45.0
1607170587.8239,-45.0
1607170587.8259,-48.0
1607170587.8278,-50.0
1607170587.8298,-50.0
1607170587.8318,-45.0
1607170587.8337,-43.0
1607170587.8358,-41.0
1607170587.8377,-38.0
1607170587.8397,-33.0
1607170587.8418,-31.0
1607170587.8438,-26.0
1607170587.8457,-24.0
1607170587.8477,-21.0
1607170587.8497,-21.0
1607170587.8517,-19.0
1607170587.8537,-14.0
1607170587.8557,-9.0
1607170587.8578,-7.0
1607170587.8598,-9.0
1607170587.8618,-9.0
1607170587.8638,-12.0
1607170587.8657,-7.0
1607170587.8677,-4.0
1607170587.8697,-7.0
1607170587.8718,-4.0
1607170587.8737,0.0
1607170587.8757,2.0
1607170587.8778,2.0
1607170587.8797,7.0
1607170587.8817,7.0
1607170587.8837,9.0
1607170587.8857,12.0
1607170587.8877,14.0
1607170587.8897,14.0
1607170587.8917,16.0
1607170587.8937,19.0
1607170587.8957,21.0
1607170587.8978,21.0
1607170587.8997,24.0
1607170587.9017,26.0
1607170587.9037,26.0
1607170587.9057,26.0
1607170587.9078,26.0
1607170587.9097,31.0
1607170587.9117,33.0
1607170587.9137,31.0
1607170587.9157,33.0
1607170587.9177,36.0
1607170587.9197,36.0
1607170587.9217,33.0
1607170587.9239,36.0
1607170587.9258,41.0
1607170587.9278,41.0
1607170587.9297,36.0
1607170587.9317,33.0
1607170587.9337,33.0
1607170587.9357,36.0
1607170587.9377,38.0
1607170587.9397,38.0
1607170587.9417,41.0
1607170587.9438,38.0
1607170587.9457,33.0
1607170587.9477,36.0
1607170587.9497,38.0
1607170587.9517,38.0
1607170587.9539,33.0
1607170587.9559,33.0
1607170587.9578,31.0
1607170587.9599,31.0
1607170587.9618,31.0
1607170588.3882,31.0
1607170588.3894,31.0
1607170588.3919,31.0
1607170588.3947,31.0
1607170588.3965,33.0
1607170588.3984,33.0
1607170588.4004,31.0
1607170588.4024,33.0
1607170588.4044,36.0
1607170588.4064,31.0
1607170588.4071,24.0
1607170588.4094,19.0
1607170588.4114,26.0
1607170588.4134,28.0
1607170588.4154,24.0
1607170588.4174,21.0
1607170588.4193,19.0
1607170588.4213,19.0
1607170588.4233,21.0
1607170588.4253,21.0
1607170588.4274,16.0
1607170588.4293,16.0
1607170588.4313,19.0
1607170588.4333,26.0
1607170588.4353,48.0
1607170588.4373,69.0
1607170588.438,72.0
1607170588.4394,67.0
1607170588.4413,57.0
1607170588.4433,38.0
1607170588.4453,26.0
1607170588.4477,28.0
1607170588.4494,33.0
1607170588.4514,33.0
1607170588.4533,33.0
1607170588.4553,38.0
1607170588.4573,33.0
1607170588.4593,16.0
1607170588.4613,9.0
1607170588.4633,89.0
1607170588.4653,431.0
1607170588.4674,1105.0
1607170588.468,1640.0
1607170588.4703,1360.0
1607170588.4724,258.0
1607170588.4743,-675.0
1607170588.4763,-591.0
1607170588.4784,-106.0
1607170588.4803,-41.0
1607170588.4823,-96.0
1607170588.4843,-7.0
1607170588.4863,16.0
1607170588.4884,-12.0
1607170588.4903,16.0
1607170588.4924,41.0
1607170588.4943,38.0
1607170588.4963,45.0
1607170588.4983,60.0
1607170588.499,69.0
1607170588.5003,82.0
1607170588.5023,94.0
1607170588.5043,101.0
1607170588.5063,110.0
1607170588.5084,125.0
1607170588.5103,137.0
1607170588.5124,154.0
1607170588.5143,173.0
1607170588.5163,193.0
1607170588.5184,212.0
1607170588.5203,236.0
1607170588.5223,267.0
1607170588.5243,299.0
1607170588.5263,335.0
1607170588.9282,374.0
1607170588.9295,415.0
1607170588.9318,453.0
1607170588.9345,484.0
1607170588.9365,501.0
1607170588.9384,501.0
1607170588.9404,472.0
1607170588.9424,405.0
1607170588.9443,301.0
1607170588.9466,183.0
1607170588.9484,67.0
1607170588.9503,-33.0
1607170588.9523,-113.0
1607170588.9544,-161.0
1607170588.9564,-188.0
1607170588.9571,-205.0
1607170588.9593,-209.0
1607170588.9613,-202.0
1607170588.9633,-197.0
1607170588.9653,-188.0
1607170588.9673,-173.0
1607170588.9693,-159.0
1607170588.9713,-149.0
1607170588.9733,-139.0
1607170588.9753,-127.0
1607170588.9773,-118.0
1607170588.9793,-108.0
1607170588.9813,-101.0
1607170588.9833,-94.0
1607170588.9853,-86.0
1607170588.9873,-79.0
1607170588.988,-74.0
1607170588.9893,-67.0
1607170588.9913,-60.0
1607170588.9934,-57.0
1607170588.9954,-57.0
1607170588.9974,-55.0
1607170588.9996,-53.0
1607170589.0014,-50.0
1607170589.0034,-50.0
1607170589.0054,-50.0
1607170589.0074,-48.0
1607170589.0093,-48.0
1607170589.0114,-48.0
1607170589.0133,-43.0
1607170589.0153,-38.0
1607170589.016,-41.0
1607170589.0173,-38.0
1607170589.0193,-33.0
1607170589.0213,-31.0
1607170589.0233,-28.0
1607170589.0254,-26.0
1607170589.0273,-24.0
1607170589.0293,-21.0
1607170589.0313,-21.0
1607170589.0333,-19.0
1607170589.0353,-14.0
1607170589.0373,-12.0
1607170589.0393,-12.0
1607170589.0413,-9.0
1607170589.0435,-7.0
1607170589.0453,-4.0
1607170589.046,-2.0
1607170589.0473,0.0
1607170589.0493,2.0
1607170589.0513,4.0
1607170589.0533,4.0
1607170589.0553,4.0
1607170589.0573,7.0
1607170589.0593,9.0
1607170589.0613,12.0
1607170589.0633,9.0
1607170589.0654,9.0
1607170589.468,9.0
1607170589.4689,7.0
1607170589.4714,7.0
1607170589.474,12.0
1607170589.4748,14.0
1607170589.477,12.0
1607170589.4789,14.0
1607170589.4809,16.0
1607170589.4829,12.0
1607170589.4849,7.0
1607170589.487,9.0
1607170589.4889,14.0
1607170589.4909,7.0
1607170589.493,9.0
1607170589.4949,16.0
1607170589.497,16.0
1607170589.499,14.0
1607170589.5009,14.0
1607170589.503,14.0
1607170589.5051,14.0
1607170589.5055,12.0
1607170589.507,14.0
1607170589.5089,14.0
1607170589.5109,14.0
1607170589.5128,14.0
1607170589.5149,16.0
1607170589.5169,21.0
1607170589.5188,21.0
1607170589.5209,21.0
1607170589.5229,21.0
1607170589.5249,21.0
1607170589.5269,19.0
1607170589.5289,21.0
1607170589.5308,21.0
1607170589.5328,24.0
1607170589.5349,26.0
1607170589.5355,26.0
1607170589.5371,28.0
1607170589.539,31.0
1607170589.5409,33.0
1607170589.5429,31.0
1607170589.5449,31.0
1607170589.5469,31.0
1607170589.5488,33.0
1607170589.5509,36.0
1607170589.5529,38.0
1607170589.5549,41.0
1607170589.5569,38.0
1607170589.5589,36.0
1607170589.5609,41.0
1607170589.5629,45.0
1607170589.5649,43.0
1607170589.5655,41.0
1607170589.567,43.0
1607170589.5688,45.0
1607170589.5709,45.0
1607170589.5728,48.0
1607170589.5749,48.0
1607170589.5769,43.0
1607170589.5789,41.0
1607170589.5808,43.0
1607170589.5829,50.0
1607170589.5849,50.0
1607170589.587,43.0
1607170589.5889,43.0
1607170589.5909,45.0
1607170589.5928,48.0
1607170589.5949,43.0
1607170589.5964,41.0
1607170589.598,43.0
1607170589.5999,43.0
1607170589.6018,41.0
1607170589.6038,41.0
1607170590.0381,43.0
1607170590.0389,43.0
1607170590.0414,41.0
1607170590.044,55.0
1607170590.046,77.0
1607170590.0481,82.0
1607170590.0501,72.0
1607170590.052,60.0
1607170590.054,45.0
1607170590.056,31.0
1607170590.0581,26.0
1607170590.06,36.0
1607170590.0621,43.0
1607170590.064,43.0
1607170590.066,38.0
1607170590.0681,41.0
1607170590.0702,38.0
1607170590.072,24.0
1607170590.074,53.0
1607170590.076,277.0
1607170590.078,849.0
1607170590.08,1508.0
1607170590.082,1544.0
1607170590.084,663.0
1607170590.086,-429.0
1607170590.088,-711.0
1607170590.0899,-267.0
1607170590.092,-31.0
1607170590.094,-79.0
1607170590.0959,-24.0
1607170590.098,28.0
1607170590.1,4.0
1607170590.1019,16.0
1607170590.1039,48.0
1607170590.1059,48.0
1607170590.1079,48.0
1607170590.1099,60.0
1607170590.1119,72.0
1607170590.1139,86.0
1607170590.1159,98.0
1607170590.118,106.0
1607170590.1199,108.0
1607170590.1219,123.0
1607170590.1239,142.0
1607170590.1259,154.0
1607170590.128,168.0
1607170590.1299,193.0
1607170590.1319,212.0
1607170590.1339,226.0
1607170590.136,253.0
1607170590.138,291.0
1607170590.1399,330.0
1607170590.1419,366.0
1607170590.1439,405.0
1607170590.1459,448.0
1607170590.148,489.0
1607170590.1499,511.0
1607170590.1519,516.0
1607170590.1539,501.0
1607170590.1559,458.0
1607170590.158,374.0
1607170590.16,263.0
1607170590.1619,142.0
1607170590.1639,26.0
1607170590.1659,-65.0
1607170590.168,-125.0
1607170590.1699,-161.0
1607170590.1721,-193.0
1607170590.174,-207.0
1607170590.1759,-205.0
1607170590.178,-200.0
1607170590.18,-188.0
1607170590.1819,-171.0
1607170590.5776,-161.0
1607170590.5784,-154.0
1607170590.581,-142.0
1607170590.5835,-132.0
1607170590.5855,-125.0
1607170590.5875,-115.0
1607170590.5896,-108.0
1607170590.5915,-106.0
1607170590.5935,-103.0
1607170590.5955,-96.0
1607170590.5975,-89.0
1607170590.5994,-84.0
1607170590.6015,-77.0
1607170590.6034,-72.0
1607170590.6054,-67.0
1607170590.6075,-67.0
1607170590.6094,-67.0
1607170590.6114,-65.0
1607170590.6135,-65.0
1607170590.6154,-65.0
1607170590.6174,-62.0
1607170590.6194,-62.0
1607170590.6215,-57.0
1607170590.6235,-53.0
1607170590.6254,-50.0
1607170590.6275,-48.0
1607170590.6294,-48.0
1607170590.6314,-50.0
1607170590.6334,-41.0
1607170590.6354,-33.0
1607170590.6375,-41.0
1607170590.6394,-45.0
1607170590.6414,-33.0
1607170590.6434,-26.0
1607170590.6454,-33.0
1607170590.6474,-38.0
1607170590.6494,-36.0
1607170590.6514,-31.0
1607170590.6534,-33.0
1607170590.6554,-33.0
1607170590.6574,-24.0
1607170590.6594,-19.0
1607170590.6614,-21.0
1607170590.6634,-21.0
1607170590.6654,-24.0
1607170590.6676,-21.0
1607170590.6695,-19.0
1607170590.6714,-19.0
1607170590.6734,-16.0
1607170590.6754,-16.0
1607170590.6775,-12.0
1607170590.6794,-2.0
1607170590.6814,-4.0
1607170590.6834,-14.0
1607170590.6854,-14.0
1607170590.6874,-7.0
1607170590.6894,-2.0
1607170590.6914,-2.0
1607170590.6934,-4.0
1607170590.6954,-2.0
1607170590.6975,7.0
1607170590.6994,7.0
1607170590.7014,2.0
1607170590.7034,4.0
1607170590.7054,9.0
1607170590.7074,12.0
1607170590.7094,12.0
1607170590.7114,16.0
1607170590.7134,19.0
1607170590.7154,14.0
1607170590.7174,12.0
1607170590.7194,21.0
1607170590.7214,28.0
1607170591.1777,24.0
1607170591.1787,19.0
1607170591.1811,21.0
1607170591.1838,24.0
1607170591.1857,21.0
1607170591.1877,16.0
1607170591.1898,14.0
1607170591.1917,19.0
1607170591.1937,21.0
1607170591.1957,16.0
1607170591.1977,19.0
1607170591.1997,26.0
1607170591.2017,21.0
1607170591.2037,21.0
1607170591.2057,28.0
1607170591.2077,31.0
1607170591.2097,28.0
1607170591.2117,26.0
1607170591.2137,31.0
1607170591.2157,41.0
1607170591.2177,38.0
1607170591.2196,31.0
1607170591.2216,33.0
1607170591.2238,38.0
1607170591.2257,38.0
1607170591.2277,36.0
1607170591.2296,36.0
1607170591.2316,33.0
1607170591.2336,31.0
1607170591.2356,33.0
1607170591.2376,36.0
1607170591.2396,36.0
1607170591.2416,48.0
1607170591.2436,67.0
1607170591.2456,77.0
1607170591.2477,77.0
1607170591.2496,67.0
1607170591.2516,48.0
1607170591.2536,31.0
1607170591.2556,28.0
1607170591.2576,36.0
1607170591.2596,38.0
1607170591.2616,36.0
1607170591.2636,38.0
1607170591.2656,38.0
1607170591.2677,28.0
1607170591.2696,9.0
1607170591.2716,26.0
1607170591.2736,219.0
1607170591.2756,776.0
1607170591.2777,1491.0
1607170591.2851,1616.0
1607170591.2867,786.0
1607170591.2886,-357.0
1607170591.2906,-769.0
1607170591.2926,-371.0
1607170591.2946,-77.0
1607170591.2966,-96.0
1607170591.2987,-36.0
1607170591.3006,31.0
1607170591.3026,7.0
1607170591.3046,14.0
1607170591.3066,45.0
1607170591.3086,43.0
1607170591.3106,45.0
1607170591.3126,65.0
1607170591.3146,74.0
1607170591.3166,77.0
1607170591.3186,91.0
1607170591.3206,101.0
1607170591.3226,106.0
1607170591.3246,118.0
1607170591.3266,139.0
1607170591.7477,154.0
1607170591.7491,166.0
1607170591.7513,183.0
1607170591.7539,205.0
1607170591.7558,229.0
1607170591.7578,255.0
1607170591.7599,289.0
1607170591.7618,332.0
1607170591.7638,371.0
1607170591.7658,405.0
1607170591.7678,443.0
1607170591.7698,487.0
1607170591.7718,516.0
1607170591.7738,523.0
1607170591.7758,511.0
1607170591.7778,460.0
1607170591.7797,369.0
1607170591.7817,248.0
1607170591.7837,123.0
1607170591.7858,12.0
1607170591.7877,-77.0
1607170591.7897,-142.0
1607170591.7917,-185.0
1607170591.7937,-207.0
1607170591.7957,-217.0
1607170591.7977,-219.0
1607170591.7997,-217.0
1607170591.8017,-209.0
1607170591.8037,-197.0
1607170591.8057,-188.0
1607170591.8077,-173.0
1607170591.8097,-159.0
1607170591.8118,-149.0
1607170591.8137,-139.0
1607170591.8157,-127.0
1607170591.8178,-115.0
1607170591.8197,-106.0
1607170591.8217,-101.0
1607170591.8237,-98.0
1607170591.8257,-91.0
1607170591.8277,-82.0
1607170591.8297,-77.0
1607170591.8317,-74.0
1607170591.8337,-69.0
1607170591.8357,-69.0
1607170591.8377,-67.0
1607170591.8397,-62.0
1607170591.8417,-60.0
1607170591.8437,-60.0
1607170591.8457,-60.0
1607170591.8478,-60.0
1607170591.8497,-55.0
1607170591.8518,-53.0
1607170591.8538,-50.0
1607170591.8557,-50.0
1607170591.8577,-48.0
1607170591.8597,-45.0
1607170591.8617,-43.0
1607170591.8637,-41.0
1607170591.8658,-41.0
1607170591.8678,-41.0
1607170591.8697,-36.0
1607170591.8717,-33.0
1607170591.8737,-31.0
1607170591.8757,-28.0
1607170591.8778,-26.0
1607170591.8797,-21.0
1607170591.8817,-21.0
1607170591.8837,-21.0
1607170591.8857,-21.0
1607170591.8877,-16.0
1607170591.8897,-14.0
1607170591.8917,-14.0
1607170592.288,-12.0
1607170592.2889,-14.0
1607170592.2914,-14.0
1607170592.294,-16.0
1607170592.296,-14.0
1607170592.2979,-9.0
1607170592.3,-9.0
1607170592.3019,-12.0
1607170592.3039,-9.0
1607170592.3059,-7.0
1607170592.3079,-14.0
1607170592.3099,-21.0
1607170592.3119,-16.0
1607170592.3139,-12.0
1607170592.3159,-12.0
1607170592.3179,-9.0
1607170592.3199,-4.0
1607170592.3219,-4.0
1607170592.3239,-4.0
1607170592.326,-4.0
1607170592.3279,0.0
1607170592.3299,2.0
1607170592.3319,2.0
1607170592.3339,2.0
1607170592.3359,4.0
1607170592.3379,7.0
1607170592.3399,9.0
1607170592.3419,9.0
1607170592.3439,12.0
1607170592.3458,12.0
1607170592.348,9.0
1607170592.3499,7.0
1607170592.3518,12.0
1607170592.3539,16.0
1607170592.3559,14.0
1607170592.3579,14.0
1607170592.3599,19.0
1607170592.3619,21.0
1607170592.3639,21.0
1607170592.3659,21.0
1607170592.3679,24.0
1607170592.3699,26.0
1607170592.3719,24.0
1607170592.3739,26.0
1607170592.3759,28.0
1607170592.3779,28.0
1607170592.3799,28.0
1607170592.3819,31.0
1607170592.3839,33.0
1607170592.3859,31.0
1607170592.3879,28.0
1607170592.3898,28.0
1607170592.3919,33.0
1607170592.3939,33.0
1607170592.3959,31.0
1607170592.3979,33.0
1607170592.3999,33.0
1607170592.4019,33.0
1607170592.4039,33.0
1607170592.4059,31.0
1607170592.4079,24.0
1607170592.4098,26.0
1607170592.4118,43.0
1607170592.4139,69.0
1607170592.4159,79.0
1607170592.4179,72.0
1607170592.4199,67.0
1607170592.4219,57.0
1607170592.4239,36.0
1607170592.4259,26.0
1607170592.4279,33.0
1607170592.4299,38.0
1607170592.4319,36.0
1607170592.8278,33.0
1607170592.8285,36.0
1607170592.831,31.0
1607170592.8335,12.0
1607170592.8355,31.0
1607170592.8375,214.0
1607170592.8396,745.0
1607170592.8415,1452.0
1607170592.8437,1633.0
1607170592.8456,863.0
1607170592.8476,-311.0
1607170592.8495,-781.0
1607170592.8515,-361.0
1607170592.8535,-45.0
1607170592.8555,-98.0
1607170592.8575,-65.0
1607170592.8595,9.0
1607170592.8615,-12.0
1607170592.8635,-12.0
1607170592.8656,24.0
1607170592.8675,28.0
1607170592.8695,28.0
1607170592.8715,41.0
1607170592.8735,45.0
1607170592.8755,50.0
1607170592.8776,65.0
1607170592.8795,77.0
1607170592.8815,86.0
1607170592.8835,98.0
1607170592.8855,113.0
1607170592.8875,127.0
1607170592.8895,142.0
1607170592.8915,164.0
1607170592.8935,185.0
1607170592.8955,209.0
1607170592.8975,234.0
1607170592.8995,263.0
1607170592.9015,299.0
1607170592.9035,337.0
1607170592.9055,378.0
1607170592.9076,422.0
1607170592.9095,456.0
1607170592.9115,482.0
1607170592.9135,497.0
1607170592.9155,487.0
1607170592.9175,443.0
1607170592.9195,366.0
1607170592.9215,258.0
1607170592.9236,139.0
1607170592.9255,31.0
1607170592.9275,-57.0
1607170592.9294,-125.0
1607170592.9315,-171.0
1607170592.9335,-193.0
1607170592.9355,-207.0
1607170592.9375,-209.0
1607170592.9395,-202.0
1607170592.9415,-193.0
1607170592.9435,-183.0
1607170592.9457,-173.0
1607170592.9475,-161.0
1607170592.9495,-149.0
1607170592.9515,-139.0
1607170592.9535,-130.0
1607170592.9555,-118.0
1607170592.9575,-110.0
1607170592.9595,-103.0
1607170592.9615,-96.0
1607170592.9635,-86.0
1607170592.9655,-79.0
1607170592.9676,-74.0
1607170592.9695,-69.0
1607170592.9715,-65.0
1607170593.4282,-65.0
1607170593.4293,-65.0
1607170593.4318,-60.0
1607170593.4344,-55.0
1607170593.4364,-60.0
1607170593.4384,-67.0
1607170593.4405,-67.0
1607170593.4424,-60.0
1607170593.4444,-57.0
1607170593.4464,-57.0
1607170593.4483,-55.0
1607170593.4503,-53.0
1607170593.4523,-50.0
1607170593.4544,-50.0
1607170593.4563,-50.0
1607170593.4583,-50.0
1607170593.4603,-50.0
1607170593.4623,-45.0
1607170593.4643,-41.0
1607170593.4663,-38.0
1607170593.4683,-36.0
1607170593.4703,-33.0
1607170593.4723,-28.0
1607170593.4743,-26.0
1607170593.4763,-26.0
1607170593.4783,-21.0
1607170593.4803,-16.0
1607170593.4823,-12.0
1607170593.4843,-14.0
1607170593.4863,-12.0
1607170593.4883,-9.0
1607170593.4902,-7.0
1607170593.4923,-4.0
1607170593.4943,-4.0
1607170593.4963,-2.0
1607170593.4983,0.0
1607170593.5003,0.0
1607170593.5024,2.0
1607170593.5044,7.0
1607170593.5063,7.0
1607170593.5083,7.0
1607170593.5104,7.0
1607170593.5123,12.0
1607170593.5143,14.0
1607170593.5162,14.0
1607170593.5183,16.0
1607170593.5202,16.0
1607170593.5223,16.0
1607170593.5243,14.0
1607170593.5263,16.0
1607170593.5283,16.0
1607170593.5302,16.0
1607170593.5323,16.0
1607170593.5343,16.0
1607170593.5363,14.0
1607170593.5383,14.0
1607170593.5402,12.0
1607170593.5423,14.0
1607170593.5443,16.0
1607170593.5463,14.0
1607170593.5483,14.0
1607170593.5503,16.0
1607170593.5523,19.0
1607170593.5543,19.0
1607170593.5563,16.0
1607170593.5583,14.0
1607170593.5603,16.0
1607170593.5623,19.0
1607170593.5644,19.0
1607170593.5663,21.0
1607170593.5683,24.0
1607170593.5703,21.0
1607170593.5723,21.0
1607170593.9377,24.0
1607170593.9384,26.0
1607170593.9409,24.0
1607170593.9435,26.0
1607170593.9455,28.0
1607170593.9475,28.0
1607170593.9495,28.0
1607170593.9515,26.0
1607170593.9535,24.0
1607170593.9555,21.0
1607170593.9574,16.0
1607170593.9594,14.0
1607170593.9614,19.0
1607170593.9634,24.0
1607170593.9654,21.0
1607170593.9676,21.0
1607170593.9695,24.0
1607170593.9714,24.0
1607170593.9735,24.0
1607170593.9755,28.0
1607170593.9775,31.0
1607170593.9794,33.0
1607170593.9814,28.0
1607170593.9834,26.0
1607170593.9854,28.0
1607170593.9875,33.0
1607170593.9894,31.0
1607170593.9914,31.0
1607170593.9934,33.0
1607170593.9954,33.0
1607170593.9975,33.0
1607170593.9995,36.0
1607170594.0014,41.0
1607170594.0034,41.0
1607170594.0055,38.0
1607170594.0074,38.0
1607170594.0094,41.0
1607170594.0114,41.0
1607170594.0134,38.0
1607170594.0154,38.0
1607170594.0175,36.0
1607170594.0194,38.0
1607170594.0214,55.0
1607170594.0234,72.0
1607170594.0255,79.0
1607170594.0275,74.0
1607170594.0294,69.0
1607170594.0314,67.0
1607170594.0334,50.0
1607170594.0354,31.0
1607170594.0374,31.0
1607170594.0395,38.0
1607170594.0414,36.0
1607170594.0434,33.0
1607170594.0454,36.0
1607170594.0474,24.0
1607170594.0494,9.0
1607170594.0514,65.0
1607170594.0534,352.0
1607170594.0554,984.0
1607170594.0574,1580.0
1607170594.0595,1438.0
1607170594.0614,436.0
1607170594.0634,-574.0
1607170594.0654,-665.0
1607170594.0675,-188.0
1607170594.0696,-38.0
1607170594.0715,-96.0
1607170594.0735,-21.0
1607170594.0754,19.0
1607170594.0775,-9.0
1607170594.0795,4.0
1607170594.0814,28.0
1607170594.5382,24.0
1607170594.5391,31.0
1607170594.5416,48.0
1607170594.5442,48.0
1607170594.5462,45.0
1607170594.5482,65.0
1607170594.5502,79.0
1607170594.5521,86.0
1607170594.5541,101.0
1607170594.5561,115.0
1607170594.5581,127.0
1607170594.5601,142.0
1607170594.5621,161.0
1607170594.5641,180.0
1607170594.5661,205.0
1607170594.5682,234.0
1607170594.5701,263.0
1607170594.5721,296.0
1607170594.5741,335.0
1607170594.5761,376.0
1607170594.5781,415.0
1607170594.58,451.0
1607170594.582,480.0
1607170594.584,489.0
1607170594.5861,472.0
1607170594.5881,429.0
1607170594.5901,352.0
1607170594.5921,241.0
1607170594.5941,123.0
1607170594.596,21.0
1607170594.5981,-67.0
1607170594.6001,-132.0
1607170594.602,-168.0
1607170594.604,-190.0
1607170594.606,-202.0
1607170594.6081,-202.0
1607170594.6101,-200.0
1607170594.6121,-195.0
1607170594.614,-180.0
1607170594.6161,-164.0
1607170594.6181,-154.0
1607170594.6201,-152.0
1607170594.6221,-142.0
1607170594.6241,-127.0
1607170594.6263,-115.0
1607170594.6281,-108.0
1607170594.6301,-106.0
1607170594.632,-98.0
1607170594.6342,-91.0
1607170594.6361,-84.0
1607170594.6368,-77.0
1607170594.6391,-72.0
1607170594.641,-65.0
1607170594.6431,-62.0
1607170594.6451,-67.0
1607170594.6471,-65.0
1607170594.6491,-55.0
1607170594.651,-55.0
1607170594.6531,-60.0
1607170594.6551,-53.0
1607170594.6571,-48.0
1607170594.6591,-53.0
1607170594.6611,-55.0
1607170594.663,-48.0
1607170594.665,-48.0
1607170594.6671,-53.0
1607170594.6678,-50.0
1607170594.6702,-45.0
1607170594.672,-53.0
1607170594.6741,-53.0
1607170594.676,-36.0
1607170594.6781,-28.0
1607170594.68,-36.0
1607170595.1081,-36.0
1607170595.109,-26.0
1607170595.1114,-26.0
1607170595.1141,-31.0
1607170595.1161,-28.0
1607170595.1181,-28.0
1607170595.12,-26.0
1607170595.1207,-21.0
1607170595.123,-28.0
1607170595.125,-38.0
1607170595.127,-33.0
1607170595.1289,-26.0
1607170595.1309,-33.0
1607170595.133,-36.0
1607170595.1349,-31.0
1607170595.137,-28.0
1607170595.1389,-26.0
1607170595.1409,-21.0
1607170595.1429,-16.0
1607170595.1449,-12.0
1607170595.147,-12.0
1607170595.1489,-19.0
1607170595.1511,-16.0
1607170595.1518,-7.0
1607170595.153,-7.0
1607170595.1549,-7.0
1607170595.157,-4.0
1607170595.1589,-2.0
1607170595.1609,-2.0
1607170595.163,0.0
1607170595.165,0.0
1607170595.1669,-2.0
1607170595.1689,2.0
1607170595.1709,12.0
1607170595.1729,12.0
1607170595.1749,7.0
1607170595.177,9.0
1607170595.179,12.0
1607170595.181,4.0
1607170595.1816,2.0
1607170595.1839,12.0
1607170595.186,14.0
1607170595.1879,12.0
1607170595.1899,12.0
1607170595.192,16.0
1607170595.194,19.0
1607170595.1959,16.0
1607170595.198,14.0
1607170595.1999,19.0
1607170595.2019,21.0
1607170595.2039,21.0
1607170595.206,26.0
1607170595.208,24.0
1607170595.2099,21.0
1607170595.2119,26.0
1607170595.2127,31.0
1607170595.2139,24.0
1607170595.2159,16.0
1607170595.2179,16.0
1607170595.2199,24.0
1607170595.2219,26.0
1607170595.2239,24.0
1607170595.2259,21.0
1607170595.228,21.0
1607170595.2299,26.0
1607170595.2319,31.0
1607170595.234,28.0
1607170595.2359,24.0
1607170595.2379,21.0
1607170595.2399,19.0
1607170595.2419,24.0
1607170595.2426,28.0
1607170595.2449,31.0
1607170595.6479,26.0
1607170595.6489,26.0
1607170595.6514,26.0
1607170595.654,28.0
1607170595.656,33.0
1607170595.6579,33.0
1607170595.66,28.0
1607170595.6619,26.0
1607170595.6639,26.0
1607170595.6659,26.0
1607170595.668,21.0
1607170595.6698,16.0
1607170595.6706,21.0
1607170595.6729,31.0
1607170595.6749,50.0
1607170595.6769,60.0
1607170595.6789,57.0
1607170595.6808,53.0
1607170595.6828,41.0
1607170595.6848,24.0
1607170595.6869,14.0
1607170595.6888,21.0
1607170595.6909,31.0
1607170595.6928,26.0
1607170595.6948,21.0
1607170595.6969,19.0
1607170595.6989,14.0
1607170595.7009,14.0
1607170595.7016,60.0
1607170595.7038,289.0
1607170595.7059,883.0
1607170595.7079,1546.0
1607170595.7099,1505.0
1607170595.7119,545.0
1607170595.7139,-516.0
1607170595.7159,-728.0
1607170595.7179,-289.0
1607170595.7199,-84.0
1607170595.7218,-110.0
1607170595.7239,-31.0
1607170595.7259,14.0
1607170595.7279,-14.0
1607170595.7298,7.0
1607170595.7305,36.0
1607170595.7328,28.0
1607170595.7349,36.0
1607170595.7369,57.0
1607170595.7388,57.0
1607170595.7409,60.0
1607170595.7429,72.0
1607170595.7448,79.0
1607170595.7471,89.0
1607170595.7489,103.0
1607170595.7508,118.0
1607170595.7528,130.0
1607170595.7548,147.0
1607170595.7569,168.0
1607170595.7589,188.0
1607170595.7609,212.0
1607170595.7615,243.0
1607170595.7629,272.0
1607170595.7649,301.0
1607170595.7669,345.0
1607170595.7688,390.0
1607170595.7708,431.0
1607170595.7729,470.0
1607170595.7748,501.0
1607170595.7769,516.0
1607170595.7788,501.0
1607170595.7808,453.0
1607170595.7828,374.0
1607170595.7849,263.0
1607170595.7869,139.0
1607170596.2177,24.0
1607170596.2186,-69.0
1607170596.2211,-137.0
1607170596.2237,-183.0
1607170596.2258,-207.0
1607170596.2277,-219.0
1607170596.2296,-226.0
1607170596.2316,-231.0
1607170596.2336,-224.0
1607170596.2356,-207.0
1607170596.2376,-195.0
1607170596.2397,-188.0
1607170596.2416,-176.0
1607170596.2436,-161.0
1607170596.2456,-152.0
1607170596.2463,-139.0
1607170596.2486,-130.0
1607170596.2506,-118.0
1607170596.2526,-108.0
1607170596.2546,-106.0
1607170596.2567,-101.0
1607170596.2586,-91.0
1607170596.2606,-86.0
1607170596.2626,-84.0
1607170596.2646,-79.0
1607170596.2666,-77.0
1607170596.2686,-77.0
1607170596.2706,-74.0
1607170596.2726,-72.0
1607170596.2747,-72.0
1607170596.2767,-69.0
1607170596.2786,-69.0
1607170596.2806,-67.0
1607170596.2825,-65.0
1607170596.2845,-62.0
1607170596.2865,-65.0
1607170596.2885,-62.0
1607170596.2906,-57.0
1607170596.2926,-57.0
1607170596.2946,-57.0
1607170596.2966,-53.0
1607170596.2985,-53.0
1607170596.3006,-57.0
1607170596.3026,-60.0
1607170596.3045,-57.0
1607170596.3067,-53.0
1607170596.3086,-53.0
1607170596.3105,-50.0
1607170596.3125,-45.0
1607170596.3146,-41.0
1607170596.3165,-41.0
1607170596.3185,-41.0
1607170596.3206,-38.0
1607170596.3225,-36.0
1607170596.3245,-36.0
1607170596.3266,-31.0
1607170596.3286,-26.0
1607170596.3305,-24.0
1607170596.3325,-24.0
1607170596.3345,-21.0
1607170596.3365,-16.0
1607170596.3385,-16.0
1607170596.3406,-14.0
1607170596.3425,-9.0
1607170596.3445,-7.0
1607170596.3465,-7.0
1607170596.3486,-7.0
1607170596.3506,-4.0
1607170596.3525,-2.0
1607170596.3545,0.0
1607170596.3565,2.0
1607170596.3586,4.0
1607170596.3605,7.0
1607170596.7878,7.0
1607170596.7886,9.0
1607170596.7903,12.0
1607170596.7923,12.0
1607170596.7943,14.0
1607170596.7963,14.0
1607170596.7982,14.0
1607170596.8004,14.0
1607170596.8022,9.0
1607170596.8042,7.0
1607170596.8062,9.0
1607170596.8082,7.0
1607170596.8102,4.0
1607170596.8122,7.0
1607170596.8142,12.0
1607170596.8162,12.0
1607170596.8183,12.0
1607170596.8202,14.0
1607170596.8222,16.0
1607170596.8242,16.0
1607170596.8262,19.0
1607170596.8283,21.0
1607170596.8303,21.0
1607170596.8322,16.0
1607170596.8342,19.0
1607170596.8362,24.0
1607170596.8382,26.0
1607170596.8402,26.0
1607170596.8422,26.0
1607170596.8442,26.0
1607170596.8462,28.0
1607170596.8482,28.0
1607170596.8502,28.0
1607170596.8522,31.0
1607170596.8542,33.0
1607170596.8562,31.0
1607170596.8582,26.0
1607170596.8602,26.0
1607170596.8622,28.0
1607170596.8642,28.0
1607170596.8662,28.0
1607170596.8682,28.0
1607170596.8702,28.0
1607170596.8722,26.0
1607170596.8742,28.0
1607170596.8762,31.0
1607170596.8783,31.0
1607170596.8802,28.0
1607170596.8822,28.0
1607170596.8842,33.0
1607170596.8862,33.0
1607170596.8882,31.0
1607170596.8902,28.0
1607170596.8922,28.0
1607170596.8942,24.0
1607170596.8962,26.0
1607170596.8983,45.0
1607170596.9002,65.0
1607170596.9023,69.0
1607170596.9043,65.0
1607170596.9062,62.0
1607170596.9082,53.0
1607170596.9102,33.0
1607170596.9122,21.0
1607170596.9142,26.0
1607170596.9162,31.0
1607170596.9182,28.0
1607170596.9202,28.0
1607170596.9222,28.0
1607170596.9242,19.0
1607170596.9262,2.0
1607170596.9282,38.0
1607170596.9302,287.0
1607170597.3282,892.0
1607170597.329,1541.0
1607170597.3315,1517.0
1607170597.3341,583.0
1607170597.3361,-506.0
1607170597.3381,-735.0
1607170597.3402,-267.0
1607170597.3421,-57.0
1607170597.3441,-118.0
1607170597.3461,-62.0
1607170597.3481,-16.0
1607170597.35,-41.0
1607170597.3521,-24.0
1607170597.354,7.0
1607170597.356,4.0
1607170597.3581,12.0
1607170597.3601,26.0
1607170597.362,33.0
1607170597.3641,41.0
1607170597.366,55.0
1607170597.368,65.0
1607170597.37,74.0
1607170597.372,86.0
1607170597.3741,101.0
1607170597.376,115.0
1607170597.3781,135.0
1607170597.38,154.0
1607170597.382,173.0
1607170597.384,193.0
1607170597.386,217.0
1607170597.3881,246.0
1607170597.3901,284.0
1607170597.392,323.0
1607170597.394,361.0
1607170597.396,400.0
1607170597.3981,441.0
1607170597.4002,470.0
1607170597.402,482.0
1607170597.404,475.0
1607170597.406,436.0
1607170597.408,361.0
1607170597.41,258.0
1607170597.412,142.0
1607170597.414,31.0
1607170597.416,-60.0
1607170597.4181,-130.0
1607170597.42,-176.0
1607170597.422,-202.0
1607170597.424,-217.0
1607170597.426,-221.0
1607170597.428,-214.0
1607170597.43,-205.0
1607170597.432,-200.0
1607170597.434,-188.0
1607170597.436,-173.0
1607170597.438,-161.0
1607170597.4401,-152.0
1607170597.442,-144.0
1607170597.444,-135.0
1607170597.446,-125.0
1607170597.4481,-115.0
1607170597.45,-106.0
1607170597.452,-96.0
1607170597.454,-91.0
1607170597.456,-89.0
1607170597.458,-82.0
1607170597.46,-77.0
1607170597.462,-77.0
1607170597.464,-72.0
1607170597.466,-67.0
1607170597.4681,-67.0
1607170597.47,-65.0
1607170597.472,-62.0
1607170597.9281,-60.0
1607170597.9289,-57.0
1607170597.9314,-57.0
1607170597.934,-57.0
1607170597.936,-55.0
1607170597.938,-53.0
1607170597.9401,-57.0
1607170597.942,-62.0
1607170597.944,-60.0
1607170597.946,-55.0
1607170597.9479,-53.0
1607170597.9499,-50.0
1607170597.9519,-45.0
1607170597.9539,-43.0
1607170597.9561,-45.0
1607170597.958,-43.0
1607170597.9599,-38.0
1607170597.9619,-36.0
1607170597.964,-36.0
1607170597.9659,-36.0
1607170597.9679,-33.0
1607170597.9699,-36.0
1607170597.9719,-41.0
1607170597.9739,-38.0
1607170597.9759,-36.0
1607170597.9779,-36.0
1607170597.9799,-38.0
1607170597.9819,-36.0
1607170597.9839,-28.0
1607170597.9845,-28.0
1607170597.9859,-28.0
1607170597.9879,-24.0
1607170597.9899,-21.0
1607170597.9919,-21.0
1607170597.9939,-19.0
1607170597.9959,-16.0
1607170597.9979,-12.0
1607170597.9999,-12.0
1607170598.0019,-12.0
1607170598.0039,-9.0
1607170598.0059,-7.0
1607170598.0079,-4.0
1607170598.0099,-4.0
1607170598.0119,-2.0
1607170598.0139,0.0
1607170598.0145,0.0
1607170598.0159,0.0
1607170598.0179,2.0
1607170598.0199,4.0
1607170598.0219,4.0
1607170598.0239,4.0
1607170598.0259,4.0
1607170598.0279,7.0
1607170598.0299,7.0
1607170598.0318,4.0
1607170598.0339,9.0
1607170598.0359,12.0
1607170598.0379,7.0
1607170598.0399,7.0
1607170598.0419,12.0
1607170598.0438,12.0
1607170598.0445,9.0
1607170598.0459,9.0
1607170598.0479,12.0
1607170598.0499,12.0
1607170598.052,12.0
1607170598.0539,14.0
1607170598.0559,16.0
1607170598.0578,14.0
1607170598.0599,14.0
1607170598.0619,16.0
1607170598.0639,19.0
1607170598.0659,19.0
1607170598.4681,16.0
1607170598.469,16.0
1607170598.4715,16.0
1607170598.4742,16.0
1607170598.4749,16.0
1607170598.4772,19.0
1607170598.4791,24.0
1607170598.4811,21.0
1607170598.4831,16.0
1607170598.4851,19.0
1607170598.4871,21.0
1607170598.489,16.0
1607170598.491,9.0
1607170598.4931,9.0
1607170598.4951,12.0
1607170598.4972,4.0
1607170598.499,0.0
1607170598.501,2.0
1607170598.503,7.0
1607170598.505,4.0
1607170598.5057,4.0
1607170598.507,7.0
1607170598.509,9.0
1607170598.511,9.0
1607170598.513,9.0
1607170598.5151,9.0
1607170598.517,9.0
1607170598.519,12.0
1607170598.521,14.0
1607170598.523,14.0
1607170598.525,14.0
1607170598.5271,14.0
1607170598.529,14.0
1607170598.531,14.0
1607170598.533,16.0
1607170598.535,14.0
1607170598.5357,14.0
1607170598.537,16.0
1607170598.539,16.0
1607170598.5411,14.0
1607170598.543,16.0
1607170598.545,16.0
1607170598.5471,12.0
1607170598.5492,9.0
1607170598.5511,24.0
1607170598.553,48.0
1607170598.555,55.0
1607170598.5571,50.0
1607170598.559,45.0
1607170598.561,38.0
1607170598.563,16.0
1607170598.565,0.0
1607170598.5657,4.0
1607170598.567,14.0
1607170598.569,9.0
1607170598.571,9.0
1607170598.573,12.0
1607170598.575,4.0
1607170598.5771,-9.0
1607170598.579,4.0
1607170598.581,166.0
1607170598.583,656.0
1607170598.585,1353.0
1607170598.587,1587.0
1607170598.589,895.0
1607170598.591,-253.0
1607170598.593,-784.0
1607170598.595,-415.0
1607170598.5957,-72.0
1607170598.5971,-106.0
1607170598.599,-79.0
1607170598.601,0.0
1607170598.603,-16.0
1607170599.0077,-24.0
1607170599.0084,7.0
1607170599.0107,14.0
1607170599.0135,16.0
1607170599.0155,31.0
1607170599.0175,38.0
1607170599.0196,43.0
1607170599.0214,50.0
1607170599.0221,53.0
1607170599.0234,53.0
1607170599.0254,65.0
1607170599.0275,84.0
1607170599.0294,96.0
1607170599.0314,108.0
1607170599.0334,130.0
1607170599.0354,152.0
1607170599.0374,171.0
1607170599.0394,195.0
1607170599.0414,226.0
1607170599.0434,258.0
1607170599.0454,294.0
1607170599.0476,332.0
1607170599.0494,376.0
1607170599.0514,419.0
1607170599.0521,448.0
1607170599.0535,468.0
1607170599.0554,470.0
1607170599.0574,451.0
1607170599.0594,393.0
1607170599.0614,304.0
1607170599.0634,190.0
1607170599.0654,74.0
1607170599.0675,-26.0
1607170599.0694,-103.0
1607170599.0714,-159.0
1607170599.0734,-195.0
1607170599.0754,-219.0
1607170599.0774,-226.0
1607170599.0794,-224.0
1607170599.0814,-221.0
1607170599.082,-217.0
1607170599.0834,-202.0
1607170599.0854,-188.0
1607170599.0874,-178.0
1607170599.0894,-171.0
1607170599.0914,-159.0
1607170599.0934,-147.0
1607170599.0954,-137.0
1607170599.0974,-130.0
1607170599.0994,-123.0
1607170599.1014,-113.0
1607170599.1034,-106.0
1607170599.1054,-98.0
1607170599.1074,-94.0
1607170599.1094,-86.0
1607170599.1114,-84.0
1607170599.112,-82.0
1607170599.1134,-79.0
1607170599.1154,-79.0
1607170599.1174,-77.0
1607170599.1194,-77.0
1607170599.1214,-77.0
1607170599.1234,-74.0
1607170599.1254,-74.0
1607170599.1274,-77.0
1607170599.1294,-77.0
1607170599.1314,-77.0
1607170599.1334,-79.0
1607170599.1354,-77.0
1607170599.1374,-72.0
1607170599.1394,-72.0
1607170599.1414,-72.0
1607170599.1422,-69.0
1607170599.5776,-72.0
1607170599.5785,-74.0
1607170599.5809,-69.0
1607170599.5827,-65.0
1607170599.5846,-62.0
1607170599.5865,-60.0
1607170599.5886,-65.0
1607170599.5906,-67.0
1607170599.5925,-60.0
1607170599.5945,-55.0
1607170599.5966,-55.0
1607170599.5985,-50.0
1607170599.6005,-45.0
1607170599.6025,-45.0
1607170599.6032,-41.0
1607170599.6045,-38.0
1607170599.6065,-33.0
1607170599.6085,-31.0
1607170599.6105,-28.0
1607170599.6124,-26.0
1607170599.6145,-24.0
1607170599.6164,-21.0
1607170599.6184,-19.0
1607170599.6204,-16.0
1607170599.6224,-16.0
1607170599.6245,-12.0
1607170599.6265,-9.0
1607170599.6285,-9.0
1607170599.6305,-4.0
1607170599.6325,-2.0
1607170599.6331,-2.0
1607170599.6345,-2.0
1607170599.6365,0.0
1607170599.6384,2.0
1607170599.6404,2.0
1607170599.6424,2.0
1607170599.6444,2.0
1607170599.6464,4.0
1607170599.6485,7.0
1607170599.6504,9.0
1607170599.6524,14.0
1607170599.6545,14.0
1607170599.6564,9.0
1607170599.6585,12.0
1607170599.6604,14.0
1607170599.6624,14.0
1607170599.6632,16.0
1607170599.6644,19.0
1607170599.6664,16.0
1607170599.6684,16.0
1607170599.6706,19.0
1607170599.6725,24.0
1607170599.6745,24.0
1607170599.6765,24.0
1607170599.6784,26.0
1607170599.6804,28.0
1607170599.6825,26.0
1607170599.6845,21.0
1607170599.6866,21.0
1607170599.6885,21.0
1607170599.6904,26.0
1607170599.6924,28.0
1607170599.6931,28.0
1607170599.6944,26.0
1607170599.6964,26.0
1607170599.6984,24.0
1607170599.7005,19.0
1607170599.7024,21.0
1607170599.7044,26.0
1607170599.7064,21.0
1607170599.7085,19.0
1607170599.7104,26.0
1607170599.7124,28.0
1607170600.1181,26.0
1607170600.119,26.0
1607170600.1214,26.0
1607170600.1225,28.0
1607170600.1241,36.0
1607170600.126,33.0
1607170600.128,24.0
1607170600.13,16.0
1607170600.132,16.0
1607170600.134,26.0
1607170600.136,28.0
1607170600.138,21.0
1607170600.14,16.0
1607170600.1419,21.0
1607170600.144,26.0
1607170600.1459,26.0
1607170600.148,28.0
1607170600.15,28.0
1607170600.152,24.0
1607170600.1526,26.0
1607170600.154,28.0
1607170600.1559,24.0
1607170600.1579,28.0
1607170600.16,50.0
1607170600.1619,60.0
1607170600.1639,60.0
1607170600.166,57.0
1607170600.168,50.0
1607170600.1701,33.0
1607170600.172,19.0
1607170600.1739,16.0
1607170600.176,24.0
1607170600.178,26.0
1607170600.1799,28.0
1607170600.1819,24.0
1607170600.1826,19.0
1607170600.1839,14.0
1607170600.1859,41.0
1607170600.188,238.0
1607170600.19,793.0
1607170600.192,1481.0
1607170600.194,1565.0
1607170600.1959,721.0
1607170600.198,-386.0
1607170600.1999,-748.0
1607170600.2019,-347.0
1607170600.2039,-74.0
1607170600.2059,-98.0
1607170600.208,-41.0
1607170600.2099,21.0
1607170600.212,-2.0
1607170600.2126,0.0
1607170600.2139,31.0
1607170600.216,36.0
1607170600.218,33.0
1607170600.2199,43.0
1607170600.2219,55.0
1607170600.2239,62.0
1607170600.2259,72.0
1607170600.228,74.0
1607170600.2299,82.0
1607170600.2319,101.0
1607170600.2339,118.0
1607170600.236,130.0
1607170600.2379,147.0
1607170600.24,164.0
1607170600.2419,180.0
1607170600.2427,205.0
1607170600.2439,231.0
1607170600.2459,260.0
1607170600.248,296.0
1607170600.2499,337.0
1607170600.2519,376.0
1607170600.6882,422.0
1607170600.6893,470.0
1607170600.6917,506.0
1607170600.6943,521.0
1607170600.6963,513.0
1607170600.6983,475.0
1607170600.7007,410.0
1607170600.7024,311.0
1607170600.7043,190.0
1607170600.7063,65.0
1607170600.707,-38.0
1607170600.7083,-115.0
1607170600.7103,-168.0
1607170600.7123,-209.0
1607170600.7143,-236.0
1607170600.7163,-243.0
1607170600.7182,-231.0
1607170600.7202,-221.0
1607170600.7223,-217.0
1607170600.7242,-205.0
1607170600.7262,-188.0
1607170600.7282,-176.0
1607170600.7302,-166.0
1607170600.7323,-159.0
1607170600.7342,-149.0
1607170600.7362,-139.0
1607170600.7369,-130.0
1607170600.7382,-118.0
1607170600.7402,-108.0
1607170600.7422,-106.0
1607170600.7442,-101.0
1607170600.7462,-91.0
1607170600.7482,-86.0
1607170600.7502,-89.0
1607170600.7522,-89.0
1607170600.7542,-89.0
1607170600.7562,-86.0
1607170600.7582,-82.0
1607170600.7602,-86.0
1607170600.7624,-91.0
1607170600.7642,-86.0
1607170600.7649,-82.0
1607170600.7662,-82.0
1607170600.7683,-77.0
1607170600.7702,-77.0
1607170600.7723,-77.0
1607170600.7744,-72.0
1607170600.7763,-69.0
1607170600.7784,-69.0
1607170600.7803,-65.0
1607170600.7822,-62.0
1607170600.7842,-67.0
1607170600.7862,-67.0
1607170600.7882,-62.0
1607170600.7902,-62.0
1607170600.7922,-60.0
1607170600.7942,-53.0
1607170600.7951,-50.0
1607170600.7963,-41.0
1607170600.7982,-33.0
1607170600.8002,-41.0
1607170600.8022,-41.0
1607170600.8042,-33.0
1607170600.8062,-26.0
1607170600.8083,-28.0
1607170600.8102,-33.0
1607170600.8122,-31.0
1607170600.8142,-19.0
1607170600.8162,-12.0
1607170600.8183,-14.0
1607170600.8202,-19.0
1607170600.8222,-16.0
1607170600.8242,-12.0
1607170601.2881,-7.0
1607170601.2889,-4.0
1607170601.2914,-4.0
1607170601.2941,-7.0
1607170601.2961,-14.0
1607170601.298,-16.0
1607170601.3,-16.0
1607170601.302,-12.0
1607170601.304,-7.0
1607170601.306,-9.0
1607170601.308,-9.0
1607170601.3099,-4.0
1607170601.312,-2.0
1607170601.3126,0.0
1607170601.314,2.0
1607170601.316,4.0
1607170601.318,2.0
1607170601.3199,2.0
1607170601.3219,12.0
1607170601.3239,14.0
1607170601.3259,9.0
1607170601.328,7.0
1607170601.33,7.0
1607170601.3319,12.0
1607170601.3339,16.0
1607170601.3359,14.0
1607170601.338,12.0
1607170601.34,16.0
1607170601.3419,21.0
1607170601.3426,21.0
1607170601.3439,24.0
1607170601.3459,21.0
1607170601.348,19.0
1607170601.35,21.0
1607170601.3519,24.0
1607170601.3541,21.0
1607170601.356,16.0
1607170601.3579,21.0
1607170601.3599,26.0
1607170601.3619,19.0
1607170601.3639,16.0
1607170601.3659,26.0
1607170601.368,31.0
1607170601.3699,24.0
1607170601.3719,16.0
1607170601.3726,16.0
1607170601.374,19.0
1607170601.3759,21.0
1607170601.3779,24.0
1607170601.3799,24.0
1607170601.3819,24.0
1607170601.3839,26.0
1607170601.3859,24.0
1607170601.388,24.0
1607170601.39,31.0
1607170601.3919,31.0
1607170601.3939,26.0
1607170601.3959,26.0
1607170601.3979,31.0
1607170601.3999,33.0
1607170601.4019,31.0
1607170601.4026,31.0
1607170601.4039,36.0
1607170601.4059,33.0
1607170601.4079,28.0
1607170601.4099,31.0
1607170601.4119,33.0
1607170601.4139,28.0
1607170601.4159,21.0
1607170601.4179,38.0
1607170601.4199,60.0
1607170601.4219,65.0
1607170601.4239,65.0
1607170601.8279,62.0
1607170601.8287,53.0
1607170601.8304,36.0
1607170601.8328,24.0
1607170601.8349,24.0
1607170601.8368,28.0
1607170601.8387,31.0
1607170601.8408,31.0
1607170601.8427,26.0
1607170601.8447,16.0
1607170601.8468,7.0
1607170601.8487,45.0
1607170601.8507,304.0
1607170601.8529,926.0
1607170601.8548,1568.0
1607170601.8567,1486.0
1607170601.8587,513.0
1607170601.8607,-538.0
1607170601.8614,-721.0
1607170601.8627,-267.0
1607170601.8647,-72.0
1607170601.8667,-110.0
1607170601.8687,-33.0
1607170601.8707,12.0
1607170601.8727,-19.0
1607170601.8747,0.0
1607170601.8768,26.0
1607170601.8787,19.0
1607170601.8807,26.0
1607170601.8827,43.0
1607170601.8847,50.0
1607170601.8868,57.0
1607170601.8887,67.0
1607170601.8907,77.0
1607170601.8914,86.0
1607170601.8927,101.0
1607170601.8947,108.0
1607170601.8967,118.0
1607170601.8987,132.0
1607170601.9007,152.0
1607170601.9027,176.0
1607170601.9047,200.0
1607170601.9067,224.0
1607170601.9087,253.0
1607170601.9107,287.0
1607170601.9127,325.0
1607170601.9147,366.0
1607170601.9167,410.0
1607170601.9187,448.0
1607170601.9207,482.0
1607170601.9214,497.0
1607170601.9227,494.0
1607170601.9247,463.0
1607170601.9268,393.0
1607170601.9287,289.0
1607170601.9307,168.0
1607170601.9327,53.0
1607170601.9347,-43.0
1607170601.9368,-120.0
1607170601.9387,-176.0
1607170601.9407,-205.0
1607170601.9427,-221.0
1607170601.9447,-229.0
1607170601.9468,-224.0
1607170601.9488,-212.0
1607170601.9507,-205.0
1607170601.9513,-193.0
1607170601.9527,-178.0
1607170601.9547,-166.0
1607170601.9567,-159.0
1607170601.9587,-149.0
1607170601.9607,-137.0
1607170601.9627,-127.0
1607170602.4281,-118.0
1607170602.4292,-108.0
1607170602.4316,-101.0
1607170602.4343,-94.0
1607170602.4363,-86.0
1607170602.4383,-79.0
1607170602.4403,-77.0
1607170602.4423,-77.0
1607170602.4443,-79.0
1607170602.4449,-79.0
1607170602.4463,-72.0
1607170602.4482,-69.0
1607170602.4502,-72.0
1607170602.4522,-72.0
1607170602.4542,-67.0
1607170602.4562,-65.0
1607170602.4582,-69.0
1607170602.4602,-72.0
1607170602.4622,-72.0
1607170602.4642,-72.0
1607170602.4662,-69.0
1607170602.4682,-67.0
1607170602.4701,-62.0
1607170602.4722,-62.0
1607170602.4742,-65.0
1607170602.4749,-62.0
1607170602.4762,-60.0
1607170602.4782,-57.0
1607170602.4802,-57.0
1607170602.4822,-62.0
1607170602.4842,-60.0
1607170602.4862,-55.0
1607170602.4882,-53.0
1607170602.4902,-48.0
1607170602.4922,-45.0
1607170602.4942,-43.0
1607170602.4962,-41.0
1607170602.4982,-38.0
1607170602.5002,-36.0
1607170602.5022,-33.0
1607170602.5042,-31.0
1607170602.5048,-26.0
1607170602.5063,-26.0
1607170602.5082,-26.0
1607170602.5102,-24.0
1607170602.5122,-16.0
1607170602.5142,-16.0
1607170602.5161,-16.0
1607170602.5182,-14.0
1607170602.5202,-12.0
1607170602.5221,-14.0
1607170602.5242,-14.0
1607170602.5261,-9.0
1607170602.5282,-4.0
1607170602.5302,-4.0
1607170602.5322,-4.0
1607170602.5342,0.0
1607170602.5348,2.0
1607170602.5362,4.0
1607170602.5381,4.0
1607170602.5401,7.0
1607170602.5422,9.0
1607170602.5442,9.0
1607170602.5462,12.0
1607170602.5469,14.0
1607170602.5491,16.0
1607170602.5511,16.0
1607170602.5531,16.0
1607170602.5552,19.0
1607170602.5571,21.0
1607170602.5591,24.0
1607170602.5611,24.0
1607170602.5618,24.0
1607170602.9378,24.0
1607170602.9384,24.0
1607170602.9408,26.0
1607170602.9435,28.0
1607170602.9455,31.0
1607170602.9475,31.0
1607170602.9495,28.0
1607170602.9514,31.0
1607170602.9536,33.0
1607170602.9554,33.0
1607170602.9575,31.0
1607170602.9581,33.0
1607170602.9594,31.0
1607170602.9614,26.0
1607170602.9634,21.0
1607170602.9654,26.0
1607170602.9675,28.0
1607170602.9694,26.0
1607170602.9715,26.0
1607170602.9734,28.0
1607170602.9756,31.0
1607170602.9775,26.0
1607170602.9794,24.0
1607170602.9814,26.0
1607170602.9834,28.0
1607170602.9854,28.0
1607170602.9875,31.0
1607170602.9881,31.0
1607170602.9894,31.0
1607170602.9914,31.0
1607170602.9934,31.0
1607170602.9954,31.0
1607170602.9974,33.0
1607170602.9994,33.0
1607170603.0014,36.0
1607170603.0034,38.0
1607170603.0054,36.0
1607170603.0074,33.0
1607170603.0094,33.0
1607170603.0114,38.0
1607170603.0134,36.0
1607170603.0154,31.0
1607170603.0174,28.0
1607170603.018,26.0
1607170603.0194,26.0
1607170603.0214,38.0
1607170603.0234,60.0
1607170603.0254,69.0
1607170603.0274,65.0
1607170603.0294,62.0
1607170603.0314,57.0
1607170603.0334,41.0
1607170603.0354,24.0
1607170603.0374,21.0
1607170603.0394,28.0
1607170603.0414,28.0
1607170603.0434,26.0
1607170603.0454,28.0
1607170603.0474,19.0
1607170603.048,2.0
1607170603.0494,21.0
1607170603.0514,212.0
1607170603.0534,750.0
1607170603.0554,1447.0
1607170603.0574,1611.0
1607170603.0594,839.0
1607170603.0614,-316.0
1607170603.0634,-769.0
1607170603.0654,-352.0
1607170603.0674,-45.0
1607170603.0695,-101.0
1607170603.0715,-67.0
1607170603.0734,4.0
1607170603.5379,-21.0
1607170603.5388,-21.0
1607170603.5405,14.0
1607170603.5429,14.0
1607170603.5449,16.0
1607170603.5469,33.0
1607170603.5489,36.0
1607170603.551,33.0
1607170603.5529,48.0
1607170603.5549,65.0
1607170603.5569,69.0
1607170603.5589,79.0
1607170603.5609,94.0
1607170603.5629,110.0
1607170603.5649,123.0
1607170603.5669,135.0
1607170603.5688,154.0
1607170603.5709,176.0
1607170603.5715,202.0
1607170603.5728,231.0
1607170603.5748,265.0
1607170603.5769,301.0
1607170603.5788,340.0
1607170603.5808,381.0
1607170603.5828,422.0
1607170603.5848,456.0
1607170603.5869,477.0
1607170603.5888,477.0
1607170603.5908,456.0
1607170603.5928,402.0
1607170603.5948,316.0
1607170603.5969,205.0
1607170603.5988,86.0
1607170603.6008,-16.0
1607170603.6014,-98.0
1607170603.6028,-156.0
1607170603.6048,-193.0
1607170603.6068,-214.0
1607170603.6088,-221.0
1607170603.6108,-219.0
1607170603.6128,-212.0
1607170603.6148,-205.0
1607170603.6169,-195.0
1607170603.6188,-183.0
1607170603.6208,-168.0
1607170603.6228,-159.0
1607170603.6248,-149.0
1607170603.6268,-139.0
1607170603.6288,-127.0
1607170603.631,-120.0
1607170603.6315,-113.0
1607170603.6328,-103.0
1607170603.6348,-98.0
1607170603.6368,-96.0
1607170603.6388,-86.0
1607170603.6408,-79.0
1607170603.6428,-79.0
1607170603.6448,-74.0
1607170603.6469,-67.0
1607170603.6488,-67.0
1607170603.6508,-65.0
1607170603.6528,-62.0
1607170603.6548,-60.0
1607170603.6569,-60.0
1607170603.6588,-62.0
1607170603.6608,-65.0
1607170603.6614,-62.0
1607170603.6628,-62.0
1607170603.6648,-65.0
1607170603.6668,-62.0
1607170603.6688,-57.0
1607170603.6709,-60.0
1607170603.6728,-60.0
1607170604.0775,-57.0
1607170604.0784,-57.0
1607170604.0809,-57.0
1607170604.0826,-57.0
1607170604.0845,-55.0
1607170604.0866,-53.0
1607170604.0885,-50.0
1607170604.0892,-50.0
1607170604.0905,-50.0
1607170604.0925,-48.0
1607170604.0945,-45.0
1607170604.0965,-48.0
1607170604.0985,-53.0
1607170604.1005,-48.0
1607170604.1025,-41.0
1607170604.1045,-41.0
1607170604.1066,-43.0
1607170604.1085,-36.0
1607170604.1105,-31.0
1607170604.1125,-28.0
1607170604.1145,-28.0
1607170604.1165,-26.0
1607170604.1184,-24.0
1607170604.119,-24.0
1607170604.1204,-21.0
1607170604.1224,-16.0
1607170604.1245,-16.0
1607170604.1266,-19.0
1607170604.1285,-16.0
1607170604.1304,-12.0
1607170604.1324,-9.0
1607170604.1344,-9.0
1607170604.1365,-7.0
1607170604.1384,-2.0
1607170604.1404,-4.0
1607170604.1424,-4.0
1607170604.1444,2.0
1607170604.1465,4.0
1607170604.1484,2.0
1607170604.149,0.0
1607170604.1504,2.0
1607170604.1524,7.0
1607170604.1544,7.0
1607170604.1565,7.0
1607170604.1585,7.0
1607170604.1604,12.0
1607170604.1624,9.0
1607170604.1644,9.0
1607170604.1664,12.0
1607170604.1684,14.0
1607170604.1705,16.0
1607170604.1725,16.0
1607170604.1745,16.0
1607170604.1764,16.0
1607170604.1784,19.0
1607170604.179,19.0
1607170604.1804,16.0
1607170604.1824,19.0
1607170604.1844,19.0
1607170604.1864,16.0
1607170604.1884,16.0
1607170604.1904,21.0
1607170604.1924,24.0
1607170604.1945,24.0
1607170604.1965,21.0
1607170604.1984,21.0
1607170604.2004,21.0
1607170604.2024,24.0
1607170604.2044,26.0
1607170604.2064,24.0
1607170604.2084,21.0
1607170604.209,24.0
1607170604.2104,28.0
1607170604.6476,26.0
1607170604.6485,21.0
1607170604.651,19.0
1607170604.6536,19.0
1607170604.6556,16.0
1607170604.6579,7.0
1607170604.6597,7.0
1607170604.6616,16.0
1607170604.6636,12.0
1607170604.6656,2.0
1607170604.6676,0.0
1607170604.6696,9.0
1607170604.6703,14.0
1607170604.6716,12.0
1607170604.6736,7.0
1607170604.6756,7.0
1607170604.6776,9.0
1607170604.6795,9.0
1607170604.6815,14.0
1607170604.6835,19.0
1607170604.6855,21.0
1607170604.6876,16.0
1607170604.6896,14.0
1607170604.6915,16.0
1607170604.6935,21.0
1607170604.6955,21.0
1607170604.6975,24.0
1607170604.6995,26.0
1607170604.7001,24.0
1607170604.7015,24.0
1607170604.7035,24.0
1607170604.7055,26.0
1607170604.7075,31.0
1607170604.7095,26.0
1607170604.7115,14.0
1607170604.7135,21.0
1607170604.7155,43.0
1607170604.7175,60.0
1607170604.7195,69.0
1607170604.7215,69.0
1607170604.7235,60.0
1607170604.7254,38.0
1607170604.7275,21.0
1607170604.7295,24.0
1607170604.7302,26.0
1607170604.7315,26.0
1607170604.7335,26.0
1607170604.7355,24.0
1607170604.7375,19.0
1607170604.7396,9.0
1607170604.7415,7.0
1607170604.7435,86.0
1607170604.7454,417.0
1607170604.7475,1088.0
1607170604.7494,1621.0
1607170604.7516,1317.0
1607170604.7536,231.0
1607170604.7555,-665.0
1607170604.7575,-615.0
1607170604.7595,-166.0
1607170604.7601,-74.0
1607170604.7615,-101.0
1607170604.7635,-14.0
1607170604.7655,-2.0
1607170604.7675,-26.0
1607170604.7695,4.0
1607170604.7715,24.0
1607170604.7735,14.0
1607170604.7755,26.0
1607170604.7775,41.0
1607170604.7795,41.0
1607170604.7815,48.0
1607170604.7835,67.0
1607170605.1878,82.0
1607170605.1887,89.0
1607170605.1912,101.0
1607170605.1938,113.0
1607170605.1958,125.0
1607170605.1979,139.0
1607170605.1998,154.0
1607170605.2018,173.0
1607170605.2037,200.0
1607170605.2057,221.0
1607170605.2077,241.0
1607170605.2097,270.0
1607170605.2117,320.0
1607170605.2138,371.0
1607170605.2157,405.0
1607170605.2178,441.0
1607170605.2197,475.0
1607170605.2203,492.0
1607170605.2217,492.0
1607170605.2237,463.0
1607170605.2257,388.0
1607170605.2277,279.0
1607170605.2297,159.0
1607170605.2317,45.0
1607170605.2337,-48.0
1607170605.2357,-123.0
1607170605.2377,-178.0
1607170605.2397,-209.0
1607170605.2416,-224.0
1607170605.2437,-231.0
1607170605.2457,-231.0
1607170605.2477,-224.0
1607170605.2497,-205.0
1607170605.2503,-195.0
1607170605.2518,-193.0
1607170605.2537,-178.0
1607170605.2557,-161.0
1607170605.2577,-154.0
1607170605.2597,-147.0
1607170605.2617,-135.0
1607170605.2637,-125.0
1607170605.2657,-120.0
1607170605.2677,-115.0
1607170605.2697,-113.0
1607170605.2717,-108.0
1607170605.2737,-101.0
1607170605.2757,-98.0
1607170605.2777,-94.0
1607170605.2797,-89.0
1607170605.2803,-94.0
1607170605.2817,-89.0
1607170605.2837,-84.0
1607170605.2857,-94.0
1607170605.2878,-96.0
1607170605.2897,-84.0
1607170605.2917,-84.0
1607170605.2937,-89.0
1607170605.2957,-89.0
1607170605.2977,-86.0
1607170605.2997,-84.0
1607170605.3017,-82.0
1607170605.3037,-79.0
1607170605.3057,-79.0
1607170605.3077,-72.0
1607170605.3097,-67.0
1607170605.3103,-67.0
1607170605.3117,-65.0
1607170605.3137,-67.0
1607170605.3157,-62.0
1607170605.3177,-55.0
1607170605.3197,-60.0
1607170605.3217,-50.0
1607170605.3237,-33.0
1607170605.7575,-43.0
1607170605.7584,-55.0
1607170605.7608,-48.0
1607170605.7634,-41.0
1607170605.7654,-33.0
1607170605.7675,-28.0
1607170605.7695,-31.0
1607170605.7715,-33.0
1607170605.7721,-43.0
1607170605.7734,-41.0
1607170605.7754,-33.0
1607170605.7775,-31.0
1607170605.7797,-31.0
1607170605.7815,-28.0
1607170605.7835,-21.0
1607170605.7854,-21.0
1607170605.7874,-19.0
1607170605.7893,-12.0
1607170605.7914,-14.0
1607170605.7934,-21.0
1607170605.7954,-14.0
1607170605.7974,0.0
1607170605.7994,-2.0
1607170605.8014,-12.0
1607170605.802,-12.0
1607170605.8034,-2.0
1607170605.8054,-4.0
1607170605.8074,-9.0
1607170605.8093,-4.0
1607170605.8113,0.0
1607170605.8133,0.0
1607170605.8153,0.0
1607170605.8173,2.0
1607170605.8193,4.0
1607170605.8213,2.0
1607170605.8233,4.0
1607170605.8254,4.0
1607170605.8274,0.0
1607170605.8293,2.0
1607170605.8313,16.0
1607170605.8319,14.0
1607170605.8333,7.0
1607170605.8353,9.0
1607170605.8373,12.0
1607170605.8393,16.0
1607170605.8413,21.0
1607170605.8433,19.0
1607170605.8453,14.0
1607170605.8474,19.0
1607170605.8493,16.0
1607170605.8513,7.0
1607170605.8533,4.0
1607170605.8553,16.0
1607170605.8573,16.0
1607170605.8593,14.0
1607170605.8613,16.0
1607170605.8619,19.0
1607170605.8633,21.0
1607170605.8654,24.0
1607170605.8675,16.0
1607170605.8693,9.0
1607170605.8714,12.0
1607170605.8733,19.0
1607170605.8755,21.0
1607170605.8774,16.0
1607170605.8793,14.0
1607170605.8813,16.0
1607170605.8833,14.0
1607170605.8853,14.0
1607170605.8874,14.0
1607170605.8893,24.0
1607170605.8913,43.0
1607170605.8919,60.0
1607170606.2979,57.0
1607170606.2988,48.0
1607170606.3014,38.0
1607170606.3039,28.0
1607170606.3059,19.0
1607170606.3079,12.0
1607170606.3101,12.0
1607170606.3119,16.0
1607170606.3139,12.0
1607170606.3159,4.0
1607170606.3178,-2.0
1607170606.3198,-9.0
1607170606.3206,7.0
1607170606.3219,180.0
1607170606.3239,714.0
1607170606.3259,1445.0
1607170606.3279,1623.0
1607170606.3299,832.0
1607170606.3319,-325.0
1607170606.3339,-803.0
1607170606.3358,-436.0
1607170606.3379,-115.0
1607170606.3399,-125.0
1607170606.3419,-69.0
1607170606.3438,2.0
1607170606.3459,-24.0
1607170606.3479,-21.0
1607170606.3498,14.0
1607170606.3505,16.0
1607170606.3518,16.0
1607170606.3538,33.0
1607170606.3558,45.0
1607170606.3578,50.0
1607170606.3598,60.0
1607170606.3618,74.0
1607170606.3638,84.0
1607170606.3658,89.0
1607170606.3678,103.0
1607170606.3699,120.0
1607170606.3718,137.0
1607170606.3738,152.0
1607170606.376,168.0
1607170606.3779,190.0
1607170606.3798,214.0
1607170606.3881,243.0
1607170606.3899,275.0
1607170606.3919,313.0
1607170606.3938,361.0
1607170606.3958,407.0
1607170606.3979,448.0
1607170606.3998,482.0
1607170606.4018,506.0
1607170606.4038,513.0
1607170606.4058,492.0
1607170606.4078,431.0
1607170606.4098,330.0
1607170606.4118,207.0
1607170606.4138,84.0
1607170606.4158,-28.0
1607170606.4165,-118.0
1607170606.4177,-176.0
1607170606.4198,-209.0
1607170606.4218,-229.0
1607170606.4238,-238.0
1607170606.4258,-241.0
1607170606.4278,-236.0
1607170606.4299,-229.0
1607170606.4318,-217.0
1607170606.4338,-200.0
1607170606.4358,-185.0
1607170606.4379,-176.0
1607170606.4398,-168.0
1607170606.4418,-156.0
1607170606.8674,-144.0
1607170606.8681,-137.0
1607170606.8705,-127.0
1607170606.8732,-115.0
1607170606.8751,-108.0
1607170606.8772,-108.0
1607170606.8792,-110.0
1607170606.8811,-103.0
1607170606.8831,-94.0
1607170606.8851,-91.0
1607170606.8871,-91.0
1607170606.8891,-91.0
1607170606.8911,-84.0
1607170606.8931,-84.0
1607170606.8951,-82.0
1607170606.8971,-82.0
1607170606.8978,-82.0
1607170606.8991,-84.0
1607170606.9011,-82.0
1607170606.9032,-74.0
1607170606.9052,-74.0
1607170606.9071,-74.0
1607170606.9091,-72.0
1607170606.9111,-69.0
1607170606.9131,-69.0
1607170606.9151,-69.0
1607170606.9171,-67.0
1607170606.9191,-65.0
1607170606.921,-60.0
1607170606.9231,-62.0
1607170606.925,-60.0
1607170606.9271,-53.0
1607170606.9277,-50.0
1607170606.929,-50.0
1607170606.931,-48.0
1607170606.933,-48.0
1607170606.9351,-53.0
1607170606.9371,-50.0
1607170606.9391,-43.0
1607170606.9411,-43.0
1607170606.943,-41.0
1607170606.945,-38.0
1607170606.9471,-38.0
1607170606.949,-36.0
1607170606.9511,-33.0
1607170606.953,-31.0
1607170606.9551,-31.0
1607170606.957,-28.0
1607170606.9577,-26.0
1607170606.9591,-21.0
1607170606.961,-19.0
1607170606.9631,-16.0
1607170606.965,-16.0
1607170606.9671,-14.0
1607170606.969,-12.0
1607170606.971,-12.0
1607170606.9731,-9.0
1607170606.9751,-7.0
1607170606.9771,-4.0
1607170606.9791,-2.0
1607170606.981,-2.0
1607170606.983,-2.0
1607170606.985,2.0
1607170606.9871,2.0
1607170606.9877,2.0
1607170606.989,0.0
1607170606.991,2.0
1607170606.993,7.0
1607170606.9951,7.0
1607170606.9971,7.0
1607170606.9992,9.0
1607170607.0013,9.0
1607170607.0031,7.0
1607170607.4076,9.0
1607170607.4085,12.0
1607170607.4109,9.0
1607170607.4136,7.0
1607170607.4156,9.0
1607170607.4176,9.0
1607170607.4196,7.0
1607170607.4203,0.0
1607170607.4217,0.0
1607170607.4237,4.0
1607170607.4256,4.0
1607170607.4276,4.0
1607170607.4295,7.0
1607170607.4316,9.0
1607170607.4335,9.0
1607170607.4355,9.0
1607170607.4375,12.0
1607170607.4395,14.0
1607170607.4415,14.0
1607170607.4435,12.0
1607170607.4455,12.0
1607170607.4476,12.0
1607170607.4495,14.0
1607170607.4501,28.0
1607170607.4515,50.0
1607170607.4535,57.0
1607170607.4555,50.0
1607170607.4575,45.0
1607170607.4595,38.0
1607170607.4615,16.0
1607170607.4635,-2.0
1607170607.4655,2.0
1607170607.4675,12.0
1607170607.4695,9.0
1607170607.4715,4.0
1607170607.4735,4.0
1607170607.4755,-7.0
1607170607.4775,-14.0
1607170607.4795,62.0
1607170607.4801,405.0
1607170607.4815,1078.0
1607170607.4835,1611.0
1607170607.4855,1324.0
1607170607.4875,241.0
1607170607.4895,-682.0
1607170607.4915,-637.0
1607170607.4935,-164.0
1607170607.4955,-67.0
1607170607.4977,-108.0
1607170607.4995,-24.0
1607170607.5015,0.0
1607170607.5035,-26.0
1607170607.5055,-2.0
1607170607.5075,19.0
1607170607.5095,19.0
1607170607.5101,26.0
1607170607.5115,41.0
1607170607.5135,48.0
1607170607.5155,53.0
1607170607.5175,65.0
1607170607.5195,74.0
1607170607.5215,82.0
1607170607.5235,94.0
1607170607.5255,108.0
1607170607.5275,120.0
1607170607.5295,132.0
1607170607.5315,149.0
1607170607.5335,173.0
1607170607.5355,193.0
1607170607.5375,217.0
1607170607.5395,246.0
1607170607.5401,279.0
1607170607.5415,318.0
1607170608.0078,359.0
1607170608.009,400.0
1607170608.0114,436.0
1607170608.0141,460.0
1607170608.016,468.0
1607170608.0181,456.0
1607170608.0202,422.0
1607170608.0221,354.0
1607170608.0241,248.0
1607170608.0261,130.0
1607170608.0281,26.0
1607170608.0287,-62.0
1607170608.0301,-130.0
1607170608.0321,-178.0
1607170608.0341,-202.0
1607170608.0361,-217.0
1607170608.038,-221.0
1607170608.04,-214.0
1607170608.0421,-207.0
1607170608.0443,-197.0
1607170608.046,-188.0
1607170608.0475,-180.0
1607170608.0487,-176.0
1607170608.05,-164.0
1607170608.0521,-152.0
1607170608.0526,-144.0
1607170608.0542,-139.0
1607170608.0561,-127.0
1607170608.058,-118.0
1607170608.06,-108.0
1607170608.062,-101.0
1607170608.064,-94.0
1607170608.066,-89.0
1607170608.068,-82.0
1607170608.07,-77.0
1607170608.072,-74.0
1607170608.074,-72.0
1607170608.076,-67.0
1607170608.078,-65.0
1607170608.0799,-65.0
1607170608.082,-65.0
1607170608.0826,-60.0
1607170608.0839,-55.0
1607170608.086,-57.0
1607170608.088,-55.0
1607170608.09,-53.0
1607170608.0921,-53.0
1607170608.094,-53.0
1607170608.096,-50.0
1607170608.098,-48.0
1607170608.0999,-43.0
1607170608.102,-45.0
1607170608.104,-43.0
1607170608.106,-36.0
1607170608.108,-36.0
1607170608.11,-36.0
1607170608.112,-33.0
1607170608.1126,-33.0
1607170608.1139,-31.0
1607170608.116,-28.0
1607170608.118,-26.0
1607170608.12,-24.0
1607170608.122,-21.0
1607170608.124,-21.0
1607170608.126,-19.0
1607170608.128,-14.0
1607170608.13,-14.0
1607170608.132,-12.0
1607170608.134,-9.0
1607170608.1359,-9.0
1607170608.1379,-7.0
1607170608.14,-2.0
1607170608.142,0.0
1607170608.5775,0.0
1607170608.5784,2.0
1607170608.5808,2.0
1607170608.5835,2.0
1607170608.5857,2.0
1607170608.5875,7.0
1607170608.5896,7.0
1607170608.5915,4.0
1607170608.5935,0.0
1607170608.5955,-7.0
1607170608.5975,-7.0
1607170608.5994,0.0
1607170608.6014,0.0
1607170608.6034,-7.0
1607170608.6054,-12.0
1607170608.6074,-19.0
1607170608.6081,-21.0
1607170608.6094,-16.0
1607170608.6115,-14.0
1607170608.6134,-12.0
1607170608.6154,-12.0
1607170608.6175,-9.0
1607170608.6194,-4.0
1607170608.6214,-4.0
1607170608.6234,-4.0
1607170608.6254,0.0
1607170608.6274,2.0
1607170608.6294,2.0
1607170608.6314,0.0
1607170608.6334,0.0
1607170608.6354,7.0
1607170608.6374,7.0
1607170608.638,4.0
1607170608.6394,9.0
1607170608.6414,14.0
1607170608.6434,9.0
1607170608.6454,7.0
1607170608.6474,12.0
1607170608.6494,21.0
1607170608.6514,24.0
1607170608.6534,21.0
1607170608.6555,21.0
1607170608.6574,19.0
1607170608.6594,16.0
1607170608.6614,19.0
1607170608.6634,24.0
1607170608.6654,31.0
1607170608.6674,31.0
1607170608.668,24.0
1607170608.6694,16.0
1607170608.6714,19.0
1607170608.6734,24.0
1607170608.6754,28.0
1607170608.6774,31.0
1607170608.6794,28.0
1607170608.6815,28.0
1607170608.6834,26.0
1607170608.6854,28.0
1607170608.6874,38.0
1607170608.6894,38.0
1607170608.6914,28.0
1607170608.6934,26.0
1607170608.6954,33.0
1607170608.6974,33.0
1607170608.698,31.0
1607170608.6994,33.0
1607170608.7014,36.0
1607170608.7034,33.0
1607170608.7054,31.0
1607170608.7074,33.0
1607170608.7094,41.0
1607170608.7114,50.0
1607170608.7134,65.0
1607170609.1178,67.0
1607170609.1188,62.0
1607170609.1213,62.0
1607170609.1239,57.0
1607170609.1259,36.0
1607170609.1266,21.0
1607170609.1279,28.0
1607170609.1299,31.0
1607170609.1319,28.0
1607170609.1339,26.0
1607170609.1359,14.0
1607170609.1378,-4.0
1607170609.1398,7.0
1607170609.1418,123.0
1607170609.1438,530.0
1607170609.1459,1235.0
1607170609.1478,1645.0
1607170609.1498,1148.0
1607170609.1518,2.0
1607170609.1538,-745.0
1607170609.1558,-540.0
1607170609.1565,-132.0
1607170609.1578,-101.0
1607170609.1598,-96.0
1607170609.1619,-7.0
1607170609.1638,-7.0
1607170609.1658,-24.0
1607170609.1679,7.0
1607170609.1685,21.0
1607170609.1698,21.0
1607170609.1718,36.0
1607170609.1738,48.0
1607170609.1758,45.0
1607170609.178,50.0
1607170609.1798,69.0
1607170609.1818,84.0
1607170609.1824,89.0
1607170609.1838,94.0
1607170609.1858,110.0
1607170609.1878,130.0
1607170609.1898,144.0
1607170609.1918,156.0
1607170609.1938,173.0
1607170609.1958,197.0
1607170609.1978,229.0
1607170609.1997,267.0
1607170609.2018,304.0
1607170609.2038,337.0
1607170609.2058,378.0
1607170609.2078,422.0
1607170609.2098,463.0
1607170609.2118,494.0
1607170609.2124,511.0
1607170609.2138,504.0
1607170609.2158,458.0
1607170609.2178,376.0
1607170609.2197,270.0
1607170609.2218,149.0
1607170609.2237,36.0
1607170609.2258,-62.0
1607170609.2278,-135.0
1607170609.2298,-185.0
1607170609.2318,-209.0
1607170609.2338,-217.0
1607170609.2358,-219.0
1607170609.2378,-224.0
1607170609.2398,-217.0
1607170609.2418,-197.0
1607170609.2424,-183.0
1607170609.2438,-173.0
1607170609.2458,-161.0
1607170609.2478,-154.0
1607170609.2498,-156.0
1607170609.6579,-156.0
1607170609.6593,-142.0
1607170609.6617,-123.0
1607170609.6643,-115.0
1607170609.6663,-108.0
1607170609.6683,-101.0
1607170609.6703,-96.0
1607170609.6724,-98.0
1607170609.6744,-96.0
1607170609.6763,-91.0
1607170609.6773,-89.0
1607170609.6796,-96.0
1607170609.6813,-94.0
1607170609.6833,-82.0
1607170609.6853,-74.0
1607170609.6875,-79.0
1607170609.6893,-84.0
1607170609.6914,-77.0
1607170609.6934,-72.0
1607170609.6953,-74.0
1607170609.6973,-74.0
1607170609.6993,-62.0
1607170609.7013,-60.0
1607170609.7034,-67.0
1607170609.7053,-65.0
1607170609.7072,-53.0
1607170609.7078,-48.0
1607170609.7092,-45.0
1607170609.7112,-38.0
1607170609.7133,-41.0
1607170609.7152,-53.0
1607170609.7172,-50.0
1607170609.7193,-36.0
1607170609.7212,-38.0
1607170609.7233,-48.0
1607170609.7252,-41.0
1607170609.7273,-26.0
1607170609.7292,-24.0
1607170609.7312,-26.0
1607170609.7332,-24.0
1607170609.7352,-16.0
1607170609.7373,-14.0
1607170609.7378,-24.0
1607170609.7392,-26.0
1607170609.7412,-21.0
1607170609.7432,-14.0
1607170609.7452,-14.0
1607170609.7473,-16.0
1607170609.7492,-16.0
1607170609.7512,-16.0
1607170609.7532,-21.0
1607170609.7552,-21.0
1607170609.7572,-12.0
1607170609.7592,-7.0
1607170609.7612,-21.0
1607170609.7632,-24.0
1607170609.7652,-9.0
1607170609.7672,-7.0
1607170609.7678,-14.0
1607170609.7692,-14.0
1607170609.7712,-7.0
1607170609.7732,-2.0
1607170609.7754,-4.0
1607170609.7773,-4.0
1607170609.7792,-4.0
1607170609.7812,-12.0
1607170609.7832,-14.0
1607170609.7852,-9.0
1607170609.7872,-4.0
1607170609.7892,-2.0
1607170609.7912,0.0
1607170609.7932,0.0
1607170609.7952,-2.0
1607170610.2282,-2.0
1607170610.2294,0.0
1607170610.2318,0.0
1607170610.2335,2.0
1607170610.2355,0.0
1607170610.2376,-9.0
1607170610.2395,-12.0
1607170610.2415,7.0
1607170610.2435,26.0
1607170610.2455,33.0
1607170610.2476,36.0
1607170610.2495,33.0
1607170610.2515,21.0
1607170610.2535,4.0
1607170610.2555,-4.0
1607170610.2562,0.0
1607170610.2575,7.0
1607170610.2595,2.0
1607170610.2615,4.0
1607170610.2635,9.0
1607170610.2655,-2.0
1607170610.2675,-21.0
1607170610.2696,14.0
1607170610.2714,246.0
1607170610.2734,844.0
1607170610.2754,1546.0
1607170610.2775,1585.0
1607170610.2794,661.0
1607170610.2814,-477.0
1607170610.2834,-798.0
1607170610.284,-361.0
1607170610.2854,-103.0
1607170610.2875,-130.0
1607170610.2894,-55.0
1607170610.2914,4.0
1607170610.2934,-24.0
1607170610.2954,-14.0
1607170610.2974,21.0
1607170610.2994,26.0
1607170610.3014,24.0
1607170610.3036,36.0
1607170610.3054,45.0
1607170610.3074,60.0
1607170610.3094,65.0
1607170610.3114,69.0
1607170610.3134,84.0
1607170610.314,101.0
1607170610.3154,110.0
1607170610.3174,120.0
1607170610.3194,139.0
1607170610.3214,161.0
1607170610.3234,180.0
1607170610.3254,202.0
1607170610.3274,226.0
1607170610.3294,258.0
1607170610.3314,294.0
1607170610.3334,335.0
1607170610.3354,378.0
1607170610.3374,424.0
1607170610.3394,463.0
1607170610.3414,497.0
1607170610.3434,523.0
1607170610.344,526.0
1607170610.3454,487.0
1607170610.3475,405.0
1607170610.3494,289.0
1607170610.3514,161.0
1607170610.3534,31.0
1607170610.3554,-74.0
1607170610.3574,-144.0
1607170610.3594,-190.0
1607170610.3614,-221.0
1607170610.3634,-243.0
1607170610.828,-246.0
1607170610.8289,-241.0
1607170610.8302,-234.0
1607170610.8309,-221.0
1607170610.8322,-207.0
1607170610.8342,-200.0
1607170610.8362,-197.0
1607170610.8382,-190.0
1607170610.8402,-178.0
1607170610.8422,-166.0
1607170610.8442,-156.0
1607170610.8463,-144.0
1607170610.8482,-135.0
1607170610.8502,-127.0
1607170610.8522,-120.0
1607170610.8542,-110.0
1607170610.8562,-103.0
1607170610.8582,-96.0
1607170610.8605,-91.0
1607170610.861,-86.0
1607170610.8622,-84.0
1607170610.8642,-82.0
1607170610.8662,-82.0
1607170610.8681,-82.0
1607170610.8701,-79.0
1607170610.8721,-77.0
1607170610.8742,-74.0
1607170610.8761,-69.0
1607170610.8781,-69.0
1607170610.8801,-72.0
1607170610.8821,-67.0
1607170610.8841,-62.0
1607170610.8861,-57.0
1607170610.8882,-57.0
1607170610.8901,-55.0
1607170610.8907,-53.0
1607170610.8921,-50.0
1607170610.8941,-53.0
1607170610.8961,-48.0
1607170610.8981,-43.0
1607170610.9001,-41.0
1607170610.9021,-38.0
1607170610.9041,-38.0
1607170610.9061,-33.0
1607170610.9081,-33.0
1607170610.9101,-36.0
1607170610.9121,-33.0
1607170610.9141,-28.0
1607170610.9161,-28.0
1607170610.9181,-24.0
1607170610.9201,-24.0
1607170610.9207,-28.0
1607170610.9221,-31.0
1607170610.9241,-26.0
1607170610.9261,-24.0
1607170610.9281,-21.0
1607170610.9301,-16.0
1607170610.9321,-16.0
1607170610.9341,-16.0
1607170610.9361,-12.0
1607170610.9381,-12.0
1607170610.9401,-12.0
1607170610.9421,-9.0
1607170610.9442,-4.0
1607170610.9461,-4.0
1607170610.9482,-4.0
1607170610.9501,-2.0
1607170610.9507,0.0
1607170610.9521,-2.0
1607170610.9543,-4.0
1607170610.9562,-2.0
1607170610.9582,-2.0
1607170610.9602,-2.0
1607170611.3675,-2.0
1607170611.3684,-4.0
1607170611.3709,-4.0
1607170611.3735,-9.0
1607170611.3755,-14.0
1607170611.3776,-12.0
1607170611.3796,-14.0
1607170611.3815,-16.0
1607170611.3835,-2.0
1607170611.3843,16.0
1607170611.3855,16.0
1607170611.3875,4.0
1607170611.3894,-2.0
1607170611.3914,-7.0
1607170611.3935,-24.0
1607170611.3954,-33.0
1607170611.3975,-24.0
1607170611.3994,-16.0
1607170611.4014,-16.0
1607170611.4034,-16.0
1607170611.4054,-19.0
1607170611.4074,-31.0
1607170611.4094,-48.0
1607170611.4114,2.0
1607170611.4134,301.0
1607170611.414,984.0
1607170611.4154,1643.0
1607170611.4175,1522.0
1607170611.4194,463.0
1607170611.4214,-639.0
1607170611.4234,-757.0
1607170611.4254,-243.0
1607170611.4275,-84.0
1607170611.4294,-147.0
1607170611.4314,-60.0
1607170611.4334,-19.0
1607170611.4354,-53.0
1607170611.4374,-31.0
1607170611.4394,-2.0
1607170611.4414,-7.0
1607170611.4434,4.0
1607170611.444,21.0
1607170611.4454,24.0
1607170611.4475,26.0
1607170611.4494,38.0
1607170611.4514,50.0
1607170611.4535,60.0
1607170611.4556,72.0
1607170611.4574,86.0
1607170611.4594,101.0
1607170611.4614,115.0
1607170611.4634,135.0
1607170611.4654,156.0
1607170611.4675,180.0
1607170611.4694,205.0
1607170611.4714,238.0
1607170611.4734,275.0
1607170611.474,316.0
1607170611.4754,357.0
1607170611.4774,402.0
1607170611.4794,443.0
1607170611.4814,475.0
1607170611.4834,487.0
1607170611.4854,475.0
1607170611.4874,431.0
1607170611.4894,342.0
1607170611.4914,224.0
1607170611.4934,101.0
1607170611.4954,-9.0
1607170611.4974,-98.0
1607170611.4994,-159.0
1607170611.5014,-200.0
1607170611.5034,-221.0
1607170611.9677,-231.0
1607170611.969,-231.0
1607170611.9713,-226.0
1607170611.9741,-214.0
1607170611.976,-202.0
1607170611.978,-195.0
1607170611.9802,-185.0
1607170611.982,-176.0
1607170611.9841,-171.0
1607170611.986,-166.0
1607170611.9881,-154.0
1607170611.99,-142.0
1607170611.9921,-135.0
1607170611.994,-125.0
1607170611.9947,-113.0
1607170611.996,-106.0
1607170611.998,-101.0
1607170612.0002,-94.0
1607170612.0021,-84.0
1607170612.004,-84.0
1607170612.006,-84.0
1607170612.008,-79.0
1607170612.01,-74.0
1607170612.012,-72.0
1607170612.014,-72.0
1607170612.0162,-69.0
1607170612.018,-69.0
1607170612.0199,-72.0
1607170612.022,-69.0
1607170612.0241,-67.0
1607170612.0245,-62.0
1607170612.0259,-60.0
1607170612.0279,-62.0
1607170612.03,-57.0
1607170612.0319,-55.0
1607170612.0339,-57.0
1607170612.0359,-57.0
1607170612.038,-53.0
1607170612.04,-50.0
1607170612.042,-50.0
1607170612.0439,-45.0
1607170612.0459,-41.0
1607170612.048,-36.0
1607170612.0499,-36.0
1607170612.0519,-36.0
1607170612.0539,-31.0
1607170612.0545,-28.0
1607170612.0559,-26.0
1607170612.0579,-21.0
1607170612.0599,-19.0
1607170612.0619,-19.0
1607170612.0639,-19.0
1607170612.0659,-14.0
1607170612.068,-9.0
1607170612.0699,-7.0
1607170612.0719,-9.0
1607170612.0739,-9.0
1607170612.0759,-7.0
1607170612.078,-7.0
1607170612.0799,-9.0
1607170612.0819,-7.0
1607170612.0839,-4.0
1607170612.0846,-4.0
1607170612.0859,-4.0
1607170612.0879,-2.0
1607170612.0899,2.0
1607170612.0919,2.0
1607170612.0939,2.0
1607170612.0959,2.0
1607170612.098,4.0
1607170612.0999,7.0
1607170612.102,7.0
1607170612.1039,9.0
1607170612.4773,9.0
1607170612.4781,9.0
1607170612.4804,7.0
1607170612.4823,9.0
1607170612.4841,14.0
1607170612.4847,14.0
1607170612.4863,12.0
1607170612.4881,12.0
1607170612.4901,14.0
1607170612.4922,9.0
1607170612.4941,2.0
1607170612.4961,4.0
1607170612.4981,9.0
1607170612.5001,2.0
1607170612.5021,-2.0
1607170612.5041,0.0
1607170612.5061,4.0
1607170612.5081,2.0
1607170612.51,2.0
1607170612.5121,4.0
1607170612.5142,7.0
1607170612.5147,7.0
1607170612.5161,7.0
1607170612.5181,9.0
1607170612.52,9.0
1607170612.522,7.0
1607170612.524,9.0
1607170612.526,9.0
1607170612.5281,7.0
1607170612.53,7.0
1607170612.5321,7.0
1607170612.534,9.0
1607170612.536,9.0
1607170612.538,12.0
1607170612.54,14.0
1607170612.5421,14.0
1607170612.544,14.0
1607170612.5447,14.0
1607170612.546,14.0
1607170612.5481,19.0
1607170612.5501,16.0
1607170612.552,19.0
1607170612.554,19.0
1607170612.556,16.0
1607170612.558,16.0
1607170612.56,16.0
1607170612.562,19.0
1607170612.564,19.0
1607170612.566,16.0
1607170612.5681,14.0
1607170612.57,9.0
1607170612.5721,9.0
1607170612.574,9.0
1607170612.5746,9.0
1607170612.5762,9.0
1607170612.5781,9.0
1607170612.58,9.0
1607170612.582,12.0
1607170612.584,12.0
1607170612.586,12.0
1607170612.5881,4.0
1607170612.59,-4.0
1607170612.5921,-7.0
1607170612.5941,0.0
1607170612.596,2.0
1607170612.598,7.0
1607170612.6001,26.0
1607170612.602,45.0
1607170612.604,48.0
1607170612.6046,38.0
1607170612.606,26.0
1607170612.608,16.0
1607170612.61,16.0
1607170613.0473,21.0
1607170613.048,24.0
1607170613.0504,21.0
1607170613.0532,21.0
1607170613.0551,12.0
1607170613.0571,-2.0
1607170613.0591,21.0
1607170613.0611,219.0
1607170613.063,762.0
1607170613.0637,1428.0
1607170613.065,1520.0
1607170613.0671,702.0
1607170613.0691,-402.0
1607170613.0711,-752.0
1607170613.073,-313.0
1607170613.0751,-48.0
1607170613.0771,-113.0
1607170613.079,-67.0
1607170613.081,0.0
1607170613.083,-31.0
1607170613.085,-31.0
1607170613.0871,-2.0
1607170613.089,2.0
1607170613.091,7.0
1607170613.093,21.0
1607170613.0936,28.0
1607170613.0951,33.0
1607170613.0971,48.0
1607170613.099,62.0
1607170613.101,69.0
1607170613.103,82.0
1607170613.1051,91.0
1607170613.1072,103.0
1607170613.1091,120.0
1607170613.111,139.0
1607170613.113,154.0
1607170613.115,173.0
1607170613.1171,197.0
1607170613.119,219.0
1607170613.121,248.0
1607170613.123,289.0
1607170613.1236,325.0
1607170613.125,359.0
1607170613.127,395.0
1607170613.129,429.0
1607170613.131,453.0
1607170613.133,463.0
1607170613.135,451.0
1607170613.1371,398.0
1607170613.139,308.0
1607170613.141,205.0
1607170613.143,94.0
1607170613.145,-7.0
1607170613.147,-82.0
1607170613.149,-142.0
1607170613.151,-183.0
1607170613.153,-202.0
1607170613.1536,-205.0
1607170613.1551,-202.0
1607170613.1571,-195.0
1607170613.159,-188.0
1607170613.161,-178.0
1607170613.163,-168.0
1607170613.165,-159.0
1607170613.167,-147.0
1607170613.169,-135.0
1607170613.171,-123.0
1607170613.173,-115.0
1607170613.175,-108.0
1607170613.1771,-103.0
1607170613.179,-94.0
1607170613.181,-84.0
1607170613.183,-89.0
1607170613.6175,-89.0
1607170613.6185,-79.0
1607170613.6209,-74.0
1607170613.6236,-72.0
1607170613.6256,-67.0
1607170613.6276,-65.0
1607170613.6296,-65.0
1607170613.6315,-69.0
1607170613.6335,-72.0
1607170613.6355,-72.0
1607170613.6378,-69.0
1607170613.6396,-72.0
1607170613.6415,-72.0
1607170613.6435,-72.0
1607170613.6455,-72.0
1607170613.6475,-72.0
1607170613.6481,-69.0
1607170613.6495,-62.0
1607170613.6515,-53.0
1607170613.6535,-48.0
1607170613.6555,-55.0
1607170613.6575,-55.0
1607170613.6596,-48.0
