Time,ECG
1607168613.9286,5378
1607168613.9327,7185
1607168613.9345,7940
1607168613.9361,8944
1607168613.9381,9801
1607168613.9401,10238
1607168613.9421,10701
1607168613.9443,11154
1607168613.9465,11427
1607168613.9485,11661
1607168613.9506,11895
1607168613.9532,12050
1607168613.9553,12156
1607168613.9571,12260
1607168613.9592,12337
1607168613.9611,12366
1607168613.9631,12371
1607168613.9651,12378
1607168613.9671,12373
1607168613.9691,12339
1607168613.9711,12296
1607168613.9731,12250
1607168613.9751,12190
1607168613.9771,12115
1607168613.9791,12040
1607168613.9812,11970
1607168613.9833,11893
1607168613.9850,11794
1607168613.9870,11695
1607168613.9890,11608
1607168613.9910,11516
1607168613.9930,11417
1607168613.9950,11328
1607168613.9970,11229
1607168613.9990,11109
1607168614.0010,11002
1607168614.0030,10906
1607168614.0051,10809
1607168614.0070,10708
1607168614.0091,10602
1607168614.0110,10493
1607168614.0130,10399
1607168614.0151,10310
1607168614.0171,10211
1607168614.0190,10098
1607168614.0210,9989
1607168614.0230,9890
1607168614.0251,9786
1607168614.0270,9687
1607168614.0290,9598
1607168614.0352,9504
1607168614.0362,9400
1607168614.0370,9304
1607168614.0390,9217
1607168614.0410,9120
1607168614.0430,9021
1607168614.0450,8935
1607168614.0470,8848
1607168614.0490,8746
1607168614.0510,8652
1607168614.0530,8573
1607168614.0550,8488
1607168614.0571,8396
1607168614.0590,8310
1607168614.0610,8232
1607168614.0630,8148
1607168614.0650,8051
1607168614.0670,7967
1607168614.0690,7897
1607168614.0710,7815
1607168614.0730,7721
1607168614.0749,7644
1607168614.0770,7574
1607168614.4944,7496
1607168614.4956,7414
1607168614.4980,7340
1607168614.5006,7265
1607168614.5026,7190
1607168614.5047,7115
1607168614.5068,7043
1607168614.5086,6987
1607168614.5106,6917
1607168614.5129,6816
1607168614.5146,6741
1607168614.5166,6693
1607168614.5187,6623
1607168614.5207,6546
1607168614.5227,6485
1607168614.5246,6420
1607168614.5266,6353
1607168614.5286,6285
1607168614.5306,6227
1607168614.5326,6172
1607168614.5347,6099
1607168614.5366,6032
1607168614.5386,5976
1607168614.5408,5926
1607168614.5427,5860
1607168614.5445,5791
1607168614.5466,5735
1607168614.5486,5680
1607168614.5508,5614
1607168614.5526,5556
1607168614.5547,5508
1607168614.5566,5455
1607168614.5587,5397
1607168614.5607,5339
1607168614.5627,5289
1607168614.5646,5243
1607168614.5666,5187
1607168614.5687,5122
1607168614.5706,5074
1607168614.5726,5028
1607168614.5746,4975
1607168614.5765,4927
1607168614.5785,4883
1607168614.5806,4835
1607168614.5826,4780
1607168614.5846,4731
1607168614.5866,4693
1607168614.5887,4642
1607168614.5906,4589
1607168614.5925,4548
1607168614.5945,4509
1607168614.5965,4461
1607168614.5985,4415
1607168614.6005,4374
1607168614.6025,4333
1607168614.6046,4292
1607168614.6065,4244
1607168614.6085,4198
1607168614.6105,4157
1607168614.6125,4121
1607168614.6145,4080
1607168614.6166,4041
1607168614.6185,4000
1607168614.6205,3954
1607168614.6225,3911
1607168614.6245,3882
1607168614.6265,3863
1607168614.6286,3838
1607168614.6305,3810
1607168614.6325,3768
1607168614.6346,3720
1607168614.6366,3665
1607168614.6386,3612
1607168615.0346,3578
1607168615.0355,3549
1607168615.0381,3510
1607168615.0408,3481
1607168615.0426,3452
1607168615.0446,3411
1607168615.0471,3368
1607168615.0487,3344
1607168615.0506,3394
1607168615.0527,3655
1607168615.0547,4196
1607168615.0567,4579
1607168615.0587,4167
1607168615.0607,3124
1607168615.0626,2398
1607168615.0645,2497
1607168615.0665,2861
1607168615.0686,2938
1607168615.0706,2929
1607168615.0726,2972
1607168615.0746,2946
1607168615.0765,2905
1607168615.0785,2900
1607168615.0805,2885
1607168615.0826,2861
1607168615.0846,2840
1607168615.0865,2818
1607168615.0885,2801
1607168615.0905,2784
1607168615.0925,2755
1607168615.0945,2736
1607168615.0965,2726
1607168615.0986,2707
1607168615.1006,2690
1607168615.1025,2683
1607168615.1046,2673
1607168615.1065,2656
1607168615.1085,2644
1607168615.1105,2639
1607168615.1125,2639
1607168615.1145,2642
1607168615.1165,2639
1607168615.1185,2646
1607168615.1205,2659
1607168615.1225,2673
1607168615.1245,2685
1607168615.1265,2692
1607168615.1297,2690
1607168615.1315,2673
1607168615.1336,2634
1607168615.1355,2574
1607168615.1375,2497
1607168615.1395,2396
1607168615.1415,2268
1607168615.1435,2145
1607168615.1455,2048
1607168615.1475,1973
1607168615.1497,1918
1607168615.1516,1882
1607168615.1535,1853
1607168615.1555,1831
1607168615.1575,1821
1607168615.1595,1812
1607168615.1615,1802
1607168615.1635,1795
1607168615.1655,1797
1607168615.1675,1792
1607168615.1695,1775
1607168615.1715,1766
1607168615.1736,1763
1607168615.1755,1756
1607168615.1775,1742
1607168615.1795,1725
1607168615.6038,1710
1607168615.6050,1701
1607168615.6075,1689
1607168615.6101,1669
1607168615.6121,1655
1607168615.6141,1640
1607168615.6162,1619
1607168615.6181,1592
1607168615.6201,1580
1607168615.6221,1575
1607168615.6240,1563
1607168615.6260,1541
1607168615.6280,1524
1607168615.6300,1515
1607168615.6321,1503
1607168615.6341,1491
1607168615.6360,1483
1607168615.6380,1479
1607168615.6401,1464
1607168615.6421,1450
1607168615.6440,1442
1607168615.6460,1426
1607168615.6480,1399
1607168615.6500,1392
1607168615.6520,1392
1607168615.6540,1375
1607168615.6560,1360
1607168615.6580,1358
1607168615.6600,1351
1607168615.6620,1339
1607168615.6640,1324
1607168615.6660,1315
1607168615.6680,1310
1607168615.6700,1302
1607168615.6719,1288
1607168615.6741,1274
1607168615.6760,1264
1607168615.6779,1257
1607168615.6800,1247
1607168615.6819,1237
1607168615.6840,1230
1607168615.6860,1223
1607168615.6880,1204
1607168615.6900,1187
1607168615.6920,1182
1607168615.6940,1177
1607168615.6960,1163
1607168615.6980,1153
1607168615.7000,1146
1607168615.7020,1131
1607168615.7040,1122
1607168615.7060,1112
1607168615.7080,1102
1607168615.7100,1097
1607168615.7120,1090
1607168615.7141,1073
1607168615.7160,1068
1607168615.7180,1071
1607168615.7201,1054
1607168615.7220,1039
1607168615.7241,1042
1607168615.7260,1037
1607168615.7280,1025
1607168615.7300,1018
1607168615.7320,1013
1607168615.7340,1003
1607168615.7360,996
1607168615.7380,989
1607168615.7400,979
1607168615.7420,969
1607168615.7440,962
1607168615.7460,957
1607168615.7480,953
1607168616.1442,941
1607168616.1451,928
1607168616.1476,931
1607168616.1502,933
1607168616.1523,914
1607168616.1542,904
1607168616.1561,909
1607168616.1581,897
1607168616.1602,878
1607168616.1621,873
1607168616.1642,866
1607168616.1661,854
1607168616.1681,854
1607168616.1705,859
1607168616.1722,846
1607168616.1741,827
1607168616.1761,817
1607168616.1781,817
1607168616.1801,825
1607168616.1821,839
1607168616.1841,851
1607168616.1861,839
1607168616.1881,815
1607168616.1901,796
1607168616.1921,779
1607168616.1942,772
1607168616.1961,769
1607168616.1981,764
1607168616.2001,755
1607168616.2021,748
1607168616.2041,748
1607168616.2061,743
1607168616.2081,738
1607168616.2101,776
1607168616.2121,991
1607168616.2141,1537
1607168616.2163,2111
1607168616.2181,1968
1607168616.2201,994
1607168616.2221,57
1607168616.2241,-65
1607168616.2261,345
1607168616.2282,550
1607168616.2301,567
1607168616.2321,663
1607168616.2342,697
1607168616.2362,658
1607168616.2381,668
1607168616.2401,692
1607168616.2421,687
1607168616.2441,682
1607168616.2461,690
1607168616.2481,694
1607168616.2501,699
1607168616.2521,697
1607168616.2541,697
1607168616.2561,711
1607168616.2581,726
1607168616.2601,723
1607168616.2621,723
1607168616.2641,733
1607168616.2661,740
1607168616.2681,752
1607168616.2701,764
1607168616.2723,781
1607168616.2741,808
1607168616.2761,837
1607168616.2781,871
1607168616.2802,902
1607168616.2822,936
1607168616.2842,965
1607168616.2861,996
1607168616.2881,1035
1607168616.7143,1052
1607168616.7152,1025
1607168616.7178,977
1607168616.7203,897
1607168616.7223,772
1607168616.7244,629
1607168616.7264,506
1607168616.7283,412
1607168616.7303,342
1607168616.7323,304
1607168616.7344,279
1607168616.7363,272
1607168616.7383,277
1607168616.7403,284
1607168616.7423,291
1607168616.7443,306
1607168616.7463,318
1607168616.7482,328
1607168616.7502,337
1607168616.7522,347
1607168616.7543,352
1607168616.7562,361
1607168616.7582,369
1607168616.7602,369
1607168616.7622,369
1607168616.7643,378
1607168616.7662,383
1607168616.7682,386
1607168616.7703,374
1607168616.7722,364
1607168616.7743,381
1607168616.7762,390
1607168616.7782,374
1607168616.7802,361
1607168616.7822,366
1607168616.7843,371
1607168616.7863,369
1607168616.7882,366
1607168616.7902,366
1607168616.7922,364
1607168616.7943,361
1607168616.7962,366
1607168616.7984,371
1607168616.8003,364
1607168616.8022,361
1607168616.8043,359
1607168616.8062,352
1607168616.8082,357
1607168616.8102,369
1607168616.8122,374
1607168616.8144,364
1607168616.8162,357
1607168616.8182,352
1607168616.8202,352
1607168616.8222,357
1607168616.8243,359
1607168616.8262,359
1607168616.8282,354
1607168616.8303,347
1607168616.8323,347
1607168616.8343,354
1607168616.8362,359
1607168616.8382,354
1607168616.8402,347
1607168616.8422,345
1607168616.8442,347
1607168616.8462,347
1607168616.8483,345
1607168616.8502,342
1607168616.8522,340
1607168616.8543,335
1607168616.8562,325
1607168616.8582,320
1607168617.3148,318
1607168617.3157,318
1607168617.3182,316
1607168617.3208,313
1607168617.3228,316
1607168617.3248,318
1607168617.3268,311
1607168617.3288,299
1607168617.3308,301
1607168617.3328,308
1607168617.3347,304
1607168617.3367,299
1607168617.3387,301
1607168617.3407,301
1607168617.3427,299
1607168617.3447,301
1607168617.3467,301
1607168617.3487,296
1607168617.3507,301
1607168617.3527,320
1607168617.3549,335
1607168617.3568,335
1607168617.3587,328
1607168617.3607,316
1607168617.3627,299
1607168617.3647,287
1607168617.3667,289
1607168617.3688,289
1607168617.3707,289
1607168617.3727,294
1607168617.3747,294
1607168617.3767,291
1607168617.3787,284
1607168617.3807,282
1607168617.3827,330
1607168617.3847,579
1607168617.3867,1165
1607168617.3887,1739
1607168617.3908,1549
1607168617.3927,535
1607168617.3948,-393
1607168617.3967,-468
1607168617.3987,-38
1607168617.4007,154
1607168617.4027,161
1607168617.4047,246
1607168617.4067,284
1607168617.4087,267
1607168617.4107,284
1607168617.4127,301
1607168617.4147,289
1607168617.4167,291
1607168617.4187,308
1607168617.4207,320
1607168617.4227,323
1607168617.4247,328
1607168617.4267,337
1607168617.4288,345
1607168617.4307,354
1607168617.4327,366
1607168617.4347,376
1607168617.4367,383
1607168617.4387,393
1607168617.4407,412
1607168617.4427,436
1607168617.4447,451
1607168617.4467,468
1607168617.4488,501
1607168617.4507,542
1607168617.4527,574
1607168617.4548,610
1607168617.4569,653
1607168617.4588,682
1607168617.8557,697
1607168617.8567,706
1607168617.8586,685
1607168617.8606,624
1607168617.8625,533
1607168617.8646,419
1607168617.8665,299
1607168617.8686,195
1607168617.8705,113
1607168617.8725,60
1607168617.8745,28
1607168617.8764,9
1607168617.8785,-2
1607168617.8805,7
1607168617.8824,21
1607168617.8846,31
1607168617.8864,43
1607168617.8884,57
1607168617.8904,69
1607168617.8926,82
1607168617.8944,94
1607168617.8964,106
1607168617.8984,110
1607168617.9004,115
1607168617.9024,127
1607168617.9044,139
1607168617.9064,144
1607168617.9084,144
1607168617.9105,147
1607168617.9125,152
1607168617.9145,152
1607168617.9164,152
1607168617.9184,156
1607168617.9204,154
1607168617.9224,149
1607168617.9245,149
1607168617.9264,152
1607168617.9285,149
1607168617.9305,147
1607168617.9325,152
1607168617.9344,154
1607168617.9365,154
1607168617.9385,154
1607168617.9405,156
1607168617.9424,159
1607168617.9445,159
1607168617.9464,161
1607168617.9484,166
1607168617.9504,166
1607168617.9527,161
1607168617.9545,164
1607168617.9564,168
1607168617.9585,171
1607168617.9604,168
1607168617.9624,166
1607168617.9645,171
1607168617.9664,173
1607168617.9685,173
1607168617.9705,166
1607168617.9725,168
1607168617.9744,173
1607168617.9764,171
1607168617.9784,168
1607168617.9804,168
1607168617.9824,173
1607168617.9845,176
1607168617.9864,173
1607168617.9884,173
1607168617.9904,173
1607168617.9925,176
1607168617.9944,176
1607168617.9965,176
1607168617.9984,178
1607168618.4244,178
1607168618.4254,178
1607168618.4278,178
1607168618.4305,180
1607168618.4325,180
1607168618.4345,180
1607168618.4364,180
1607168618.4384,178
1607168618.4404,166
1607168618.4424,161
1607168618.4444,166
1607168618.4464,168
1607168618.4486,166
1607168618.4504,166
1607168618.4532,168
1607168618.4543,171
1607168618.4564,171
1607168618.4584,173
1607168618.4590,173
1607168618.4613,173
1607168618.4634,171
1607168618.4654,173
1607168618.4673,176
1607168618.4693,176
1607168618.4713,171
1607168618.4733,168
1607168618.4754,168
1607168618.4775,168
1607168618.4794,171
1607168618.4814,171
1607168618.4835,173
1607168618.4854,171
1607168618.4873,171
1607168618.4881,173
1607168618.4893,173
1607168618.4913,173
1607168618.4933,173
1607168618.4953,176
1607168618.4974,176
1607168618.4994,173
1607168618.5015,173
1607168618.5033,176
1607168618.5054,176
1607168618.5073,168
1607168618.5093,166
1607168618.5113,168
1607168618.5133,168
1607168618.5155,166
1607168618.5173,164
1607168618.5180,161
1607168618.5193,159
1607168618.5213,149
1607168618.5233,147
1607168618.5253,152
1607168618.5273,152
1607168618.5293,149
1607168618.5314,149
1607168618.5333,149
1607168618.5353,144
1607168618.5373,144
1607168618.5393,147
1607168618.5413,147
1607168618.5433,147
1607168618.5454,147
1607168618.5474,144
1607168618.5480,147
1607168618.5493,164
1607168618.5513,178
1607168618.5533,180
1607168618.5554,178
1607168618.5574,176
1607168618.5594,166
1607168618.5613,149
1607168618.9940,139
1607168618.9947,144
1607168618.9967,147
1607168618.9989,147
1607168619.0007,149
1607168619.0029,149
1607168619.0047,135
1607168619.0067,127
1607168619.0087,168
1607168619.0107,374
1607168619.0127,897
1607168619.0147,1471
1607168619.0167,1397
1607168619.0187,504
1607168619.0208,-443
1607168619.0227,-598
1607168619.0247,-149
1607168619.0267,65
1607168619.0274,24
1607168619.0288,84
1607168619.0308,135
1607168619.0328,110
1607168619.0347,120
1607168619.0367,149
1607168619.0387,149
1607168619.0407,154
1607168619.0428,168
1607168619.0447,176
1607168619.0467,180
1607168619.0488,188
1607168619.0507,195
1607168619.0527,205
1607168619.0547,214
1607168619.0567,224
1607168619.0574,236
1607168619.0587,248
1607168619.0608,258
1607168619.0627,272
1607168619.0648,291
1607168619.0667,313
1607168619.0687,332
1607168619.0707,357
1607168619.0727,383
1607168619.0747,412
1607168619.0767,441
1607168619.0787,472
1607168619.0808,506
1607168619.0827,528
1607168619.0848,533
1607168619.0867,523
1607168619.0874,497
1607168619.0887,441
1607168619.0907,352
1607168619.0928,246
1607168619.0947,147
1607168619.0967,67
1607168619.0990,7
1607168619.1008,-31
1607168619.1027,-50
1607168619.1047,-60
1607168619.1067,-62
1607168619.1087,-55
1607168619.1107,-41
1607168619.1127,-26
1607168619.1148,-19
1607168619.1154,-9
1607168619.1177,2
1607168619.1198,14
1607168619.1217,21
1607168619.1237,31
1607168619.1257,41
1607168619.1277,45
1607168619.1297,48
1607168619.5347,55
1607168619.5357,60
1607168619.5375,62
1607168619.5395,62
1607168619.5415,65
1607168619.5435,67
1607168619.5454,69
1607168619.5462,67
1607168619.5485,67
1607168619.5504,69
1607168619.5524,62
1607168619.5544,53
1607168619.5564,57
1607168619.5584,65
1607168619.5603,62
1607168619.5624,62
1607168619.5645,65
1607168619.5664,67
1607168619.5684,69
1607168619.5705,72
1607168619.5725,74
1607168619.5744,79
1607168619.5764,79
1607168619.5771,77
1607168619.5784,82
1607168619.5804,86
1607168619.5825,84
1607168619.5845,86
1607168619.5865,91
1607168619.5885,91
1607168619.5904,91
1607168619.5924,94
1607168619.5944,96
1607168619.5965,96
1607168619.5986,96
1607168619.6004,98
1607168619.6024,96
1607168619.6045,91
1607168619.6064,89
1607168619.6071,94
1607168619.6084,94
1607168619.6104,91
1607168619.6124,94
1607168619.6145,96
1607168619.6166,98
1607168619.6185,101
1607168619.6204,101
1607168619.6224,98
1607168619.6244,101
1607168619.6264,103
1607168619.6284,103
1607168619.6305,106
1607168619.6324,108
1607168619.6344,106
1607168619.6364,106
1607168619.6371,110
1607168619.6384,113
1607168619.6404,110
1607168619.6425,110
1607168619.6445,110
1607168619.6464,113
1607168619.6485,113
1607168619.6504,113
1607168619.6524,115
1607168619.6544,115
1607168619.6564,113
1607168619.6584,113
1607168619.6604,115
1607168619.6624,113
1607168619.6645,108
1607168619.6664,110
1607168619.6671,108
1607168619.6684,101
1607168620.0744,98
1607168620.0754,101
1607168620.0778,101
1607168620.0808,96
1607168620.0825,86
1607168620.0844,89
1607168620.0865,96
1607168620.0884,89
1607168620.0903,79
1607168620.0924,77
1607168620.0944,84
1607168620.0965,84
1607168620.0986,84
1607168620.1004,89
1607168620.1023,91
1607168620.1044,91
1607168620.1063,91
1607168620.1084,94
1607168620.1103,96
1607168620.1123,98
1607168620.1144,98
1607168620.1163,98
1607168620.1183,98
1607168620.1203,101
1607168620.1223,101
1607168620.1243,103
1607168620.1263,106
1607168620.1283,106
1607168620.1304,101
1607168620.1324,96
1607168620.1344,94
1607168620.1363,91
1607168620.1383,91
1607168620.1403,96
1607168620.1424,98
1607168620.1444,96
1607168620.1464,101
1607168620.1484,103
1607168620.1503,103
1607168620.1524,103
1607168620.1544,103
1607168620.1563,106
1607168620.1583,108
1607168620.1603,108
1607168620.1623,110
1607168620.1644,110
1607168620.1664,108
1607168620.1683,108
1607168620.1703,110
1607168620.1723,110
1607168620.1744,113
1607168620.1763,110
1607168620.1783,108
1607168620.1804,113
1607168620.1824,113
1607168620.1844,113
1607168620.1863,115
1607168620.1883,115
1607168620.1903,113
1607168620.1923,110
1607168620.1943,110
1607168620.1963,113
1607168620.1984,118
1607168620.2005,130
1607168620.2024,142
1607168620.2044,142
1607168620.2064,137
1607168620.2083,130
1607168620.2103,115
1607168620.2123,101
1607168620.2144,98
1607168620.2163,106
1607168620.2183,108
1607168620.6744,108
1607168620.6756,108
1607168620.6782,103
1607168620.6807,91
1607168620.6827,94
1607168620.6847,183
1607168620.6868,542
1607168620.6888,1170
1607168620.6907,1481
1607168620.6929,945
1607168620.6947,-89
1607168620.6967,-670
1607168620.6988,-419
1607168620.7007,-33
1607168620.7028,9
1607168620.7047,14
1607168620.7066,86
1607168620.7087,86
1607168620.7107,77
1607168620.7127,106
1607168620.7147,115
1607168620.7167,110
1607168620.7187,115
1607168620.7206,123
1607168620.7227,127
1607168620.7247,137
1607168620.7267,147
1607168620.7287,152
1607168620.7308,159
1607168620.7328,171
1607168620.7347,183
1607168620.7366,195
1607168620.7386,205
1607168620.7406,219
1607168620.7426,234
1607168620.7447,253
1607168620.7467,272
1607168620.7487,296
1607168620.7507,323
1607168620.7526,352
1607168620.7547,383
1607168620.7568,419
1607168620.7587,456
1607168620.7606,482
1607168620.7626,489
1607168620.7647,492
1607168620.7666,482
1607168620.7687,443
1607168620.7706,374
1607168620.7726,282
1607168620.7746,178
1607168620.7766,84
1607168620.7786,12
1607168620.7807,-45
1607168620.7827,-84
1607168620.7846,-98
1607168620.7866,-103
1607168620.7886,-101
1607168620.7906,-96
1607168620.7926,-82
1607168620.7946,-69
1607168620.7966,-55
1607168620.7987,-43
1607168620.8006,-33
1607168620.8026,-24
1607168620.8046,-12
1607168620.8066,-4
1607168620.8086,0
1607168620.8106,2
1607168620.8126,7
1607168620.8147,12
1607168620.8166,16
1607168620.8186,21
1607168621.2148,21
1607168621.2158,16
1607168621.2183,12
1607168621.2209,16
1607168621.2230,21
1607168621.2249,19
1607168621.2268,14
1607168621.2288,14
1607168621.2309,19
1607168621.2329,14
1607168621.2348,7
1607168621.2368,4
1607168621.2388,12
1607168621.2408,12
1607168621.2429,4
1607168621.2449,4
1607168621.2468,7
1607168621.2489,9
1607168621.2508,14
1607168621.2530,16
1607168621.2548,19
1607168621.2568,24
1607168621.2588,26
1607168621.2608,28
1607168621.2628,38
1607168621.2648,38
1607168621.2668,38
1607168621.2688,45
1607168621.2708,50
1607168621.2728,45
1607168621.2750,48
1607168621.2768,53
1607168621.2788,50
1607168621.2808,48
1607168621.2829,55
1607168621.2848,57
1607168621.2868,55
1607168621.2888,60
1607168621.2908,67
1607168621.2928,69
1607168621.2948,67
1607168621.2968,67
1607168621.2989,67
1607168621.3008,67
1607168621.3028,69
1607168621.3048,67
1607168621.3068,62
1607168621.3088,65
1607168621.3108,74
1607168621.3128,79
1607168621.3149,74
1607168621.3168,72
1607168621.3188,74
1607168621.3208,74
1607168621.3228,79
1607168621.3248,86
1607168621.3268,89
1607168621.3288,79
1607168621.3308,72
1607168621.3328,79
1607168621.3348,84
1607168621.3368,84
1607168621.3388,84
1607168621.3408,86
1607168621.3429,89
1607168621.3448,84
1607168621.3469,82
1607168621.3488,86
1607168621.3508,86
1607168621.3528,91
1607168621.3551,94
1607168621.3568,89
1607168621.3588,89
1607168621.7838,91
1607168621.7847,86
1607168621.7872,89
1607168621.7898,91
1607168621.7920,82
1607168621.7938,82
1607168621.7961,91
1607168621.7979,84
1607168621.8000,67
1607168621.8018,65
1607168621.8039,69
1607168621.8058,69
1607168621.8078,74
1607168621.8098,79
1607168621.8118,74
1607168621.8138,69
1607168621.8158,74
1607168621.8177,82
1607168621.8198,84
1607168621.8218,79
1607168621.8238,77
1607168621.8257,82
1607168621.8277,86
1607168621.8298,89
1607168621.8319,89
1607168621.8338,86
1607168621.8357,84
1607168621.8377,84
1607168621.8397,86
1607168621.8418,84
1607168621.8438,82
1607168621.8457,86
1607168621.8478,91
1607168621.8497,94
1607168621.8517,96
1607168621.8538,91
1607168621.8557,84
1607168621.8577,86
1607168621.8597,94
1607168621.8617,86
1607168621.8638,84
1607168621.8658,89
1607168621.8677,82
1607168621.8697,74
1607168621.8717,89
1607168621.8738,115
1607168621.8757,123
1607168621.8777,120
1607168621.8800,118
1607168621.8818,108
1607168621.8838,84
1607168621.8857,69
1607168621.8877,82
1607168621.8897,89
1607168621.8917,82
1607168621.8938,79
1607168621.8957,82
1607168621.8978,84
1607168621.8997,79
1607168621.9017,82
1607168621.9038,137
1607168621.9057,378
1607168621.9077,950
1607168621.9097,1493
1607168621.9117,1264
1607168621.9138,260
1607168621.9158,-605
1607168621.9177,-634
1607168621.9197,-212
1607168621.9217,-45
1607168621.9238,-41
1607168621.9257,48
1607168621.9278,86
1607168622.3238,57
1607168622.3248,72
1607168622.3273,94
1607168622.3299,84
1607168622.3319,89
1607168622.3340,106
1607168622.3359,110
1607168622.3378,115
1607168622.3399,123
1607168622.3419,120
1607168622.3439,130
1607168622.3460,149
1607168622.3479,154
1607168622.3499,156
1607168622.3519,176
1607168622.3538,195
1607168622.3557,207
1607168622.3578,224
1607168622.3598,250
1607168622.3617,275
1607168622.3638,299
1607168622.3658,330
1607168622.3678,369
1607168622.3698,407
1607168622.3718,446
1607168622.3738,482
1607168622.3759,513
1607168622.3778,526
1607168622.3799,516
1607168622.3818,480
1607168622.3838,407
1607168622.3857,304
1607168622.3877,185
1607168622.3897,72
1607168622.3918,-14
1607168622.3938,-79
1607168622.3957,-123
1607168622.3978,-147
1607168622.3997,-156
1607168622.4017,-154
1607168622.4038,-149
1607168622.4057,-137
1607168622.4078,-123
1607168622.4097,-115
1607168622.4118,-103
1607168622.4138,-84
1607168622.4158,-72
1607168622.4177,-65
1607168622.4197,-65
1607168622.4217,-53
1607168622.4238,-38
1607168622.4257,-38
1607168622.4278,-43
1607168622.4300,-41
1607168622.4318,-33
1607168622.4338,-26
1607168622.4357,-21
1607168622.4377,-24
1607168622.4397,-26
1607168622.4417,-28
1607168622.4438,-28
1607168622.4457,-21
1607168622.4478,-12
1607168622.4497,-14
1607168622.4517,-16
1607168622.4538,-12
1607168622.4557,-14
1607168622.4577,-24
1607168622.4597,-19
1607168622.4617,-7
1607168622.4638,-2
1607168622.4658,-7
1607168622.4678,-4
1607168622.8944,4
1607168622.8953,7
1607168622.8978,2
1607168622.9004,7
1607168622.9026,14
1607168622.9044,9
1607168622.9064,-4
1607168622.9083,0
1607168622.9103,9
1607168622.9124,9
1607168622.9143,9
1607168622.9163,21
1607168622.9183,24
1607168622.9203,21
1607168622.9223,19
1607168622.9243,21
1607168622.9263,31
1607168622.9283,36
1607168622.9304,31
1607168622.9324,26
1607168622.9343,33
1607168622.9363,41
1607168622.9382,33
1607168622.9403,28
1607168622.9423,38
1607168622.9443,50
1607168622.9462,50
1607168622.9483,43
1607168622.9502,45
1607168622.9522,45
1607168622.9543,43
1607168622.9562,50
1607168622.9582,53
1607168622.9602,48
1607168622.9622,50
1607168622.9643,55
1607168622.9664,55
1607168622.9683,55
1607168622.9758,57
1607168622.9773,57
1607168622.9793,60
1607168622.9813,65
1607168622.9833,57
1607168622.9852,55
1607168622.9873,60
1607168622.9892,60
1607168622.9913,60
1607168622.9933,62
1607168622.9952,62
1607168622.9973,60
1607168622.9993,57
1607168623.0012,60
1607168623.0033,60
1607168623.0052,57
1607168623.0072,57
1607168623.0095,62
1607168623.0113,65
1607168623.0132,62
1607168623.0153,62
1607168623.0172,62
1607168623.0193,57
1607168623.0212,55
1607168623.0232,57
1607168623.0253,60
1607168623.0273,60
1607168623.0292,60
1607168623.0313,57
1607168623.0332,60
1607168623.0353,65
1607168623.0372,65
1607168623.0392,65
1607168623.0412,65
1607168623.0432,60
1607168623.4943,60
1607168623.4956,62
1607168623.4980,57
1607168623.5007,57
1607168623.5026,74
1607168623.5047,94
1607168623.5068,94
1607168623.5087,77
1607168623.5107,67
1607168623.5126,57
1607168623.5146,38
1607168623.5166,33
1607168623.5187,43
1607168623.5206,48
1607168623.5226,45
1607168623.5245,48
1607168623.5266,50
1607168623.5285,45
1607168623.5307,36
1607168623.5326,57
1607168623.5346,226
1607168623.5366,716
1607168623.5386,1343
1607168623.5406,1416
1607168623.5426,622
1607168623.5446,-402
1607168623.5466,-740
1607168623.5486,-349
1607168623.5505,-53
1607168623.5525,-53
1607168623.5545,0
1607168623.5565,57
1607168623.5585,38
1607168623.5607,45
1607168623.5626,72
1607168623.5646,72
1607168623.5665,74
1607168623.5685,89
1607168623.5705,91
1607168623.5725,94
1607168623.5745,103
1607168623.5765,108
1607168623.5785,113
1607168623.5806,125
1607168623.5826,137
1607168623.5846,144
1607168623.5866,156
1607168623.5886,171
1607168623.5906,185
1607168623.5926,202
1607168623.5945,221
1607168623.5965,241
1607168623.5986,263
1607168623.6005,287
1607168623.6025,316
1607168623.6046,354
1607168623.6065,393
1607168623.6086,424
1607168623.6105,448
1607168623.6125,465
1607168623.6146,465
1607168623.6165,439
1607168623.6185,381
1607168623.6205,294
1607168623.6225,188
1607168623.6246,82
1607168623.6266,-7
1607168623.6285,-74
1607168623.6306,-118
1607168623.6326,-147
1607168623.6345,-161
1607168623.6365,-164
1607168623.6385,-154
1607168624.0340,-149
1607168624.0349,-139
1607168624.0361,-123
1607168624.0381,-113
1607168624.0401,-110
1607168624.0421,-101
1607168624.0441,-84
1607168624.0461,-77
1607168624.0481,-79
1607168624.0500,-77
1607168624.0520,-62
1607168624.0542,-55
1607168624.0561,-60
1607168624.0580,-55
1607168624.0600,-45
1607168624.0621,-45
1607168624.0640,-43
1607168624.0661,-33
1607168624.0680,-28
1607168624.0700,-31
1607168624.0719,-31
1607168624.0740,-26
1607168624.0760,-24
1607168624.0780,-24
1607168624.0800,-24
1607168624.0821,-19
1607168624.0840,-14
1607168624.0860,-14
1607168624.0880,-12
1607168624.0900,-9
1607168624.0920,-4
1607168624.0940,-2
1607168624.0960,-4
1607168624.0981,-4
1607168624.1000,0
1607168624.1020,2
1607168624.1040,2
1607168624.1060,7
1607168624.1080,7
1607168624.1100,4
1607168624.1120,4
1607168624.1141,9
1607168624.1160,14
1607168624.1180,14
1607168624.1200,9
1607168624.1220,4
1607168624.1240,0
1607168624.1260,2
1607168624.1280,2
1607168624.1301,7
1607168624.1320,7
1607168624.1340,4
1607168624.1360,7
1607168624.1380,12
1607168624.1400,14
1607168624.1420,14
1607168624.1440,14
1607168624.1461,16
1607168624.1481,16
1607168624.1500,19
1607168624.1520,24
1607168624.1540,26
1607168624.1562,26
1607168624.1580,24
1607168624.1600,24
1607168624.1620,24
1607168624.1641,26
1607168624.1660,28
1607168624.1680,31
1607168624.1700,33
1607168624.1720,33
1607168624.1740,33
1607168624.1760,36
1607168624.6040,36
1607168624.6055,36
1607168624.6079,36
1607168624.6106,41
1607168624.6125,41
1607168624.6145,38
1607168624.6166,41
1607168624.6185,43
1607168624.6205,41
1607168624.6225,31
1607168624.6245,26
1607168624.6265,33
1607168624.6285,38
1607168624.6306,33
1607168624.6325,33
1607168624.6345,38
1607168624.6364,41
1607168624.6385,38
1607168624.6404,43
1607168624.6425,48
1607168624.6444,45
1607168624.6465,45
1607168624.6485,48
1607168624.6504,45
1607168624.6525,41
1607168624.6545,43
1607168624.6564,45
1607168624.6585,45
1607168624.6605,48
1607168624.6624,48
1607168624.6645,48
1607168624.6664,50
1607168624.6684,53
1607168624.6704,50
1607168624.6724,53
1607168624.6744,55
1607168624.6764,55
1607168624.6784,50
1607168624.6805,45
1607168624.6825,43
1607168624.6846,45
1607168624.6864,48
1607168624.6884,48
1607168624.6906,48
1607168624.6925,43
1607168624.6946,45
1607168624.6964,65
1607168624.6985,84
1607168624.7005,84
1607168624.7025,79
1607168624.7046,77
1607168624.7065,67
1607168624.7084,45
1607168624.7105,38
1607168624.7125,48
1607168624.7145,45
1607168624.7165,38
1607168624.7184,41
1607168624.7204,48
1607168624.7224,41
1607168624.7244,33
1607168624.7264,55
1607168624.7284,197
1607168624.7305,632
1607168624.7325,1242
1607168624.7345,1387
1607168624.7365,682
1607168624.7387,-340
1607168624.7405,-743
1607168624.7411,-376
1607168624.7424,-45
1607168624.7444,-43
1607168624.7464,-14
1607168625.1438,50
1607168625.1447,33
1607168625.1471,33
1607168625.1499,62
1607168625.1518,67
1607168625.1538,67
1607168625.1558,77
1607168625.1578,82
1607168625.1598,89
1607168625.1618,98
1607168625.1624,98
1607168625.1637,96
1607168625.1657,106
1607168625.1677,120
1607168625.1697,125
1607168625.1717,137
1607168625.1737,152
1607168625.1758,168
1607168625.1779,180
1607168625.1798,197
1607168625.1819,221
1607168625.1836,246
1607168625.1857,270
1607168625.1876,301
1607168625.1897,335
1607168625.1917,369
1607168625.1923,400
1607168625.1938,429
1607168625.1957,443
1607168625.1978,443
1607168625.1997,419
1607168625.2017,366
1607168625.2037,294
1607168625.2058,197
1607168625.2077,91
1607168625.2097,2
1607168625.2116,-65
1607168625.2137,-118
1607168625.2157,-149
1607168625.2177,-161
1607168625.2196,-164
1607168625.2216,-159
1607168625.2223,-152
1607168625.2237,-139
1607168625.2256,-125
1607168625.2277,-110
1607168625.2297,-101
1607168625.2317,-94
1607168625.2337,-82
1607168625.2356,-72
1607168625.2376,-65
1607168625.2396,-55
1607168625.2416,-48
1607168625.2437,-43
1607168625.2456,-38
1607168625.2477,-36
1607168625.2496,-33
1607168625.2516,-28
1607168625.2523,-26
1607168625.2537,-24
1607168625.2556,-21
1607168625.2577,-24
1607168625.2598,-21
1607168625.2617,-21
1607168625.2637,-19
1607168625.2657,-19
1607168625.2677,-19
1607168625.2696,-16
1607168625.2716,-16
1607168625.2739,-16
1607168625.2757,-12
1607168625.2776,-7
1607168625.2797,-7
1607168625.6840,-9
1607168625.6859,-7
1607168625.6883,0
1607168625.6900,0
1607168625.6920,0
1607168625.6940,0
1607168625.6959,-2
1607168625.6980,-7
1607168625.7000,-14
1607168625.7020,-12
1607168625.7040,-2
1607168625.7059,-2
1607168625.7079,-7
1607168625.7099,-2
1607168625.7119,4
1607168625.7139,4
1607168625.7159,4
1607168625.7165,9
1607168625.7178,12
1607168625.7198,12
1607168625.7218,12
1607168625.7238,16
1607168625.7258,12
1607168625.7278,2
1607168625.7298,2
1607168625.7319,9
1607168625.7339,9
1607168625.7358,4
1607168625.7379,4
1607168625.7399,9
1607168625.7419,7
1607168625.7439,7
1607168625.7458,9
1607168625.7464,14
1607168625.7479,12
1607168625.7498,12
1607168625.7519,12
1607168625.7539,12
1607168625.7558,9
1607168625.7578,12
1607168625.7598,14
1607168625.7619,14
1607168625.7639,12
1607168625.7659,16
1607168625.7678,21
1607168625.7698,21
1607168625.7718,21
1607168625.7740,24
1607168625.7758,24
1607168625.7764,24
1607168625.7778,24
1607168625.7798,28
1607168625.7819,33
1607168625.7838,33
1607168625.7859,31
1607168625.7878,28
1607168625.7898,31
1607168625.7919,33
1607168625.7938,38
1607168625.7958,38
1607168625.7980,36
1607168625.7998,36
1607168625.8018,38
1607168625.8038,43
1607168625.8045,43
1607168625.8058,41
1607168625.8078,41
1607168625.8098,43
1607168625.8118,43
1607168625.8139,41
1607168625.8159,38
1607168625.8179,33
1607168625.8198,36
1607168626.2543,43
1607168626.2552,45
1607168626.2576,43
1607168626.2603,43
1607168626.2609,41
1607168626.2623,28
1607168626.2643,28
1607168626.2663,38
1607168626.2682,38
1607168626.2703,31
1607168626.2723,33
1607168626.2742,41
1607168626.2763,43
1607168626.2782,41
1607168626.2802,38
1607168626.2822,36
1607168626.2841,33
1607168626.2862,33
1607168626.2881,36
1607168626.2902,38
1607168626.2908,41
1607168626.2921,41
1607168626.2942,43
1607168626.2962,43
1607168626.2981,36
1607168626.3003,38
1607168626.3022,48
1607168626.3041,48
1607168626.3062,41
1607168626.3081,38
1607168626.3101,43
1607168626.3121,38
1607168626.3143,38
1607168626.3161,60
1607168626.3181,82
1607168626.3201,77
1607168626.3208,72
1607168626.3221,69
1607168626.3241,55
1607168626.3263,38
1607168626.3282,36
1607168626.3301,43
1607168626.3321,50
1607168626.3341,43
1607168626.3361,36
1607168626.3381,41
1607168626.3402,38
1607168626.3422,36
1607168626.3442,77
1607168626.3462,291
1607168626.3481,822
1607168626.3502,1382
1607168626.3521,1252
1607168626.3543,332
1607168626.3561,-559
1607168626.3581,-675
1607168626.3601,-267
1607168626.3623,-53
1607168626.3643,-48
1607168626.3662,7
1607168626.3682,41
1607168626.3702,26
1607168626.3722,41
1607168626.3742,57
1607168626.3761,57
1607168626.3782,65
1607168626.3802,74
1607168626.3822,72
1607168626.3842,82
1607168626.3861,98
1607168626.3881,103
1607168626.3902,110
1607168626.3921,127
1607168626.7941,139
1607168626.7951,139
1607168626.7975,147
1607168626.8004,164
1607168626.8023,180
1607168626.8042,195
1607168626.8062,202
1607168626.8082,209
1607168626.8101,234
1607168626.8121,267
1607168626.8142,299
1607168626.8161,337
1607168626.8181,376
1607168626.8201,407
1607168626.8221,431
1607168626.8242,453
1607168626.8261,456
1607168626.8281,427
1607168626.8301,369
1607168626.8321,294
1607168626.8342,193
1607168626.8361,79
1607168626.8381,-19
1607168626.8400,-91
1607168626.8421,-132
1607168626.8441,-156
1607168626.8461,-171
1607168626.8481,-173
1607168626.8501,-171
1607168626.8521,-164
1607168626.8541,-147
1607168626.8561,-123
1607168626.8580,-110
1607168626.8601,-101
1607168626.8620,-96
1607168626.8641,-89
1607168626.8660,-74
1607168626.8680,-69
1607168626.8700,-60
1607168626.8720,-43
1607168626.8741,-38
1607168626.8761,-50
1607168626.8780,-50
1607168626.8801,-33
1607168626.8820,-24
1607168626.8841,-31
1607168626.8861,-38
1607168626.8880,-36
1607168626.8901,-28
1607168626.8921,-31
1607168626.8941,-33
1607168626.8960,-28
1607168626.8981,-31
1607168626.9000,-38
1607168626.9022,-38
1607168626.9041,-31
1607168626.9060,-26
1607168626.9080,-31
1607168626.9101,-33
1607168626.9121,-26
1607168626.9141,-24
1607168626.9161,-28
1607168626.9180,-28
1607168626.9200,-26
1607168626.9221,-24
1607168626.9241,-21
1607168626.9261,-24
1607168626.9280,-19
1607168626.9300,-12
1607168626.9321,-14
1607168626.9341,-12
1607168626.9360,-7
1607168626.9381,-9
1607168627.3942,-12
1607168627.3951,-9
1607168627.3976,-16
1607168627.4002,-28
1607168627.4023,-26
1607168627.4042,-14
1607168627.4063,-12
1607168627.4082,-16
1607168627.4101,-12
1607168627.4121,-9
1607168627.4142,-9
1607168627.4162,-4
1607168627.4182,0
1607168627.4201,0
1607168627.4222,2
1607168627.4241,0
1607168627.4261,0
1607168627.4281,9
1607168627.4301,14
1607168627.4321,4
1607168627.4341,4
1607168627.4361,21
1607168627.4382,26
1607168627.4401,9
1607168627.4421,4
1607168627.4441,21
1607168627.4461,28
1607168627.4481,21
1607168627.4501,16
1607168627.4521,21
1607168627.4541,26
1607168627.4561,26
1607168627.4583,28
1607168627.4601,26
1607168627.4621,24
1607168627.4641,28
1607168627.4660,28
1607168627.4681,26
1607168627.4700,38
1607168627.4720,41
1607168627.4741,28
1607168627.4760,28
1607168627.4781,33
1607168627.4801,28
1607168627.4821,26
1607168627.4840,28
1607168627.4860,36
1607168627.4880,36
1607168627.4901,33
1607168627.4921,36
1607168627.4941,38
1607168627.4960,36
1607168627.4981,41
1607168627.5000,45
1607168627.5021,38
1607168627.5041,33
1607168627.5061,36
1607168627.5081,36
1607168627.5102,41
1607168627.5121,45
1607168627.5141,45
1607168627.5161,38
1607168627.5180,31
1607168627.5201,36
1607168627.5221,43
1607168627.5241,45
1607168627.5261,41
1607168627.5280,33
1607168627.5301,38
1607168627.5321,55
1607168627.5341,67
1607168627.5360,62
1607168627.5381,57
1607168627.9638,50
1607168627.9646,31
1607168627.9671,19
1607168627.9697,26
1607168627.9717,31
1607168627.9737,28
1607168627.9756,26
1607168627.9776,26
1607168627.9796,16
1607168627.9816,7
1607168627.9839,26
1607168627.9856,110
1607168627.9876,441
1607168627.9896,1090
1607168627.9917,1476
1607168627.9937,967
1607168627.9956,-106
1607168627.9976,-762
1607168627.9996,-583
1607168628.0018,-188
1607168628.0036,-96
1607168628.0056,-62
1607168628.0076,26
1607168628.0097,28
1607168628.0116,14
1607168628.0136,45
1607168628.0156,53
1607168628.0176,43
1607168628.0196,53
1607168628.0216,72
1607168628.0236,89
1607168628.0257,91
1607168628.0276,84
1607168628.0297,89
1607168628.0316,103
1607168628.0337,115
1607168628.0356,127
1607168628.0376,137
1607168628.0396,144
1607168628.0416,156
1607168628.0437,178
1607168628.0456,202
1607168628.0477,226
1607168628.0496,250
1607168628.0516,270
1607168628.0537,301
1607168628.0556,342
1607168628.0576,388
1607168628.0597,427
1607168628.0618,451
1607168628.0636,472
1607168628.0656,487
1607168628.0676,475
1607168628.0696,434
1607168628.0716,361
1607168628.0737,248
1607168628.0756,120
1607168628.0776,16
1607168628.0796,-62
1607168628.0818,-127
1607168628.0837,-173
1607168628.0857,-197
1607168628.0877,-200
1607168628.0896,-200
1607168628.0916,-193
1607168628.0937,-176
1607168628.0956,-164
1607168628.0976,-154
1607168628.0996,-139
1607168628.1016,-123
1607168628.1037,-110
1607168628.1056,-106
1607168628.1076,-91
1607168628.5041,-74
1607168628.5051,-72
1607168628.5075,-74
1607168628.5102,-65
1607168628.5122,-55
1607168628.5142,-60
1607168628.5161,-65
1607168628.5181,-57
1607168628.5201,-50
1607168628.5221,-55
1607168628.5241,-62
1607168628.5261,-60
1607168628.5281,-57
1607168628.5301,-60
1607168628.5321,-55
1607168628.5341,-45
1607168628.5361,-43
1607168628.5381,-45
1607168628.5401,-48
1607168628.5420,-45
1607168628.5441,-33
1607168628.5461,-28
1607168628.5480,-33
1607168628.5500,-36
1607168628.5521,-36
1607168628.5541,-33
1607168628.5560,-28
1607168628.5580,-26
1607168628.5601,-33
1607168628.5620,-33
1607168628.5641,-24
1607168628.5661,-26
1607168628.5680,-33
1607168628.5700,-31
1607168628.5721,-16
1607168628.5741,-16
1607168628.5761,-24
1607168628.5782,-24
1607168628.5801,-19
1607168628.5822,-12
1607168628.5841,-9
1607168628.5861,-9
1607168628.5881,-7
1607168628.5900,-9
1607168628.5920,-7
1607168628.5940,2
1607168628.5961,2
1607168628.5981,-4
1607168628.6001,0
1607168628.6020,2
1607168628.6041,2
1607168628.6061,7
1607168628.6080,7
1607168628.6100,0
1607168628.6120,0
1607168628.6141,4
1607168628.6161,7
1607168628.6181,4
1607168628.6200,2
1607168628.6221,7
1607168628.6241,12
1607168628.6261,14
1607168628.6280,12
1607168628.6300,12
1607168628.6320,12
1607168628.6341,14
1607168628.6361,14
1607168628.6380,16
1607168628.6400,19
1607168628.6420,21
1607168628.6441,24
1607168628.6461,26
1607168628.6481,21
1607168629.0743,19
1607168629.0753,24
1607168629.0777,21
1607168629.0805,19
1607168629.0823,24
1607168629.0844,28
1607168629.0864,21
1607168629.0883,12
1607168629.0904,12
1607168629.0923,21
1607168629.0944,21
1607168629.0963,16
1607168629.0983,16
1607168629.1003,21
1607168629.1023,21
1607168629.1043,24
1607168629.1063,24
1607168629.1085,24
1607168629.1103,16
1607168629.1123,19
1607168629.1142,26
1607168629.1162,28
1607168629.1182,26
1607168629.1203,28
1607168629.1222,31
1607168629.1243,31
1607168629.1262,28
1607168629.1282,28
1607168629.1303,31
1607168629.1322,33
1607168629.1342,33
1607168629.1363,33
1607168629.1383,36
1607168629.1403,33
1607168629.1423,31
1607168629.1443,33
1607168629.1462,36
1607168629.1482,36
1607168629.1503,36
1607168629.1522,33
1607168629.1543,31
1607168629.1562,38
1607168629.1582,53
1607168629.1603,69
1607168629.1622,69
1607168629.1644,60
1607168629.1662,50
1607168629.1682,36
1607168629.1703,16
1607168629.1722,9
1607168629.1743,19
1607168629.1762,24
1607168629.1782,26
1607168629.1803,24
1607168629.1823,21
1607168629.1842,14
1607168629.1862,14
1607168629.1882,60
1607168629.1902,299
1607168629.1922,868
1607168629.1942,1409
1607168629.1964,1220
1607168629.1982,265
1607168629.2002,-615
1607168629.2022,-680
1607168629.2043,-248
1607168629.2062,-67
1607168629.2082,-74
1607168629.2104,-2
1607168629.2123,26
1607168629.2142,4
1607168629.2162,24
1607168629.2182,45
1607168629.6141,43
1607168629.6152,48
1607168629.6176,62
1607168629.6202,69
1607168629.6222,69
1607168629.6243,77
1607168629.6267,86
1607168629.6283,86
1607168629.6303,84
1607168629.6322,94
1607168629.6343,108
1607168629.6362,120
1607168629.6382,132
1607168629.6402,149
1607168629.6422,168
1607168629.6442,185
1607168629.6461,205
1607168629.6481,229
1607168629.6502,260
1607168629.6521,294
1607168629.6542,328
1607168629.6561,361
1607168629.6581,395
1607168629.6601,412
1607168629.6621,419
1607168629.6641,422
1607168629.6661,402
1607168629.6681,342
1607168629.6702,255
1607168629.6721,156
1607168629.6742,55
1607168629.6761,-33
1607168629.6782,-103
1607168629.6802,-144
1607168629.6821,-168
1607168629.6842,-188
1607168629.6862,-193
1607168629.6881,-183
1607168629.6901,-178
1607168629.6922,-173
1607168629.6942,-159
1607168629.6961,-142
1607168629.6981,-135
1607168629.7001,-123
1607168629.7021,-108
1607168629.7042,-98
1607168629.7063,-94
1607168629.7082,-86
1607168629.7101,-77
1607168629.7121,-69
1607168629.7142,-67
1607168629.7161,-67
1607168629.7181,-60
1607168629.7201,-55
1607168629.7221,-57
1607168629.7241,-57
1607168629.7262,-50
1607168629.7281,-48
1607168629.7302,-48
1607168629.7322,-53
1607168629.7342,-55
1607168629.7361,-50
1607168629.7381,-43
1607168629.7401,-45
1607168629.7421,-45
1607168629.7442,-41
1607168629.7461,-43
1607168629.7481,-41
1607168629.7501,-33
1607168629.7521,-28
1607168629.7541,-33
1607168629.7561,-38
1607168629.7581,-36
1607168630.1843,-28
1607168630.1853,-24
1607168630.1877,-24
1607168630.1903,-21
1607168630.1923,-26
1607168630.1944,-33
1607168630.1966,-36
1607168630.1983,-31
1607168630.2003,-26
1607168630.2023,-26
1607168630.2043,-26
1607168630.2062,-26
1607168630.2084,-24
1607168630.2103,-21
1607168630.2122,-19
1607168630.2142,-21
1607168630.2162,-21
1607168630.2182,-21
1607168630.2202,-24
1607168630.2222,-24
1607168630.2243,-19
1607168630.2262,-19
1607168630.2282,-16
1607168630.2302,-14
1607168630.2324,-16
1607168630.2343,-14
1607168630.2362,-9
1607168630.2382,-12
1607168630.2402,-16
1607168630.2422,-14
1607168630.2442,-9
1607168630.2463,-12
1607168630.2482,-14
1607168630.2502,-12
1607168630.2522,-9
1607168630.2543,-9
1607168630.2562,-7
1607168630.2582,-7
1607168630.2602,-4
1607168630.2623,-2
1607168630.2642,-2
1607168630.2662,-2
1607168630.2683,0
1607168630.2702,2
1607168630.2723,4
1607168630.2743,2
1607168630.2762,4
1607168630.2782,9
1607168630.2803,9
1607168630.2822,7
1607168630.2842,12
1607168630.2862,14
1607168630.2882,9
1607168630.2902,12
1607168630.2922,16
1607168630.2943,16
1607168630.2963,14
1607168630.2982,12
1607168630.3002,16
1607168630.3022,19
1607168630.3043,19
1607168630.3062,19
1607168630.3082,16
1607168630.3102,9
1607168630.3122,9
1607168630.3143,19
1607168630.3162,21
1607168630.3183,14
1607168630.3202,16
1607168630.3222,19
1607168630.3243,19
1607168630.3262,19
1607168630.3282,21
1607168630.8442,24
1607168630.8454,24
1607168630.8482,21
1607168630.8507,19
1607168630.8525,21
1607168630.8545,24
1607168630.8565,16
1607168630.8586,7
1607168630.8605,12
1607168630.8625,16
1607168630.8644,12
1607168630.8664,9
1607168630.8684,21
1607168630.8706,41
1607168630.8724,50
1607168630.8744,45
1607168630.8764,43
1607168630.8784,38
1607168630.8804,19
1607168630.8826,7
1607168630.8844,12
1607168630.8864,12
1607168630.8884,4
1607168630.8904,0
1607168630.8924,2
1607168630.8945,2
1607168630.8964,-7
1607168630.8984,0
1607168630.9004,101
1607168630.9024,458
1607168630.9044,1066
1607168630.9064,1370
1607168630.9084,839
1607168630.9104,-183
1607168630.9124,-757
1607168630.9144,-518
1607168630.9164,-130
1607168630.9184,-67
1607168630.9204,-57
1607168630.9224,9
1607168630.9244,9
1607168630.9264,-2
1607168630.9284,24
1607168630.9304,38
1607168630.9324,36
1607168630.9344,38
1607168630.9364,50
1607168630.9383,60
1607168630.9404,67
1607168630.9424,72
1607168630.9444,74
1607168630.9464,84
1607168630.9484,96
1607168630.9505,103
1607168630.9524,113
1607168630.9544,125
1607168630.9564,135
1607168630.9584,147
1607168630.9604,166
1607168630.9624,188
1607168630.9644,209
1607168630.9664,234
1607168630.9684,260
1607168630.9704,291
1607168630.9724,323
1607168630.9744,354
1607168630.9764,383
1607168630.9784,402
1607168630.9804,405
1607168630.9824,393
1607168630.9844,361
1607168630.9864,299
1607168630.9884,209
1607168631.3242,110
1607168631.3250,19
1607168631.3274,-57
1607168631.3300,-118
1607168631.3319,-154
1607168631.3340,-173
1607168631.3359,-178
1607168631.3379,-180
1607168631.3399,-178
1607168631.3420,-164
1607168631.3440,-147
1607168631.3459,-135
1607168631.3479,-127
1607168631.3499,-118
1607168631.3519,-108
1607168631.3540,-103
1607168631.3559,-98
1607168631.3580,-86
1607168631.3600,-79
1607168631.3607,-86
1607168631.3630,-91
1607168631.3650,-79
1607168631.3669,-69
1607168631.3689,-69
1607168631.3711,-67
1607168631.3729,-62
1607168631.3749,-62
1607168631.3769,-60
1607168631.3789,-57
1607168631.3809,-53
1607168631.3829,-50
1607168631.3851,-50
1607168631.3870,-53
1607168631.3889,-48
1607168631.3896,-45
1607168631.3909,-45
1607168631.3929,-43
1607168631.3949,-38
1607168631.3970,-36
1607168631.3989,-36
1607168631.4009,-33
1607168631.4029,-28
1607168631.4050,-26
1607168631.4070,-26
1607168631.4089,-31
1607168631.4109,-33
1607168631.4130,-33
1607168631.4149,-28
1607168631.4169,-26
1607168631.4189,-21
1607168631.4196,-26
1607168631.4209,-28
1607168631.4230,-26
1607168631.4250,-24
1607168631.4269,-24
1607168631.4289,-24
1607168631.4309,-26
1607168631.4329,-26
1607168631.4349,-21
1607168631.4369,-16
1607168631.4389,-16
1607168631.4409,-19
1607168631.4429,-19
1607168631.4451,-12
1607168631.4471,-9
1607168631.4489,-9
1607168631.4496,-9
1607168631.4519,-7
1607168631.4540,0
1607168631.4559,0
1607168631.4579,-2
1607168631.4600,0
1607168631.4619,2
1607168631.8637,-2
1607168631.8647,-4
1607168631.8667,2
1607168631.8687,4
1607168631.8707,2
1607168631.8728,4
1607168631.8746,7
1607168631.8753,0
1607168631.8776,-14
1607168631.8799,-16
1607168631.8816,-9
1607168631.8836,-4
1607168631.8855,-7
1607168631.8875,-9
1607168631.8897,-7
1607168631.8915,0
1607168631.8936,4
1607168631.8955,7
1607168631.8975,9
1607168631.8997,4
1607168631.9015,4
1607168631.9036,12
1607168631.9055,14
1607168631.9062,9
1607168631.9075,14
1607168631.9096,19
1607168631.9115,16
1607168631.9136,16
1607168631.9156,19
1607168631.9175,24
1607168631.9195,26
1607168631.9215,26
1607168631.9236,21
1607168631.9255,24
1607168631.9275,26
1607168631.9297,21
1607168631.9316,16
1607168631.9337,19
1607168631.9356,26
1607168631.9362,24
1607168631.9376,21
1607168631.9395,21
1607168631.9415,24
1607168631.9436,26
1607168631.9455,31
1607168631.9475,50
1607168631.9496,65
1607168631.9515,60
1607168631.9536,50
1607168631.9555,48
1607168631.9575,31
1607168631.9595,4
1607168631.9615,12
1607168631.9636,31
1607168631.9655,31
1607168631.9662,19
1607168631.9686,19
1607168631.9706,26
1607168631.9726,26
1607168631.9745,21
1607168631.9768,60
1607168631.9786,291
1607168631.9806,851
1607168631.9825,1392
1607168631.9846,1199
1607168631.9865,238
1607168631.9885,-624
1607168631.9905,-694
1607168631.9926,-287
1607168631.9946,-94
1607168631.9965,-77
1607168631.9972,0
1607168631.9985,26
1607168632.4346,0
1607168632.4359,9
1607168632.4383,31
1607168632.4410,33
1607168632.4430,38
1607168632.4449,45
1607168632.4470,45
1607168632.4489,50
1607168632.4509,65
1607168632.4529,72
1607168632.4548,72
1607168632.4568,91
1607168632.4589,103
1607168632.4595,108
1607168632.4618,123
1607168632.4638,137
1607168632.4658,152
1607168632.4678,178
1607168632.4699,200
1607168632.4718,209
1607168632.4739,234
1607168632.4759,270
1607168632.4780,306
1607168632.4798,347
1607168632.4818,383
1607168632.4839,415
1607168632.4858,441
1607168632.4878,453
1607168632.4898,453
1607168632.4905,429
1607168632.4928,364
1607168632.4948,260
1607168632.4969,149
1607168632.4988,45
1607168632.5008,-48
1607168632.5028,-120
1607168632.5048,-164
1607168632.5068,-183
1607168632.5090,-193
1607168632.5109,-200
1607168632.5129,-190
1607168632.5149,-176
1607168632.5168,-166
1607168632.5188,-154
1607168632.5208,-142
1607168632.5215,-125
1607168632.5239,-110
1607168632.5258,-106
1607168632.5278,-101
1607168632.5298,-86
1607168632.5319,-72
1607168632.5338,-67
1607168632.5359,-65
1607168632.5378,-60
1607168632.5398,-57
1607168632.5418,-57
1607168632.5438,-57
1607168632.5458,-55
1607168632.5478,-55
1607168632.5498,-57
1607168632.5518,-53
1607168632.5525,-50
1607168632.5539,-53
1607168632.5560,-48
1607168632.5579,-50
1607168632.5598,-62
1607168632.5618,-57
1607168632.5638,-50
1607168632.5658,-53
1607168632.5678,-50
1607168632.5698,-45
1607168632.5718,-45
1607168632.5738,-43
1607168632.9738,-33
1607168632.9748,-33
1607168632.9773,-36
1607168632.9799,-31
1607168632.9819,-26
1607168632.9838,-26
1607168632.9858,-28
1607168632.9879,-36
1607168632.9898,-38
1607168632.9918,-31
1607168632.9937,-28
1607168632.9957,-33
1607168632.9978,-28
1607168632.9997,-21
1607168633.0018,-16
1607168633.0038,-16
1607168633.0059,-16
1607168633.0078,-16
1607168633.0098,-21
1607168633.0117,-24
1607168633.0138,-21
1607168633.0157,-16
1607168633.0177,-19
1607168633.0197,-24
1607168633.0218,-21
1607168633.0238,-14
1607168633.0257,-16
1607168633.0277,-24
1607168633.0297,-19
1607168633.0317,-14
1607168633.0338,-16
1607168633.0357,-16
1607168633.0378,-9
1607168633.0397,-9
1607168633.0417,-14
1607168633.0438,-14
1607168633.0457,-7
1607168633.0477,-4
1607168633.0498,-9
1607168633.0517,-7
1607168633.0538,-2
1607168633.0557,-4
1607168633.0577,-4
1607168633.0597,-2
1607168633.0618,0
1607168633.0638,2
1607168633.0657,0
1607168633.0677,0
1607168633.0697,0
1607168633.0717,2
1607168633.0738,0
1607168633.0758,0
1607168633.0777,4
1607168633.0797,7
1607168633.0817,7
1607168633.0838,9
1607168633.0857,7
1607168633.0877,4
1607168633.0897,-2
1607168633.0917,-2
1607168633.0937,0
1607168633.0957,0
1607168633.0977,12
1607168633.0997,36
1607168633.1017,43
1607168633.1038,33
1607168633.1057,28
1607168633.1079,26
1607168633.1098,9
1607168633.1117,-4
1607168633.1138,-2
1607168633.1157,2
1607168633.1177,4
1607168633.5445,4
1607168633.5457,7
1607168633.5482,4
1607168633.5508,-7
1607168633.5528,-14
1607168633.5548,79
1607168633.5569,448
1607168633.5588,1088
1607168633.5608,1430
1607168633.5630,909
1607168633.5649,-159
1607168633.5668,-798
1607168633.5689,-571
1607168633.5708,-166
1607168633.5728,-98
1607168633.5747,-84
1607168633.5768,-9
1607168633.5788,-7
1607168633.5808,-16
1607168633.5828,9
1607168633.5848,19
1607168633.5868,19
1607168633.5888,33
1607168633.5908,45
1607168633.5929,50
1607168633.5948,55
1607168633.5968,57
1607168633.5988,62
1607168633.6008,72
1607168633.6028,84
1607168633.6048,94
1607168633.6067,106
1607168633.6087,120
1607168633.6107,135
1607168633.6127,154
1607168633.6148,173
1607168633.6168,193
1607168633.6187,214
1607168633.6207,243
1607168633.6227,267
1607168633.6248,296
1607168633.6267,328
1607168633.6288,352
1607168633.6307,376
1607168633.6327,402
1607168633.6350,419
1607168633.6368,402
1607168633.6387,354
1607168633.6407,282
1607168633.6427,185
1607168633.6447,77
1607168633.6467,-21
1607168633.6487,-94
1607168633.6507,-147
1607168633.6527,-180
1607168633.6548,-193
1607168633.6567,-193
1607168633.6587,-193
1607168633.6607,-190
1607168633.6627,-173
1607168633.6647,-154
1607168633.6668,-139
1607168633.6689,-130
1607168633.6707,-120
1607168633.6727,-108
1607168633.6748,-96
1607168633.6767,-89
1607168633.6787,-79
1607168633.6808,-69
1607168633.6827,-69
1607168633.6848,-69
1607168633.6867,-57
1607168633.6887,-48
1607168634.1446,-50
1607168634.1455,-53
1607168634.1480,-50
1607168634.1506,-43
1607168634.1527,-41
1607168634.1547,-57
1607168634.1568,-69
1607168634.1587,-60
1607168634.1606,-50
1607168634.1626,-57
1607168634.1647,-55
1607168634.1666,-38
1607168634.1686,-36
1607168634.1706,-50
1607168634.1726,-53
1607168634.1747,-41
1607168634.1766,-33
1607168634.1786,-33
1607168634.1806,-28
1607168634.1826,-24
1607168634.1846,-21
1607168634.1866,-26
1607168634.1886,-26
1607168634.1908,-21
1607168634.1926,-16
1607168634.1946,-14
1607168634.1967,-14
1607168634.1985,-12
1607168634.2005,-12
1607168634.2025,-12
1607168634.2046,-9
1607168634.2066,-7
1607168634.2086,-12
1607168634.2106,-14
1607168634.2125,-9
1607168634.2146,-4
1607168634.2165,-2
1607168634.2185,-2
1607168634.2205,-2
1607168634.2225,-2
1607168634.2246,-2
1607168634.2265,0
1607168634.2285,-2
1607168634.2305,-9
1607168634.2325,-12
1607168634.2346,-9
1607168634.2365,-4
1607168634.2385,-2
1607168634.2405,0
1607168634.2425,-2
1607168634.2446,-2
1607168634.2465,0
1607168634.2485,2
1607168634.2505,2
1607168634.2525,4
1607168634.2545,4
1607168634.2565,4
1607168634.2585,2
1607168634.2605,4
1607168634.2625,7
1607168634.2648,7
1607168634.2666,7
1607168634.2685,7
1607168634.2705,2
1607168634.2725,0
1607168634.2745,2
1607168634.2766,4
1607168634.2785,2
1607168634.2805,0
1607168634.2825,0
1607168634.2846,0
1607168634.2865,0
1607168634.2886,0
1607168634.6843,0
1607168634.6854,2
1607168634.6878,2
1607168634.6903,0
1607168634.6923,2
1607168634.6943,4
1607168634.6964,4
1607168634.6983,4
1607168634.7003,7
1607168634.7023,7
1607168634.7043,2
1607168634.7062,-4
1607168634.7082,-2
1607168634.7103,2
1607168634.7122,-2
1607168634.7142,-2
1607168634.7162,0
1607168634.7182,2
1607168634.7202,16
1607168634.7222,36
1607168634.7243,38
1607168634.7262,36
1607168634.7282,33
1607168634.7302,21
1607168634.7322,4
1607168634.7343,-2
1607168634.7362,0
1607168634.7382,2
1607168634.7402,4
1607168634.7422,7
1607168634.7443,7
1607168634.7463,2
1607168634.7482,-4
1607168634.7502,19
1607168634.7522,188
1607168634.7542,665
1607168634.7562,1278
1607168634.7582,1339
1607168634.7602,533
1607168634.7622,-475
1607168634.7642,-760
1607168634.7662,-364
1607168634.7683,-101
1607168634.7702,-103
1607168634.7722,-45
1607168634.7742,7
1607168634.7762,-12
1607168634.7782,-2
1607168634.7802,26
1607168634.7822,21
1607168634.7842,19
1607168634.7861,38
1607168634.7884,50
1607168634.7902,50
1607168634.7922,55
1607168634.7942,65
1607168634.7963,69
1607168634.7982,74
1607168634.8002,86
1607168634.8022,103
1607168634.8042,115
1607168634.8062,123
1607168634.8082,135
1607168634.8102,154
1607168634.8122,176
1607168634.8142,197
1607168634.8162,221
1607168634.8182,246
1607168634.8202,270
1607168634.8222,304
1607168634.8242,340
1607168634.8262,374
1607168634.8282,402
1607168635.2544,422
1607168635.2557,419
1607168635.2581,393
1607168635.2607,342
1607168635.2627,255
1607168635.2647,149
1607168635.2668,53
1607168635.2687,-36
1607168635.2707,-115
1607168635.2728,-161
1607168635.2747,-180
1607168635.2768,-193
1607168635.2787,-195
1607168635.2807,-190
1607168635.2828,-178
1607168635.2848,-164
1607168635.2868,-154
1607168635.2887,-147
1607168635.2907,-135
1607168635.2927,-120
1607168635.2947,-106
1607168635.2967,-96
1607168635.2987,-91
1607168635.3007,-86
1607168635.3027,-74
1607168635.3047,-67
1607168635.3067,-62
1607168635.3087,-57
1607168635.3107,-62
1607168635.3128,-72
1607168635.3149,-69
1607168635.3167,-60
1607168635.3186,-55
1607168635.3206,-53
1607168635.3226,-55
1607168635.3247,-57
1607168635.3268,-57
1607168635.3286,-53
1607168635.3306,-48
1607168635.3327,-45
1607168635.3347,-45
1607168635.3367,-38
1607168635.3387,-43
1607168635.3406,-53
1607168635.3426,-43
1607168635.3446,-33
1607168635.3467,-36
1607168635.3486,-38
1607168635.3506,-33
1607168635.3526,-33
1607168635.3547,-28
1607168635.3566,-21
1607168635.3586,-24
1607168635.3606,-24
1607168635.3626,-19
1607168635.3647,-21
1607168635.3666,-26
1607168635.3686,-19
1607168635.3706,-7
1607168635.3726,-2
1607168635.3746,-4
1607168635.3766,-12
1607168635.3786,-16
1607168635.3807,-14
1607168635.3826,-4
1607168635.3846,4
1607168635.3866,4
1607168635.3887,-4
1607168635.3907,-4
1607168635.3926,-4
1607168635.3946,0
1607168635.3966,9
1607168635.3986,4
1607168635.7944,0
1607168635.7954,4
1607168635.7979,7
1607168635.8004,7
1607168635.8025,4
1607168635.8045,7
1607168635.8065,9
1607168635.8084,9
1607168635.8107,2
1607168635.8125,-7
1607168635.8145,-7
1607168635.8165,-2
1607168635.8185,0
1607168635.8205,0
1607168635.8224,4
1607168635.8245,7
1607168635.8264,4
1607168635.8284,7
1607168635.8304,9
1607168635.8324,7
1607168635.8344,4
1607168635.8365,2
1607168635.8384,-4
1607168635.8404,-9
1607168635.8424,-2
1607168635.8444,7
1607168635.8463,7
1607168635.8484,-2
1607168635.8504,-9
1607168635.8524,-2
1607168635.8545,0
1607168635.8564,-2
1607168635.8584,0
1607168635.8604,-2
1607168635.8624,-9
1607168635.8643,-4
1607168635.8663,4
1607168635.8683,4
1607168635.8703,-2
1607168635.8724,0
1607168635.8744,7
1607168635.8763,7
1607168635.8783,-4
1607168635.8803,-4
1607168635.8824,7
1607168635.8844,9
1607168635.8863,7
1607168635.8883,12
1607168635.8903,12
1607168635.8923,4
1607168635.8944,7
1607168635.8963,9
1607168635.8983,9
1607168635.9003,14
1607168635.9024,14
1607168635.9044,14
1607168635.9063,31
1607168635.9083,45
1607168635.9103,45
1607168635.9125,45
1607168635.9144,33
1607168635.9164,7
1607168635.9183,-2
1607168635.9203,12
1607168635.9223,16
1607168635.9244,12
1607168635.9263,12
1607168635.9284,12
1607168635.9303,7
1607168635.9323,2
1607168635.9344,19
1607168635.9363,154
1607168635.9383,598
1607168636.3639,1254
1607168636.3648,1426
1607168636.3672,675
1607168636.3699,-376
1607168636.3719,-784
1607168636.3740,-468
1607168636.3760,-178
1607168636.3780,-139
1607168636.3799,-62
1607168636.3819,4
1607168636.3839,-14
1607168636.3858,-7
1607168636.3879,19
1607168636.3898,19
1607168636.3918,24
1607168636.3939,33
1607168636.3958,43
1607168636.3979,48
1607168636.3999,50
1607168636.4019,57
1607168636.4039,74
1607168636.4059,84
1607168636.4078,89
1607168636.4098,103
1607168636.4119,123
1607168636.4139,135
1607168636.4158,147
1607168636.4178,166
1607168636.4198,178
1607168636.4218,190
1607168636.4239,219
1607168636.4258,255
1607168636.4278,289
1607168636.4298,335
1607168636.4318,376
1607168636.4339,400
1607168636.4358,429
1607168636.4380,465
1607168636.4399,477
1607168636.4418,448
1607168636.4438,386
1607168636.4458,291
1607168636.4478,180
1607168636.4498,65
1607168636.4518,-41
1607168636.4539,-120
1607168636.4558,-171
1607168636.4579,-202
1607168636.4601,-214
1607168636.4618,-217
1607168636.4639,-214
1607168636.4658,-197
1607168636.4678,-176
1607168636.4698,-166
1607168636.4718,-161
1607168636.4739,-147
1607168636.4758,-130
1607168636.4778,-118
1607168636.4798,-110
1607168636.4818,-103
1607168636.4839,-96
1607168636.4858,-91
1607168636.4878,-89
1607168636.4898,-84
1607168636.4918,-74
1607168636.4938,-69
1607168636.4958,-69
1607168636.4978,-67
1607168636.4998,-67
1607168636.5018,-74
1607168636.5038,-67
1607168636.5058,-57
1607168636.5078,-62
1607168636.9044,-67
1607168636.9051,-65
1607168636.9075,-60
1607168636.9102,-57
1607168636.9121,-60
1607168636.9142,-57
1607168636.9162,-60
1607168636.9181,-69
1607168636.9201,-67
1607168636.9222,-57
1607168636.9242,-57
1607168636.9261,-65
1607168636.9282,-57
1607168636.9301,-48
1607168636.9321,-50
1607168636.9344,-53
1607168636.9362,-43
1607168636.9381,-36
1607168636.9401,-36
1607168636.9421,-36
1607168636.9441,-33
1607168636.9461,-36
1607168636.9481,-36
1607168636.9501,-36
1607168636.9521,-31
1607168636.9542,-21
1607168636.9561,-14
1607168636.9581,-14
1607168636.9602,-16
1607168636.9622,-16
1607168636.9642,-16
1607168636.9661,-14
1607168636.9681,-12
1607168636.9701,-9
1607168636.9721,-7
1607168636.9742,-4
1607168636.9761,-2
1607168636.9781,-7
1607168636.9801,-9
1607168636.9821,-7
1607168636.9842,-4
1607168636.9861,-7
1607168636.9882,-9
1607168636.9901,-9
1607168636.9921,-7
1607168636.9941,-9
1607168636.9961,-12
1607168636.9981,-12
1607168637.0001,-12
1607168637.0021,-9
1607168637.0042,-7
1607168637.0062,-7
1607168637.0081,-12
1607168637.0102,-12
1607168637.0122,-7
1607168637.0142,-7
1607168637.0161,-9
1607168637.0181,-4
1607168637.0201,-2
1607168637.0221,0
1607168637.0241,-2
1607168637.0261,-2
1607168637.0281,-2
1607168637.0301,0
1607168637.0321,0
1607168637.0341,2
1607168637.0363,4
1607168637.0381,7
1607168637.0401,9
1607168637.0421,9
1607168637.0441,2
1607168637.0462,0
1607168637.0481,0
1607168637.5047,-2
1607168637.5060,-2
1607168637.5083,0
1607168637.5110,2
1607168637.5131,-2
1607168637.5150,-7
1607168637.5172,-7
1607168637.5190,-2
1607168637.5210,-7
1607168637.5230,-14
1607168637.5250,-2
1607168637.5270,19
1607168637.5290,31
1607168637.5310,33
1607168637.5331,31
1607168637.5350,24
1607168637.5370,7
1607168637.5390,-4
1607168637.5410,-4
1607168637.5430,2
1607168637.5450,0
1607168637.5470,0
1607168637.5490,7
1607168637.5510,7
1607168637.5530,-7
1607168637.5550,-4
1607168637.5570,62
1607168637.5590,357
1607168637.5610,974
1607168637.5630,1459
1607168637.5650,1129
1607168637.5669,91
1607168637.5690,-711
1607168637.5709,-644
1607168637.5729,-214
1607168637.5749,-91
1607168637.5770,-91
1607168637.5789,-9
1607168637.5810,7
1607168637.5830,-14
1607168637.5849,9
1607168637.5869,26
1607168637.5890,19
1607168637.5910,26
1607168637.5931,38
1607168637.5950,45
1607168637.5969,50
1607168637.5989,62
1607168637.6009,72
1607168637.6029,79
1607168637.6049,89
1607168637.6070,96
1607168637.6090,108
1607168637.6110,123
1607168637.6130,137
1607168637.6149,149
1607168637.6169,166
1607168637.6190,185
1607168637.6209,209
1607168637.6229,236
1607168637.6249,267
1607168637.6255,301
1607168637.6269,337
1607168637.6289,371
1607168637.6309,398
1607168637.6329,417
1607168637.6350,429
1607168637.6369,422
1607168637.6389,386
1607168637.6409,311
1607168637.6429,212
1607168637.6449,101
1607168637.6469,2
1607168638.0444,-79
1607168638.0453,-139
1607168638.0477,-180
1607168638.0504,-200
1607168638.0524,-202
1607168638.0544,-200
1607168638.0566,-193
1607168638.0584,-183
1607168638.0604,-171
1607168638.0624,-164
1607168638.0643,-159
1607168638.0663,-144
1607168638.0683,-127
1607168638.0703,-120
1607168638.0723,-113
1607168638.0743,-103
1607168638.0763,-94
1607168638.0770,-86
1607168638.0783,-77
1607168638.0803,-72
1607168638.0823,-69
1607168638.0843,-65
1607168638.0865,-60
1607168638.0884,-55
1607168638.0903,-55
1607168638.0923,-57
1607168638.0943,-57
1607168638.0963,-53
1607168638.0983,-53
1607168638.1003,-53
1607168638.1023,-53
1607168638.1043,-50
1607168638.1063,-50
1607168638.1069,-50
1607168638.1083,-50
1607168638.1103,-43
1607168638.1123,-38
1607168638.1143,-43
1607168638.1163,-43
1607168638.1183,-36
1607168638.1203,-33
1607168638.1223,-36
1607168638.1243,-31
1607168638.1263,-26
1607168638.1283,-26
1607168638.1303,-28
1607168638.1323,-26
1607168638.1343,-21
1607168638.1363,-19
1607168638.1369,-19
1607168638.1383,-16
1607168638.1403,-16
1607168638.1423,-16
1607168638.1444,-14
1607168638.1463,-12
1607168638.1483,-12
1607168638.1503,-19
1607168638.1523,-21
1607168638.1543,-14
1607168638.1563,-9
1607168638.1583,-9
1607168638.1603,-12
1607168638.1623,-9
1607168638.1643,-4
1607168638.1664,-2
1607168638.1746,-4
1607168638.1763,-4
1607168638.1783,-4
1607168638.1803,-9
1607168638.1823,-9
1607168638.1843,-4
1607168638.1863,-4
1607168638.1883,-7
1607168638.6146,-7
1607168638.6155,-9
1607168638.6180,-12
1607168638.6207,-12
1607168638.6227,-9
1607168638.6246,-7
1607168638.6267,-12
1607168638.6274,-24
1607168638.6286,-24
1607168638.6306,-16
1607168638.6327,-16
1607168638.6347,-19
1607168638.6366,-12
1607168638.6386,-12
1607168638.6406,-14
1607168638.6426,-9
1607168638.6446,-4
1607168638.6466,-4
1607168638.6486,-4
1607168638.6506,-4
1607168638.6526,-2
1607168638.6546,0
1607168638.6566,0
1607168638.6571,0
1607168638.6585,-2
1607168638.6605,-4
1607168638.6626,-2
1607168638.6645,0
1607168638.6665,2
1607168638.6685,4
1607168638.6705,4
1607168638.6725,2
1607168638.6745,7
1607168638.6765,9
1607168638.6785,7
1607168638.6805,9
1607168638.6825,12
1607168638.6846,9
1607168638.6865,9
1607168638.6872,12
1607168638.6885,14
1607168638.6906,14
1607168638.6926,14
1607168638.6945,14
1607168638.6965,16
1607168638.6985,16
1607168638.7005,16
1607168638.7025,19
1607168638.7046,16
1607168638.7065,7
1607168638.7085,4
1607168638.7107,12
1607168638.7127,16
1607168638.7145,14
1607168638.7165,14
1607168638.7172,12
1607168638.7185,12
1607168638.7205,9
1607168638.7226,9
1607168638.7245,14
1607168638.7265,14
1607168638.7285,14
1607168638.7305,14
1607168638.7325,16
1607168638.7345,16
1607168638.7365,16
1607168638.7385,19
1607168638.7405,21
1607168638.7425,21
1607168638.7445,19
1607168638.7465,21
1607168638.7472,24
1607168638.7486,21
1607168639.1543,21
1607168639.1552,21
1607168639.1577,24
1607168639.1604,24
1607168639.1623,19
1607168639.1643,12
1607168639.1664,14
1607168639.1683,31
1607168639.1703,43
1607168639.1723,45
1607168639.1743,38
1607168639.1762,16
1607168639.1771,2
1607168639.1793,7
1607168639.1813,12
1607168639.1834,7
1607168639.1852,4
1607168639.1872,9
1607168639.1893,14
1607168639.1912,12
1607168639.1932,2
1607168639.1952,-4
1607168639.1972,28
1607168639.1992,234
1607168639.2012,764
1607168639.2033,1348
1607168639.2052,1295
1607168639.2072,419
1607168639.2079,-540
1607168639.2094,-721
1607168639.2112,-287
1607168639.2132,-67
1607168639.2152,-101
1607168639.2172,-38
1607168639.2192,9
1607168639.2212,-16
1607168639.2232,-9
1607168639.2252,21
1607168639.2272,21
1607168639.2292,24
1607168639.2312,33
1607168639.2332,36
1607168639.2353,38
1607168639.2372,45
1607168639.2379,57
1607168639.2392,65
1607168639.2412,74
1607168639.2432,82
1607168639.2452,89
1607168639.2473,103
1607168639.2492,120
1607168639.2512,132
1607168639.2532,147
1607168639.2553,166
1607168639.2572,185
1607168639.2593,207
1607168639.2612,236
1607168639.2632,270
1607168639.2652,304
1607168639.2672,335
1607168639.2693,369
1607168639.2712,395
1607168639.2733,410
1607168639.2752,410
1607168639.2772,393
1607168639.2792,345
1607168639.2812,263
1607168639.2832,161
1607168639.2852,62
1607168639.2872,-26
1607168639.2892,-98
1607168639.2912,-147
1607168639.2932,-176
1607168639.7240,-188
1607168639.7249,-193
1607168639.7273,-188
1607168639.7299,-176
1607168639.7319,-166
1607168639.7340,-166
1607168639.7361,-161
1607168639.7382,-147
1607168639.7400,-132
1607168639.7420,-123
1607168639.7440,-115
1607168639.7459,-103
1607168639.7480,-96
1607168639.7499,-89
1607168639.7520,-82
1607168639.7539,-77
1607168639.7559,-72
1607168639.7579,-69
1607168639.7599,-67
1607168639.7619,-62
1607168639.7640,-60
1607168639.7659,-62
1607168639.7679,-60
1607168639.7699,-57
1607168639.7719,-57
1607168639.7738,-57
1607168639.7759,-55
1607168639.7779,-53
1607168639.7799,-55
1607168639.7819,-53
1607168639.7840,-48
1607168639.7859,-45
1607168639.7879,-48
1607168639.7899,-53
1607168639.7919,-57
1607168639.7938,-55
1607168639.7959,-53
1607168639.7979,-55
1607168639.7998,-55
1607168639.8018,-57
1607168639.8039,-60
1607168639.8058,-60
1607168639.8079,-53
1607168639.8098,-48
1607168639.8118,-48
1607168639.8139,-45
1607168639.8159,-43
1607168639.8178,-41
1607168639.8198,-41
1607168639.8218,-38
1607168639.8239,-33
1607168639.8258,-31
1607168639.8279,-31
1607168639.8299,-31
1607168639.8319,-26
1607168639.8339,-24
1607168639.8358,-26
1607168639.8378,-21
1607168639.8400,-16
1607168639.8420,-19
1607168639.8440,-19
1607168639.8458,-14
1607168639.8479,-12
1607168639.8499,-12
1607168639.8518,-9
1607168639.8539,-9
1607168639.8559,-9
1607168639.8579,-7
1607168639.8598,-4
1607168639.8618,-2
1607168639.8639,-4
1607168639.8658,-9
1607168639.8678,-9
1607168640.2641,-4
1607168640.2653,-4
1607168640.2677,-4
1607168640.2703,-2
1607168640.2723,0
1607168640.2743,0
1607168640.2764,-7
1607168640.2783,-16
1607168640.2804,-14
1607168640.2823,-7
1607168640.2844,-7
1607168640.2863,-7
1607168640.2883,-2
1607168640.2903,0
1607168640.2923,0
1607168640.2943,-2
1607168640.2963,0
1607168640.2983,2
1607168640.3003,7
1607168640.3023,7
1607168640.3043,4
1607168640.3063,4
1607168640.3083,2
1607168640.3103,4
1607168640.3123,12
1607168640.3143,12
1607168640.3163,7
1607168640.3184,0
1607168640.3203,0
1607168640.3223,4
1607168640.3242,4
1607168640.3262,4
1607168640.3283,7
1607168640.3302,7
1607168640.3322,4
1607168640.3343,7
1607168640.3364,14
1607168640.3383,12
1607168640.3403,12
1607168640.3423,14
1607168640.3442,14
1607168640.3462,9
1607168640.3483,9
1607168640.3502,16
1607168640.3522,16
1607168640.3542,14
1607168640.3562,16
1607168640.3582,12
1607168640.3602,12
1607168640.3622,21
1607168640.3642,28
1607168640.3662,26
1607168640.3682,16
1607168640.3703,9
1607168640.3723,12
1607168640.3742,19
1607168640.3762,24
1607168640.3782,19
1607168640.3802,16
1607168640.3822,16
1607168640.3842,24
1607168640.3862,43
1607168640.3883,55
1607168640.3902,48
1607168640.3922,36
1607168640.3942,28
1607168640.3962,19
1607168640.3982,9
1607168640.4002,7
1607168640.4022,12
1607168640.4043,14
1607168640.4062,14
1607168640.4083,14
1607168640.8637,9
1607168640.8648,0
1607168640.8658,16
1607168640.8678,154
1607168640.8698,586
1607168640.8718,1213
1607168640.8738,1380
1607168640.8759,673
1607168640.8779,-354
1607168640.8798,-772
1607168640.8818,-441
1607168640.8838,-127
1607168640.8858,-108
1607168640.8878,-60
1607168640.8903,2
1607168640.8918,-16
1607168640.8937,-14
1607168640.8957,19
1607168640.8977,26
1607168640.8997,14
1607168640.9017,16
1607168640.9038,26
1607168640.9057,38
1607168640.9077,45
1607168640.9097,50
1607168640.9118,60
1607168640.9138,67
1607168640.9157,72
1607168640.9177,89
1607168640.9197,110
1607168640.9217,120
1607168640.9237,123
1607168640.9257,142
1607168640.9277,166
1607168640.9297,193
1607168640.9318,217
1607168640.9338,241
1607168640.9358,270
1607168640.9378,306
1607168640.9397,349
1607168640.9418,388
1607168640.9437,415
1607168640.9457,436
1607168640.9477,451
1607168640.9484,436
1607168640.9507,390
1607168640.9527,311
1607168640.9547,202
1607168640.9567,86
1607168640.9588,-14
1607168640.9607,-96
1607168640.9627,-156
1607168640.9647,-193
1607168640.9667,-207
1607168640.9687,-212
1607168640.9707,-212
1607168640.9727,-207
1607168640.9747,-195
1607168640.9767,-180
1607168640.9787,-166
1607168640.9794,-152
1607168640.9807,-142
1607168640.9828,-135
1607168640.9847,-123
1607168640.9867,-113
1607168640.9888,-108
1607168640.9907,-108
1607168640.9927,-103
1607168640.9947,-96
1607168640.9967,-89
1607168640.9987,-86
1607168641.0007,-86
1607168641.0027,-77
1607168641.4344,-72
1607168641.4356,-84
1607168641.4373,-86
1607168641.4396,-77
1607168641.4418,-79
1607168641.4436,-91
1607168641.4456,-84
1607168641.4476,-65
1607168641.4496,-72
1607168641.4516,-91
1607168641.4537,-84
1607168641.4556,-82
1607168641.4576,-89
1607168641.4596,-86
1607168641.4616,-79
1607168641.4636,-77
1607168641.4655,-74
1607168641.4675,-72
1607168641.4682,-65
1607168641.4695,-55
1607168641.4715,-57
1607168641.4736,-60
1607168641.4755,-53
1607168641.4775,-45
1607168641.4795,-38
1607168641.4815,-41
1607168641.4830,-45
1607168641.4855,-41
1607168641.4875,-38
1607168641.4895,-36
1607168641.4915,-31
1607168641.4936,-28
1607168641.4955,-31
1607168641.4975,-31
1607168641.4982,-21
1607168641.4996,-12
1607168641.5016,-19
1607168641.5036,-26
1607168641.5055,-19
1607168641.5075,-9
1607168641.5095,-9
1607168641.5115,-14
1607168641.5135,-14
1607168641.5157,-9
1607168641.5176,-9
1607168641.5195,-12
1607168641.5215,-4
1607168641.5236,-2
1607168641.5255,-12
1607168641.5275,-14
1607168641.5284,0
1607168641.5295,7
1607168641.5315,-4
1607168641.5336,-7
1607168641.5356,0
1607168641.5375,2
1607168641.5395,4
1607168641.5415,7
1607168641.5436,2
1607168641.5455,2
1607168641.5475,4
1607168641.5495,0
1607168641.5516,-2
1607168641.5536,9
1607168641.5556,12
1607168641.5575,4
1607168641.5582,9
1607168641.5596,14
1607168641.5615,9
1607168641.5636,4
1607168641.5655,2
1607168641.5675,4
1607168641.5695,14
1607168641.9742,16
1607168641.9751,12
1607168641.9776,9
1607168641.9802,9
1607168641.9822,4
1607168641.9842,2
1607168641.9861,2
1607168641.9868,0
1607168641.9881,0
1607168641.9901,2
1607168641.9921,-2
1607168641.9940,-9
1607168641.9960,-7
1607168641.9982,-2
1607168642.0001,-2
1607168642.0021,0
1607168642.0041,4
1607168642.0060,4
1607168642.0080,4
1607168642.0100,4
1607168642.0120,2
1607168642.0143,0
1607168642.0161,4
1607168642.0167,9
1607168642.0180,9
1607168642.0201,9
1607168642.0220,12
1607168642.0241,12
1607168642.0260,9
1607168642.0281,4
1607168642.0302,2
1607168642.0320,12
1607168642.0341,38
1607168642.0360,50
1607168642.0380,43
1607168642.0401,33
1607168642.0420,16
1607168642.0440,0
1607168642.0460,0
1607168642.0467,9
1607168642.0480,4
1607168642.0501,0
1607168642.0520,9
1607168642.0541,9
1607168642.0560,2
1607168642.0580,-4
1607168642.0601,4
1607168642.0620,86
1607168642.0641,407
1607168642.0660,1044
1607168642.0681,1486
1607168642.0702,1054
1607168642.0721,-28
1607168642.0741,-760
1607168642.0760,-620
1607168642.0767,-221
1607168642.0780,-125
1607168642.0802,-89
1607168642.0821,0
1607168642.0841,2
1607168642.0860,-14
1607168642.0881,12
1607168642.0900,28
1607168642.0920,28
1607168642.0940,36
1607168642.0960,41
1607168642.0980,43
1607168642.1001,53
1607168642.1020,60
1607168642.1040,62
1607168642.1060,72
1607168642.1067,82
1607168642.1082,84
1607168642.5444,91
1607168642.5453,110
1607168642.5477,130
1607168642.5504,142
1607168642.5524,154
1607168642.5544,183
1607168642.5565,209
1607168642.5584,226
1607168642.5604,250
1607168642.5624,296
1607168642.5644,340
1607168642.5663,378
1607168642.5683,410
1607168642.5691,439
1607168642.5703,463
1607168642.5723,451
1607168642.5743,405
1607168642.5763,340
1607168642.5783,231
1607168642.5803,101
1607168642.5824,-7
1607168642.5843,-91
1607168642.5863,-156
1607168642.5883,-195
1607168642.5903,-214
1607168642.5923,-236
1607168642.5943,-246
1607168642.5962,-226
1607168642.5983,-205
1607168642.5990,-193
1607168642.6003,-185
1607168642.6023,-171
1607168642.6043,-152
1607168642.6063,-139
1607168642.6083,-130
1607168642.6103,-120
1607168642.6123,-110
1607168642.6142,-96
1607168642.6163,-89
1607168642.6183,-89
1607168642.6203,-86
1607168642.6223,-79
1607168642.6243,-74
1607168642.6264,-77
1607168642.6283,-74
1607168642.6290,-69
1607168642.6304,-72
1607168642.6323,-69
1607168642.6343,-65
1607168642.6363,-67
1607168642.6384,-69
1607168642.6403,-62
1607168642.6423,-57
1607168642.6443,-62
1607168642.6463,-62
1607168642.6483,-57
1607168642.6503,-55
1607168642.6523,-60
1607168642.6543,-60
1607168642.6563,-53
1607168642.6570,-55
1607168642.6583,-57
1607168642.6603,-57
1607168642.6623,-60
1607168642.6643,-67
1607168642.6663,-69
1607168642.6683,-65
1607168642.6703,-53
1607168642.6723,-50
1607168642.6743,-55
1607168642.6763,-55
1607168642.6783,-50
1607168642.6803,-48
1607168643.0842,-48
1607168643.0851,-43
1607168643.0875,-38
1607168643.0902,-38
1607168643.0922,-43
1607168643.0941,-41
1607168643.0962,-36
1607168643.0981,-33
1607168643.1001,-41
1607168643.1021,-45
1607168643.1041,-36
1607168643.1063,-28
1607168643.1081,-36
1607168643.1101,-38
1607168643.1121,-31
1607168643.1142,-21
1607168643.1147,-24
1607168643.1161,-28
1607168643.1180,-31
1607168643.1201,-24
1607168643.1220,-19
1607168643.1241,-19
1607168643.1262,-16
1607168643.1280,-16
1607168643.1300,-19
1607168643.1321,-12
1607168643.1341,-4
1607168643.1360,-9
1607168643.1382,-14
1607168643.1401,-12
1607168643.1420,-4
1607168643.1440,-4
1607168643.1447,-4
1607168643.1460,-4
1607168643.1481,0
1607168643.1500,2
1607168643.1520,0
1607168643.1541,2
1607168643.1560,2
1607168643.1580,0
1607168643.1600,-2
1607168643.1620,0
1607168643.1641,2
1607168643.1660,2
1607168643.1681,0
1607168643.1700,7
1607168643.1720,9
1607168643.1741,7
1607168643.1747,2
1607168643.1760,2
1607168643.1780,2
1607168643.1800,2
1607168643.1820,4
1607168643.1840,7
1607168643.1860,9
1607168643.1880,7
1607168643.1900,0
1607168643.1920,-2
1607168643.1941,4
1607168643.1960,4
1607168643.1980,0
1607168643.2000,4
1607168643.2020,7
1607168643.2041,7
1607168643.2047,4
1607168643.2061,7
1607168643.2081,2
1607168643.2100,4
1607168643.2121,21
1607168643.2141,41
1607168643.2160,45
1607168643.2180,38
1607168643.2200,33
1607168643.6244,24
1607168643.6255,7
1607168643.6279,0
1607168643.6305,9
1607168643.6325,9
1607168643.6346,-2
1607168643.6369,-4
1607168643.6376,-2
1607168643.6395,-12
1607168643.6416,-28
1607168643.6434,-9
1607168643.6454,154
1607168643.6475,637
1607168643.6495,1278
1607168643.6515,1401
1607168643.6535,649
1607168643.6554,-402
1607168643.6574,-791
1607168643.6594,-412
1607168643.6614,-108
1607168643.6635,-115
1607168643.6654,-72
1607168643.6674,-9
1607168643.6681,-26
1607168643.6694,-21
1607168643.6714,7
1607168643.6735,12
1607168643.6754,14
1607168643.6774,26
1607168643.6795,33
1607168643.6814,38
1607168643.6834,48
1607168643.6854,57
1607168643.6874,62
1607168643.6894,69
1607168643.6914,82
1607168643.6934,94
1607168643.6954,106
1607168643.6974,115
1607168643.6981,127
1607168643.6994,142
1607168643.7014,159
1607168643.7035,183
1607168643.7055,207
1607168643.7074,236
1607168643.7094,265
1607168643.7114,299
1607168643.7135,337
1607168643.7154,374
1607168643.7174,398
1607168643.7194,415
1607168643.7214,419
1607168643.7234,400
1607168643.7254,352
1607168643.7274,275
1607168643.7281,171
1607168643.7295,60
1607168643.7316,-36
1607168643.7335,-108
1607168643.7354,-159
1607168643.7375,-190
1607168643.7394,-205
1607168643.7414,-209
1607168643.7434,-207
1607168643.7454,-197
1607168643.7474,-185
1607168643.7495,-171
1607168643.7515,-159
1607168643.7534,-149
1607168643.7554,-137
1607168643.7574,-125
1607168643.7581,-115
1607168643.7594,-110
1607168644.2242,-103
1607168644.2251,-91
1607168644.2275,-91
1607168644.2302,-96
1607168644.2322,-91
1607168644.2342,-79
1607168644.2362,-77
1607168644.2384,-77
1607168644.2402,-77
1607168644.2421,-72
1607168644.2442,-69
1607168644.2461,-69
1607168644.2468,-67
1607168644.2481,-62
1607168644.2501,-65
1607168644.2521,-67
1607168644.2541,-62
1607168644.2561,-57
1607168644.2581,-57
1607168644.2601,-57
1607168644.2621,-53
1607168644.2641,-53
1607168644.2661,-53
1607168644.2680,-50
1607168644.2701,-45
1607168644.2721,-43
1607168644.2741,-41
1607168644.2761,-43
1607168644.2767,-41
1607168644.2781,-36
1607168644.2800,-33
1607168644.2821,-36
1607168644.2841,-38
1607168644.2861,-36
1607168644.2881,-33
1607168644.2903,-31
1607168644.2922,-28
1607168644.2941,-31
1607168644.2962,-33
1607168644.2981,-31
1607168644.3001,-31
1607168644.3021,-36
1607168644.3041,-43
1607168644.3061,-38
1607168644.3068,-36
1607168644.3081,-41
1607168644.3101,-43
1607168644.3121,-36
1607168644.3141,-31
1607168644.3161,-33
1607168644.3181,-33
1607168644.3201,-31
1607168644.3221,-26
1607168644.3241,-26
1607168644.3261,-26
1607168644.3281,-24
1607168644.3301,-21
1607168644.3321,-24
1607168644.3341,-24
1607168644.3361,-19
1607168644.3368,-14
1607168644.3381,-14
1607168644.3401,-16
1607168644.3421,-19
1607168644.3441,-24
1607168644.3461,-21
1607168644.3482,-14
1607168644.3501,-12
1607168644.3521,-12
1607168644.3541,-12
1607168644.3561,-12
1607168644.3581,-9
1607168644.3601,-7
1607168644.7945,-4
1607168644.7957,-4
1607168644.7973,-4
1607168644.7999,-4
1607168644.8018,-2
1607168644.8038,0
1607168644.8058,0
1607168644.8078,-2
1607168644.8098,-12
1607168644.8118,-14
1607168644.8138,-9
1607168644.8158,-7
1607168644.8178,-7
1607168644.8201,-7
1607168644.8218,-4
1607168644.8237,-4
1607168644.8257,-2
1607168644.8263,0
1607168644.8278,2
1607168644.8298,2
1607168644.8318,0
1607168644.8337,2
1607168644.8357,2
1607168644.8377,-2
1607168644.8397,0
1607168644.8417,2
1607168644.8437,2
1607168644.8457,2
1607168644.8476,4
1607168644.8496,7
1607168644.8517,9
1607168644.8537,7
1607168644.8557,4
1607168644.8563,4
1607168644.8576,0
1607168644.8597,-4
1607168644.8617,0
1607168644.8637,4
1607168644.8657,2
1607168644.8677,2
1607168644.8697,4
1607168644.8717,7
1607168644.8736,7
1607168644.8756,7
1607168644.8777,7
1607168644.8797,9
1607168644.8817,9
1607168644.8837,9
1607168644.8857,12
1607168644.8863,14
1607168644.8877,9
1607168644.8897,7
1607168644.8917,9
1607168644.8937,7
1607168644.8956,2
1607168644.8977,4
1607168644.8997,24
1607168644.9017,41
1607168644.9037,41
1607168644.9057,36
1607168644.9077,31
1607168644.9098,21
1607168644.9117,2
1607168644.9137,-4
1607168644.9160,2
1607168644.9164,7
1607168644.9177,7
1607168644.9197,7
1607168644.9217,9
1607168644.9237,2
1607168644.9257,-12
1607168644.9276,12
1607168644.9297,197
1607168645.3336,702
1607168645.3343,1307
1607168645.3367,1334
1607168645.3393,511
1607168645.3401,-489
1607168645.3424,-752
1607168645.3444,-330
1607168645.3463,-74
1607168645.3485,-110
1607168645.3504,-72
1607168645.3523,-16
1607168645.3543,-33
1607168645.3563,-28
1607168645.3583,-2
1607168645.3603,-2
1607168645.3623,2
1607168645.3645,16
1607168645.3665,21
1607168645.3684,26
1607168645.3703,38
1607168645.3710,43
1607168645.3723,48
1607168645.3744,57
1607168645.3763,72
1607168645.3783,84
1607168645.3803,91
1607168645.3824,101
1607168645.3844,108
1607168645.3863,120
1607168645.3883,144
1607168645.3903,173
1607168645.3923,193
1607168645.3943,212
1607168645.3963,241
1607168645.3983,277
1607168645.4003,316
1607168645.4010,349
1607168645.4024,374
1607168645.4043,393
1607168645.4063,400
1607168645.4083,383
1607168645.4103,340
1607168645.4124,270
1607168645.4144,171
1607168645.4164,65
1607168645.4183,-28
1607168645.4204,-103
1607168645.4223,-154
1607168645.4243,-185
1607168645.4263,-200
1607168645.4283,-205
1607168645.4303,-205
1607168645.4310,-197
1607168645.4323,-180
1607168645.4343,-166
1607168645.4363,-156
1607168645.4383,-144
1607168645.4403,-132
1607168645.4423,-120
1607168645.4443,-108
1607168645.4463,-101
1607168645.4483,-98
1607168645.4503,-94
1607168645.4523,-84
1607168645.4543,-77
1607168645.4563,-72
1607168645.4583,-67
1607168645.4603,-62
1607168645.4609,-62
1607168645.4623,-65
1607168645.4644,-69
1607168645.4663,-67
1607168645.4683,-62
1607168645.9042,-60
1607168645.9052,-57
1607168645.9068,-57
1607168645.9088,-55
1607168645.9109,-60
1607168645.9128,-67
1607168645.9148,-67
1607168645.9168,-67
1607168645.9175,-67
1607168645.9199,-67
1607168645.9218,-67
1607168645.9238,-65
1607168645.9258,-65
1607168645.9265,-62
1607168645.9288,-60
1607168645.9308,-65
1607168645.9328,-62
1607168645.9347,-57
1607168645.9367,-60
1607168645.9387,-60
1607168645.9409,-55
1607168645.9428,-53
1607168645.9447,-60
1607168645.9453,-60
1607168645.9467,-53
1607168645.9487,-45
1607168645.9507,-45
1607168645.9527,-45
1607168645.9548,-48
1607168645.9567,-50
1607168645.9587,-43
1607168645.9607,-31
1607168645.9628,-28
1607168645.9647,-33
1607168645.9667,-28
1607168645.9687,-21
1607168645.9707,-24
1607168645.9727,-31
1607168645.9747,-36
1607168645.9753,-33
1607168645.9767,-26
1607168645.9787,-21
1607168645.9807,-26
1607168645.9827,-24
1607168645.9847,-12
1607168645.9867,-12
1607168645.9887,-19
1607168645.9907,-16
1607168645.9927,-9
1607168645.9948,-12
1607168645.9967,-9
1607168645.9987,-9
1607168646.0007,-14
1607168646.0027,-14
1607168646.0047,-2
1607168646.0053,4
1607168646.0070,-4
1607168646.0088,-12
1607168646.0107,-4
1607168646.0128,0
1607168646.0147,-2
1607168646.0167,2
1607168646.0187,2
1607168646.0207,0
1607168646.0227,2
1607168646.0248,0
1607168646.0267,-2
1607168646.0287,2
1607168646.0307,2
1607168646.0327,-4
1607168646.0347,-4
1607168646.0355,7
1607168646.0368,7
1607168646.4745,0
1607168646.4757,0
1607168646.4781,0
1607168646.4798,2
1607168646.4818,0
1607168646.4838,-2
1607168646.4859,2
1607168646.4878,0
1607168646.4897,-12
1607168646.4918,-9
1607168646.4938,0
1607168646.4958,-2
1607168646.4978,-12
1607168646.4998,-14
1607168646.5004,-9
1607168646.5018,-2
1607168646.5038,2
1607168646.5058,0
1607168646.5078,-2
1607168646.5098,-2
1607168646.5118,-2
1607168646.5138,4
1607168646.5157,9
1607168646.5177,2
1607168646.5197,-7
1607168646.5217,0
1607168646.5238,16
1607168646.5257,21
1607168646.5278,4
1607168646.5299,-9
1607168646.5304,-2
1607168646.5317,9
1607168646.5337,9
1607168646.5357,7
1607168646.5377,12
1607168646.5397,14
1607168646.5417,9
1607168646.5437,4
1607168646.5457,4
1607168646.5478,2
1607168646.5497,2
1607168646.5517,12
1607168646.5538,19
1607168646.5557,16
1607168646.5577,14
1607168646.5597,16
1607168646.5603,16
1607168646.5617,16
1607168646.5637,21
1607168646.5658,16
1607168646.5677,7
1607168646.5697,4
1607168646.5717,14
1607168646.5737,16
1607168646.5757,9
1607168646.5777,9
1607168646.5797,7
1607168646.5817,-2
1607168646.5837,53
1607168646.5857,332
1607168646.5877,933
1607168646.5897,1447
1607168646.5903,1167
1607168646.5917,139
1607168646.5937,-697
1607168646.5957,-675
1607168646.5977,-260
1607168646.5997,-118
1607168646.6017,-103
1607168646.6037,-19
1607168646.6057,-2
1607168646.6077,-16
1607168646.6097,7
1607168647.0143,19
1607168647.0152,19
1607168647.0176,26
1607168647.0187,36
1607168647.0203,43
1607168647.0223,48
1607168647.0243,48
1607168647.0264,53
1607168647.0283,60
1607168647.0303,60
1607168647.0323,72
1607168647.0343,91
1607168647.0363,98
1607168647.0383,106
1607168647.0402,127
1607168647.0422,152
1607168647.0442,173
1607168647.0462,195
1607168647.0482,212
1607168647.0488,236
1607168647.0503,279
1607168647.0522,320
1607168647.0542,357
1607168647.0563,398
1607168647.0582,429
1607168647.0602,443
1607168647.0622,448
1607168647.0644,429
1607168647.0662,364
1607168647.0683,263
1607168647.0702,147
1607168647.0722,33
1607168647.0742,-62
1607168647.0762,-137
1607168647.0782,-188
1607168647.0788,-217
1607168647.0803,-229
1607168647.0822,-231
1607168647.0842,-219
1607168647.0862,-207
1607168647.0882,-197
1607168647.0902,-180
1607168647.0922,-164
1607168647.0942,-156
1607168647.0962,-149
1607168647.0982,-135
1607168647.1002,-125
1607168647.1022,-120
1607168647.1044,-113
1607168647.1062,-103
1607168647.1068,-98
1607168647.1082,-101
1607168647.1102,-106
1607168647.1122,-103
1607168647.1144,-101
1607168647.1162,-101
1607168647.1182,-96
1607168647.1203,-94
1607168647.1222,-98
1607168647.1242,-96
1607168647.1262,-91
1607168647.1282,-91
1607168647.1302,-86
1607168647.1322,-79
1607168647.1342,-82
1607168647.1362,-79
1607168647.1368,-72
1607168647.1382,-74
1607168647.1402,-79
1607168647.1422,-74
1607168647.1442,-72
1607168647.1462,-77
1607168647.1482,-74
1607168647.6142,-65
1607168647.6152,-62
1607168647.6176,-60
1607168647.6202,-57
1607168647.6222,-55
1607168647.6245,-53
1607168647.6263,-60
1607168647.6282,-67
1607168647.6290,-62
1607168647.6302,-55
1607168647.6322,-53
1607168647.6343,-53
1607168647.6362,-48
1607168647.6382,-43
1607168647.6402,-41
1607168647.6422,-38
1607168647.6442,-38
1607168647.6462,-31
1607168647.6483,-26
1607168647.6502,-28
1607168647.6522,-33
1607168647.6542,-31
1607168647.6562,-24
1607168647.6582,-21
1607168647.6589,-19
1607168647.6602,-16
1607168647.6622,-16
1607168647.6642,-16
1607168647.6662,-16
1607168647.6682,-16
1607168647.6702,-14
1607168647.6722,-9
1607168647.6742,-7
1607168647.6762,-9
1607168647.6782,-9
1607168647.6802,-7
1607168647.6822,-4
1607168647.6842,-2
1607168647.6861,-4
1607168647.6881,-4
1607168647.6888,0
1607168647.6901,-2
1607168647.6921,-7
1607168647.6942,-2
1607168647.6961,0
1607168647.6982,-2
1607168647.7002,0
1607168647.7021,4
1607168647.7042,2
1607168647.7061,2
1607168647.7081,4
1607168647.7101,2
1607168647.7122,2
1607168647.7142,2
1607168647.7161,4
1607168647.7181,4
1607168647.7189,4
1607168647.7202,4
1607168647.7221,7
1607168647.7242,12
1607168647.7261,12
1607168647.7281,7
1607168647.7301,7
1607168647.7322,2
1607168647.7341,-4
1607168647.7361,0
1607168647.7382,4
1607168647.7401,4
1607168647.7422,4
1607168647.7441,4
1607168647.7462,4
1607168647.7482,7
1607168647.7487,4
1607168648.1543,2
1607168648.1552,2
1607168648.1575,0
1607168648.1593,2
1607168648.1612,4
1607168648.1634,9
1607168648.1652,7
1607168648.1672,2
1607168648.1692,2
1607168648.1712,4
1607168648.1732,4
1607168648.1752,-4
1607168648.1772,-4
1607168648.1778,0
1607168648.1792,-4
1607168648.1812,-14
1607168648.1833,-7
1607168648.1854,2
1607168648.1872,14
1607168648.1892,28
1607168648.1911,41
1607168648.1932,38
1607168648.1952,24
1607168648.1971,2
1607168648.1991,-7
1607168648.2012,-2
1607168648.2032,2
1607168648.2052,0
1607168648.2072,4
1607168648.2078,7
1607168648.2091,4
1607168648.2112,-4
1607168648.2133,-16
1607168648.2151,12
1607168648.2173,212
1607168648.2192,740
1607168648.2211,1341
1607168648.2233,1317
1607168648.2251,451
1607168648.2272,-535
1607168648.2291,-752
1607168648.2311,-323
1607168648.2332,-89
1607168648.2353,-115
1607168648.2371,-57
1607168648.2377,-4
1607168648.2391,-28
1607168648.2411,-21
1607168648.2432,9
1607168648.2452,12
1607168648.2472,9
1607168648.2491,24
1607168648.2511,33
1607168648.2532,38
1607168648.2551,48
1607168648.2571,55
1607168648.2592,55
1607168648.2611,60
1607168648.2632,69
1607168648.2651,82
1607168648.2671,94
1607168648.2677,106
1607168648.2691,118
1607168648.2711,135
1607168648.2732,156
1607168648.2751,171
1607168648.2771,190
1607168648.2791,221
1607168648.2811,255
1607168648.2832,284
1607168648.2851,320
1607168648.2872,357
1607168648.2891,386
1607168648.7244,402
1607168648.7259,405
1607168648.7283,390
1607168648.7310,347
1607168648.7319,272
1607168648.7330,173
1607168648.7349,67
1607168648.7370,-28
1607168648.7389,-113
1607168648.7409,-171
1607168648.7429,-200
1607168648.7449,-212
1607168648.7472,-221
1607168648.7490,-217
1607168648.7509,-205
1607168648.7530,-193
1607168648.7549,-183
1607168648.7569,-168
1607168648.7589,-152
1607168648.7609,-142
1607168648.7615,-135
1607168648.7628,-120
1607168648.7649,-108
1607168648.7669,-101
1607168648.7689,-101
1607168648.7709,-96
1607168648.7729,-86
1607168648.7748,-82
1607168648.7769,-79
1607168648.7789,-74
1607168648.7808,-72
1607168648.7828,-72
1607168648.7849,-72
1607168648.7869,-69
1607168648.7888,-69
1607168648.7908,-69
1607168648.7915,-69
1607168648.7929,-72
1607168648.7948,-74
1607168648.7972,-74
1607168648.7987,-74
1607168648.8026,-74
1607168648.8070,-72
1607168648.8109,-72
1607168648.8132,-69
1607168648.8185,-65
1607168648.8195,-62
1607168648.8240,-62
1607168648.8258,-62
1607168648.8279,-65
1607168648.8299,-67
1607168648.8318,-65
1607168648.8339,-60
1607168648.8358,-55
1607168648.8378,-53
1607168648.8398,-50
1607168648.8405,-53
1607168648.8418,-50
1607168648.8439,-45
1607168648.8459,-45
1607168648.8478,-43
1607168648.8498,-41
1607168648.8518,-41
1607168648.8541,-38
1607168648.8559,-33
1607168648.8578,-28
1607168648.8598,-31
1607168648.8618,-31
1607168648.8639,-26
1607168648.8659,-24
1607168648.8678,-24
1607168648.8698,-24
1607168648.8704,-21
1607168649.2943,-19
1607168649.2955,-19
1607168649.2979,-16
1607168649.3005,-14
1607168649.3025,-14
1607168649.3045,-14
1607168649.3066,-14
1607168649.3085,-12
1607168649.3106,-9
1607168649.3125,-19
1607168649.3146,-26
1607168649.3165,-21
1607168649.3172,-16
1607168649.3186,-19
1607168649.3206,-19
1607168649.3225,-16
1607168649.3245,-16
1607168649.3264,-16
1607168649.3285,-14
1607168649.3305,-14
1607168649.3325,-12
1607168649.3345,-9
1607168649.3365,-7
1607168649.3385,-7
1607168649.3405,-9
1607168649.3425,-9
1607168649.3444,-7
1607168649.3464,-2
1607168649.3470,-2
1607168649.3484,-4
1607168649.3504,-4
1607168649.3524,0
1607168649.3544,0
1607168649.3564,0
1607168649.3584,0
1607168649.3604,2
1607168649.3624,0
1607168649.3645,0
1607168649.3664,4
1607168649.3684,7
1607168649.3705,4
1607168649.3726,2
1607168649.3745,-2
1607168649.3764,-4
1607168649.3770,-4
1607168649.3785,-2
1607168649.3804,-2
1607168649.3824,-4
1607168649.3845,-7
1607168649.3864,-4
1607168649.3884,0
1607168649.3905,2
1607168649.3924,0
1607168649.3944,0
1607168649.3964,0
1607168649.3984,2
1607168649.4004,7
1607168649.4024,4
1607168649.4045,2
1607168649.4065,2
1607168649.4071,0
1607168649.4085,4
1607168649.4105,7
1607168649.4125,2
1607168649.4146,-2
1607168649.4165,9
1607168649.4185,31
1607168649.4204,43
1607168649.4224,38
1607168649.4245,31
1607168649.4264,26
1607168649.4284,14
1607168649.4304,0
1607168649.8043,-2
1607168649.8052,4
1607168649.8076,4
1607168649.8087,2
1607168649.8103,4
1607168649.8123,0
1607168649.8143,-12
1607168649.8163,-9
1607168649.8182,72
1607168649.8203,390
1607168649.8222,996
1607168649.8243,1404
1607168649.8262,1006
1607168649.8283,-19
1607168649.8304,-743
1607168649.8323,-605
1607168649.8343,-185
1607168649.8362,-101
1607168649.8382,-113
1607168649.8391,-36
1607168649.8403,-14
1607168649.8422,-33
1607168649.8443,-12
1607168649.8462,4
1607168649.8482,7
1607168649.8503,16
1607168649.8524,26
1607168649.8543,31
1607168649.8563,38
1607168649.8583,45
1607168649.8602,50
1607168649.8623,62
1607168649.8642,74
1607168649.8662,77
1607168649.8682,79
1607168649.8688,86
1607168649.8702,103
1607168649.8722,120
1607168649.8742,137
1607168649.8762,154
1607168649.8782,180
1607168649.8802,212
1607168649.8822,241
1607168649.8842,265
1607168649.8862,294
1607168649.8882,328
1607168649.8902,361
1607168649.8922,388
1607168649.8943,410
1607168649.8962,407
1607168649.8982,374
1607168649.8988,320
1607168649.9002,238
1607168649.9024,132
1607168649.9043,28
1607168649.9062,-57
1607168649.9082,-127
1607168649.9102,-171
1607168649.9122,-195
1607168649.9143,-209
1607168649.9162,-217
1607168649.9182,-209
1607168649.9202,-195
1607168649.9222,-176
1607168649.9243,-161
1607168649.9262,-156
1607168649.9282,-156
1607168649.9288,-137
1607168649.9302,-115
1607168649.9322,-113
1607168649.9344,-113
1607168649.9362,-106
1607168649.9382,-98
1607168650.3744,-96
1607168650.3755,-89
1607168650.3780,-82
1607168650.3806,-84
1607168650.3826,-96
1607168650.3846,-94
1607168650.3866,-82
1607168650.3886,-79
1607168650.3894,-89
1607168650.3906,-89
1607168650.3926,-79
1607168650.3947,-77
1607168650.3966,-77
1607168650.3986,-74
1607168650.4006,-69
1607168650.4026,-72
1607168650.4046,-79
1607168650.4066,-72
1607168650.4086,-57
1607168650.4106,-57
1607168650.4126,-67
1607168650.4145,-65
1607168650.4167,-57
1607168650.4186,-60
1607168650.4191,-62
1607168650.4205,-57
1607168650.4225,-65
1607168650.4245,-72
1607168650.4265,-72
1607168650.4285,-67
1607168650.4305,-69
1607168650.4326,-67
1607168650.4345,-57
1607168650.4365,-57
1607168650.4385,-60
1607168650.4405,-55
1607168650.4425,-55
1607168650.4445,-53
1607168650.4465,-43
1607168650.4485,-45
1607168650.4491,-53
1607168650.4505,-41
1607168650.4526,-31
1607168650.4545,-36
1607168650.4565,-38
1607168650.4585,-31
1607168650.4605,-31
1607168650.4625,-33
1607168650.4647,-31
1607168650.4665,-26
1607168650.4686,-24
1607168650.4705,-21
1607168650.4725,-26
1607168650.4745,-26
1607168650.4764,-12
1607168650.4785,-14
1607168650.4791,-28
1607168650.4805,-19
1607168650.4825,-4
1607168650.4845,-14
1607168650.4865,-21
1607168650.4885,-19
1607168650.4905,-19
1607168650.4925,-19
1607168650.4945,-9
1607168650.4965,-12
1607168650.4985,-21
1607168650.5005,-16
1607168650.5025,-7
1607168650.5045,-2
1607168650.5065,-9
1607168650.5085,-14
1607168650.5091,-12
1607168650.9737,-7
1607168650.9749,-4
1607168650.9767,-7
1607168650.9786,-9
1607168650.9806,-7
1607168650.9825,-9
1607168650.9847,-16
1607168650.9866,-16
1607168650.9886,-9
1607168650.9906,-9
1607168650.9925,-9
1607168650.9932,-9
1607168650.9945,-4
1607168650.9965,-7
1607168650.9986,-9
1607168651.0006,-2
1607168651.0025,2
1607168651.0046,-2
1607168651.0065,-2
1607168651.0085,-7
1607168651.0105,-14
1607168651.0125,-19
1607168651.0146,-19
1607168651.0165,-14
1607168651.0185,0
1607168651.0205,19
1607168651.0227,28
1607168651.0233,28
1607168651.0245,16
1607168651.0265,7
1607168651.0285,-4
1607168651.0305,-14
1607168651.0325,-9
1607168651.0345,-4
1607168651.0365,-4
1607168651.0385,-4
1607168651.0405,-4
1607168651.0425,-9
1607168651.0445,-12
1607168651.0465,38
1607168651.0485,291
1607168651.0504,880
1607168651.0524,1438
1607168651.0531,1223
1607168651.0544,209
1607168651.0564,-680
1607168651.0585,-723
1607168651.0604,-301
1607168651.0625,-135
1607168651.0646,-120
1607168651.0664,-24
1607168651.0684,4
1607168651.0704,-26
1607168651.0724,-7
1607168651.0744,16
1607168651.0764,12
1607168651.0785,14
1607168651.0805,31
1607168651.0825,41
1607168651.0831,43
1607168651.0846,48
1607168651.0865,60
1607168651.0884,74
1607168651.0905,84
1607168651.0925,89
1607168651.0946,96
1607168651.0965,106
1607168651.0985,120
1607168651.1004,135
1607168651.1025,156
1607168651.1045,185
1607168651.1065,205
1607168651.1084,219
1607168651.5143,250
1607168651.5152,294
1607168651.5170,335
1607168651.5193,371
1607168651.5215,407
1607168651.5234,439
1607168651.5253,456
1607168651.5273,453
1607168651.5295,424
1607168651.5313,357
1607168651.5333,246
1607168651.5352,118
1607168651.5372,4
1607168651.5392,-94
1607168651.5412,-168
1607168651.5433,-209
1607168651.5453,-229
1607168651.5472,-241
1607168651.5478,-238
1607168651.5492,-229
1607168651.5512,-219
1607168651.5532,-205
1607168651.5552,-188
1607168651.5572,-173
1607168651.5592,-161
1607168651.5612,-149
1607168651.5633,-142
1607168651.5652,-130
1607168651.5672,-115
1607168651.5692,-106
1607168651.5712,-101
1607168651.5732,-96
1607168651.5752,-89
1607168651.5772,-84
1607168651.5778,-82
1607168651.5792,-77
1607168651.5812,-74
1607168651.5832,-74
1607168651.5852,-77
1607168651.5872,-72
1607168651.5891,-69
1607168651.5912,-69
1607168651.5933,-72
1607168651.5951,-72
1607168651.5972,-74
1607168651.5992,-72
1607168651.6012,-67
1607168651.6032,-65
1607168651.6052,-65
1607168651.6072,-65
1607168651.6078,-62
1607168651.6093,-55
1607168651.6112,-50
1607168651.6132,-50
1607168651.6151,-48
1607168651.6173,-45
1607168651.6192,-45
1607168651.6212,-43
1607168651.6232,-41
1607168651.6251,-38
1607168651.6273,-36
1607168651.6293,-36
1607168651.6311,-36
1607168651.6333,-31
1607168651.6352,-26
1607168651.6372,-26
1607168651.6378,-24
1607168651.6392,-24
1607168651.6412,-26
1607168651.6431,-28
1607168651.6452,-24
1607168651.6472,-21
1607168651.6492,-24
1607168652.0843,-26
1607168652.0853,-28
1607168652.0877,-28
1607168652.0904,-33
1607168652.0924,-36
1607168652.0944,-41
1607168652.0964,-41
1607168652.0970,-48
1607168652.0984,-53
1607168652.1004,-45
1607168652.1024,-38
1607168652.1044,-41
1607168652.1064,-38
1607168652.1085,-36
1607168652.1104,-33
1607168652.1124,-28
1607168652.1144,-28
1607168652.1163,-26
1607168652.1183,-24
1607168652.1203,-24
1607168652.1223,-24
1607168652.1244,-21
1607168652.1263,-16
1607168652.1269,-16
1607168652.1283,-16
1607168652.1303,-14
1607168652.1323,-9
1607168652.1343,-12
1607168652.1363,-9
1607168652.1383,-7
1607168652.1403,-9
1607168652.1423,-12
1607168652.1443,-7
1607168652.1465,-2
1607168652.1484,-2
1607168652.1503,-4
1607168652.1523,-4
1607168652.1543,-4
1607168652.1563,-4
1607168652.1568,-2
1607168652.1583,0
1607168652.1602,2
1607168652.1622,2
1607168652.1643,0
1607168652.1662,0
1607168652.1683,4
1607168652.1703,4
1607168652.1715,4
1607168652.1733,2
1607168652.1752,2
1607168652.1772,0
1607168652.1793,-4
1607168652.1814,0
1607168652.1833,19
1607168652.1840,36
1607168652.1852,36
1607168652.1872,33
1607168652.1893,28
1607168652.1913,16
1607168652.1933,0
1607168652.1952,-4
1607168652.1972,0
1607168652.1992,2
1607168652.2012,2
1607168652.2033,7
1607168652.2052,7
1607168652.2072,-7
1607168652.2092,-19
1607168652.2112,16
1607168652.2132,234
1607168652.2139,767
1607168652.2153,1356
1607168652.2173,1293
1607168652.6245,390
1607168652.6254,-583
1607168652.6278,-750
1607168652.6305,-306
1607168652.6325,-89
1607168652.6345,-118
1607168652.6369,-55
1607168652.6386,-7
1607168652.6405,-36
1607168652.6425,-31
1607168652.6446,-4
1607168652.6467,-2
1607168652.6474,0
1607168652.6485,14
1607168652.6505,24
1607168652.6525,28
1607168652.6544,38
1607168652.6564,45
1607168652.6584,53
1607168652.6604,62
1607168652.6624,74
1607168652.6644,86
1607168652.6664,96
1607168652.6684,108
1607168652.6704,120
1607168652.6725,137
1607168652.6744,154
1607168652.6764,173
1607168652.6770,197
1607168652.6784,226
1607168652.6804,260
1607168652.6824,299
1607168652.6844,335
1607168652.6864,369
1607168652.6884,400
1607168652.6904,415
1607168652.6927,412
1607168652.6946,390
1607168652.6964,340
1607168652.6983,253
1607168652.7003,144
1607168652.7024,38
1607168652.7044,-50
1607168652.7064,-120
1607168652.7070,-168
1607168652.7084,-195
1607168652.7103,-205
1607168652.7124,-209
1607168652.7146,-205
1607168652.7164,-195
1607168652.7184,-183
1607168652.7204,-173
1607168652.7224,-161
1607168652.7244,-147
1607168652.7263,-137
1607168652.7284,-127
1607168652.7304,-118
1607168652.7324,-110
1607168652.7344,-103
1607168652.7364,-98
1607168652.7370,-91
1607168652.7384,-84
1607168652.7405,-79
1607168652.7424,-79
1607168652.7444,-79
1607168652.7464,-74
1607168652.7483,-69
1607168652.7503,-69
1607168652.7523,-69
1607168652.7544,-67
1607168652.7564,-65
1607168652.7583,-67
1607168652.7604,-67
1607168653.2250,-65
1607168653.2265,-62
1607168653.2289,-62
1607168653.2315,-60
1607168653.2336,-60
1607168653.2355,-62
1607168653.2376,-69
1607168653.2395,-67
1607168653.2415,-57
1607168653.2436,-57
1607168653.2455,-60
1607168653.2475,-55
1607168653.2495,-50
1607168653.2515,-50
1607168653.2536,-48
1607168653.2555,-43
1607168653.2575,-43
1607168653.2582,-48
1607168653.2595,-48
1607168653.2615,-41
1607168653.2634,-36
1607168653.2655,-38
1607168653.2674,-36
1607168653.2694,-36
1607168653.2714,-31
1607168653.2735,-28
1607168653.2755,-26
1607168653.2775,-24
1607168653.2794,-24
1607168653.2815,-24
1607168653.2835,-21
1607168653.2855,-16
1607168653.2875,-16
1607168653.2881,-19
1607168653.2894,-16
1607168653.2914,-12
1607168653.2935,-14
1607168653.2954,-16
1607168653.2975,-12
1607168653.2994,-7
1607168653.3016,-9
1607168653.3035,-14
1607168653.3054,-14
1607168653.3074,-12
1607168653.3094,-14
1607168653.3114,-14
1607168653.3135,-14
1607168653.3154,-14
1607168653.3174,-16
1607168653.3180,-16
1607168653.3194,-19
1607168653.3214,-19
1607168653.3235,-19
1607168653.3254,-19
1607168653.3274,-21
1607168653.3294,-24
1607168653.3314,-26
1607168653.3335,-26
1607168653.3354,-21
1607168653.3374,-19
1607168653.3394,-21
1607168653.3415,-21
1607168653.3435,-19
1607168653.3454,-14
1607168653.3474,-16
1607168653.3557,-19
1607168653.3575,-14
1607168653.3594,-9
1607168653.3614,-9
1607168653.3635,-9
1607168653.3654,-9
1607168653.3674,-9
1607168653.3694,-7
1607168653.7339,0
1607168653.7349,0
1607168653.7373,-12
1607168653.7390,-14
1607168653.7410,-4
1607168653.7430,4
1607168653.7450,2
1607168653.7456,-2
1607168653.7469,-2
1607168653.7490,2
1607168653.7510,-4
1607168653.7530,-12
1607168653.7549,-12
1607168653.7571,-7
1607168653.7589,-4
1607168653.7609,-2
1607168653.7629,-4
1607168653.7649,-4
1607168653.7671,-2
1607168653.7689,-2
1607168653.7709,0
1607168653.7729,7
1607168653.7749,4
1607168653.7755,2
1607168653.7769,9
1607168653.7789,12
1607168653.7809,4
1607168653.7829,4
1607168653.7849,7
1607168653.7869,7
1607168653.7891,12
1607168653.7909,14
1607168653.7929,16
1607168653.7949,9
1607168653.7969,4
1607168653.7989,7
1607168653.8009,9
1607168653.8029,9
1607168653.8049,9
1607168653.8055,9
1607168653.8068,16
1607168653.8089,38
1607168653.8109,48
1607168653.8128,38
1607168653.8149,33
1607168653.8169,26
1607168653.8189,4
1607168653.8209,-4
1607168653.8229,2
1607168653.8249,-2
1607168653.8269,-4
1607168653.8289,2
1607168653.8309,0
1607168653.8328,-12
1607168653.8349,-14
1607168653.8355,28
1607168653.8369,241
1607168653.8389,774
1607168653.8409,1351
1607168653.8429,1274
1607168653.8448,383
1607168653.8469,-559
1607168653.8489,-728
1607168653.8509,-313
1607168653.8529,-103
1607168653.8548,-115
1607168653.8569,-43
1607168653.8589,2
1607168653.8609,-21
1607168653.8632,-9
1607168653.8650,12
1607168653.8655,12
1607168653.8668,14
1607168654.3340,24
1607168654.3352,33
1607168654.3376,43
1607168654.3403,43
1607168654.3424,38
1607168654.3448,41
1607168654.3462,62
1607168654.3482,84
1607168654.3502,86
1607168654.3510,91
1607168654.3523,110
1607168654.3543,127
1607168654.3563,139
1607168654.3583,159
1607168654.3603,185
1607168654.3623,207
1607168654.3643,234
1607168654.3663,270
1607168654.3683,311
1607168654.3703,345
1607168654.3722,376
1607168654.3743,412
1607168654.3762,441
1607168654.3782,446
1607168654.3802,424
1607168654.3809,378
1607168654.3822,296
1607168654.3843,185
1607168654.3862,74
1607168654.3882,-21
1607168654.3902,-108
1607168654.3922,-173
1607168654.3943,-205
1607168654.3962,-217
1607168654.3982,-217
1607168654.4002,-217
1607168654.4022,-209
1607168654.4043,-193
1607168654.4062,-176
1607168654.4082,-164
1607168654.4102,-152
1607168654.4109,-137
1607168654.4123,-137
1607168654.4143,-135
1607168654.4163,-120
1607168654.4183,-106
1607168654.4202,-101
1607168654.4225,-94
1607168654.4243,-89
1607168654.4262,-86
1607168654.4281,-82
1607168654.4302,-77
1607168654.4321,-79
1607168654.4342,-79
1607168654.4361,-72
1607168654.4381,-67
1607168654.4401,-69
1607168654.4408,-77
1607168654.4422,-72
1607168654.4442,-65
1607168654.4462,-67
1607168654.4482,-67
1607168654.4502,-67
1607168654.4521,-67
1607168654.4542,-65
1607168654.4561,-60
1607168654.4581,-60
1607168654.4601,-57
1607168654.4621,-53
1607168654.4642,-48
1607168654.4662,-48
1607168654.4681,-50
1607168654.4701,-48
1607168654.9045,-50
1607168654.9057,-53
1607168654.9082,-53
1607168654.9108,-38
1607168654.9128,-36
1607168654.9148,-45
1607168654.9168,-50
1607168654.9187,-48
1607168654.9207,-50
1607168654.9227,-60
1607168654.9247,-62
1607168654.9267,-57
1607168654.9288,-48
1607168654.9307,-43
1607168654.9314,-48
1607168654.9327,-48
1607168654.9347,-43
1607168654.9367,-43
1607168654.9389,-43
1607168654.9407,-38
1607168654.9427,-36
1607168654.9447,-36
1607168654.9467,-31
1607168654.9487,-28
1607168654.9507,-31
1607168654.9529,-31
1607168654.9547,-36
1607168654.9566,-31
1607168654.9586,-16
1607168654.9607,-19
1607168654.9613,-26
1607168654.9627,-24
1607168654.9647,-19
1607168654.9667,-19
1607168654.9687,-24
1607168654.9706,-28
1607168654.9726,-24
1607168654.9746,-21
1607168654.9766,-24
1607168654.9786,-14
1607168654.9806,-9
1607168654.9826,-24
1607168654.9847,-21
1607168654.9866,-7
1607168654.9890,-9
1607168654.9907,-16
1607168654.9913,-12
1607168654.9926,-4
1607168654.9946,-2
1607168654.9966,-7
1607168654.9986,-9
1607168655.0007,-7
1607168655.0026,-7
1607168655.0047,-7
1607168655.0067,-7
1607168655.0087,-7
1607168655.0106,-9
1607168655.0126,-12
1607168655.0147,-7
1607168655.0166,-4
1607168655.0186,-4
1607168655.0206,-2
1607168655.0212,0
1607168655.0226,-2
1607168655.0246,-7
1607168655.0266,0
1607168655.0287,2
1607168655.0306,0
1607168655.0326,-2
1607168655.0347,2
1607168655.0366,7
1607168655.0386,4
1607168655.0407,2
1607168655.4446,2
1607168655.4455,2
1607168655.4480,-2
1607168655.4509,-4
1607168655.4527,-2
1607168655.4534,2
1607168655.4546,7
1607168655.4567,21
1607168655.4586,38
1607168655.4606,36
1607168655.4627,12
1607168655.4646,-4
1607168655.4666,-16
1607168655.4686,-24
1607168655.4705,-24
1607168655.4726,-21
1607168655.4746,-21
1607168655.4765,-21
1607168655.4785,-16
1607168655.4806,-9
1607168655.4825,-9
1607168655.4832,14
1607168655.4846,226
1607168655.4865,791
1607168655.4885,1397
1607168655.4905,1293
1607168655.4926,352
1607168655.4946,-605
1607168655.4965,-769
1607168655.4985,-354
1607168655.5005,-142
1607168655.5025,-137
1607168655.5045,-48
1607168655.5065,-7
1607168655.5085,-38
1607168655.5105,-19
1607168655.5126,7
1607168655.5133,-2
1607168655.5145,4
1607168655.5165,24
1607168655.5186,31
1607168655.5205,36
1607168655.5225,45
1607168655.5246,55
1607168655.5265,67
1607168655.5285,67
1607168655.5306,65
1607168655.5326,84
1607168655.5346,106
1607168655.5365,113
1607168655.5385,120
1607168655.5406,139
1607168655.5426,164
1607168655.5431,190
1607168655.5447,217
1607168655.5466,248
1607168655.5485,287
1607168655.5505,318
1607168655.5525,354
1607168655.5545,395
1607168655.5565,429
1607168655.5585,446
1607168655.5605,456
1607168655.5625,441
1607168655.5646,381
1607168655.5665,277
1607168655.5685,164
1607168655.5705,50
1607168655.5725,-53
1607168655.5731,-130
1607168655.5745,-183
1607168655.5765,-219
1607168655.5785,-234
1607168655.9839,-231
1607168655.9849,-226
1607168655.9873,-219
1607168655.9901,-202
1607168655.9920,-190
1607168655.9940,-183
1607168655.9961,-168
1607168655.9979,-156
1607168656.0001,-154
1607168656.0005,-144
1607168656.0021,-132
1607168656.0040,-125
1607168656.0059,-118
1607168656.0080,-108
1607168656.0099,-103
1607168656.0119,-101
1607168656.0140,-96
1607168656.0159,-89
1607168656.0179,-84
1607168656.0199,-86
1607168656.0219,-94
1607168656.0239,-91
1607168656.0259,-84
1607168656.0279,-86
1607168656.0299,-89
1607168656.0305,-84
1607168656.0319,-82
1607168656.0339,-82
1607168656.0359,-82
1607168656.0379,-77
1607168656.0399,-74
1607168656.0419,-74
1607168656.0440,-72
1607168656.0459,-65
1607168656.0479,-65
1607168656.0499,-72
1607168656.0519,-77
1607168656.0539,-74
1607168656.0559,-72
1607168656.0579,-72
1607168656.0600,-67
1607168656.0605,-62
1607168656.0619,-65
1607168656.0639,-67
1607168656.0659,-62
1607168656.0679,-50
1607168656.0698,-50
1607168656.0719,-53
1607168656.0739,-50
1607168656.0759,-50
1607168656.0779,-48
1607168656.0799,-43
1607168656.0818,-41
1607168656.0838,-41
1607168656.0858,-43
1607168656.0879,-38
1607168656.0898,-36
1607168656.0905,-36
1607168656.0919,-36
1607168656.0939,-36
1607168656.0959,-33
1607168656.0979,-31
1607168656.0999,-26
1607168656.1019,-26
1607168656.1039,-24
1607168656.1058,-24
1607168656.1078,-24
1607168656.1098,-24
1607168656.1119,-24
1607168656.1139,-26
1607168656.1159,-24
1607168656.1179,-21
1607168656.1199,-19
1607168656.5546,-16
1607168656.5558,-16
1607168656.5582,-19
1607168656.5599,-16
1607168656.5619,-14
1607168656.5639,-24
1607168656.5659,-26
1607168656.5679,-21
1607168656.5699,-19
1607168656.5719,-21
1607168656.5741,-16
1607168656.5759,-12
1607168656.5780,-19
1607168656.5799,-26
1607168656.5819,-19
1607168656.5840,-12
1607168656.5846,-14
1607168656.5859,-16
1607168656.5879,-9
1607168656.5899,-7
1607168656.5919,-9
1607168656.5939,-9
1607168656.5962,-4
1607168656.5979,-7
1607168656.5999,-7
1607168656.6018,-4
1607168656.6039,-4
1607168656.6058,-7
1607168656.6078,-7
1607168656.6098,-4
1607168656.6118,-2
1607168656.6139,-2
1607168656.6144,-4
1607168656.6158,-4
1607168656.6178,-4
1607168656.6198,-4
1607168656.6218,7
1607168656.6239,26
1607168656.6258,33
1607168656.6278,24
1607168656.6298,21
1607168656.6318,16
1607168656.6339,0
1607168656.6358,-12
1607168656.6378,-7
1607168656.6399,0
1607168656.6418,0
1607168656.6439,-2
1607168656.6444,-2
1607168656.6458,-4
1607168656.6478,-14
1607168656.6498,-2
1607168656.6518,139
1607168656.6538,593
1607168656.6558,1249
1607168656.6578,1430
1607168656.6599,726
1607168656.6618,-345
1607168656.6639,-796
1607168656.6658,-446
1607168656.6678,-120
1607168656.6700,-118
1607168656.6719,-82
1607168656.6739,-12
1607168656.6744,-28
1607168656.6758,-28
1607168656.6778,2
1607168656.6798,4
1607168656.6818,2
1607168656.6838,21
1607168656.6858,31
1607168656.6878,31
1607168656.6898,38
1607168657.0944,48
1607168657.0954,55
1607168657.0978,65
1607168657.1005,74
1607168657.1025,84
1607168657.1033,86
1607168657.1045,84
1607168657.1065,96
1607168657.1085,120
1607168657.1105,137
1607168657.1125,152
1607168657.1144,180
1607168657.1164,209
1607168657.1184,241
1607168657.1204,275
1607168657.1224,313
1607168657.1245,352
1607168657.1264,383
1607168657.1284,402
1607168657.1304,410
1607168657.1324,398
1607168657.1331,357
1607168657.1344,277
1607168657.1364,178
1607168657.1384,74
1607168657.1404,-26
1607168657.1424,-106
1607168657.1445,-161
1607168657.1464,-197
1607168657.1484,-217
1607168657.1504,-219
1607168657.1524,-214
1607168657.1544,-205
1607168657.1564,-195
1607168657.1584,-185
1607168657.1604,-171
1607168657.1624,-156
1607168657.1631,-144
1607168657.1644,-135
1607168657.1666,-125
1607168657.1684,-118
1607168657.1704,-110
1607168657.1724,-103
1607168657.1745,-94
1607168657.1764,-86
1607168657.1784,-84
1607168657.1804,-82
1607168657.1824,-77
1607168657.1845,-74
1607168657.1864,-72
1607168657.1884,-74
1607168657.1905,-77
1607168657.1911,-77
1607168657.1924,-74
1607168657.1944,-72
1607168657.1964,-67
1607168657.1984,-67
1607168657.2004,-67
1607168657.2025,-67
1607168657.2045,-65
1607168657.2064,-62
1607168657.2084,-60
1607168657.2104,-55
1607168657.2124,-53
1607168657.2144,-53
1607168657.2164,-53
1607168657.2184,-48
1607168657.2204,-45
1607168657.2210,-45
1607168657.2224,-43
1607168657.2244,-43
1607168657.2264,-45
1607168657.2284,-50
1607168657.6944,-48
1607168657.6957,-41
1607168657.6981,-41
1607168657.7008,-50
1607168657.7027,-53
1607168657.7047,-45
1607168657.7068,-41
1607168657.7087,-41
1607168657.7107,-41
1607168657.7127,-43
1607168657.7135,-43
1607168657.7147,-38
1607168657.7167,-33
1607168657.7188,-31
1607168657.7207,-31
1607168657.7227,-28
1607168657.7247,-28
1607168657.7270,-28
1607168657.7288,-28
1607168657.7307,-24
1607168657.7327,-24
1607168657.7347,-26
1607168657.7367,-28
1607168657.7387,-26
1607168657.7407,-26
1607168657.7427,-28
1607168657.7433,-28
1607168657.7447,-26
1607168657.7467,-24
1607168657.7487,-21
1607168657.7507,-21
1607168657.7527,-24
1607168657.7546,-21
1607168657.7566,-21
1607168657.7587,-19
1607168657.7606,-19
1607168657.7627,-16
1607168657.7647,-14
1607168657.7667,-14
1607168657.7687,-14
1607168657.7707,-16
1607168657.7726,-16
1607168657.7733,-16
1607168657.7746,-14
1607168657.7768,-12
1607168657.7786,-14
1607168657.7806,-14
1607168657.7827,-9
1607168657.7846,-9
1607168657.7867,-7
1607168657.7887,-7
1607168657.7907,-7
1607168657.7927,-4
1607168657.7947,-2
1607168657.7967,-4
1607168657.7986,-4
1607168657.8007,-2
1607168657.8026,-2
1607168657.8033,-2
1607168657.8046,0
1607168657.8066,0
1607168657.8086,0
1607168657.8106,0
1607168657.8126,2
1607168657.8146,0
1607168657.8166,-4
1607168657.8186,-4
1607168657.8206,-2
1607168657.8228,-2
1607168657.8248,-4
1607168657.8267,-2
1607168657.8287,0
1607168657.8307,2
1607168658.2642,4
1607168658.2654,2
1607168658.2678,-2
1607168658.2705,-2
1607168658.2724,2
1607168658.2744,4
1607168658.2766,4
1607168658.2784,2
1607168658.2805,-7
1607168658.2825,-14
1607168658.2846,-4
1607168658.2865,4
1607168658.2885,0
1607168658.2904,-4
1607168658.2910,-4
1607168658.2924,-4
1607168658.2945,0
1607168658.2964,4
1607168658.2986,4
1607168658.3008,-9
1607168658.3025,-9
1607168658.3044,14
1607168658.3064,38
1607168658.3084,36
1607168658.3104,28
1607168658.3124,31
1607168658.3144,24
1607168658.3164,0
1607168658.3184,-12
1607168658.3204,-2
1607168658.3210,7
1607168658.3224,4
1607168658.3244,2
1607168658.3263,0
1607168658.3283,-9
1607168658.3303,-24
1607168658.3324,7
1607168658.3344,212
1607168658.3365,743
1607168658.3383,1331
1607168658.3403,1298
1607168658.3423,443
1607168658.3444,-523
1607168658.3463,-745
1607168658.3484,-328
1607168658.3503,-89
1607168658.3511,-108
1607168658.3524,-55
1607168658.3544,-7
1607168658.3563,-28
1607168658.3583,-21
1607168658.3603,2
1607168658.3625,4
1607168658.3644,14
1607168658.3663,28
1607168658.3683,31
1607168658.3703,31
1607168658.3724,38
1607168658.3744,45
1607168658.3763,53
1607168658.3783,65
1607168658.3803,69
1607168658.3809,77
1607168658.3823,89
1607168658.3843,103
1607168658.3863,118
1607168658.3883,130
1607168658.3903,142
1607168658.3924,166
1607168658.3944,195
1607168658.3963,217
1607168658.3983,250
1607168658.4003,294
1607168658.8045,328
1607168658.8057,357
1607168658.8080,390
1607168658.8098,415
1607168658.8106,417
1607168658.8118,400
1607168658.8138,361
1607168658.8157,291
1607168658.8177,188
1607168658.8197,74
1607168658.8217,-21
1607168658.8238,-96
1607168658.8257,-161
1607168658.8277,-202
1607168658.8297,-212
1607168658.8318,-212
1607168658.8338,-219
1607168658.8357,-212
1607168658.8377,-195
1607168658.8397,-185
1607168658.8403,-168
1607168658.8417,-147
1607168658.8437,-137
1607168658.8457,-135
1607168658.8479,-127
1607168658.8497,-118
1607168658.8517,-108
1607168658.8536,-98
1607168658.8557,-91
1607168658.8576,-89
1607168658.8596,-91
1607168658.8616,-89
1607168658.8637,-86
1607168658.8656,-84
1607168658.8676,-77
1607168658.8698,-65
1607168658.8703,-65
1607168658.8717,-77
1607168658.8736,-79
1607168658.8756,-72
1607168658.8776,-69
1607168658.8796,-72
1607168658.8817,-69
1607168658.8837,-69
1607168658.8856,-67
1607168658.8876,-57
1607168658.8896,-53
1607168658.8916,-53
1607168658.8937,-53
1607168658.8956,-57
1607168658.8976,-67
1607168658.8996,-65
1607168658.9002,-50
1607168658.9016,-50
1607168658.9037,-57
1607168658.9056,-55
1607168658.9076,-50
1607168658.9096,-50
1607168658.9116,-48
1607168658.9137,-43
1607168658.9156,-50
1607168658.9176,-53
1607168658.9196,-48
1607168658.9217,-53
1607168658.9237,-57
1607168658.9256,-45
1607168658.9276,-41
1607168658.9296,-41
1607168658.9302,-41
1607168658.9316,-38
1607168658.9337,-41
1607168658.9357,-38
1607168658.9376,-36
1607168659.3744,-36
1607168659.3753,-33
1607168659.3781,-31
1607168659.3805,-33
1607168659.3824,-28
1607168659.3844,-24
1607168659.3864,-28
1607168659.3884,-41
1607168659.3891,-41
1607168659.3904,-26
1607168659.3923,-21
1607168659.3943,-38
1607168659.3963,-43
1607168659.3983,-28
1607168659.4003,-21
1607168659.4023,-24
1607168659.4043,-21
1607168659.4063,-21
1607168659.4083,-26
1607168659.4104,-24
1607168659.4124,-19
1607168659.4144,-21
1607168659.4164,-21
1607168659.4184,-16
1607168659.4190,-16
1607168659.4204,-14
1607168659.4224,-9
1607168659.4244,-9
1607168659.4263,-9
1607168659.4283,-4
1607168659.4304,-4
1607168659.4324,-14
1607168659.4344,-4
1607168659.4363,0
1607168659.4383,-12
1607168659.4403,-14
1607168659.4423,-4
1607168659.4443,-2
1607168659.4463,-2
1607168659.4483,0
1607168659.4489,4
1607168659.4503,2
1607168659.4523,-9
1607168659.4543,-14
1607168659.4563,-9
1607168659.4583,-2
1607168659.4603,-2
1607168659.4623,-7
1607168659.4643,-12
1607168659.4663,-12
1607168659.4683,-9
1607168659.4703,-7
1607168659.4723,-4
1607168659.4745,0
1607168659.4763,16
1607168659.4782,28
1607168659.4789,31
1607168659.4803,21
1607168659.4823,9
1607168659.4843,0
1607168659.4862,-9
1607168659.4883,-14
1607168659.4903,-9
1607168659.4923,-2
1607168659.4943,0
1607168659.4962,-7
1607168659.4983,-14
1607168659.5003,-14
1607168659.5022,-4
1607168659.5043,69
1607168659.5063,400
1607168659.5083,1054
1607168659.5089,1479
1607168659.9141,1013
1607168659.9151,-65
1607168659.9168,-767
1607168659.9187,-617
1607168659.9206,-226
1607168659.9227,-135
1607168659.9247,-103
1607168659.9267,-26
1607168659.9287,-36
1607168659.9307,-48
1607168659.9327,-7
1607168659.9346,-2
1607168659.9366,-12
1607168659.9372,7
1607168659.9386,26
1607168659.9406,26
1607168659.9427,28
1607168659.9446,41
1607168659.9466,53
1607168659.9486,67
1607168659.9506,74
1607168659.9526,74
1607168659.9546,86
1607168659.9565,101
1607168659.9586,113
1607168659.9606,132
1607168659.9626,152
1607168659.9646,171
1607168659.9666,193
1607168659.9672,219
1607168659.9686,250
1607168659.9708,289
1607168659.9726,330
1607168659.9746,371
1607168659.9765,398
1607168659.9785,417
1607168659.9805,431
1607168659.9826,431
1607168659.9846,395
1607168659.9865,325
1607168659.9885,229
1607168659.9905,113
1607168659.9925,0
1607168659.9946,-91
1607168659.9965,-156
1607168659.9971,-200
1607168659.9985,-224
1607168660.0005,-236
1607168660.0026,-234
1607168660.0046,-221
1607168660.0065,-212
1607168660.0085,-202
1607168660.0106,-190
1607168660.0126,-178
1607168660.0146,-161
1607168660.0166,-144
1607168660.0185,-137
1607168660.0205,-130
1607168660.0225,-118
1607168660.0246,-110
1607168660.0265,-106
1607168660.0271,-101
1607168660.0285,-94
1607168660.0306,-91
1607168660.0326,-86
1607168660.0347,-82
1607168660.0365,-84
1607168660.0385,-89
1607168660.0405,-84
1607168660.0425,-79
1607168660.0446,-82
1607168660.0466,-84
1607168660.0485,-82
1607168660.5145,-82
1607168660.5158,-82
1607168660.5181,-79
1607168660.5199,-72
1607168660.5207,-74
1607168660.5218,-86
1607168660.5238,-86
1607168660.5260,-77
1607168660.5278,-74
1607168660.5303,-74
1607168660.5318,-72
1607168660.5339,-65
1607168660.5358,-62
1607168660.5378,-65
1607168660.5398,-62
1607168660.5418,-57
1607168660.5438,-57
1607168660.5459,-60
1607168660.5478,-62
1607168660.5498,-60
1607168660.5504,-57
1607168660.5518,-60
1607168660.5539,-60
1607168660.5558,-55
1607168660.5578,-53
1607168660.5598,-53
1607168660.5618,-50
1607168660.5638,-53
1607168660.5658,-62
1607168660.5678,-60
1607168660.5697,-53
1607168660.5718,-50
1607168660.5738,-50
1607168660.5758,-48
1607168660.5778,-48
1607168660.5798,-43
1607168660.5803,-41
1607168660.5818,-41
1607168660.5838,-38
1607168660.5858,-33
1607168660.5878,-36
1607168660.5897,-38
1607168660.5917,-33
1607168660.5938,-28
1607168660.5958,-28
1607168660.5977,-28
1607168660.5998,-26
1607168660.6017,-24
1607168660.6038,-24
1607168660.6057,-24
