Time,ECG
1604669025.9560,43
1604669025.9565,450
1604669025.9589,1165
1604669025.9615,1868
1604669025.9635,2464
1604669025.9655,3044
1604669025.9676,3567
1604669025.9695,4053
1604669025.9715,4533
1604669025.9736,4959
1604669025.9756,5355
1604669025.9775,5742
1604669025.9795,6063
1604669025.9815,6362
1604669025.9835,6698
1604669025.9855,7015
1604669025.9875,7275
1604669025.9896,7530
1604669025.9915,7786
1604669025.9935,8007
1604669025.9955,8229
1604669025.9976,8509
1604669025.9995,8915
1604669026.0015,9489
1604669026.0035,10042
1604669026.0055,10122
1604669026.0075,9638
1604669026.0095,9243
1604669026.0115,9426
1604669026.0136,9767
1604669026.0156,9900
1604669026.0175,10000
1604669026.0195,10129
1604669026.0215,10222
1604669026.0235,10338
1604669026.0255,10477
1604669026.0275,10562
1604669026.0295,10613
1604669026.0315,10689
1604669026.0335,10772
1604669026.0355,10818
1604669026.0375,10847
1604669026.0395,10891
1604669026.0415,10971
1604669026.0435,11034
1604669026.0456,11042
1604669026.0475,11068
1604669026.0495,11098
1604669026.0515,11105
1604669026.0535,11141
1604669026.0561,11158
1604669026.0576,11151
1604669026.0596,11163
1604669026.0615,11154
1604669026.0635,11115
1604669026.0655,11034
1604669026.0675,10937
1604669026.0695,10859
1604669026.0716,10859
1604669026.0736,10920
1604669026.0755,10852
1604669026.0776,10742
1604669026.0795,10762
1604669026.0815,10730
1604669026.0835,10606
1604669026.0855,10553
1604669026.0875,10540
1604669026.0895,10472
1604669026.0915,10397
1604669026.0935,10353
1604669026.0955,10287
1604669026.0975,10219
1604669026.0996,10180
1604669026.4663,10134
1604669026.4667,10054
1604669026.4692,9983
1604669026.4718,9964
1604669026.4737,9908
1604669026.4758,9784
1604669026.4778,9696
1604669026.4798,9669
1604669026.4818,9604
1604669026.4838,9501
1604669026.4857,9387
1604669026.4877,9278
1604669026.4898,9256
1604669026.4917,9236
1604669026.4937,9119
1604669026.4958,9012
1604669026.4978,8956
1604669026.4998,8874
1604669026.5018,8771
1604669026.5037,8691
1604669026.5057,8625
1604669026.5078,8535
1604669026.5097,8428
1604669026.5117,8355
1604669026.5138,8341
1604669026.5158,8324
1604669026.5177,8229
1604669026.5198,8102
1604669026.5219,8027
1604669026.5238,7956
1604669026.5258,7849
1604669026.5279,7757
1604669026.5298,7689
1604669026.5318,7616
1604669026.5338,7526
1604669026.5357,7440
1604669026.5378,7384
1604669026.5398,7326
1604669026.5418,7234
1604669026.5438,7153
1604669026.5458,7139
1604669026.5478,7246
1604669026.5498,7538
1604669026.5517,7844
1604669026.5537,7693
1604669026.5558,6973
1604669026.5578,6343
1604669026.5598,6287
1604669026.5618,6426
1604669026.5638,6367
1604669026.5658,6258
1604669026.5677,6221
1604669026.5698,6168
1604669026.5718,6095
1604669026.5738,6046
1604669026.5758,5985
1604669026.5777,5932
1604669026.5798,5893
1604669026.5817,5808
1604669026.5837,5708
1604669026.5858,5684
1604669026.5878,5654
1604669026.5897,5542
1604669026.5917,5487
1604669026.5938,5516
1604669026.5958,5472
1604669026.5978,5384
1604669026.5998,5343
1604669026.6018,5292
1604669026.6038,5214
1604669026.6057,5153
1604669026.6077,5109
1604669026.6098,5046
1604669027.0065,4956
1604669027.0069,4859
1604669027.0094,4788
1604669027.0120,4725
1604669027.0140,4623
1604669027.0160,4542
1604669027.0182,4506
1604669027.0200,4433
1604669027.0220,4348
1604669027.0240,4311
1604669027.0260,4250
1604669027.0280,4158
1604669027.0301,4141
1604669027.0320,4141
1604669027.0340,4051
1604669027.0360,3949
1604669027.0380,3924
1604669027.0400,3898
1604669027.0420,3825
1604669027.0440,3791
1604669027.0461,3788
1604669027.0480,3735
1604669027.0500,3669
1604669027.0520,3620
1604669027.0540,3574
1604669027.0560,3535
1604669027.0580,3486
1604669027.0600,3428
1604669027.0620,3406
1604669027.0640,3372
1604669027.0660,3287
1604669027.0680,3263
1604669027.0700,3284
1604669027.0720,3221
1604669027.0740,3153
1604669027.0760,3158
1604669027.0780,3117
1604669027.0800,3024
1604669027.0820,2997
1604669027.0840,2988
1604669027.0860,2912
1604669027.0880,2878
1604669027.0899,2919
1604669027.0920,2898
1604669027.0940,2820
1604669027.0960,2788
1604669027.0980,2766
1604669027.1001,2703
1604669027.1020,2644
1604669027.1039,2591
1604669027.1060,2545
1604669027.1080,2554
1604669027.1100,2547
1604669027.1120,2486
1604669027.1140,2447
1604669027.1160,2430
1604669027.1180,2394
1604669027.1201,2404
1604669027.1220,2557
1604669027.1240,2905
1604669027.1260,3306
1604669027.1281,3260
1604669027.1300,2520
1604669027.1320,1820
1604669027.1340,1829
1604669027.1360,2060
1604669027.1380,2039
1604669027.1399,2005
1604669027.1420,2029
1604669027.1440,1978
1604669027.1460,1949
1604669027.1480,1970
1604669027.1500,1956
1604669027.5461,1912
1604669027.5466,1890
1604669027.5489,1878
1604669027.5516,1866
1604669027.5536,1863
1604669027.5556,1868
1604669027.5577,1856
1604669027.5596,1839
1604669027.5616,1820
1604669027.5636,1798
1604669027.5656,1798
1604669027.5676,1800
1604669027.5696,1773
1604669027.5716,1764
1604669027.5736,1776
1604669027.5756,1737
1604669027.5776,1691
1604669027.5796,1691
1604669027.5816,1644
1604669027.5836,1547
1604669027.5857,1491
1604669027.5876,1464
1604669027.5896,1425
1604669027.5916,1416
1604669027.5935,1399
1604669027.5956,1345
1604669027.5976,1313
1604669027.5996,1326
1604669027.6016,1323
1604669027.6036,1299
1604669027.6056,1265
1604669027.6076,1233
1604669027.6096,1248
1604669027.6116,1267
1604669027.6136,1221
1604669027.6157,1194
1604669027.6176,1211
1604669027.6196,1187
1604669027.6216,1153
1604669027.6236,1165
1604669027.6256,1175
1604669027.6276,1167
1604669027.6296,1143
1604669027.6316,1097
1604669027.6336,1068
1604669027.6356,1087
1604669027.6376,1104
1604669027.6396,1070
1604669027.6416,1046
1604669027.6435,1034
1604669027.6456,1019
1604669027.6476,1031
1604669027.6496,1043
1604669027.6516,1009
1604669027.6536,968
1604669027.6556,956
1604669027.6576,961
1604669027.6596,946
1604669027.6616,939
1604669027.6636,970
1604669027.6656,963
1604669027.6676,917
1604669027.6696,919
1604669027.6716,927
1604669027.6736,897
1604669027.6756,841
1604669027.6776,815
1604669027.6796,851
1604669027.6816,841
1604669027.6836,793
1604669027.6857,805
1604669027.6876,812
1604669027.6896,761
1604669028.1171,810
1604669028.1175,1102
1604669028.1192,1525
1604669028.1211,1851
1604669028.1232,1654
1604669028.1252,785
1604669028.1271,184
1604669028.1291,440
1604669028.1311,705
1604669028.1331,593
1604669028.1351,574
1604669028.1371,664
1604669028.1391,649
1604669028.1413,615
1604669028.1432,644
1604669028.1451,669
1604669028.1471,666
1604669028.1491,674
1604669028.1511,669
1604669028.1531,654
1604669028.1552,642
1604669028.1571,635
1604669028.1591,674
1604669028.1611,705
1604669028.1631,683
1604669028.1651,695
1604669028.1671,729
1604669028.1691,710
1604669028.1711,710
1604669028.1732,747
1604669028.1751,734
1604669028.1771,703
1604669028.1791,691
1604669028.1811,652
1604669028.1832,596
1604669028.1851,559
1604669028.1871,535
1604669028.1891,515
1604669028.1911,506
1604669028.1931,491
1604669028.1951,445
1604669028.1971,428
1604669028.1991,452
1604669028.2011,423
1604669028.2032,384
1604669028.2051,447
1604669028.2071,503
1604669028.2092,450
1604669028.2111,423
1604669028.2131,447
1604669028.2151,433
1604669028.2171,386
1604669028.2191,345
1604669028.2211,367
1604669028.2232,440
1604669028.2251,462
1604669028.2271,450
1604669028.2291,428
1604669028.2311,394
1604669028.2331,401
1604669028.2351,425
1604669028.2371,382
1604669028.2391,343
1604669028.2411,382
1604669028.2433,396
1604669028.2452,362
1604669028.2471,379
1604669028.2492,420
1604669028.2511,382
1604669028.2531,340
1604669028.2552,367
1604669028.2571,379
1604669028.2591,367
1604669028.6866,374
1604669028.6871,391
1604669028.6895,384
1604669028.6921,352
1604669028.6941,372
1604669028.6961,416
1604669028.6982,382
1604669028.7001,333
1604669028.7021,350
1604669028.7041,364
1604669028.7062,318
1604669028.7081,284
1604669028.7101,299
1604669028.7121,326
1604669028.7141,326
1604669028.7161,301
1604669028.7181,311
1604669028.7201,445
1604669028.7221,739
1604669028.7241,1129
1604669028.7261,1389
1604669028.7281,1082
1604669028.7301,233
1604669028.7321,-223
1604669028.7341,29
1604669028.7361,184
1604669028.7381,99
1604669028.7401,153
1604669028.7421,223
1604669028.7450,180
1604669028.7461,133
1604669028.7481,167
1604669028.7501,279
1604669028.7521,299
1604669028.7541,209
1604669028.7561,243
1604669028.7581,340
1604669028.7601,294
1604669028.7621,211
1604669028.7641,253
1604669028.7661,318
1604669028.7681,323
1604669028.7702,350
1604669028.7721,399
1604669028.7742,396
1604669028.7761,369
1604669028.7781,372
1604669028.7801,386
1604669028.7821,372
1604669028.7841,360
1604669028.7861,328
1604669028.7881,240
1604669028.7901,228
1604669028.7921,287
1604669028.7941,231
1604669028.7961,145
1604669028.7981,165
1604669028.8001,180
1604669028.8021,153
1604669028.8041,160
1604669028.8061,189
1604669028.8081,184
1604669028.8101,167
1604669028.8121,160
1604669028.8141,133
1604669028.8161,131
1604669028.8181,184
1604669028.8201,194
1604669028.8221,148
1604669028.8241,175
1604669028.8261,231
1604669028.8281,170
1604669028.8301,102
1604669029.2569,131
1604669029.2573,126
1604669029.2597,94
1604669029.2623,126
1604669029.2643,150
1604669029.2663,145
1604669029.2684,163
1604669029.2703,163
1604669029.2723,128
1604669029.2743,94
1604669029.2763,72
1604669029.2783,43
1604669029.2804,26
1604669029.2823,68
1604669029.2843,94
1604669029.2863,53
1604669029.2883,38
1604669029.2903,63
1604669029.2923,55
1604669029.2943,58
1604669029.2965,85
1604669029.2983,133
1604669029.3004,197
1604669029.3022,167
1604669029.3044,109
1604669029.3063,131
1604669029.3084,121
1604669029.3104,77
1604669029.3123,102
1604669029.3143,148
1604669029.3163,148
1604669029.3183,121
1604669029.3203,131
1604669029.3223,248
1604669029.3243,513
1604669029.3263,919
1604669029.3283,1197
1604669029.3303,927
1604669029.3323,143
1604669029.3343,-382
1604669029.3363,-192
1604669029.3383,99
1604669029.3403,87
1604669029.3423,43
1604669029.3443,82
1604669029.3463,111
1604669029.3483,77
1604669029.3503,85
1604669029.3524,145
1604669029.3543,141
1604669029.3563,92
1604669029.3583,99
1604669029.3603,153
1604669029.3623,158
1604669029.3643,136
1604669029.3663,180
1604669029.3683,226
1604669029.3703,228
1604669029.3723,238
1604669029.3742,265
1604669029.3763,274
1604669029.3783,265
1604669029.3804,270
1604669029.3823,279
1604669029.3843,248
1604669029.3863,170
1604669029.3883,143
1604669029.3903,170
1604669029.3924,138
1604669029.3943,65
1604669029.3963,34
1604669029.3985,75
1604669029.4004,124
1604669029.8266,68
1604669029.8270,12
1604669029.8294,36
1604669029.8320,12
1604669029.8340,-34
1604669029.8360,31
1604669029.8381,82
1604669029.8399,63
1604669029.8420,77
1604669029.8440,77
1604669029.8460,55
1604669029.8480,58
1604669029.8500,41
1604669029.8520,17
1604669029.8540,36
1604669029.8560,68
1604669029.8580,87
1604669029.8600,107
1604669029.8620,92
1604669029.8640,70
1604669029.8660,70
1604669029.8680,77
1604669029.8700,111
1604669029.8720,92
1604669029.8740,41
1604669029.8760,58
1604669029.8780,70
1604669029.8800,55
1604669029.8820,114
1604669029.8840,133
1604669029.8860,70
1604669029.8880,68
1604669029.8900,109
1604669029.8920,82
1604669029.8940,43
1604669029.8960,43
1604669029.8980,48
1604669029.9000,82
1604669029.9020,99
1604669029.9040,85
1604669029.9060,102
1604669029.9080,111
1604669029.9101,102
1604669029.9121,90
1604669029.9140,82
1604669029.9160,97
1604669029.9180,55
1604669029.9200,-4
1604669029.9220,55
1604669029.9241,97
1604669029.9260,38
1604669029.9280,68
1604669029.9300,128
1604669029.9320,75
1604669029.9340,51
1604669029.9360,257
1604669029.9380,649
1604669029.9400,1031
1604669029.9420,1097
1604669029.9439,523
1604669029.9460,-243
1604669029.9479,-357
1604669029.9499,-51
1604669029.9520,21
1604669029.9539,-21
1604669029.9559,4
1604669029.9579,4
1604669029.9599,14
1604669029.9619,55
1604669029.9639,63
1604669029.9659,60
1604669029.9679,90
1604669029.9701,92
1604669030.3669,46
1604669030.3673,51
1604669030.3697,124
1604669030.3723,141
1604669030.3744,104
1604669030.3764,126
1604669030.3784,175
1604669030.3804,170
1604669030.3823,163
1604669030.3843,197
1604669030.3863,216
1604669030.3884,192
1604669030.3904,192
1604669030.3923,201
1604669030.3943,172
1604669030.3964,131
1604669030.3984,104
1604669030.4003,77
1604669030.4030,41
1604669030.4044,26
1604669030.4063,41
1604669030.4083,24
1604669030.4103,-12
1604669030.4124,-26
1604669030.4143,-31
1604669030.4163,-14
1604669030.4184,2
1604669030.4205,-9
1604669030.4211,17
1604669030.4223,48
1604669030.4243,4
1604669030.4264,-41
1604669030.4283,-21
1604669030.4303,14
1604669030.4323,4
1604669030.4343,-4
1604669030.4363,-12
1604669030.4383,-38
1604669030.4403,0
1604669030.4423,80
1604669030.4444,58
1604669030.4463,9
1604669030.4484,24
1604669030.4504,31
1604669030.4510,7
1604669030.4524,0
1604669030.4543,7
1604669030.4563,17
1604669030.4584,29
1604669030.4605,24
1604669030.4623,12
1604669030.4643,34
1604669030.4663,19
1604669030.4684,-43
1604669030.4703,-21
1604669030.4723,63
1604669030.4744,60
1604669030.4764,19
1604669030.4783,26
1604669030.4790,31
1604669030.4803,17
1604669030.4823,4
1604669030.4843,7
1604669030.4863,21
1604669030.4883,36
1604669030.4904,41
1604669030.4924,51
1604669030.4943,58
1604669030.4963,60
1604669030.4984,55
1604669030.5004,36
1604669030.5023,26
1604669030.5043,24
1604669030.9365,9
1604669030.9370,-2
1604669030.9386,14
1604669030.9410,34
1604669030.9430,26
1604669030.9452,34
1604669030.9471,36
1604669030.9490,53
1604669030.9510,262
1604669030.9530,691
1604669030.9550,1073
1604669030.9570,978
1604669030.9590,255
1604669030.9610,-423
1604669030.9630,-394
1604669030.9650,-99
1604669030.9670,-51
1604669030.9690,-75
1604669030.9697,-24
1604669030.9710,-7
1604669030.9730,-43
1604669030.9750,-60
1604669030.9770,-21
1604669030.9790,38
1604669030.9810,48
1604669030.9830,24
1604669030.9850,34
1604669030.9870,63
1604669030.9890,72
1604669030.9910,82
1604669030.9930,97
1604669030.9950,94
1604669030.9970,80
1604669030.9990,111
1604669030.9997,180
1604669031.0010,189
1604669031.0030,158
1604669031.0050,167
1604669031.0071,201
1604669031.0091,187
1604669031.0110,153
1604669031.0130,124
1604669031.0150,75
1604669031.0170,80
1604669031.0190,109
1604669031.0210,55
1604669031.0230,21
1604669031.0250,46
1604669031.0270,31
1604669031.0290,12
1604669031.0297,24
1604669031.0310,14
1604669031.0330,-4
1604669031.0350,-7
1604669031.0370,-7
1604669031.0390,2
1604669031.0411,19
1604669031.0430,14
1604669031.0450,12
1604669031.0470,26
1604669031.0490,21
1604669031.0510,7
1604669031.0530,21
1604669031.0550,43
1604669031.0570,46
1604669031.0590,38
1604669031.0597,41
1604669031.0610,43
1604669031.0630,41
1604669031.0650,41
1604669031.0670,36
1604669031.0690,17
1604669031.0710,9
1604669031.5067,9
1604669031.5071,21
1604669031.5095,53
1604669031.5121,55
1604669031.5142,21
1604669031.5162,-7
1604669031.5169,-2
1604669031.5192,26
1604669031.5212,34
1604669031.5232,2
1604669031.5251,-17
1604669031.5271,-12
1604669031.5292,-9
1604669031.5312,-4
1604669031.5332,31
1604669031.5351,48
1604669031.5372,24
1604669031.5391,41
1604669031.5411,80
1604669031.5432,51
1604669031.5452,19
1604669031.5472,34
1604669031.5479,51
1604669031.5492,43
1604669031.5511,29
1604669031.5531,26
1604669031.5552,31
1604669031.5572,21
1604669031.5591,14
1604669031.5613,12
1604669031.5632,-9
1604669031.5652,-19
1604669031.5672,48
1604669031.5692,262
1604669031.5713,632
1604669031.5732,1000
1604669031.5751,978
1604669031.5758,357
1604669031.5782,-309
1604669031.5802,-377
1604669031.5821,-131
1604669031.5841,-85
1604669031.5862,-107
1604669031.5881,-24
1604669031.5903,4
1604669031.5922,-38
1604669031.5942,-26
1604669031.5962,-4
1604669031.5982,-14
1604669031.6001,-19
1604669031.6022,-12
1604669031.6042,-2
1604669031.6062,12
1604669031.6068,21
1604669031.6081,41
1604669031.6101,70
1604669031.6122,70
1604669031.6141,80
1604669031.6162,111
1604669031.6181,116
1604669031.6202,141
1604669031.6221,175
1604669031.6241,163
1604669031.6262,138
1604669031.6281,131
1604669031.6301,116
1604669031.6321,85
1604669031.6342,48
1604669031.6362,24
1604669031.6368,21
1604669031.6381,17
1604669031.6402,-14
1604669031.6422,-38
1604669032.0161,-29
1604669032.0166,-31
1604669032.0190,-51
1604669032.0216,-51
1604669032.0236,-43
1604669032.0256,-58
1604669032.0277,-46
1604669032.0296,-9
1604669032.0316,-34
1604669032.0336,-65
1604669032.0356,-34
1604669032.0364,-12
1604669032.0389,-41
1604669032.0407,-51
1604669032.0426,-38
1604669032.0446,-36
1604669032.0466,-21
1604669032.0487,12
1604669032.0506,21
1604669032.0526,14
1604669032.0546,7
1604669032.0566,-9
1604669032.0586,-19
1604669032.0606,-2
1604669032.0626,12
1604669032.0646,9
1604669032.0666,-4
1604669032.0686,-29
1604669032.0706,-26
1604669032.0726,19
1604669032.0746,31
1604669032.0766,2
1604669032.0787,4
1604669032.0806,21
1604669032.0826,17
1604669032.0847,9
1604669032.0866,2
1604669032.0886,0
1604669032.0906,29
1604669032.0926,53
1604669032.0946,31
1604669032.0966,14
1604669032.0987,34
1604669032.1006,46
1604669032.1025,26
1604669032.1047,7
1604669032.1067,0
1604669032.1086,-4
1604669032.1106,-12
1604669032.1126,-7
1604669032.1146,4
1604669032.1166,7
1604669032.1186,-9
1604669032.1206,0
1604669032.1226,148
1604669032.1246,493
1604669032.1266,885
1604669032.1286,970
1604669032.1306,496
1604669032.1326,-175
1604669032.1346,-367
1604669032.1366,-150
1604669032.1386,-41
1604669032.1408,-75
1604669032.1427,-68
1604669032.1446,-46
1604669032.1466,-48
1604669032.1486,-36
1604669032.1506,-38
1604669032.1526,-46
1604669032.1546,-19
1604669032.1566,-9
1604669032.1587,2
1604669032.6167,26
1604669032.6172,14
1604669032.6196,2
1604669032.6222,9
1604669032.6242,26
1604669032.6262,68
1604669032.6283,94
1604669032.6302,77
1604669032.6322,80
1604669032.6342,111
1604669032.6362,109
1604669032.6383,90
1604669032.6402,70
1604669032.6422,46
1604669032.6443,60
1604669032.6463,70
1604669032.6483,19
1604669032.6502,-26
1604669032.6522,-46
1604669032.6544,-55
1604669032.6563,-58
1604669032.6583,-87
1604669032.6602,-104
1604669032.6622,-80
1604669032.6642,-63
1604669032.6662,-75
1604669032.6682,-87
1604669032.6703,-104
1604669032.6723,-99
1604669032.6743,-53
1604669032.6763,-41
1604669032.6783,-68
1604669032.6803,-63
1604669032.6823,-55
1604669032.6843,-68
1604669032.6863,-48
1604669032.6883,-31
1604669032.6903,-46
1604669032.6923,-26
1604669032.6943,0
1604669032.6963,-26
1604669032.6985,-53
1604669032.7003,-46
1604669032.7022,-29
1604669032.7042,-14
1604669032.7062,-14
1604669032.7083,-38
1604669032.7102,-51
1604669032.7122,-26
1604669032.7142,-14
1604669032.7162,-31
1604669032.7182,-31
1604669032.7202,-24
1604669032.7222,-38
1604669032.7242,-43
1604669032.7262,-4
1604669032.7283,38
1604669032.7302,31
1604669032.7322,12
1604669032.7342,14
1604669032.7362,-2
1604669032.7382,-24
1604669032.7402,-21
1604669032.7422,-31
1604669032.7442,-58
1604669032.7462,-43
1604669032.7483,-7
1604669032.7502,-14
1604669032.7522,-46
1604669032.7542,-41
1604669032.7563,-26
1604669032.7582,24
1604669032.7602,282
1604669033.1863,712
1604669033.1871,963
1604669033.1898,691
1604669033.1922,21
1604669033.1942,-389
1604669033.1962,-262
1604669033.1981,-82
1604669033.2001,-102
1604669033.2021,-114
1604669033.2042,-72
1604669033.2061,-72
1604669033.2082,-97
1604669033.2102,-87
1604669033.2121,-51
1604669033.2141,-29
1604669033.2161,-26
1604669033.2182,-19
1604669033.2201,-17
1604669033.2221,-14
1604669033.2243,-4
1604669033.2261,9
1604669033.2282,21
1604669033.2301,34
1604669033.2321,43
1604669033.2341,55
1604669033.2361,72
1604669033.2382,97
1604669033.2402,107
1604669033.2421,94
1604669033.2441,94
1604669033.2461,90
1604669033.2482,55
1604669033.2501,38
1604669033.2521,19
1604669033.2541,-17
1604669033.2561,-46
1604669033.2582,-41
1604669033.2601,-41
1604669033.2621,-60
1604669033.2641,-75
1604669033.2661,-60
1604669033.2681,-36
1604669033.2702,-31
1604669033.2721,-41
1604669033.2741,-51
1604669033.2761,-60
1604669033.2782,-43
1604669033.2801,-12
1604669033.2821,-29
1604669033.2841,-63
1604669033.2861,-24
1604669033.2881,17
1604669033.2901,-9
1604669033.2921,-24
1604669033.2942,-7
1604669033.2961,-4
1604669033.2982,-14
1604669033.3002,-21
1604669033.3021,-29
1604669033.3041,-29
1604669033.3061,-9
1604669033.3081,0
1604669033.3101,-12
1604669033.3121,-12
1604669033.3141,-12
1604669033.3161,-29
1604669033.3182,-19
1604669033.3201,12
1604669033.3221,14
1604669033.3241,7
1604669033.3263,31
1604669033.3282,46
1604669033.3301,31
1604669033.7271,2
1604669033.7280,-19
1604669033.7314,2
1604669033.7331,14
1604669033.7351,-21
1604669033.7371,-26
1604669033.7391,2
1604669033.7410,2
1604669033.7430,-24
1604669033.7450,-31
1604669033.7470,-17
1604669033.7490,-21
1604669033.7510,-17
1604669033.7530,114
1604669033.7550,423
1604669033.7570,805
1604669033.7590,953
1604669033.7609,528
1604669033.7629,-163
1604669033.7650,-386
1604669033.7669,-160
1604669033.7690,-53
1604669033.7710,-104
1604669033.7729,-82
1604669033.7750,-34
1604669033.7770,-34
1604669033.7790,-38
1604669033.7809,-29
1604669033.7829,-21
1604669033.7849,-26
1604669033.7869,-21
1604669033.7890,7
1604669033.7909,19
1604669033.7930,-4
1604669033.7949,7
1604669033.7969,48
1604669033.7990,46
1604669033.8010,48
1604669033.8029,87
1604669033.8049,104
1604669033.8069,99
1604669033.8089,109
1604669033.8109,119
1604669033.8130,114
1604669033.8149,99
1604669033.8169,85
1604669033.8190,63
1604669033.8209,26
1604669033.8231,0
1604669033.8249,-17
1604669033.8269,-43
1604669033.8290,-58
1604669033.8309,-43
1604669033.8329,-38
1604669033.8349,-51
1604669033.8370,-60
1604669033.8390,-63
1604669033.8409,-53
1604669033.8429,-38
1604669033.8449,-46
1604669033.8469,-58
1604669033.8490,-55
1604669033.8510,-38
1604669033.8530,-24
1604669033.8551,-36
1604669033.8570,-38
1604669033.8590,-14
1604669033.8610,-12
1604669033.8629,-24
1604669033.8649,-19
1604669033.8669,-17
1604669033.8690,-34
1604669033.8710,-31
1604669034.2970,4
1604669034.2977,12
1604669034.3001,-2
1604669034.3028,-4
1604669034.3048,-9
1604669034.3069,-17
1604669034.3089,-17
1604669034.3108,-14
1604669034.3128,-12
1604669034.3148,-7
1604669034.3168,-4
1604669034.3188,9
1604669034.3207,26
1604669034.3227,31
1604669034.3247,24
1604669034.3267,9
1604669034.3288,2
1604669034.3307,-9
1604669034.3327,-36
1604669034.3347,-48
1604669034.3367,-31
1604669034.3387,-4
1604669034.3407,17
1604669034.3427,24
1604669034.3447,12
1604669034.3467,21
1604669034.3489,155
1604669034.3508,474
1604669034.3527,856
1604669034.3547,951
1604669034.3567,464
1604669034.3587,-201
1604669034.3607,-367
1604669034.3627,-145
1604669034.3647,-34
1604669034.3667,-55
1604669034.3687,-51
1604669034.3707,-43
1604669034.3727,-51
1604669034.3747,-26
1604669034.3767,12
1604669034.3787,17
1604669034.3807,7
1604669034.3827,4
1604669034.3847,7
1604669034.3867,21
1604669034.3887,34
1604669034.3907,34
1604669034.3927,43
1604669034.3948,65
1604669034.3967,77
1604669034.3987,102
1604669034.4007,141
1604669034.4027,143
1604669034.4047,121
1604669034.4067,128
1604669034.4087,145
1604669034.4107,141
1604669034.4127,109
1604669034.4147,63
1604669034.4167,36
1604669034.4187,36
1604669034.4207,41
1604669034.4227,14
1604669034.4247,-29
1604669034.4267,-43
1604669034.4287,-48
1604669034.4307,-60
1604669034.4327,-68
1604669034.4347,-63
1604669034.4367,-51
1604669034.4387,-43
1604669034.4407,-36
1604669034.8369,-26
1604669034.8376,-36
1604669034.8401,-43
1604669034.8426,-34
1604669034.8448,-31
1604669034.8466,-48
1604669034.8487,-55
1604669034.8506,-36
1604669034.8526,-31
1604669034.8546,-41
1604669034.8566,-29
1604669034.8587,-12
1604669034.8606,-26
1604669034.8626,-34
1604669034.8646,-17
1604669034.8666,-21
1604669034.8686,-34
1604669034.8706,-19
1604669034.8726,-14
1604669034.8747,-34
1604669034.8766,-21
1604669034.8786,14
1604669034.8806,19
1604669034.8826,-2
1604669034.8846,-14
1604669034.8866,-12
1604669034.8886,7
1604669034.8906,7
1604669034.8926,-31
1604669034.8946,-48
1604669034.8966,-31
1604669034.8986,-38
1604669034.9006,-48
1604669034.9026,-21
1604669034.9046,-4
1604669034.9066,-36
1604669034.9086,-41
1604669034.9105,99
1604669034.9126,423
1604669034.9145,824
1604669034.9166,1007
1604669034.9186,618
1604669034.9206,-111
1604669034.9226,-425
1604669034.9246,-231
1604669034.9266,-85
1604669034.9286,-107
1604669034.9306,-94
1604669034.9326,-53
1604669034.9346,-53
1604669034.9366,-65
1604669034.9386,-58
1604669034.9405,-36
1604669034.9426,-12
1604669034.9446,-12
1604669034.9467,-12
1604669034.9487,4
1604669034.9506,26
1604669034.9526,38
1604669034.9546,41
1604669034.9566,43
1604669034.9586,60
1604669034.9605,87
1604669034.9626,109
1604669034.9646,131
1604669034.9666,136
1604669034.9686,126
1604669034.9706,107
1604669034.9726,104
1604669034.9746,114
1604669034.9766,92
1604669034.9786,75
1604669034.9806,68
1604669035.4068,12
1604669035.4075,-43
1604669035.4100,-38
1604669035.4126,-12
1604669035.4145,-41
1604669035.4166,-70
1604669035.4186,-46
1604669035.4205,-41
1604669035.4226,-68
1604669035.4246,-85
1604669035.4265,-80
1604669035.4286,-53
1604669035.4305,-38
1604669035.4325,-51
1604669035.4345,-41
1604669035.4367,-29
1604669035.4385,-41
1604669035.4405,-46
1604669035.4425,-24
1604669035.4445,4
1604669035.4465,12
1604669035.4485,7
1604669035.4505,4
1604669035.4525,-4
1604669035.4545,-26
1604669035.4565,-41
1604669035.4585,-43
1604669035.4605,-26
1604669035.4625,-2
1604669035.4645,-19
1604669035.4665,-26
1604669035.4686,21
1604669035.4705,55
1604669035.4727,29
1604669035.4745,-9
1604669035.4765,-21
1604669035.4786,-14
1604669035.4805,2
1604669035.4825,-9
1604669035.4845,-31
1604669035.4865,-19
1604669035.4885,-26
1604669035.4906,-43
1604669035.4925,-34
1604669035.4945,-34
1604669035.4965,-46
1604669035.4985,-34
1604669035.5005,21
1604669035.5025,201
1604669035.5045,569
1604669035.5065,975
1604669035.5086,987
1604669035.5105,330
1604669035.5125,-382
1604669035.5145,-425
1604669035.5165,-148
1604669035.5185,-72
1604669035.5205,-94
1604669035.5225,-68
1604669035.5245,-58
1604669035.5265,-60
1604669035.5285,-43
1604669035.5305,-31
1604669035.5325,-29
1604669035.5345,-12
1604669035.5365,0
1604669035.5386,12
1604669035.5405,26
1604669035.5425,34
1604669035.5445,48
1604669035.5465,75
1604669035.5485,85
1604669035.5505,87
1604669036.0070,109
1604669036.0079,131
1604669036.0103,138
1604669036.0130,145
1604669036.0150,153
1604669036.0170,141
1604669036.0190,124
1604669036.0209,124
1604669036.0229,109
1604669036.0249,63
1604669036.0269,31
1604669036.0290,17
1604669036.0309,-12
1604669036.0329,-29
1604669036.0348,-24
1604669036.0368,-43
1604669036.0390,-72
1604669036.0409,-68
1604669036.0428,-51
1604669036.0449,-53
1604669036.0468,-58
1604669036.0488,-36
1604669036.0509,-24
1604669036.0529,-31
1604669036.0548,-17
1604669036.0569,-7
1604669036.0589,-34
1604669036.0608,-36
1604669036.0628,-7
1604669036.0648,-14
1604669036.0668,-34
1604669036.0689,-4
1604669036.0708,0
1604669036.0729,-31
1604669036.0749,-9
1604669036.0769,19
1604669036.0789,14
1604669036.0808,31
1604669036.0828,34
1604669036.0849,-14
1604669036.0868,-48
1604669036.0888,-12
1604669036.0908,46
1604669036.0928,53
1604669036.0949,31
1604669036.0968,12
1604669036.0989,-2
1604669036.1009,14
1604669036.1028,24
1604669036.1049,-4
1604669036.1069,-34
1604669036.1089,-48
1604669036.1109,-51
1604669036.1128,-34
1604669036.1148,-21
1604669036.1169,-19
1604669036.1189,-29
1604669036.1208,-53
1604669036.1228,-43
1604669036.1249,4
1604669036.1268,128
1604669036.1288,428
1604669036.1311,851
1604669036.1329,1026
1604669036.1348,552
1604669036.1368,-228
1604669036.1389,-469
1604669036.1408,-184
1604669036.1428,-46
1604669036.1448,-111
1604669036.1470,-94
1604669036.1489,-55
1604669036.1509,-72
1604669036.5463,-65
1604669036.5470,-43
1604669036.5494,-41
1604669036.5521,-43
1604669036.5540,-31
1604669036.5560,7
1604669036.5581,26
1604669036.5600,24
1604669036.5620,36
1604669036.5640,48
1604669036.5660,51
1604669036.5680,55
1604669036.5700,68
1604669036.5720,97
1604669036.5740,114
1604669036.5760,99
1604669036.5781,107
1604669036.5800,138
1604669036.5821,116
1604669036.5840,68
1604669036.5860,63
1604669036.5880,36
1604669036.5900,-9
1604669036.5920,0
1604669036.5940,4
1604669036.5960,-48
1604669036.5980,-82
1604669036.6000,-51
1604669036.6020,-29
1604669036.6040,-77
1604669036.6060,-102
1604669036.6080,-51
1604669036.6100,-14
1604669036.6120,-36
1604669036.6140,-48
1604669036.6160,-34
1604669036.6181,-46
1604669036.6200,-70
1604669036.6220,-43
1604669036.6240,-7
1604669036.6261,0
1604669036.6281,-14
1604669036.6300,-14
1604669036.6320,0
1604669036.6340,-2
1604669036.6360,-14
1604669036.6380,-21
1604669036.6400,-21
1604669036.6421,-7
1604669036.6440,-9
1604669036.6460,-12
1604669036.6480,14
1604669036.6501,7
1604669036.6520,-24
1604669036.6541,-17
1604669036.6560,-2
1604669036.6580,-9
1604669036.6600,-4
1604669036.6620,7
1604669036.6640,-4
1604669036.6660,-14
1604669036.6680,-17
1604669036.6700,-29
1604669036.6720,-14
1604669036.6740,14
1604669036.6760,14
1604669036.6780,17
1604669036.6787,36
1604669036.6800,38
1604669036.6820,14
1604669036.6840,-4
1604669036.6860,7
1604669036.6880,9
1604669037.1479,-24
1604669037.1485,-24
1604669037.1502,14
1604669037.1520,-7
1604669037.1540,-53
1604669037.1561,-51
1604669037.1581,-17
1604669037.1600,-14
1604669037.1607,-53
1604669037.1630,-36
1604669037.1650,141
1604669037.1671,474
1604669037.1690,873
1604669037.1710,983
1604669037.1730,455
1604669037.1750,-265
1604669037.1770,-423
1604669037.1790,-172
1604669037.1812,-92
1604669037.1830,-141
1604669037.1851,-107
1604669037.1870,-70
1604669037.1890,-55
1604669037.1910,-38
1604669037.1917,-48
1604669037.1930,-58
1604669037.1950,-31
1604669037.1970,-9
1604669037.1990,0
1604669037.2010,2
1604669037.2030,-24
1604669037.2050,-31
1604669037.2070,19
1604669037.2090,60
1604669037.2110,82
1604669037.2130,85
1604669037.2150,68
1604669037.2170,94
1604669037.2190,145
1604669037.2210,143
1604669037.2217,109
1604669037.2230,99
1604669037.2250,109
1604669037.2270,90
1604669037.2290,58
1604669037.2310,31
1604669037.2330,-2
1604669037.2349,-21
1604669037.2370,-31
1604669037.2390,-34
1604669037.2410,-29
1604669037.2430,-43
1604669037.2450,-75
1604669037.2470,-87
1604669037.2490,-48
1604669037.2510,-9
1604669037.2517,-21
1604669037.2530,-31
1604669037.2550,-24
1604669037.2571,-43
1604669037.2590,-51
1604669037.2610,-17
1604669037.2630,-19
1604669037.2650,-48
1604669037.2670,-17
1604669037.2690,14
1604669037.2710,-9
1604669037.2730,-19
1604669037.2750,-12
1604669037.2772,-24
1604669037.2790,-17
1604669037.2810,2
1604669037.2816,-24
1604669037.6565,-29
1604669037.6569,19
1604669037.6593,9
1604669037.6619,-36
1604669037.6639,-26
1604669037.6659,-14
1604669037.6679,-38
1604669037.6699,-51
1604669037.6719,-51
1604669037.6740,-31
1604669037.6759,-12
1604669037.6779,-21
1604669037.6799,-38
1604669037.6807,-48
1604669037.6829,-38
1604669037.6849,-12
1604669037.6869,-17
1604669037.6889,-43
1604669037.6909,-55
1604669037.6929,-46
1604669037.6949,-24
1604669037.6969,-19
1604669037.6989,-24
1604669037.7009,-9
1604669037.7029,-2
1604669037.7049,-19
1604669037.7069,-26
1604669037.7089,-12
1604669037.7109,-9
1604669037.7117,-9
1604669037.7139,-7
1604669037.7159,-2
1604669037.7179,9
1604669037.7199,0
1604669037.7219,-12
1604669037.7239,0
1604669037.7259,-2
1604669037.7279,-4
1604669037.7299,12
1604669037.7319,29
1604669037.7339,55
1604669037.7359,77
1604669037.7379,68
1604669037.7399,38
1604669037.7419,21
1604669037.7427,36
1604669037.7449,46
1604669037.7471,7
1604669037.7490,-26
1604669037.7509,-7
1604669037.7530,0
1604669037.7549,-26
1604669037.7570,2
1604669037.7589,43
1604669037.7609,17
1604669037.7629,0
1604669037.7649,87
1604669037.7669,343
1604669037.7689,761
1604669037.7709,1034
1604669037.7729,725
1604669037.7736,-2
1604669037.7759,-401
1604669037.7780,-233
1604669037.7799,-41
1604669037.7819,-75
1604669037.7839,-72
1604669037.7860,-21
1604669037.7880,-38
1604669037.7900,-63
1604669037.7919,-53
1604669037.7939,-36
1604669037.7959,-24
1604669038.1967,-4
1604669038.1973,7
1604669038.1997,14
1604669038.2023,31
1604669038.2043,31
1604669038.2063,9
1604669038.2083,26
1604669038.2103,65
1604669038.2123,70
1604669038.2143,68
1604669038.2163,85
1604669038.2183,85
1604669038.2203,94
1604669038.2223,131
1604669038.2243,133
1604669038.2263,94
1604669038.2283,80
1604669038.2290,75
1604669038.2313,46
1604669038.2333,31
1604669038.2353,17
1604669038.2373,-21
1604669038.2393,-53
1604669038.2412,-60
1604669038.2434,-60
1604669038.2454,-53
1604669038.2473,-53
1604669038.2493,-82
1604669038.2512,-92
1604669038.2533,-53
1604669038.2553,-34
1604669038.2573,-43
1604669038.2581,-48
1604669038.2603,-46
1604669038.2623,-38
1604669038.2643,-24
1604669038.2663,-21
1604669038.2683,-31
1604669038.2703,-29
1604669038.2723,-21
1604669038.2743,-31
1604669038.2763,-34
1604669038.2783,-7
1604669038.2803,4
1604669038.2823,-19
1604669038.2844,-31
1604669038.2863,-7
1604669038.2883,9
1604669038.2903,7
1604669038.2923,2
1604669038.2943,0
1604669038.2963,-12
1604669038.2983,-24
1604669038.3003,-24
1604669038.3023,-19
1604669038.3043,-12
1604669038.3063,-7
1604669038.3083,-12
1604669038.3103,-24
1604669038.3123,-24
1604669038.3143,-2
1604669038.3163,0
1604669038.3183,-19
1604669038.3203,-26
1604669038.3223,-34
1604669038.3243,-38
1604669038.3263,-21
1604669038.3283,-7
1604669038.3303,-14
1604669038.3323,-7
1604669038.3343,0
1604669038.3363,-14
1604669038.3383,-17
1604669038.7668,4
1604669038.7676,9
1604669038.7700,-4
1604669038.7728,-29
1604669038.7746,-38
1604669038.7766,-12
1604669038.7787,19
1604669038.7806,9
1604669038.7826,7
1604669038.7846,29
1604669038.7866,43
1604669038.7886,34
1604669038.7906,7
1604669038.7926,2
1604669038.7946,31
1604669038.7966,14
1604669038.7986,-31
1604669038.8006,-31
1604669038.8026,-17
1604669038.8046,-24
1604669038.8066,-29
1604669038.8087,-19
1604669038.8107,-12
1604669038.8126,-12
1604669038.8146,7
1604669038.8166,143
1604669038.8186,455
1604669038.8206,834
1604669038.8226,958
1604669038.8246,496
1604669038.8266,-209
1604669038.8286,-406
1604669038.8306,-163
1604669038.8326,-58
1604669038.8346,-107
1604669038.8366,-90
1604669038.8386,-65
1604669038.8406,-75
1604669038.8426,-58
1604669038.8446,-41
1604669038.8466,-68
1604669038.8486,-63
1604669038.8506,-2
1604669038.8526,26
1604669038.8546,-9
1604669038.8566,-17
1604669038.8586,31
1604669038.8606,43
1604669038.8626,19
1604669038.8646,38
1604669038.8666,94
1604669038.8686,99
1604669038.8706,85
1604669038.8725,94
1604669038.8747,104
1604669038.8766,104
1604669038.8786,114
1604669038.8806,126
1604669038.8826,102
1604669038.8846,55
1604669038.8866,21
1604669038.8886,-4
1604669038.8906,-12
1604669038.8926,-4
1604669038.8946,-19
1604669038.8966,-48
1604669038.8986,-51
1604669038.9006,-41
1604669038.9026,-46
1604669038.9046,-63
1604669038.9066,-63
1604669038.9086,-43
1604669038.9106,-43
1604669039.3668,-46
1604669039.3677,-14
1604669039.3701,9
1604669039.3727,-17
1604669039.3748,-34
1604669039.3767,-19
1604669039.3789,-26
1604669039.3808,-36
1604669039.3827,-19
1604669039.3847,-14
1604669039.3867,-31
1604669039.3888,-43
1604669039.3907,-21
1604669039.3927,2
1604669039.3947,-9
1604669039.3967,-12
1604669039.3988,-4
1604669039.4007,-12
1604669039.4027,-7
1604669039.4047,-9
1604669039.4067,-34
1604669039.4087,-14
1604669039.4107,19
1604669039.4127,-4
1604669039.4147,-51
1604669039.4167,-38
1604669039.4187,2
1604669039.4207,2
1604669039.4227,-7
1604669039.4247,-9
1604669039.4267,-26
1604669039.4287,-26
1604669039.4309,12
1604669039.4327,14
1604669039.4347,-24
1604669039.4367,-26
1604669039.4387,4
1604669039.4406,14
1604669039.4427,2
1604669039.4446,-12
1604669039.4466,-29
1604669039.4487,-26
1604669039.4507,-4
1604669039.4527,7
1604669039.4547,19
1604669039.4567,34
1604669039.4587,14
1604669039.4607,-26
1604669039.4627,-41
1604669039.4647,-9
1604669039.4667,2
1604669039.4687,-31
1604669039.4707,-48
1604669039.4727,-46
1604669039.4747,-41
1604669039.4767,-34
1604669039.4787,-29
1604669039.4807,-36
1604669039.4827,-34
1604669039.4847,-2
1604669039.4867,150
1604669039.4887,496
1604669039.4907,883
1604669039.4927,927
1604669039.4947,394
1604669039.4967,-253
1604669039.4987,-369
1604669039.5007,-143
1604669039.5027,-87
1604669039.5047,-138
1604669039.5067,-94
1604669039.5087,-43
1604669039.5107,-58
1604669039.9068,-65
1604669039.9076,-48
1604669039.9101,-41
1604669039.9127,-48
1604669039.9146,-36
1604669039.9166,-7
1604669039.9188,9
1604669039.9203,7
1604669039.9226,2
1604669039.9245,9
1604669039.9270,38
1604669039.9287,63
1604669039.9306,53
1604669039.9325,63
1604669039.9345,104
1604669039.9365,104
1604669039.9386,97
1604669039.9405,124
1604669039.9426,114
1604669039.9445,68
1604669039.9465,60
1604669039.9486,63
1604669039.9505,21
1604669039.9525,0
1604669039.9546,12
1604669039.9565,-12
1604669039.9586,-53
1604669039.9605,-58
1604669039.9625,-46
1604669039.9645,-48
1604669039.9666,-55
1604669039.9686,-63
1604669039.9706,-72
1604669039.9726,-90
1604669039.9745,-77
1604669039.9785,-46
1604669039.9806,-29
1604669039.9825,-31
1604669039.9845,-48
1604669039.9865,-65
1604669039.9896,-55
1604669039.9915,-41
1604669039.9936,-38
1604669039.9955,-29
1604669039.9975,-9
1604669039.9995,-14
1604669040.0017,-31
1604669040.0047,-21
1604669040.0066,-9
1604669040.0139,-17
1604669040.0161,-26
1604669040.0186,-29
1604669040.0205,-21
1604669040.0226,-12
1604669040.0245,-7
1604669040.0265,-9
1604669040.0286,-19
1604669040.0305,-14
1604669040.0325,-4
1604669040.0345,-9
1604669040.0365,-21
1604669040.0388,-21
1604669040.0406,-21
1604669040.0425,-12
1604669040.0445,17
1604669040.0465,19
1604669040.0486,0
1604669040.0501,0
1604669040.0515,-4
1604669040.0535,-9
1604669040.0555,12
1604669040.0576,29
1604669040.0595,24
1604669040.5049,19
1604669040.5057,24
1604669040.5082,34
1604669040.5107,34
1604669040.5127,12
1604669040.5148,4
1604669040.5168,4
1604669040.5187,-24
1604669040.5207,-51
1604669040.5227,-17
1604669040.5247,17
1604669040.5267,-12
1604669040.5287,-26
1604669040.5307,51
1604669040.5327,228
1604669040.5347,552
1604669040.5367,924
1604669040.5387,939
1604669040.5407,362
1604669040.5427,-279
1604669040.5446,-343
1604669040.5466,-94
1604669040.5487,-41
1604669040.5507,-97
1604669040.5527,-68
1604669040.5546,-29
1604669040.5567,-43
1604669040.5587,-51
1604669040.5607,-19
1604669040.5627,-2
1604669040.5647,-17
1604669040.5666,-7
1604669040.5687,31
1604669040.5706,38
1604669040.5726,19
1604669040.5747,29
1604669040.5767,72
1604669040.5787,92
1604669040.5807,82
1604669040.5828,99
1604669040.5847,138
1604669040.5867,150
1604669040.5887,153
1604669040.5907,163
1604669040.5927,155
1604669040.5947,148
1604669040.5967,143
1604669040.5987,119
1604669040.6007,104
1604669040.6026,85
1604669040.6047,38
1604669040.6066,14
1604669040.6087,19
1604669040.6107,7
1604669040.6127,2
1604669040.6147,4
1604669040.6167,-9
1604669040.6187,-17
1604669040.6207,4
1604669040.6226,14
1604669040.6247,0
1604669040.6267,0
1604669040.6287,9
1604669040.6306,17
1604669040.6327,24
1604669040.6347,24
1604669040.6367,21
1604669040.6387,34
1604669040.6407,43
1604669040.6427,41
1604669040.6447,43
1604669040.6466,51
1604669040.6487,48
1604669041.0763,43
1604669041.0771,51
1604669041.0796,55
1604669041.0822,38
1604669041.0842,31
1604669041.0862,43
1604669041.0882,41
1604669041.0901,36
1604669041.0921,34
1604669041.0942,7
1604669041.0961,12
1604669041.0982,51
1604669041.1001,41
1604669041.1021,9
1604669041.1041,26
1604669041.1061,36
1604669041.1082,17
1604669041.1103,26
1604669041.1121,48
1604669041.1141,55
1604669041.1161,55
1604669041.1181,46
1604669041.1201,41
1604669041.1221,53
1604669041.1241,43
1604669041.1261,17
1604669041.1281,12
1604669041.1301,29
1604669041.1321,26
1604669041.1341,4
1604669041.1361,12
1604669041.1381,24
1604669041.1401,14
1604669041.1421,12
1604669041.1441,51
1604669041.1461,206
1604669041.1481,542
1604669041.1501,924
1604669041.1521,995
1604669041.1541,481
1604669041.1561,-187
1604669041.1581,-321
1604669041.1601,-94
1604669041.1621,-36
1604669041.1641,-72
1604669041.1662,-31
1604669041.1681,-21
1604669041.1701,-48
1604669041.1721,-29
1604669041.1741,14
1604669041.1761,21
1604669041.1782,9
1604669041.1801,36
1604669041.1821,58
1604669041.1841,38
1604669041.1861,41
1604669041.1881,70
1604669041.1901,75
1604669041.1921,75
1604669041.1941,90
1604669041.1961,109
1604669041.1981,128
1604669041.2001,153
1604669041.2021,172
1604669041.2041,165
1604669041.2061,155
1604669041.2081,158
1604669041.2101,136
1604669041.2122,97
1604669041.2141,77
1604669041.2161,63
1604669041.2181,26
1604669041.2201,-2
1604669041.5865,-2
1604669041.5872,-12
1604669041.5896,-29
1604669041.5922,-19
1604669041.5942,-14
1604669041.5962,-36
1604669041.5982,-41
1604669041.6002,-36
1604669041.6022,-41
1604669041.6042,-43
1604669041.6062,-41
1604669041.6082,-38
1604669041.6102,-34
1604669041.6122,-41
1604669041.6142,-70
1604669041.6162,-65
1604669041.6182,-26
1604669041.6202,-29
1604669041.6222,-46
1604669041.6242,-31
1604669041.6262,-24
1604669041.6282,-36
1604669041.6302,-43
1604669041.6322,-34
1604669041.6342,-24
1604669041.6362,-34
1604669041.6382,-36
1604669041.6403,-24
1604669041.6422,-24
1604669041.6442,-31
1604669041.6462,-48
1604669041.6483,-51
1604669041.6502,-38
1604669041.6522,-36
1604669041.6542,-36
1604669041.6562,-38
1604669041.6582,-38
1604669041.6602,-14
1604669041.6622,12
1604669041.6642,-2
1604669041.6662,-31
1604669041.6682,-26
1604669041.6702,-14
1604669041.6722,-24
1604669041.6742,-29
1604669041.6763,-58
1604669041.6784,-77
1604669041.6802,-38
1604669041.6822,-17
1604669041.6842,-48
1604669041.6862,-70
1604669041.6882,-65
1604669041.6902,-46
1604669041.6922,34
1604669041.6942,262
1604669041.6962,632
1604669041.6982,931
1604669041.7002,768
1604669041.7022,85
1604669041.7042,-423
1604669041.7062,-321
1604669041.7082,-94
1604669041.7102,-102
1604669041.7122,-133
1604669041.7142,-94
1604669041.7162,-97
1604669041.7182,-116
1604669041.7202,-77
1604669041.7222,-43
1604669041.7242,-63
1604669041.7262,-70
1604669041.7283,-48
1604669041.7302,-29
1604669042.1261,-34
1604669042.1267,-41
1604669042.1277,-19
1604669042.1296,19
1604669042.1317,38
1604669042.1337,29
1604669042.1357,26
1604669042.1377,38
1604669042.1396,55
1604669042.1416,68
1604669042.1436,68
1604669042.1456,60
1604669042.1477,46
1604669042.1496,17
1604669042.1516,-14
1604669042.1536,-21
1604669042.1556,-21
1604669042.1576,-48
1604669042.1596,-82
1604669042.1616,-70
1604669042.1636,-68
1604669042.1656,-90
1604669042.1677,-80
1604669042.1696,-77
1604669042.1717,-92
1604669042.1737,-87
1604669042.1756,-94
1604669042.1776,-126
1604669042.1796,-97
1604669042.1816,-36
1604669042.1836,-48
1604669042.1857,-82
1604669042.1876,-72
1604669042.1896,-58
1604669042.1916,-55
1604669042.1936,-58
1604669042.1955,-68
1604669042.1977,-75
1604669042.1997,-65
1604669042.2016,-48
1604669042.2036,-36
1604669042.2056,-31
1604669042.2076,-48
1604669042.2096,-60
1604669042.2116,-46
1604669042.2136,-46
1604669042.2156,-60
1604669042.2176,-51
1604669042.2196,-46
1604669042.2216,-68
1604669042.2236,-60
1604669042.2256,-24
1604669042.2276,-21
1604669042.2296,-26
1604669042.2316,-12
1604669042.2336,-2
1604669042.2356,-17
1604669042.2376,-34
1604669042.2396,-34
1604669042.2416,-29
1604669042.2436,-43
1604669042.2456,-70
1604669042.2477,-63
1604669042.2496,-24
1604669042.2516,-31
1604669042.2536,-63
1604669042.2556,-55
1604669042.2577,-41
1604669042.2596,-43
1604669042.2616,12
1604669042.2636,245
1604669042.2656,630
1604669042.2677,922
1604669042.7563,759
1604669042.7571,104
1604669042.7599,-391
1604669042.7622,-316
1604669042.7642,-136
1604669042.7662,-160
1604669042.7683,-160
1604669042.7701,-107
1604669042.7722,-119
1604669042.7741,-128
1604669042.7761,-92
1604669042.7781,-99
1604669042.7802,-92
1604669042.7821,-48
1604669042.7841,-43
1604669042.7861,-46
1604669042.7882,-29
1604669042.7901,-36
1604669042.7921,-38
1604669042.7941,2
1604669042.7961,24
1604669042.7981,9
1604669042.8001,36
1604669042.8021,82
1604669042.8041,77
1604669042.8061,75
1604669042.8081,99
1604669042.8101,90
1604669042.8121,60
1604669042.8141,58
1604669042.8161,55
1604669042.8182,26
1604669042.8202,-12
1604669042.8221,-43
1604669042.8241,-38
1604669042.8261,-26
1604669042.8281,-55
1604669042.8301,-63
1604669042.8321,-38
1604669042.8341,-53
1604669042.8361,-58
1604669042.8381,-31
1604669042.8401,-38
1604669042.8422,-63
1604669042.8442,-68
1604669042.8462,-43
1604669042.8482,-12
1604669042.8502,-9
1604669042.8522,-17
1604669042.8541,-9
1604669042.8561,0
1604669042.8581,4
1604669042.8601,4
1604669042.8623,-21
1604669042.8642,-38
1604669042.8661,7
1604669042.8682,31
1604669042.8701,-2
1604669042.8721,-9
1604669042.8741,12
1604669042.8761,7
1604669042.8781,-9
1604669042.8801,-7
1604669042.8821,9
1604669042.8841,-2
1604669042.8861,-14
1604669042.8882,12
1604669042.8901,29
1604669042.8921,21
1604669042.8941,34
1604669042.8961,36
1604669042.8981,9
1604669042.9001,-2
1604669043.2967,0
1604669043.2975,2
1604669043.2999,2
1604669043.3026,-14
1604669043.3045,-21
1604669043.3066,-14
1604669043.3086,-19
1604669043.3105,-31
1604669043.3125,-34
1604669043.3145,-36
1604669043.3165,-41
1604669043.3185,48
1604669043.3205,333
1604669043.3225,725
1604669043.3244,951
1604669043.3265,659
1604669043.3286,-29
1604669043.3304,-425
1604669043.3325,-304
1604669043.3344,-119
1604669043.3364,-121
1604669043.3371,-153
1604669043.3384,-124
1604669043.3405,-104
1604669043.3424,-107
1604669043.3445,-97
1604669043.3464,-82
1604669043.3485,-94
1604669043.3504,-90
1604669043.3524,-51
1604669043.3544,-51
1604669043.3566,-85
1604669043.3585,-60
1604669043.3604,-9
1604669043.3624,-29
1604669043.3644,-55
1604669043.3664,-21
1604669043.3671,12
1604669043.3695,4
1604669043.3714,17
1604669043.3734,55
1604669043.3754,60
1604669043.3775,38
1604669043.3794,7
1604669043.3814,-36
1604669043.3834,-72
1604669043.3854,-82
1604669043.3874,-87
1604669043.3894,-119
1604669043.3914,-148
1604669043.3934,-145
1604669043.3954,-153
1604669043.3974,-172
1604669043.3981,-170
1604669043.3994,-175
1604669043.4014,-184
1604669043.4034,-192
1604669043.4055,-197
1604669043.4074,-192
1604669043.4094,-184
1604669043.4114,-170
1604669043.4134,-150
1604669043.4154,-160
1604669043.4175,-187
1604669043.4194,-189
1604669043.4214,-180
1604669043.4234,-177
1604669043.4254,-167
1604669043.4275,-172
1604669043.4281,-167
1604669043.4294,-133
1604669043.4314,-148
1604669043.4334,-182
1604669043.8365,-143
1604669043.8374,-128
1604669043.8398,-180
1604669043.8424,-199
1604669043.8444,-184
1604669043.8464,-165
1604669043.8485,-138
1604669043.8504,-150
1604669043.8524,-175
1604669043.8546,-148
1604669043.8563,-114
1604669043.8583,-143
1604669043.8590,-170
1604669043.8613,-138
1604669043.8633,-138
1604669043.8653,-167
1604669043.8673,-175
1604669043.8693,-197
1604669043.8713,-189
1604669043.8733,-141
1604669043.8753,-153
1604669043.8773,-184
1604669043.8793,-160
1604669043.8813,-138
1604669043.8833,-153
1604669043.8853,-109
1604669043.8873,114
1604669043.8893,523
1604669043.8900,861
1604669043.8913,712
1604669043.8933,14
1604669043.8953,-520
1604669043.8974,-428
1604669043.8993,-223
1604669043.9013,-218
1604669043.9033,-201
1604669043.9053,-170
1604669043.9073,-189
1604669043.9094,-180
1604669043.9113,-170
1604669043.9133,-180
1604669043.9153,-180
1604669043.9173,-165
1604669043.9193,-116
1604669043.9200,-75
1604669043.9213,-77
1604669043.9233,-87
1604669043.9253,-68
1604669043.9273,-46
1604669043.9293,-58
1604669043.9313,-34
1604669043.9333,17
1604669043.9353,19
1604669043.9373,17
1604669043.9393,34
1604669043.9413,21
1604669043.9433,17
1604669043.9453,26
1604669043.9473,7
1604669043.9493,-17
1604669043.9501,-26
1604669043.9513,-60
1604669043.9533,-116
1604669043.9553,-145
1604669043.9573,-128
1604669043.9593,-119
1604669043.9613,-133
1604669043.9633,-133
1604669043.9653,-128
1604669043.9673,-138
1604669043.9693,-131
1604669043.9713,-119
1604669043.9733,-133
1604669044.3764,-131
1604669044.3772,-111
1604669044.3791,-94
1604669044.3811,-77
1604669044.3832,-87
1604669044.3851,-97
1604669044.3871,-82
1604669044.3890,-87
1604669044.3910,-119
1604669044.3930,-107
1604669044.3950,-68
1604669044.3970,-77
1604669044.3990,-94
1604669044.4010,-63
1604669044.4030,-53
1604669044.4037,-75
1604669044.4060,-70
1604669044.4080,-53
1604669044.4100,-51
1604669044.4120,-65
1604669044.4140,-65
1604669044.4160,-51
1604669044.4180,-41
1604669044.4200,-26
1604669044.4220,-19
1604669044.4240,-31
1604669044.4260,-19
1604669044.4280,-17
1604669044.4300,-36
1604669044.4320,-41
1604669044.4340,-31
1604669044.4347,-43
1604669044.4360,-55
1604669044.4380,-48
1604669044.4400,-63
1604669044.4420,-85
1604669044.4440,-60
1604669044.4460,-24
1604669044.4482,-31
1604669044.4501,-19
1604669044.4520,153
1604669044.4540,479
1604669044.4560,849
1604669044.4580,1009
1604669044.4600,537
1604669044.4620,-260
1604669044.4640,-489
1604669044.4647,-214
1604669044.4660,-107
1604669044.4680,-150
1604669044.4700,-104
1604669044.4720,-53
1604669044.4740,-46
1604669044.4760,-38
1604669044.4780,-51
1604669044.4800,-72
1604669044.4820,-46
1604669044.4840,-2
1604669044.4860,-2
1604669044.4880,-26
1604669044.4900,-14
1604669044.4920,34
1604669044.4940,68
1604669044.4947,90
1604669044.4960,97
1604669044.4981,63
1604669044.5000,34
1604669044.5020,90
1604669044.5040,184
1604669044.5060,187
1604669044.5080,133
1604669044.5101,121
1604669044.5120,126
1604669044.9463,104
1604669044.9472,63
1604669044.9496,31
1604669044.9523,-2
1604669044.9542,-48
1604669044.9562,-63
1604669044.9583,-48
1604669044.9602,-41
1604669044.9622,-72
1604669044.9642,-107
1604669044.9662,-97
1604669044.9682,-63
1604669044.9702,-29
1604669044.9722,-43
1604669044.9743,-85
1604669044.9762,-60
1604669044.9784,-31
1604669044.9802,-55
1604669044.9822,-48
1604669044.9842,-34
1604669044.9862,-51
1604669044.9881,-41
1604669044.9901,-2
1604669044.9921,14
1604669044.9942,-7
1604669044.9961,-24
1604669044.9981,-7
1604669045.0001,14
1604669045.0021,4
1604669045.0041,-21
1604669045.0062,-26
1604669045.0082,4
1604669045.0103,19
1604669045.0122,-2
1604669045.0142,-17
1604669045.0162,-14
1604669045.0183,-24
1604669045.0202,-24
1604669045.0222,9
1604669045.0242,36
1604669045.0262,26
1604669045.0282,12
1604669045.0302,0
1604669045.0321,19
1604669045.0343,55
1604669045.0362,31
1604669045.0381,-14
1604669045.0402,-14
1604669045.0422,-9
1604669045.0442,-12
1604669045.0462,4
1604669045.0482,7
1604669045.0501,-19
1604669045.0521,-17
1604669045.0541,17
1604669045.0561,51
1604669045.0582,201
1604669045.0603,598
1604669045.0623,1031
1604669045.0642,1031
1604669045.0663,384
1604669045.0682,-328
1604669045.0701,-374
1604669045.0721,-85
1604669045.0741,-70
1604669045.0761,-126
1604669045.0781,-31
1604669045.0803,-4
1604669045.0821,-46
1604669045.0841,-9
1604669045.0861,17
1604669045.0882,-9
1604669045.0901,7
1604669045.4867,43
1604669045.4876,34
1604669045.4901,14
1604669045.4927,21
1604669045.4947,60
1604669045.4967,87
1604669045.4987,77
1604669045.5006,82
1604669045.5027,109
1604669045.5046,119
1604669045.5066,141
1604669045.5087,150
1604669045.5108,131
1604669045.5128,153
1604669045.5147,170
1604669045.5167,136
1604669045.5187,121
1604669045.5207,94
1604669045.5227,38
1604669045.5247,26
1604669045.5266,14
1604669045.5286,-41
1604669045.5306,-51
1604669045.5326,-9
1604669045.5346,-4
1604669045.5366,-21
1604669045.5386,-31
1604669045.5407,-46
1604669045.5426,-53
1604669045.5446,-34
1604669045.5467,-14
1604669045.5487,-4
1604669045.5506,9
1604669045.5526,2
1604669045.5546,-21
1604669045.5566,-14
1604669045.5586,-14
1604669045.5606,-14
1604669045.5626,19
1604669045.5646,19
1604669045.5666,-9
1604669045.5686,14
1604669045.5707,48
1604669045.5726,29
1604669045.5746,9
1604669045.5768,2
1604669045.5786,-17
1604669045.5806,-4
1604669045.5826,24
1604669045.5846,19
1604669045.5866,-9
1604669045.5886,-17
1604669045.5906,26
1604669045.5926,43
1604669045.5946,4
1604669045.5966,2
1604669045.5986,26
1604669045.6006,17
1604669045.6026,-9
1604669045.6046,-9
1604669045.6066,43
1604669045.6086,63
1604669045.6106,36
1604669045.6126,68
1604669045.6146,77
1604669045.6166,29
1604669045.6186,17
1604669045.6206,12
1604669045.6226,-4
1604669045.6246,4
1604669045.6266,24
1604669045.6286,19
1604669045.6306,0
1604669046.0867,-12
1604669046.0875,4
1604669046.0899,29
1604669046.0926,155
1604669046.0946,525
1604669046.0966,956
1604669046.0987,1007
1604669046.1005,459
1604669046.1026,-211
1604669046.1045,-330
1604669046.1065,-109
1604669046.1086,-68
1604669046.1105,-119
1604669046.1125,-99
1604669046.1145,-60
1604669046.1165,-43
1604669046.1186,-97
1604669046.1205,-141
1604669046.1225,-82
1604669046.1245,-70
1604669046.1265,-34
1604669046.1285,126
1604669046.1305,126
1604669046.1326,17
1604669046.1345,48
1604669046.1365,104
1604669046.1385,72
1604669046.1405,17
1604669046.1425,34
1604669046.1445,124
1604669046.1465,138
1604669046.1485,111
1604669046.1505,172
1604669046.1525,192
1604669046.1545,124
1604669046.1565,128
1604669046.1585,167
1604669046.1605,136
1604669046.1625,46
1604669046.1644,-14
1604669046.1665,26
1604669046.1685,65
1604669046.1705,7
1604669046.1725,-41
1604669046.1744,-14
1604669046.1765,4
1604669046.1785,2
1604669046.1805,-2
1604669046.1825,-4
1604669046.1845,9
1604669046.1865,19
1604669046.1885,26
1604669046.1904,31
1604669046.1925,2
1604669046.1945,-12
1604669046.1964,2
1604669046.1985,-19
1604669046.2005,-9
1604669046.2024,90
1604669046.2045,107
1604669046.2065,26
1604669046.2085,14
1604669046.2105,24
1604669046.2125,-4
1604669046.2145,-17
1604669046.2165,-14
1604669046.2185,-9
1604669046.2205,24
1604669046.2225,63
1604669046.2245,41
1604669046.2265,-7
1604669046.2285,-21
1604669046.2305,-19
1604669046.6568,-38
1604669046.6579,-12
1604669046.6601,68
1604669046.6627,53
1604669046.6647,-21
1604669046.6667,-17
1604669046.6688,21
1604669046.6707,29
1604669046.6727,-2
1604669046.6747,-58
1604669046.6767,-55
1604669046.6787,7
1604669046.6807,36
1604669046.6827,9
1604669046.6847,4
1604669046.6867,14
1604669046.6887,0
1604669046.6906,-2
1604669046.6927,-2
1604669046.6946,-34
1604669046.6966,-60
1604669046.6986,-43
1604669046.7006,-24
1604669046.7026,-55
1604669046.7046,-104
1604669046.7066,-82
1604669046.7087,-24
1604669046.7106,-46
1604669046.7126,-48
1604669046.7146,143
1604669046.7166,486
1604669046.7187,863
1604669046.7206,997
1604669046.7226,518
1604669046.7246,-250
1604669046.7266,-489
1604669046.7286,-233
1604669046.7306,-104
1604669046.7326,-141
1604669046.7346,-141
1604669046.7366,-126
1604669046.7386,-92
1604669046.7407,-48
1604669046.7426,-55
1604669046.7446,-80
1604669046.7466,-72
1604669046.7486,-68
1604669046.7506,-53
1604669046.7526,-34
1604669046.7546,-31
1604669046.7566,7
1604669046.7586,60
1604669046.7608,63
1604669046.7626,36
1604669046.7646,19
1604669046.7666,26
1604669046.7686,58
1604669046.7706,77
1604669046.7726,77
1604669046.7746,80
1604669046.7766,82
1604669046.7786,80
1604669046.7806,58
1604669046.7826,21
1604669046.7846,-29
1604669046.7866,-82
1604669046.7886,-80
1604669046.7907,-51
1604669046.7926,-63
1604669046.7946,-85
1604669046.7966,-92
1604669046.7986,-102
1604669046.8006,-114
1604669047.1965,-126
1604669047.1973,-119
1604669047.1998,-94
1604669047.2024,-92
1604669047.2043,-92
1604669047.2064,-92
1604669047.2084,-92
1604669047.2103,-80
1604669047.2123,-99
1604669047.2143,-114
1604669047.2163,-94
1604669047.2183,-94
1604669047.2204,-99
1604669047.2223,-72
1604669047.2243,-60
1604669047.2263,-82
1604669047.2282,-92
1604669047.2302,-80
1604669047.2322,-75
1604669047.2342,-65
1604669047.2362,-46
1604669047.2383,-43
1604669047.2402,-58
1604669047.2422,-72
1604669047.2443,-80
1604669047.2462,-60
1604669047.2482,-36
1604669047.2502,-48
1604669047.2522,-55
1604669047.2542,-34
1604669047.2564,-34
1604669047.2583,-55
1604669047.2602,-63
1604669047.2622,-41
1604669047.2643,-34
1604669047.2662,-55
1604669047.2683,-43
1604669047.2702,-19
1604669047.2722,-34
1604669047.2742,-14
1604669047.2762,14
1604669047.2782,-21
1604669047.2802,-55
1604669047.2823,-46
1604669047.2842,-41
1604669047.2862,-29
1604669047.2883,-31
1604669047.2902,-75
1604669047.2923,-92
1604669047.2943,-53
1604669047.2962,-26
1604669047.2983,-72
1604669047.3002,-121
1604669047.3022,-104
1604669047.3042,-2
1604669047.3063,267
1604669047.3082,666
1604669047.3103,956
1604669047.3122,790
1604669047.3143,111
1604669047.3163,-440
1604669047.3183,-379
1604669047.3202,-133
1604669047.3222,-136
1604669047.3242,-182
1604669047.3262,-131
1604669047.3283,-114
1604669047.3302,-119
1604669047.3323,-109
1604669047.3344,-116
1604669047.3363,-97
1604669047.3383,-60
1604669047.3404,-58
1604669047.7664,-68
1604669047.7672,-58
1604669047.7696,-55
1604669047.7722,-72
1604669047.7743,-53
1604669047.7763,-9
1604669047.7782,-12
1604669047.7802,-36
1604669047.7824,-7
1604669047.7842,29
1604669047.7862,26
1604669047.7882,17
1604669047.7902,4
1604669047.7921,-17
1604669047.7942,-26
1604669047.7962,-14
1604669047.7982,-24
1604669047.8001,-92
1604669047.8022,-160
1604669047.8041,-172
1604669047.8061,-172
1604669047.8082,-182
1604669047.8101,-189
1604669047.8122,-209
1604669047.8141,-228
1604669047.8161,-194
1604669047.8182,-150
1604669047.8201,-182
1604669047.8221,-218
1604669047.8241,-187
1604669047.8262,-170
1604669047.8281,-209
1604669047.8301,-231
1604669047.8321,-197
1604669047.8341,-143
1604669047.8361,-131
1604669047.8382,-172
1604669047.8401,-204
1604669047.8421,-197
1604669047.8441,-172
1604669047.8461,-167
1604669047.8482,-184
1604669047.8502,-189
1604669047.8521,-187
1604669047.8541,-187
1604669047.8561,-175
1604669047.8581,-182
1604669047.8601,-204
1604669047.8622,-180
1604669047.8641,-153
1604669047.8661,-175
1604669047.8682,-187
1604669047.8702,-184
1604669047.8721,-201
1604669047.8742,-204
1604669047.8762,-167
1604669047.8781,-145
1604669047.8801,-175
1604669047.8821,-194
1604669047.8843,-184
1604669047.8862,-172
1604669047.8881,-167
1604669047.8901,-184
1604669047.8921,-194
1604669047.8941,-172
1604669047.8961,-155
1604669047.8982,-175
1604669047.9002,-177
1604669047.9022,-138
1604669047.9041,-133
1604669047.9061,-180
1604669047.9082,-182
1604669047.9102,-160
1604669048.3066,-172
1604669048.3071,-192
1604669048.3088,-187
1604669048.3108,-167
1604669048.3128,-167
1604669048.3148,-199
1604669048.3168,-223
1604669048.3188,-223
1604669048.3208,-209
1604669048.3227,-189
1604669048.3247,-187
1604669048.3267,-131
1604669048.3287,116
1604669048.3308,508
1604669048.3327,781
1604669048.3347,566
1604669048.3368,-114
1604669048.3387,-581
1604669048.3408,-459
1604669048.3428,-257
1604669048.3448,-284
1604669048.3469,-299
1604669048.3489,-253
1604669048.3508,-248
1604669048.3528,-248
1604669048.3548,-216
1604669048.3568,-211
1604669048.3589,-226
1604669048.3608,-209
1604669048.3628,-180
1604669048.3648,-165
1604669048.3669,-167
1604669048.3688,-167
1604669048.3708,-145
1604669048.3728,-143
1604669048.3748,-148
1604669048.3768,-121
1604669048.3790,-99
1604669048.3809,-65
1604669048.3828,-24
1604669048.3848,-26
1604669048.3868,-36
1604669048.3888,-48
1604669048.3908,-72
1604669048.3928,-68
1604669048.3948,-55
1604669048.3968,-90
1604669048.3989,-145
1604669048.4008,-153
1604669048.4028,-141
1604669048.4048,-170
1604669048.4068,-184
1604669048.4088,-184
1604669048.4108,-218
1604669048.4128,-221
1604669048.4148,-160
1604669048.4168,-136
1604669048.4188,-155
1604669048.4208,-184
1604669048.4229,-197
1604669048.4248,-184
1604669048.4268,-175
1604669048.4288,-170
1604669048.4308,-150
1604669048.4328,-131
1604669048.4348,-126
1604669048.4368,-121
1604669048.4388,-124
1604669048.4408,-133
1604669048.4428,-126
1604669048.4448,-124
1604669048.4468,-131
1604669048.4489,-124
1604669048.8761,-109
1604669048.8768,-121
1604669048.8792,-153
1604669048.8818,-126
1604669048.8838,-70
1604669048.8858,-82
1604669048.8878,-126
1604669048.8898,-131
1604669048.8918,-121
1604669048.8938,-136
1604669048.8958,-124
1604669048.8978,-70
1604669048.8997,-72
1604669048.9018,-119
1604669048.9038,-133
1604669048.9059,-119
1604669048.9078,-82
1604669048.9097,-58
1604669048.9117,-92
1604669048.9138,-109
1604669048.9158,-80
1604669048.9177,-70
1604669048.9197,-72
1604669048.9217,-70
1604669048.9238,-87
1604669048.9257,-90
1604669048.9278,-38
1604669048.9298,9
1604669048.9317,-12
1604669048.9338,-38
1604669048.9358,-17
1604669048.9378,-7
1604669048.9397,-34
1604669048.9417,-68
1604669048.9437,-70
1604669048.9459,-58
1604669048.9478,-70
1604669048.9498,-72
1604669048.9517,-26
1604669048.9537,-14
1604669048.9558,-65
1604669048.9577,-77
1604669048.9598,-19
1604669048.9617,172
1604669048.9637,552
1604669048.9657,919
1604669048.9678,914
1604669048.9698,340
1604669048.9718,-311
1604669048.9737,-399
1604669048.9757,-172
1604669048.9778,-116
1604669048.9798,-131
1604669048.9818,-92
1604669048.9837,-80
1604669048.9857,-102
1604669048.9878,-97
1604669048.9898,-53
1604669048.9917,-29
1604669048.9938,-68
1604669048.9958,-94
1604669048.9978,-53
1604669048.9997,-2
1604669049.0017,9
1604669049.0038,17
1604669049.0058,21
1604669049.0080,19
1604669049.0098,53
1604669049.0118,77
1604669049.0138,63
1604669049.0158,77
1604669049.0172,107
1604669049.0187,94
1604669049.4763,107
1604669049.4776,153
1604669049.4800,126
1604669049.4826,72
1604669049.4846,65
1604669049.4866,31
1604669049.4886,-19
1604669049.4906,-12
1604669049.4926,-19
1604669049.4946,-63
1604669049.4966,-85
1604669049.4986,-70
1604669049.5005,-46
1604669049.5025,-48
1604669049.5045,-77
1604669049.5065,-77
1604669049.5085,-38
1604669049.5105,-17
1604669049.5125,-19
1604669049.5145,-4
1604669049.5165,-2
1604669049.5185,-31
1604669049.5205,-31
1604669049.5225,-9
1604669049.5245,0
1604669049.5265,19
1604669049.5285,36
1604669049.5305,17
1604669049.5325,-2
1604669049.5345,12
1604669049.5366,36
1604669049.5385,36
1604669049.5405,7
1604669049.5425,-7
1604669049.5445,-19
1604669049.5465,-12
1604669049.5485,26
1604669049.5505,46
1604669049.5525,55
1604669049.5532,53
1604669049.5555,38
1604669049.5575,55
1604669049.5595,60
1604669049.5615,31
1604669049.5636,21
1604669049.5655,26
1604669049.5675,34
1604669049.5695,41
1604669049.5714,19
1604669049.5735,21
1604669049.5755,90
1604669049.5776,116
1604669049.5795,85
1604669049.5815,77
1604669049.5835,65
1604669049.5918,55
1604669049.5935,80
1604669049.5955,75
1604669049.5976,43
1604669049.5995,21
1604669049.6015,2
1604669049.6035,12
1604669049.6055,41
1604669049.6075,21
1604669049.6095,14
1604669049.6115,58
1604669049.6135,72
1604669049.6155,153
1604669049.6175,425
1604669049.6195,807
1604669049.6202,997
1604669049.6224,627
1604669049.6245,-70
1604669050.0162,-347
1604669050.0171,-121
1604669050.0195,14
1604669050.0221,-55
1604669050.0242,-51
1604669050.0261,9
1604669050.0280,-7
1604669050.0300,-46
1604669050.0320,-14
1604669050.0340,34
1604669050.0360,19
1604669050.0381,-12
1604669050.0400,14
1604669050.0408,72
1604669050.0430,92
1604669050.0450,82
1604669050.0470,70
1604669050.0490,63
1604669050.0510,70
1604669050.0530,77
1604669050.0550,80
1604669050.0571,102
1604669050.0592,141
1604669050.0611,201
1604669050.0630,221
1604669050.0650,180
1604669050.0670,160
1604669050.0691,141
1604669050.0710,99
1604669050.0718,80
1604669050.0740,60
1604669050.0760,7
1604669050.0780,-24
1604669050.0800,7
1604669050.0820,34
1604669050.0840,2
1604669050.0860,-36
1604669050.0880,-17
1604669050.0900,-12
1604669050.0920,-41
1604669050.0940,-14
1604669050.0961,38
1604669050.0980,38
1604669050.1000,26
1604669050.1020,41
1604669050.1029,24
1604669050.1050,29
1604669050.1070,77
1604669050.1091,80
1604669050.1110,41
1604669050.1131,31
1604669050.1150,60
1604669050.1170,72
1604669050.1190,38
1604669050.1210,29
1604669050.1231,92
1604669050.1250,148
1604669050.1270,124
1604669050.1290,85
1604669050.1310,90
1604669050.1330,97
1604669050.1338,80
1604669050.1360,36
1604669050.1380,26
1604669050.1400,53
1604669050.1420,53
1604669050.1440,85
1604669050.1460,148
1604669050.1481,141
1604669050.1500,99
1604669050.1520,99
1604669050.1540,94
1604669050.1560,90
1604669050.5569,121
1604669050.5578,128
1604669050.5595,92
1604669050.5619,87
1604669050.5639,104
1604669050.5659,85
1604669050.5679,41
1604669050.5699,34
1604669050.5718,72
1604669050.5738,104
1604669050.5758,72
1604669050.5779,38
1604669050.5798,85
1604669050.5818,160
1604669050.5838,291
1604669050.5858,586
1604669050.5878,936
1604669050.5898,929
1604669050.5906,345
1604669050.5928,-245
1604669050.5948,-255
1604669050.5968,-65
1604669050.5988,-85
1604669050.6008,-85
1604669050.6028,-19
1604669050.6048,-36
1604669050.6068,-26
1604669050.6088,4
1604669050.6108,-9
1604669050.6128,7
1604669050.6148,24
1604669050.6168,14
1604669050.6188,36
1604669050.6208,48
1604669050.6215,29
1604669050.6238,38
1604669050.6259,72
1604669050.6279,87
1604669050.6298,92
1604669050.6318,102
1604669050.6338,131
1604669050.6358,158
1604669050.6378,153
1604669050.6398,143
1604669050.6418,148
1604669050.6438,143
1604669050.6458,126
1604669050.6478,99
1604669050.6498,68
1604669050.6505,60
1604669050.6528,70
1604669050.6550,55
1604669050.6568,31
1604669050.6588,24
1604669050.6608,-2
1604669050.6628,-17
1604669050.6648,21
1604669050.6668,38
1604669050.6688,-7
1604669050.6708,-21
1604669050.6728,26
1604669050.6748,53
1604669050.6768,51
1604669050.6788,63
1604669050.6808,70
1604669050.6815,46
1604669050.6838,19
1604669050.6858,26
1604669050.6878,19
1604669050.6898,36
1604669050.6918,133
1604669050.6938,163
1604669050.6958,87
1604669051.1262,68
1604669051.1271,102
1604669051.1288,90
1604669051.1308,46
1604669051.1328,31
1604669051.1335,65
1604669051.1358,51
1604669051.1378,14
1604669051.1398,107
1604669051.1418,153
1604669051.1438,65
1604669051.1458,46
1604669051.1478,119
1604669051.1497,180
1604669051.1518,155
1604669051.1538,114
1604669051.1557,124
1604669051.1577,92
1604669051.1597,48
1604669051.1618,51
1604669051.1638,48
1604669051.1645,48
1604669051.1667,34
1604669051.1689,-48
1604669051.1708,-87
1604669051.1727,-4
1604669051.1748,43
1604669051.1767,-17
1604669051.1788,-36
1604669051.1809,243
1604669051.1828,875
1604669051.1848,1155
1604669051.1868,537
1604669051.1888,-209
1604669051.1907,-291
1604669051.1927,-72
1604669051.1947,-109
1604669051.1967,-197
1604669051.1988,-87
1604669051.2008,-34
1604669051.2027,-114
1604669051.2047,-145
1604669051.2068,-99
1604669051.2088,-72
1604669051.2108,-58
1604669051.2127,-14
1604669051.2148,-124
1604669051.2167,-262
1604669051.2188,-58
1604669051.2207,107
1604669051.2228,-77
1604669051.2248,-141
1604669051.2268,-51
1604669051.2288,-9
1604669051.2307,75
1604669051.2327,94
1604669051.2348,29
1604669051.2367,21
1604669051.2388,36
1604669051.2407,17
1604669051.2427,4
1604669051.2447,9
1604669051.2468,-14
1604669051.2488,-48
1604669051.2507,-31
1604669051.2527,-4
1604669051.2547,-29
1604669051.2567,-77
1604669051.2588,-63
1604669051.2607,-38
1604669051.2627,-153
1604669051.2647,-128
1604669051.2668,145
1604669051.6662,55
1604669051.6670,-187
1604669051.6695,-9
1604669051.6721,36
1604669051.6741,-109
1604669051.6761,-46
1604669051.6781,-7
1604669051.6803,31
1604669051.6821,155
1604669051.6840,99
1604669051.6860,-31
1604669051.6880,-29
1604669051.6901,-12
1604669051.6920,-31
1604669051.6940,-24
1604669051.6960,-21
1604669051.6981,-65
1604669051.7000,-48
1604669051.7020,63
1604669051.7040,77
1604669051.7060,-4
1604669051.7080,29
1604669051.7100,102
1604669051.7120,77
1604669051.7140,104
1604669051.7160,180
1604669051.7180,145
1604669051.7200,90
1604669051.7220,126
1604669051.7240,138
1604669051.7260,94
1604669051.7280,92
1604669051.7300,58
1604669051.7320,9
1604669051.7340,68
1604669051.7360,109
1604669051.7380,97
1604669051.7400,92
1604669051.7420,70
1604669051.7440,167
1604669051.7460,472
1604669051.7480,771
1604669051.7500,912
1604669051.7520,652
1604669051.7540,-29
1604669051.7560,-301
1604669051.7580,-29
1604669051.7600,4
1604669051.7620,-102
1604669051.7640,-9
1604669051.7660,21
1604669051.7680,-41
1604669051.7700,-34
1604669051.7720,-29
1604669051.7740,-34
1604669051.7760,-2
1604669051.7780,53
1604669051.7800,107
1604669051.7821,90
1604669051.7840,65
1604669051.7860,80
1604669051.7881,46
1604669051.7900,55
1604669051.7920,153
1604669051.7940,143
1604669051.7960,72
1604669051.7980,138
1604669051.8000,226
1604669051.8020,184
1604669051.8040,124
1604669051.8060,104
1604669051.8080,111
1604669051.8100,131
1604669052.2366,85
1604669052.2374,17
1604669052.2398,19
1604669052.2424,-9
1604669052.2445,-87
1604669052.2464,-97
1604669052.2485,-31
1604669052.2504,-7
1604669052.2524,-58
1604669052.2544,-60
1604669052.2565,-17
1604669052.2584,-24
1604669052.2604,-102
1604669052.2624,-163
1604669052.2644,-116
1604669052.2664,12
1604669052.2684,75
1604669052.2704,2
1604669052.2724,-34
1604669052.2744,-17
1604669052.2764,-19
1604669052.2784,-60
1604669052.2804,-99
1604669052.2824,-63
1604669052.2844,19
1604669052.2864,70
1604669052.2885,24
1604669052.2904,-34
1604669052.2924,-36
1604669052.2944,-43
1604669052.2964,-53
1604669052.2984,-2
1604669052.3003,97
1604669052.3023,121
1604669052.3043,63
1604669052.3063,24
1604669052.3085,29
1604669052.3104,48
1604669052.3124,38
1604669052.3143,-21
1604669052.3163,-14
1604669052.3184,72
1604669052.3204,60
1604669052.3224,-36
1604669052.3243,-53
1604669052.3263,24
1604669052.3283,24
1604669052.3304,26
1604669052.3324,262
1604669052.3343,583
1604669052.3363,837
1604669052.3384,851
1604669052.3403,360
1604669052.3423,-201
1604669052.3444,-294
1604669052.3463,-189
1604669052.3484,-155
1604669052.3504,-60
1604669052.3523,29
1604669052.3543,-17
1604669052.3564,-48
1604669052.3583,-4
1604669052.3603,-21
1604669052.3623,-70
1604669052.3643,24
1604669052.3663,63
1604669052.3684,-128
1604669052.3703,-116
1604669052.3723,17
1604669052.3744,-34
1604669052.3763,165
1604669052.3784,335
1604669052.3803,55
1604669052.8667,9
1604669052.8675,226
1604669052.8700,38
1604669052.8726,-228
1604669052.8746,-70
1604669052.8766,197
1604669052.8787,114
1604669052.8806,-133
1604669052.8826,-9
1604669052.8846,175
1604669052.8866,-128
1604669052.8886,-311
1604669052.8907,12
1604669052.8926,121
1604669052.8949,-145
1604669052.8966,-262
1604669052.8985,-141
1604669052.9005,-60
1604669052.9025,-107
1604669052.9045,-133
1604669052.9066,-119
1604669052.9085,-189
1604669052.9092,-221
1604669052.9105,-65
1604669052.9125,-14
1604669052.9145,-136
1604669052.9165,-153
1604669052.9186,-85
1604669052.9205,-36
1604669052.9225,-111
1604669052.9245,-197
1604669052.9265,-170
1604669052.9285,-136
1604669052.9305,19
1604669052.9325,111
1604669052.9345,-48
1604669052.9365,-92
1604669052.9385,-34
1604669052.9392,-170
1604669052.9405,-236
1604669052.9425,-17
1604669052.9445,75
1604669052.9465,-58
1604669052.9485,-60
1604669052.9505,-82
1604669052.9525,-180
1604669052.9545,-55
1604669052.9565,63
1604669052.9585,-17
1604669052.9605,-41
1604669052.9625,-38
1604669052.9645,-80
1604669052.9665,2
1604669052.9685,150
1604669052.9692,199
1604669052.9705,133
1604669052.9725,221
1604669052.9745,686
1604669052.9765,1073
1604669052.9785,849
1604669052.9805,201
1604669052.9825,-243
1604669052.9845,-163
1604669052.9865,21
1604669052.9885,46
1604669052.9906,51
1604669052.9925,-29
1604669052.9945,-26
1604669052.9965,94
1604669052.9985,99
1604669052.9992,72
1604669053.0005,63
1604669053.0025,31
1604669053.3764,17
1604669053.3770,46
1604669053.3794,136
1604669053.3820,165
1604669053.3841,-36
1604669053.3861,-21
1604669053.3881,364
1604669053.3900,253
1604669053.3921,-68
1604669053.3941,145
1604669053.3961,272
1604669053.3968,12
1604669053.3981,-77
1604669053.4000,155
1604669053.4020,243
1604669053.4040,-2
1604669053.4061,-80
1604669053.4080,70
1604669053.4100,36
1604669053.4120,-12
1604669053.4140,46
1604669053.4160,-41
1604669053.4180,-150
1604669053.4200,-58
1604669053.4220,17
1604669053.4240,-119
1604669053.4261,-155
1604669053.4267,-31
1604669053.4280,-12
1604669053.4300,-46
1604669053.4320,-19
1604669053.4340,-36
1604669053.4360,-104
1604669053.4381,-58
1604669053.4400,-4
1604669053.4420,-43
1604669053.4440,-38
1604669053.4460,2
1604669053.4481,-9
1604669053.4500,-38
1604669053.4520,24
1604669053.4540,21
1604669053.4560,-136
1604669053.4569,-99
1604669053.4580,87
1604669053.4600,68
1604669053.4621,-26
1604669053.4640,-2
1604669053.4661,-38
1604669053.4680,-46
1604669053.4700,80
1604669053.4720,51
1604669053.4740,-51
1604669053.4760,21
1604669053.4780,31
1604669053.4801,-70
1604669053.4821,-87
1604669053.4840,-41
1604669053.4860,-34
1604669053.4867,-99
1604669053.4880,-111
1604669053.4900,68
1604669053.4920,386
1604669053.4940,744
1604669053.4960,1007
1604669053.4980,783
1604669053.5000,34
1604669053.5020,-437
1604669053.5040,-316
1604669053.5060,-211
1604669053.5081,-218
1604669053.5100,-14
1604669053.5120,97
1604669053.9766,-68
1604669053.9773,-128
1604669053.9791,-34
1604669053.9810,-38
1604669053.9830,-63
1604669053.9851,2
1604669053.9870,4
1604669053.9890,-53
1604669053.9911,-53
1604669053.9930,-31
1604669053.9950,19
1604669053.9970,60
1604669053.9990,58
1604669054.0010,114
1604669054.0030,138
1604669054.0050,41
1604669054.0070,24
1604669054.0076,124
1604669054.0090,145
1604669054.0109,102
1604669054.0129,126
1604669054.0151,121
1604669054.0170,31
1604669054.0189,21
1604669054.0209,72
1604669054.0229,17
1604669054.0250,-38
1604669054.0269,-2
1604669054.0289,0
1604669054.0310,-70
1604669054.0329,-31
1604669054.0349,51
1604669054.0369,-63
1604669054.0376,-72
1604669054.0389,107
1604669054.0410,26
1604669054.0430,-126
1604669054.0450,14
1604669054.0470,75
1604669054.0489,-77
1604669054.0509,-90
1604669054.0529,12
1604669054.0549,21
1604669054.0569,0
1604669054.0590,29
1604669054.0609,43
1604669054.0629,24
1604669054.0649,24
1604669054.0657,17
1604669054.0669,-21
1604669054.0689,4
1604669054.0709,107
1604669054.0730,80
1604669054.0749,-26
1604669054.0769,-7
1604669054.0790,38
1604669054.0810,0
1604669054.0829,-2
1604669054.0850,26
1604669054.0870,9
1604669054.0890,-9
1604669054.0910,-26
1604669054.0929,-63
1604669054.0950,-68
1604669054.0957,-12
1604669054.0970,131
1604669054.0990,467
1604669054.1009,910
1604669054.1029,1014
1604669054.1049,464
1604669054.1069,-243
1604669054.1089,-369
1604669054.1111,-97
1604669054.4865,-58
1604669054.4872,-167
1604669054.4896,-99
1604669054.4922,0
1604669054.4942,-19
1604669054.4949,-26
1604669054.4972,9
1604669054.4992,-7
1604669054.5012,-75
1604669054.5032,-121
1604669054.5052,-97
1604669054.5072,-21
1604669054.5092,48
1604669054.5112,68
1604669054.5132,-7
1604669054.5152,-72
1604669054.5172,-31
1604669054.5192,31
1604669054.5212,63
1604669054.5232,46
1604669054.5252,9
1604669054.5259,68
1604669054.5272,133
1604669054.5292,63
1604669054.5312,-38
1604669054.5332,-109
1604669054.5352,-94
1604669054.5372,0
1604669054.5392,-53
1604669054.5412,-165
1604669054.5432,-160
1604669054.5452,-187
1604669054.5472,-236
1604669054.5492,-163
1604669054.5512,-102
1604669054.5532,-158
1604669054.5552,-223
1604669054.5559,-180
1604669054.5572,-128
1604669054.5592,-216
1604669054.5612,-274
1604669054.5632,-221
1604669054.5652,-141
1604669054.5672,-97
1604669054.5692,-148
1604669054.5712,-206
1604669054.5732,-238
1604669054.5752,-277
1604669054.5772,-226
1604669054.5792,-99
1604669054.5814,-87
1604669054.5833,-177
1604669054.5852,-216
1604669054.5858,-184
1604669054.5872,-136
1604669054.5892,-138
1604669054.5912,-175
1604669054.5932,-216
1604669054.5952,-257
1604669054.5972,-233
1604669054.5992,-189
1604669054.6012,-214
1604669054.6032,-231
1604669054.6052,-165
1604669054.6072,-138
1604669054.6092,-206
1604669054.6112,-209
1604669054.6132,-60
1604669054.6152,184
1604669054.6159,566
1604669054.6172,844
1604669054.6192,391
1604669054.6212,-501
1604669055.1163,-729
1604669055.1172,-357
1604669055.1196,-233
1604669055.1222,-345
1604669055.1242,-311
1604669055.1262,-184
1604669055.1283,-175
1604669055.1302,-272
1604669055.1322,-284
1604669055.1342,-165
1604669055.1362,-94
1604669055.1382,-153
1604669055.1389,-182
1604669055.1402,-199
1604669055.1422,-223
1604669055.1442,-128
1604669055.1462,-58
1604669055.1482,-138
1604669055.1501,-184
1604669055.1521,-65
1604669055.1541,21
1604669055.1561,-60
1604669055.1581,-114
1604669055.1601,-77
1604669055.1621,-26
1604669055.1641,-12
1604669055.1661,-77
1604669055.1681,-131
1604669055.1690,-133
1604669055.1702,-153
1604669055.1721,-165
1604669055.1741,-158
1604669055.1761,-233
1604669055.1781,-311
1604669055.1801,-226
1604669055.1821,-150
1604669055.1841,-233
1604669055.1861,-279
1604669055.1881,-214
1604669055.1901,-197
1604669055.1921,-226
1604669055.1941,-226
1604669055.1961,-218
1604669055.1981,-165
1604669055.1988,-121
1604669055.2001,-175
1604669055.2021,-238
1604669055.2042,-253
1604669055.2062,-206
1604669055.2081,-107
1604669055.2101,-58
1604669055.2121,-111
1604669055.2141,-150
1604669055.2161,-141
1604669055.2182,-158
1604669055.2201,-167
1604669055.2221,-109
1604669055.2241,-143
1604669055.2261,-279
1604669055.2281,-231
1604669055.2288,-99
1604669055.2301,-131
1604669055.2321,-175
1604669055.2341,-148
1604669055.2361,-133
1604669055.2382,-155
1604669055.2401,-199
1604669055.2421,-160
1604669055.2441,55
1604669055.2461,374
1604669055.2481,720
1604669055.2501,761
1604669055.2521,107
1604669055.5967,-566
1604669055.5974,-506
1604669055.5998,-226
1604669055.6025,-243
1604669055.6045,-267
1604669055.6065,-109
1604669055.6087,-65
1604669055.6105,-175
1604669055.6124,-143
1604669055.6144,-87
1604669055.6164,-163
1604669055.6185,-187
1604669055.6204,-121
1604669055.6224,-55
1604669055.6245,-4
1604669055.6264,-17
1604669055.6271,-51
1604669055.6284,-14
1604669055.6304,0
1604669055.6324,-58
1604669055.6344,-70
1604669055.6364,-53
1604669055.6384,-7
1604669055.6404,124
1604669055.6424,148
1604669055.6444,29
1604669055.6464,-29
1604669055.6484,-26
1604669055.6504,-31
1604669055.6524,-2
1604669055.6544,-36
1604669055.6564,-94
1604669055.6571,-85
1604669055.6584,-165
1604669055.6604,-260
1604669055.6624,-170
1604669055.6644,-65
1604669055.6664,-138
1604669055.6684,-180
1604669055.6704,-80
1604669055.6724,-82
1604669055.6744,-155
1604669055.6764,-104
1604669055.6784,-70
1604669055.6804,-145
1604669055.6824,-163
1604669055.6844,-82
1604669055.6864,-19
1604669055.6871,-48
1604669055.6884,-99
1604669055.6904,-63
1604669055.6924,-7
1604669055.6944,-7
1604669055.6964,-41
1604669055.6984,-4
1604669055.7004,58
1604669055.7024,-14
1604669055.7046,-72
1604669055.7064,-60
1604669055.7084,-85
1604669055.7104,-63
1604669055.7124,-9
1604669055.7144,-38
1604669055.7164,-80
1604669055.7171,-24
1604669055.7184,26
1604669055.7204,-48
1604669055.7224,21
1604669055.7244,330
1604669055.7264,700
1604669055.7284,1019
1604669055.7304,785
1604669055.7324,-60
1604669056.1960,-523
1604669056.1967,-284
1604669056.1991,-46
1604669056.2018,-48
1604669056.2026,-102
1604669056.2048,-77
1604669056.2068,-31
1604669056.2088,-80
1604669056.2108,-104
1604669056.2128,-29
1604669056.2148,2
1604669056.2169,21
1604669056.2188,72
1604669056.2209,46
1604669056.2229,-19
1604669056.2248,-7
1604669056.2268,94
1604669056.2288,136
1604669056.2307,70
1604669056.2328,104
1604669056.2334,187
1604669056.2348,150
1604669056.2367,99
1604669056.2388,119
1604669056.2407,145
1604669056.2427,99
1604669056.2447,36
1604669056.2467,65
1604669056.2487,119
1604669056.2507,77
1604669056.2527,17
1604669056.2547,-24
1604669056.2567,-34
1604669056.2587,0
1604669056.2607,-46
1604669056.2629,-133
1604669056.2634,-75
1604669056.2647,0
1604669056.2667,-36
1604669056.2687,-26
1604669056.2707,17
1604669056.2727,-41
1604669056.2747,-60
1604669056.2767,17
1604669056.2788,2
1604669056.2807,-48
1604669056.2827,36
1604669056.2847,65
1604669056.2867,-21
1604669056.2887,-2
1604669056.2907,26
1604669056.2927,9
1604669056.2934,43
1604669056.2948,36
1604669056.2967,21
1604669056.2987,55
1604669056.3007,36
1604669056.3028,12
1604669056.3047,31
1604669056.3067,2
1604669056.3087,-19
1604669056.3107,19
1604669056.3127,7
1604669056.3147,-41
1604669056.3167,-7
1604669056.3188,29
1604669056.3207,-21
1604669056.3227,-60
1604669056.3234,68
1604669056.3247,433
1604669056.3267,834
1604669056.3287,978
1604669056.3307,613
1604669056.7366,-90
1604669056.7374,-401
1604669056.7398,-197
1604669056.7425,-75
1604669056.7445,-119
1604669056.7466,-51
1604669056.7485,21
1604669056.7504,-4
1604669056.7524,-19
1604669056.7544,26
1604669056.7565,65
1604669056.7571,41
1604669056.7584,-4
1604669056.7606,-26
1604669056.7624,36
1604669056.7644,124
1604669056.7664,87
1604669056.7684,12
1604669056.7704,102
1604669056.7724,221
1604669056.7745,187
1604669056.7764,148
1604669056.7784,187
1604669056.7804,209
1604669056.7824,209
1604669056.7844,201
1604669056.7864,160
1604669056.7871,126
1604669056.7884,124
1604669056.7904,138
1604669056.7924,150
1604669056.7944,124
1604669056.7964,51
1604669056.7984,-4
1604669056.8004,-29
1604669056.8024,-48
1604669056.8044,-26
1604669056.8064,7
1604669056.8084,2
1604669056.8104,43
1604669056.8124,72
1604669056.8144,2
1604669056.8164,-46
1604669056.8171,-12
1604669056.8184,12
1604669056.8204,9
1604669056.8224,43
1604669056.8244,55
1604669056.8264,12
1604669056.8284,29
1604669056.8304,31
1604669056.8324,-21
1604669056.8344,38
1604669056.8364,80
1604669056.8385,51
1604669056.8404,87
1604669056.8424,99
1604669056.8444,60
1604669056.8464,14
1604669056.8471,-21
1604669056.8484,-4
1604669056.8504,-4
1604669056.8524,9
1604669056.8544,68
1604669056.8565,36
1604669056.8584,-19
1604669056.8604,4
1604669056.8624,31
1604669056.8644,90
1604669056.8664,318
1604669056.8684,698
1604669056.8704,990
1604669056.8724,822
1604669057.3066,126
1604669057.3074,-382
1604669057.3098,-245
1604669057.3125,-31
1604669057.3145,-58
1604669057.3165,-51
1604669057.3185,-2
1604669057.3204,-19
1604669057.3224,-14
1604669057.3244,4
1604669057.3264,-24
1604669057.3284,-17
1604669057.3304,43
1604669057.3324,38
1604669057.3344,-19
1604669057.3351,26
1604669057.3364,119
1604669057.3384,97
1604669057.3403,51
1604669057.3424,85
1604669057.3443,124
1604669057.3463,99
1604669057.3484,111
1604669057.3503,199
1604669057.3523,197
1604669057.3544,136
1604669057.3563,143
1604669057.3583,148
1604669057.3604,107
1604669057.3624,55
1604669057.3643,29
1604669057.3651,26
1604669057.3664,29
1604669057.3684,43
1604669057.3703,51
1604669057.3723,7
1604669057.3743,-17
1604669057.3763,24
1604669057.3784,12
1604669057.3803,-17
1604669057.3824,2
1604669057.3843,21
1604669057.3865,68
1604669057.3884,63
1604669057.3904,-26
1604669057.3924,-21
1604669057.3931,75
1604669057.3953,80
1604669057.3974,9
1604669057.3993,12
1604669057.4014,60
1604669057.4033,60
1604669057.4054,14
1604669057.4074,-4
1604669057.4093,0
1604669057.4114,24
1604669057.4133,55
1604669057.4153,51
1604669057.4174,21
1604669057.4193,-4
1604669057.4213,-19
1604669057.4234,-9
1604669057.4240,41
1604669057.4253,34
1604669057.4274,-41
1604669057.4293,-72
1604669057.4314,-34
1604669057.4333,17
1604669057.4353,-9
1604669057.4375,65
1604669057.4394,428
1604669057.4413,851
1604669057.4433,1012
1604669057.8464,652
1604669057.8478,-70
1604669057.8501,-447
1604669057.8518,-287
1604669057.8538,-133
1604669057.8546,-170
1604669057.8558,-136
1604669057.8578,-14
1604669057.8598,34
1604669057.8618,7
1604669057.8638,-29
1604669057.8658,-46
1604669057.8679,-51
1604669057.8698,-38
1604669057.8719,7
1604669057.8738,31
1604669057.8758,24
1604669057.8779,17
1604669057.8798,26
1604669057.8818,68
1604669057.8841,97
1604669057.8849,99
1604669057.8869,97
1604669057.8887,92
1604669057.8907,128
1604669057.8927,170
1604669057.8949,126
1604669057.8967,111
1604669057.8987,192
1604669057.9007,192
1604669057.9027,90
1604669057.9048,38
1604669057.9068,53
1604669057.9087,-4
1604669057.9107,-48
1604669057.9127,46
1604669057.9147,36
1604669057.9153,-53
1604669057.9167,19
1604669057.9187,46
1604669057.9207,-85
1604669057.9227,-87
1604669057.9247,38
1604669057.9267,55
1604669057.9287,-19
1604669057.9307,-31
1604669057.9327,46
1604669057.9347,51
1604669057.9367,-26
1604669057.9387,17
1604669057.9407,107
1604669057.9427,43
1604669057.9447,-34
1604669057.9453,41
1604669057.9467,121
1604669057.9487,72
1604669057.9507,24
1604669057.9527,46
1604669057.9548,46
1604669057.9567,-19
1604669057.9587,-82
1604669057.9607,-24
1604669057.9627,43
1604669057.9647,-7
1604669057.9667,-51
1604669057.9687,-26
1604669057.9707,-46
1604669057.9727,-70
1604669057.9747,36
1604669057.9753,194
1604669057.9767,384
1604669057.9789,717
1604669057.9807,914
1604669058.4163,506
1604669058.4173,-223
1604669058.4197,-440
1604669058.4223,-180
1604669058.4243,-75
1604669058.4263,-121
1604669058.4283,-92
1604669058.4303,-97
1604669058.4323,-155
1604669058.4329,-114
1604669058.4343,-29
1604669058.4363,-24
1604669058.4384,-29
1604669058.4403,17
1604669058.4422,43
1604669058.4442,21
1604669058.4462,14
1604669058.4482,24
1604669058.4502,-2
1604669058.4522,-12
1604669058.4542,46
1604669058.4563,102
1604669058.4582,111
1604669058.4602,102
1604669058.4622,111
1604669058.4629,136
1604669058.4643,102
1604669058.4662,46
1604669058.4683,43
1604669058.4702,65
1604669058.4722,58
1604669058.4742,41
1604669058.4762,4
1604669058.4783,-34
1604669058.4802,-34
1604669058.4822,-29
1604669058.4842,-36
1604669058.4862,-75
1604669058.4883,-90
1604669058.4902,-29
1604669058.4922,12
1604669058.4928,-14
1604669058.4942,-19
1604669058.4962,-36
1604669058.4982,-99
1604669058.5002,-29
1604669058.5022,102
1604669058.5042,68
1604669058.5062,-14
1604669058.5084,-31
1604669058.5102,-12
1604669058.5123,17
1604669058.5142,43
1604669058.5162,46
1604669058.5182,68
1604669058.5202,55
1604669058.5222,-51
1604669058.5228,-48
1604669058.5242,70
1604669058.5262,51
1604669058.5282,-29
1604669058.5302,-12
1604669058.5322,12
1604669058.5342,-17
1604669058.5362,-46
1604669058.5382,-58
1604669058.5402,-58
1604669058.5422,-21
1604669058.5442,80
1604669058.5462,287
1604669058.5482,610
1604669058.5502,885
1604669058.5522,744
1604669058.9566,87
1604669058.9574,-391
1604669058.9599,-245
1604669058.9624,-53
1604669058.9644,-99
1604669058.9664,-102
1604669058.9685,-58
1604669058.9704,-58
1604669058.9724,-68
1604669058.9744,-82
1604669058.9764,-75
1604669058.9784,-24
1604669058.9804,12
1604669058.9824,-7
1604669058.9845,-26
1604669058.9852,-7
1604669058.9864,12
1604669058.9884,12
1604669058.9904,2
1604669058.9924,17
1604669058.9944,102
1604669058.9964,165
1604669058.9984,99
1604669059.0004,43
1604669059.0023,107
1604669059.0044,133
1604669059.0063,85
1604669059.0085,82
1604669059.0104,58
1604669059.0123,-4
1604669059.0143,29
1604669059.0150,72
1604669059.0164,17
1604669059.0184,-46
1604669059.0203,-60
1604669059.0223,-82
1604669059.0243,-102
1604669059.0263,-68
1604669059.0283,7
1604669059.0303,72
1604669059.0323,26
1604669059.0344,-58
1604669059.0364,-34
1604669059.0385,14
1604669059.0403,-2
1604669059.0424,-24
1604669059.0444,-29
1604669059.0449,-26
1604669059.0464,21
1604669059.0484,26
1604669059.0503,-26
1604669059.0523,9
1604669059.0543,60
1604669059.0563,29
1604669059.0583,17
1604669059.0603,31
1604669059.0623,19
1604669059.0643,-60
1604669059.0663,-107
1604669059.0684,19
1604669059.0703,92
1604669059.0723,-4
1604669059.0743,-46
1604669059.0750,-7
1604669059.0763,-19
1604669059.0783,-53
1604669059.0804,-46
1604669059.0823,19
1604669059.0844,182
1604669059.0863,472
1604669059.0883,822
1604669059.0903,924
1604669059.0924,433
1604669059.5569,-245
1604669059.5581,-396
1604669059.5604,-165
1604669059.5621,-34
1604669059.5629,-58
1604669059.5644,-92
1604669059.5661,-85
1604669059.5681,-48
1604669059.5701,-36
1604669059.5721,-85
1604669059.5741,-77
1604669059.5762,-19
1604669059.5782,17
1604669059.5801,68
1604669059.5821,65
1604669059.5843,-2
1604669059.5861,-14
1604669059.5881,9
1604669059.5901,51
1604669059.5921,82
1604669059.5927,70
1604669059.5941,111
1604669059.5961,167
1604669059.5981,128
1604669059.6001,97
1604669059.6021,109
1604669059.6041,72
1604669059.6061,43
1604669059.6081,77
1604669059.6100,75
1604669059.6120,7
1604669059.6141,-36
1604669059.6161,-31
1604669059.6181,-41
1604669059.6200,-85
1604669059.6221,-43
1604669059.6227,72
1604669059.6240,58
1604669059.6260,-51
1604669059.6281,-65
1604669059.6300,-29
1604669059.6320,-38
1604669059.6340,-38
1604669059.6361,-7
1604669059.6381,-34
1604669059.6400,-43
1604669059.6420,31
1604669059.6440,34
1604669059.6460,-41
1604669059.6481,-34
1604669059.6500,29
1604669059.6520,48
1604669059.6526,29
1604669059.6540,14
1604669059.6560,17
1604669059.6580,41
1604669059.6601,17
1604669059.6620,-43
1604669059.6640,-36
1604669059.6661,-29
1604669059.6681,-46
1604669059.6700,-51
1604669059.6720,-41
1604669059.6740,9
1604669059.6760,41
1604669059.6780,0
1604669059.6800,26
1604669059.6820,257
1604669059.6826,610
1604669059.6841,849
1604669059.6860,686
1604669059.6880,60
1604669059.6900,-418
1604669060.1265,-250
1604669060.1273,14
1604669060.1288,-65
1604669060.1308,-145
1604669060.1328,-87
1604669060.1348,-46
1604669060.1369,-34
1604669060.1388,-34
1604669060.1408,-58
1604669060.1414,-90
1604669060.1428,-34
1604669060.1448,63
1604669060.1468,21
1604669060.1488,-26
1604669060.1508,43
1604669060.1528,87
1604669060.1548,63
1604669060.1568,60
1604669060.1587,63
1604669060.1607,12
1604669060.1628,29
1604669060.1647,150
1604669060.1668,170
1604669060.1688,107
1604669060.1707,87
1604669060.1713,65
1604669060.1727,31
1604669060.1747,21
1604669060.1768,21
1604669060.1787,7
1604669060.1807,-48
1604669060.1827,-82
1604669060.1847,-24
1604669060.1868,4
1604669060.1889,-38
1604669060.1907,-48
1604669060.1927,-34
1604669060.1947,-55
1604669060.1967,-85
1604669060.1987,-65
1604669060.2007,-34
1604669060.2013,-48
1604669060.2027,-55
1604669060.2047,-2
1604669060.2067,12
1604669060.2087,-31
1604669060.2108,-21
1604669060.2128,0
1604669060.2147,-24
1604669060.2167,-34
1604669060.2187,-29
1604669060.2207,-14
1604669060.2228,-2
1604669060.2247,4
1604669060.2267,12
1604669060.2287,-9
1604669060.2308,-38
1604669060.2313,-46
1604669060.2327,-36
1604669060.2347,-31
1604669060.2367,-48
1604669060.2388,-72
1604669060.2407,-77
1604669060.2427,-68
1604669060.2447,-26
1604669060.2467,180
1604669060.2487,598
1604669060.2507,897
1604669060.2527,688
1604669060.2547,87
1604669060.2567,-328
1604669060.2587,-260
1604669060.2607,-77
1604669060.6666,-111
1604669060.6676,-163
1604669060.6700,-68
1604669060.6726,-17
1604669060.6747,-82
1604669060.6766,-94
1604669060.6786,-34
1604669060.6806,-41
1604669060.6826,-80
1604669060.6846,-53
1604669060.6866,-21
1604669060.6886,-19
1604669060.6908,17
1604669060.6926,19
1604669060.6946,-19
1604669060.6952,12
1604669060.6966,58
1604669060.6986,19
1604669060.7006,2
1604669060.7025,55
1604669060.7046,72
1604669060.7065,34
1604669060.7086,36
1604669060.7105,65
1604669060.7125,17
1604669060.7145,-26
1604669060.7166,-12
1604669060.7186,-46
1604669060.7206,-80
1604669060.7225,-48
1604669060.7246,-48
1604669060.7251,-63
1604669060.7265,-46
1604669060.7285,-68
1604669060.7305,-109
1604669060.7325,-82
1604669060.7347,-55
1604669060.7366,-92
1604669060.7386,-92
1604669060.7405,-26
1604669060.7425,-12
1604669060.7445,-43
1604669060.7465,-17
1604669060.7486,-12
1604669060.7505,-60
1604669060.7525,-70
1604669060.7545,-46
1604669060.7551,9
1604669060.7565,38
1604669060.7585,-14
1604669060.7605,12
1604669060.7625,58
1604669060.7645,-9
1604669060.7665,-60
1604669060.7686,-75
1604669060.7705,-107
1604669060.7725,-87
1604669060.7746,-38
1604669060.7765,-41
1604669060.7786,-46
1604669060.7805,-19
1604669060.7825,-43
1604669060.7845,-36
1604669060.7853,150
1604669060.7866,491
1604669060.7886,798
1604669060.7905,710
1604669060.7926,136
1604669060.7945,-326
1604669060.7965,-274
1604669060.7986,-126
1604669060.8005,-153
1604669060.8025,-167
1604669061.2367,-119
1604669061.2375,-94
1604669061.2388,-75
1604669061.2394,-36
1604669061.2408,-34
1604669061.2428,-48
1604669061.2448,-4
1604669061.2468,9
1604669061.2488,-46
1604669061.2508,-38
1604669061.2528,21
1604669061.2548,53
1604669061.2568,65
1604669061.2588,19
1604669061.2608,-34
1604669061.2628,53
1604669061.2647,150
1604669061.2668,94
1604669061.2687,19
1604669061.2694,17
1604669061.2707,87
1604669061.2728,167
1604669061.2748,119
1604669061.2768,9
1604669061.2788,-29
1604669061.2807,-34
1604669061.2828,-46
1604669061.2848,-34
1604669061.2867,-21
1604669061.2888,-53
1604669061.2907,-70
1604669061.2927,-34
1604669061.2948,0
1604669061.2967,12
1604669061.2988,-2
1604669061.2993,-55
1604669061.3007,-77
1604669061.3027,-36
1604669061.3047,7
1604669061.3067,-2
1604669061.3087,-9
1604669061.3109,29
1604669061.3127,31
1604669061.3148,-14
1604669061.3167,-4
1604669061.3187,24
1604669061.3207,-21
1604669061.3227,-48
1604669061.3247,-21
1604669061.3267,-31
1604669061.3288,-43
1604669061.3293,-63
1604669061.3307,-70
1604669061.3327,-31
1604669061.3347,-43
1604669061.3367,-104
1604669061.3387,-87
1604669061.3407,-38
1604669061.3428,-65
1604669061.3448,-104
1604669061.3467,46
1604669061.3488,418
1604669061.3507,766
1604669061.3527,805
1604669061.3547,350
1604669061.3567,-279
1604669061.3587,-435
1604669061.3593,-189
1604669061.3607,-99
1604669061.3627,-180
1604669061.3647,-167
1604669061.3667,-90
1604669061.3687,-87
1604669061.7766,-133
1604669061.7774,-141
1604669061.7798,-87
1604669061.7825,-17
1604669061.7845,2
1604669061.7865,-17
1604669061.7885,-34
1604669061.7904,-29
1604669061.7924,-9
1604669061.7944,2
1604669061.7951,-4
1604669061.7964,2
1604669061.7984,26
1604669061.8005,26
1604669061.8024,26
1604669061.8044,48
1604669061.8064,12
1604669061.8084,7
1604669061.8104,58
1604669061.8126,43
1604669061.8144,24
1604669061.8164,26
1604669061.8184,-24
1604669061.8204,-60
1604669061.8224,-41
1604669061.8244,-58
1604669061.8250,-97
1604669061.8264,-68
1604669061.8284,-17
1604669061.8303,-34
1604669061.8323,-48
1604669061.8343,-12
1604669061.8364,2
1604669061.8384,0
1604669061.8403,12
1604669061.8423,-12
1604669061.8444,-38
1604669061.8464,-7
1604669061.8484,14
1604669061.8504,19
1604669061.8523,65
1604669061.8543,77
1604669061.8549,36
1604669061.8563,34
1604669061.8584,58
1604669061.8604,43
1604669061.8623,21
1604669061.8643,12
1604669061.8663,2
1604669061.8684,4
1604669061.8703,4
1604669061.8724,-17
1604669061.8743,-43
1604669061.8763,-24
1604669061.8784,-14
1604669061.8805,-43
1604669061.8824,-21
1604669061.8830,107
1604669061.8844,372
1604669061.8863,759
1604669061.8884,929
1604669061.8903,469
1604669061.8923,-214
1604669061.8943,-386
1604669061.8964,-194
1604669061.8984,-153
1604669061.9004,-170
1604669061.9024,-85
1604669061.9043,-75
1604669061.9063,-116
1604669061.9085,-80
1604669061.9104,-65
1604669061.9123,-102
1604669062.3160,-82
1604669062.3166,-55
1604669062.3190,-80
1604669062.3216,-70
1604669062.3236,12
1604669062.3257,36
1604669062.3277,-4
1604669062.3297,-4
1604669062.3316,24
1604669062.3336,26
1604669062.3356,34
1604669062.3376,46
1604669062.3396,60
1604669062.3402,65
1604669062.3416,43
1604669062.3436,4
1604669062.3456,2
1604669062.3476,43
1604669062.3496,48
1604669062.3516,17
1604669062.3536,7
1604669062.3556,-17
1604669062.3576,-46
1604669062.3596,-43
1604669062.3616,-24
1604669062.3636,-4
1604669062.3656,-19
1604669062.3676,-38
1604669062.3696,-24
1604669062.3702,-9
1604669062.3716,-19
1604669062.3736,-43
1604669062.3756,-38
1604669062.3776,14
1604669062.3796,31
1604669062.3816,-24
1604669062.3836,-65
1604669062.3856,-4
1604669062.3876,38
1604669062.3896,9
1604669062.3916,0
1604669062.3936,-21
1604669062.3956,-21
1604669062.3976,53
1604669062.3996,51
1604669062.4002,-19
1604669062.4016,-31
1604669062.4036,-46
1604669062.4057,-60
1604669062.4076,-31
1604669062.4096,-19
1604669062.4116,-24
1604669062.4136,-19
1604669062.4156,12
1604669062.4176,182
1604669062.4196,493
1604669062.4216,800
1604669062.4236,873
1604669062.4256,386
1604669062.4276,-274
1604669062.4296,-369
1604669062.4302,-119
1604669062.4316,-70
1604669062.4336,-111
1604669062.4356,-55
1604669062.4376,-26
1604669062.4396,-43
1604669062.4416,-21
1604669062.4436,-14
1604669062.4456,-38
1604669062.4477,12
1604669062.4496,75
1604669062.4516,48
1604669062.9165,31
1604669062.9177,46
1604669062.9201,36
1604669062.9227,34
1604669062.9235,36
1604669062.9247,72
1604669062.9267,145
1604669062.9289,145
1604669062.9307,90
1604669062.9328,82
1604669062.9347,90
1604669062.9367,77
1604669062.9387,85
1604669062.9407,77
1604669062.9427,-2
1604669062.9447,-12
1604669062.9467,75
1604669062.9487,48
1604669062.9507,-36
1604669062.9527,-21
1604669062.9533,-26
1604669062.9547,-77
1604669062.9567,-63
1604669062.9587,-26
1604669062.9607,-26
1604669062.9627,-63
1604669062.9649,-82
1604669062.9667,-29
1604669062.9686,26
1604669062.9706,34
1604669062.9726,2
1604669062.9746,-19
1604669062.9766,9
1604669062.9786,36
1604669062.9806,51
1604669062.9827,55
1604669062.9832,4
1604669062.9846,-21
1604669062.9866,65
1604669062.9887,126
1604669062.9906,70
1604669062.9926,7
1604669062.9946,7
1604669062.9966,19
1604669062.9987,-24
1604669063.0006,-60
1604669063.0027,-14
1604669063.0046,17
1604669063.0066,-21
1604669063.0086,-58
1604669063.0106,29
1604669063.0127,313
1604669063.0132,686
1604669063.0147,931
1604669063.0166,722
1604669063.0187,17
1604669063.0206,-440
1604669063.0226,-277
1604669063.0248,-72
1604669063.0266,-97
1604669063.0286,-102
1604669063.0306,-87
1604669063.0327,-119
1604669063.0346,-85
1604669063.0366,-2
1604669063.0387,-19
1604669063.0406,-102
1604669063.0426,-143
1604669063.0432,-109
1604669063.0446,9
1604669063.0466,60
1604669063.0487,14
1604669063.0506,46
1604669063.4866,77
1604669063.4875,43
1604669063.4900,34
1604669063.4926,48
1604669063.4948,63
1604669063.4966,77
1604669063.4985,85
1604669063.5005,77
1604669063.5025,21
1604669063.5032,-19
1604669063.5045,-21
1604669063.5066,-53
1604669063.5085,-46
1604669063.5106,-9
1604669063.5125,-4
1604669063.5145,-4
1604669063.5165,-34
1604669063.5186,-90
1604669063.5205,-158
1604669063.5225,-153
1604669063.5245,-41
1604669063.5265,-21
1604669063.5285,-102
1604669063.5305,-85
1604669063.5325,19
1604669063.5331,55
1604669063.5345,-9
1604669063.5365,-21
1604669063.5385,19
1604669063.5405,0
1604669063.5425,-41
1604669063.5445,-36
1604669063.5465,7
1604669063.5485,29
1604669063.5505,17
1604669063.5525,-31
1604669063.5545,-63
1604669063.5565,-4
1604669063.5585,0
1604669063.5605,-65
1604669063.5625,-53
1604669063.5631,-14
1604669063.5644,-34
1604669063.5665,-68
1604669063.5685,-72
1604669063.5705,-48
1604669063.5725,-53
1604669063.5745,-58
1604669063.5765,85
1604669063.5785,360
1604669063.5805,615
1604669063.5825,771
1604669063.5845,552
1604669063.5865,-90
1604669063.5885,-408
1604669063.5906,-194
1604669063.5925,-68
1604669063.5931,-99
1604669063.5945,-87
1604669063.5965,-121
1604669063.5985,-148
1604669063.6005,-87
1604669063.6025,-63
1604669063.6045,-102
1604669063.6065,-65
1604669063.6085,-12
1604669063.6105,-55
1604669063.6125,-131
1604669063.6144,-90
1604669063.6165,19
1604669063.6185,26
1604669063.6205,-9
1604669063.6225,0
1604669064.0266,21
1604669064.0274,36
1604669064.0298,43
1604669064.0325,34
1604669064.0345,29
1604669064.0358,55
1604669064.0375,55
1604669064.0395,-29
1604669064.0415,-85
1604669064.0434,-53
1604669064.0454,-63
1604669064.0474,-90
1604669064.0494,-68
1604669064.0514,-53
1604669064.0520,-51
1604669064.0534,-51
1604669064.0554,-87
1604669064.0574,-99
1604669064.0594,-77
1604669064.0614,-104
1604669064.0634,-121
1604669064.0654,-58
1604669064.0674,4
1604669064.0694,-48
1604669064.0714,-92
1604669064.0734,-9
1604669064.0754,34
1604669064.0774,-17
1604669064.0794,-55
1604669064.0814,-38
1604669064.0820,-4
1604669064.0834,4
1604669064.0854,4
1604669064.0876,17
1604669064.0894,24
1604669064.0914,29
1604669064.0934,38
1604669064.0953,29
1604669064.0973,29
1604669064.0994,31
1604669064.1013,-4
1604669064.1033,-34
1604669064.1053,-43
1604669064.1073,-36
1604669064.1093,2
1604669064.1114,-2
1604669064.1120,-34
1604669064.1134,-38
1604669064.1154,-53
1604669064.1174,-70
1604669064.1194,34
1604669064.1213,289
1604669064.1233,576
1604669064.1254,829
1604669064.1274,613
1604669064.1293,-172
1604669064.1314,-472
1604669064.1333,-136
1604669064.1354,-90
1604669064.1374,-216
1604669064.1393,-124
1604669064.1414,-85
1604669064.1420,-155
1604669064.1433,-121
1604669064.1453,-48
1604669064.1474,-75
1604669064.1494,-75
1604669064.1513,-31
1604669064.1533,-60
1604669064.1553,-72
1604669064.1573,-12
1604669064.1594,2
1604669064.1613,-51
1604669064.5968,-46
1604669064.5981,34
1604669064.6006,55
1604669064.6016,24
1604669064.6031,82
1604669064.6051,128
1604669064.6073,41
1604669064.6091,-2
1604669064.6111,43
1604669064.6131,38
1604669064.6151,21
1604669064.6175,24
1604669064.6192,-17
1604669064.6211,-43
1604669064.6231,-2
1604669064.6251,36
1604669064.6271,4
1604669064.6290,-77
1604669064.6311,-94
1604669064.6316,-46
1604669064.6331,-63
1604669064.6350,-87
1604669064.6370,29
1604669064.6391,72
1604669064.6410,-53
1604669064.6430,-41
1604669064.6451,24
1604669064.6471,-46
1604669064.6490,-63
1604669064.6510,-46
1604669064.6530,-111
1604669064.6550,-72
1604669064.6570,65
1604669064.6590,70
1604669064.6610,38
1604669064.6616,41
1604669064.6630,-63
1604669064.6650,-131
1604669064.6670,-65
1604669064.6691,-43
1604669064.6710,-12
1604669064.6730,119
1604669064.6750,70
1604669064.6770,-133
1604669064.6790,-107
1604669064.6810,92
1604669064.6830,77
1604669064.6850,-43
1604669064.6870,19
1604669064.6890,19
1604669064.6910,-104
1604669064.6916,-114
1604669064.6930,-63
1604669064.6950,-70
1604669064.6971,-68
1604669064.6990,-36
1604669064.7010,-60
1604669064.7030,-119
1604669064.7050,-80
1604669064.7070,-4
1604669064.7090,38
1604669064.7110,291
1604669064.7131,749
1604669064.7150,912
1604669064.7171,423
1604669064.7190,-253
1604669064.7211,-391
1604669064.7216,-182
1604669064.7230,-175
1604669064.7250,-201
1604669064.7270,-94
1604669064.7290,-77
1604669064.7310,-94
1604669065.1359,-55
1604669065.1365,-55
1604669065.1384,-68
1604669065.1404,-58
1604669065.1424,-26
1604669065.1443,-21
1604669065.1464,-55
1604669065.1546,-38
1604669065.1563,-14
1604669065.1583,-41
1604669065.1603,-14
1604669065.1623,34
1604669065.1644,12
1604669065.1664,34
1604669065.1683,70
1604669065.1703,51
1604669065.1724,77
1604669065.1743,70
1604669065.1763,-24
1604669065.1783,-77
1604669065.1803,-87
1604669065.1823,-107
1604669065.1829,-41
1604669065.1843,87
1604669065.1863,29
1604669065.1884,-124
1604669065.1903,-121
1604669065.1923,-70
1604669065.1943,-55
1604669065.1963,-17
1604669065.1983,-7
1604669065.2003,-68
1604669065.2023,-90
1604669065.2043,-60
1604669065.2063,-63
1604669065.2083,-92
1604669065.2103,-124
1604669065.2123,-75
1604669065.2129,68
1604669065.2143,87
1604669065.2165,-2
1604669065.2184,-7
1604669065.2203,19
1604669065.2223,0
1604669065.2243,-43
1604669065.2263,-109
1604669065.2283,-109
1604669065.2303,36
1604669065.2323,116
1604669065.2343,12
1604669065.2363,-43
1604669065.2383,19
1604669065.2403,31
1604669065.2423,-7
1604669065.2430,-36
1604669065.2443,-34
1604669065.2463,12
1604669065.2483,-7
1604669065.2503,-65
1604669065.2523,31
1604669065.2543,97
1604669065.2563,-19
1604669065.2583,-26
1604669065.2603,46
1604669065.2623,-51
1604669065.2644,-121
1604669065.2663,-41
1604669065.2683,-9
1604669065.2703,-34
1604669065.2723,-24
1604669065.2731,9
1604669065.2743,72
1604669065.2763,177
1604669065.7066,369
1604669065.7074,647
1604669065.7099,764
1604669065.7125,386
1604669065.7145,-228
1604669065.7165,-396
1604669065.7186,-143
1604669065.7205,-12
1604669065.7225,-90
1604669065.7245,-180
1604669065.7265,-145
1604669065.7285,-34
1604669065.7291,0
1604669065.7304,2
1604669065.7324,12
1604669065.7344,-4
1604669065.7364,0
1604669065.7385,19
1604669065.7406,17
1604669065.7425,26
1604669065.7444,46
1604669065.7464,-4
1604669065.7484,-58
1604669065.7504,41
1604669065.7524,138
1604669065.7544,116
1604669065.7564,80
1604669065.7584,75
1604669065.7591,121
1604669065.7604,143
1604669065.7624,41
1604669065.7644,-38
1604669065.7664,17
1604669065.7685,41
1604669065.7704,21
1604669065.7724,58
1604669065.7744,48
1604669065.7764,-4
1604669065.7784,-31
1604669065.7804,-29
1604669065.7824,-4
1604669065.7844,-14
1604669065.7864,-43
1604669065.7884,-87
1604669065.7890,-97
1604669065.7904,4
1604669065.7924,38
1604669065.7944,-31
1604669065.7964,-34
1604669065.7984,0
1604669065.8004,-41
1604669065.8024,-114
1604669065.8044,-75
1604669065.8064,34
1604669065.8084,41
1604669065.8104,-48
1604669065.8124,-82
1604669065.8144,-31
1604669065.8164,-21
1604669065.8185,-85
1604669065.8190,-119
1604669065.8204,-72
1604669065.8224,-29
1604669065.8244,-99
1604669065.8264,-189
1604669065.8284,-87
1604669065.8304,107
1604669065.8324,87
1604669065.8344,-60
1604669065.8365,-34
1604669065.8384,9
1604669065.8404,-87
1604669065.8424,-119
1604669066.3062,-58
1604669066.3070,-17
1604669066.3094,-4
1604669066.3120,-63
1604669066.3141,-141
1604669066.3161,-82
1604669066.3182,2
1604669066.3201,-38
1604669066.3220,9
1604669066.3240,274
1604669066.3261,639
1604669066.3281,900
1604669066.3300,632
1604669066.3320,-77
1604669066.3340,-413
1604669066.3360,-214
1604669066.3380,-97
1604669066.3386,-199
1604669066.3400,-177
1604669066.3421,-36
1604669066.3440,-68
1604669066.3460,-99
1604669066.3480,43
1604669066.3500,48
1604669066.3520,-60
1604669066.3541,-34
1604669066.3560,21
1604669066.3580,9
1604669066.3600,-2
1604669066.3620,2
1604669066.3640,21
1604669066.3660,34
1604669066.3680,7
1604669066.3686,29
1604669066.3699,111
1604669066.3719,128
1604669066.3739,90
1604669066.3760,102
1604669066.3780,90
1604669066.3800,17
1604669066.3820,63
1604669066.3840,124
1604669066.3859,-2
1604669066.3880,-51
1604669066.3900,31
1604669066.3920,2
1604669066.3939,-114
1604669066.3961,-119
1604669066.3980,-34
1604669066.3986,-58
1604669066.4000,-85
1604669066.4020,-36
1604669066.4039,-80
1604669066.4060,-124
1604669066.4080,-65
1604669066.4100,-38
1604669066.4120,-53
1604669066.4140,-53
1604669066.4159,-63
1604669066.4180,-65
1604669066.4200,-26
1604669066.4219,14
1604669066.4240,-41
1604669066.4260,-109
1604669066.4280,-41
1604669066.4286,-26
1604669066.4299,-77
1604669066.4320,14
1604669066.4339,68
1604669066.4359,-34
1604669066.4380,-92
1604669066.4399,-102
1604669066.4419,-92
1604669066.9066,43
1604669066.9075,124
1604669066.9099,2
1604669066.9125,-63
1604669066.9146,-26
1604669066.9165,-82
1604669066.9186,-111
1604669066.9192,-29
1604669066.9205,-17
1604669066.9226,-43
1604669066.9245,-60
1604669066.9265,-107
1604669066.9285,-87
1604669066.9305,-29
1604669066.9325,128
1604669066.9345,481
1604669066.9365,829
1604669066.9385,873
1604669066.9405,367
1604669066.9426,-379
1604669066.9445,-605
1604669066.9465,-306
1604669066.9485,-87
1604669066.9491,-148
1604669066.9504,-177
1604669066.9528,-41
1604669066.9545,-19
1604669066.9565,-92
1604669066.9585,-77
1604669066.9604,-80
1604669066.9625,-102
1604669066.9644,-51
1604669066.9665,-4
1604669066.9685,2
1604669066.9705,9
1604669066.9724,4
1604669066.9745,2
1604669066.9764,26
1604669066.9785,60
1604669066.9791,63
1604669066.9804,58
1604669066.9826,65
1604669066.9845,75
1604669066.9864,131
1604669066.9885,148
1604669066.9905,63
1604669066.9924,-7
1604669066.9944,-19
1604669066.9965,4
1604669066.9985,24
1604669067.0007,-34
1604669067.0025,-109
1604669067.0044,-97
1604669067.0064,-68
1604669067.0084,-104
1604669067.0090,-138
1604669067.0105,-126
1604669067.0124,-111
1604669067.0145,-131
1604669067.0164,-104
1604669067.0185,-60
1604669067.0205,-75
1604669067.0224,-68
1604669067.0244,-70
1604669067.0264,-97
1604669067.0285,-68
1604669067.0304,-41
1604669067.0324,-55
1604669067.0344,-80
1604669067.0364,-65
1604669067.0384,-36
1604669067.0390,-65
1604669067.0404,-109
1604669067.3864,-51
1604669067.3870,36
1604669067.3894,14
1604669067.3922,-26
1604669067.3941,9
1604669067.3961,12
1604669067.3981,-82
1604669067.4000,-114
1604669067.4020,-41
1604669067.4040,-63
1604669067.4060,-148
1604669067.4080,-80
1604669067.4086,-26
1604669067.4100,-90
1604669067.4120,-58
1604669067.4140,-21
1604669067.4161,-51
1604669067.4181,48
1604669067.4201,355
1604669067.4220,744
1604669067.4240,883
1604669067.4260,379
1604669067.4280,-326
1604669067.4300,-416
1604669067.4320,-155
1604669067.4340,-143
1604669067.4360,-209
1604669067.4380,-221
1604669067.4386,-175
1604669067.4400,-31
1604669067.4420,-77
1604669067.4440,-165
1604669067.4460,-53
1604669067.4480,-38
1604669067.4500,-143
1604669067.4520,-160
1604669067.4540,-58
1604669067.4560,29
1604669067.4580,7
1604669067.4600,58
1604669067.4620,104
1604669067.4640,-46
1604669067.4660,-160
1604669067.4680,-55
1604669067.4686,55
1604669067.4700,94
1604669067.4720,94
1604669067.4740,7
1604669067.4760,-2
1604669067.4780,68
1604669067.4800,-2
1604669067.4820,-94
1604669067.4840,-53
1604669067.4860,-26
1604669067.4883,-90
1604669067.4900,-111
1604669067.4920,-99
1604669067.4940,-124
1604669067.4960,-163
1604669067.4980,-187
1604669067.4986,-160
1604669067.5000,-148
1604669067.5020,-163
1604669067.5040,-136
1604669067.5060,-126
1604669067.5080,-114
1604669067.5100,-87
1604669067.5120,-145
1604669067.5140,-131
1604669067.5160,-65
1604669067.5181,-148
1604669067.5200,-182
1604669067.5220,-77
1604669067.9568,-34
1604669067.9578,-90
1604669067.9602,-102
1604669067.9613,-55
1604669067.9628,-70
1604669067.9648,-107
1604669067.9668,-82
1604669067.9690,-70
1604669067.9708,-114
1604669067.9728,-116
1604669067.9748,-38
1604669067.9768,-36
1604669067.9787,-119
1604669067.9808,-109
1604669067.9827,-104
1604669067.9847,-141
1604669067.9867,-126
1604669067.9887,-128
1604669067.9908,-75
1604669067.9914,38
1604669067.9928,167
1604669067.9947,469
1604669067.9967,873
1604669067.9987,875
1604669068.0007,204
1604669068.0028,-459
1604669068.0048,-401
1604669068.0067,-109
1604669068.0087,-136
1604669068.0107,-187
1604669068.0127,-114
1604669068.0147,-99
1604669068.0169,-104
1604669068.0187,-68
1604669068.0207,-48
1604669068.0213,-41
1604669068.0227,-29
1604669068.0247,-9
1604669068.0267,-12
1604669068.0288,-41
1604669068.0307,-36
1604669068.0327,-34
1604669068.0347,7
1604669068.0367,104
1604669068.0387,99
1604669068.0407,41
1604669068.0427,51
1604669068.0447,111
1604669068.0467,145
1604669068.0487,85
1604669068.0507,38
1604669068.0513,75
1604669068.0527,43
1604669068.0547,-38
1604669068.0567,7
1604669068.0587,65
1604669068.0607,-17
1604669068.0628,-77
1604669068.0647,-60
1604669068.0667,-60
1604669068.0687,-82
1604669068.0707,-94
1604669068.0727,-80
1604669068.0747,-77
1604669068.0767,-119
1604669068.0787,-97
1604669068.0807,-2
1604669068.0813,-34
1604669068.0827,-119
1604669068.0847,-75
1604669068.0867,-17
1604669068.0887,-36
1604669068.0907,-92
1604669068.4966,-90
1604669068.4975,-19
1604669068.4999,-26
1604669068.5025,-97
1604669068.5045,-65
1604669068.5065,9
1604669068.5085,-4
1604669068.5091,-48
1604669068.5105,-31
1604669068.5125,-17
1604669068.5147,-34
1604669068.5165,-48
1604669068.5185,-60
1604669068.5205,-94
1604669068.5225,-107
1604669068.5245,-51
1604669068.5265,-43
1604669068.5285,-75
1604669068.5305,-36
1604669068.5325,-53
1604669068.5345,-107
1604669068.5365,-38
1604669068.5386,116
1604669068.5391,391
1604669068.5404,807
1604669068.5424,946
1604669068.5445,406
1604669068.5465,-321
1604669068.5485,-450
1604669068.5504,-206
1604669068.5524,-158
1604669068.5545,-209
1604669068.5564,-119
1604669068.5584,-9
1604669068.5604,-29
1604669068.5624,-80
1604669068.5645,-80
1604669068.5664,-48
1604669068.5684,-2
1604669068.5690,-29
1604669068.5705,-58
1604669068.5724,-12
1604669068.5744,-17
1604669068.5764,-38
1604669068.5785,48
1604669068.5805,111
1604669068.5824,38
1604669068.5844,-34
1604669068.5864,31
1604669068.5885,109
1604669068.5905,102
1604669068.5925,75
1604669068.5944,72
1604669068.5964,87
1604669068.5985,65
1604669068.5990,7
1604669068.6004,-48
1604669068.6025,-90
1604669068.6044,-92
1604669068.6064,-53
1604669068.6084,-63
1604669068.6106,-126
1604669068.6125,-131
1604669068.6145,-90
1604669068.6164,-114
1604669068.6185,-160
1604669068.6204,-136
1604669068.6224,-97
1604669068.6244,-72
1604669068.6264,-38
1604669068.6270,-68
1604669068.6284,-138
1604669068.6304,-77
1604669069.0662,9
1604669069.0671,-38
1604669069.0695,-128
1604669069.0721,-104
1604669069.0741,0
1604669069.0761,-24
1604669069.0783,-85
1604669069.0801,-29
1604669069.0821,-26
1604669069.0842,-68
1604669069.0861,-12
1604669069.0882,9
1604669069.0901,-92
1604669069.0907,-141
1604669069.0921,-4
1604669069.0941,87
1604669069.0961,-36
1604669069.0981,-114
1604669069.1001,-58
1604669069.1021,-51
1604669069.1041,-107
1604669069.1061,-102
1604669069.1081,-60
1604669069.1100,-58
1604669069.1120,-65
1604669069.1141,-68
1604669069.1160,65
1604669069.1181,459
1604669069.1200,907
1604669069.1207,919
1604669069.1221,306
1604669069.1241,-362
1604669069.1261,-467
1604669069.1281,-231
1604669069.1300,-136
1604669069.1320,-126
1604669069.1340,-82
1604669069.1360,-114
1604669069.1381,-172
1604669069.1402,-126
1604669069.1421,-36
1604669069.1440,-12
1604669069.1460,-29
1604669069.1481,-51
1604669069.1500,-38
1604669069.1507,4
1604669069.1520,-2
1604669069.1540,-51
1604669069.1560,-41
1604669069.1580,48
1604669069.1600,70
1604669069.1620,34
1604669069.1640,53
1604669069.1661,107
1604669069.1680,119
1604669069.1700,34
1604669069.1720,-21
1604669069.1741,58
1604669069.1760,114
1604669069.1780,68
1604669069.1800,43
1604669069.1807,-9
1604669069.1820,-116
1604669069.1840,-163
1604669069.1860,-150
1604669069.1881,-87
1604669069.1900,-9
1604669069.1920,-38
1604669069.1940,-119
1604669069.1960,-119
1604669069.1981,-82
1604669069.2000,-90
1604669069.2020,-111
1604669069.6666,-131
1604669069.6676,-150
1604669069.6692,-104
1604669069.6717,-34
1604669069.6737,-53
1604669069.6757,-77
1604669069.6777,-63
1604669069.6798,-72
1604669069.6817,-75
1604669069.6837,-97
1604669069.6857,-148
1604669069.6878,-121
1604669069.6897,-58
1604669069.6917,-60
1604669069.6937,-43
1604669069.6957,-14
1604669069.6977,-48
1604669069.6998,-68
1604669069.7003,-38
1604669069.7016,-65
1604669069.7037,-124
1604669069.7056,-85
1604669069.7076,-12
1604669069.7096,-21
1604669069.7116,-94
1604669069.7136,-107
1604669069.7158,-55
1604669069.7177,-63
1604669069.7196,-107
1604669069.7216,-82
1604669069.7236,-9
1604669069.7256,109
1604669069.7277,391
1604669069.7296,764
1604669069.7302,902
1604669069.7316,508
1604669069.7336,-197
1604669069.7356,-484
1604669069.7376,-277
1604669069.7396,-111
1604669069.7417,-97
1604669069.7436,-131
1604669069.7456,-99
1604669069.7476,-31
1604669069.7496,-80
1604669069.7516,-131
1604669069.7536,-90
1604669069.7556,-53
1604669069.7576,-46
1604669069.7596,-17
1604669069.7602,-19
1604669069.7616,-19
1604669069.7636,75
1604669069.7656,70
1604669069.7677,-29
1604669069.7696,24
1604669069.7716,114
1604669069.7736,65
1604669069.7756,41
1604669069.7776,63
1604669069.7796,53
1604669069.7816,116
1604669069.7836,158
1604669069.7856,82
1604669069.7876,55
1604669069.7896,48
1604669069.7902,-31
1604669069.7917,-99
1604669069.7937,-77
1604669069.7956,-38
1604669069.7976,-85
1604669069.7996,-126
1604669069.8016,-90
1604669070.2065,-70
1604669070.2072,-70
1604669070.2096,-53
1604669070.2122,-58
1604669070.2142,-87
1604669070.2162,-143
1604669070.2183,-126
1604669070.2202,-21
1604669070.2222,-46
1604669070.2242,-99
1604669070.2249,-19
1604669070.2262,-14
1604669070.2283,-114
1604669070.2302,-102
1604669070.2322,0
1604669070.2343,-12
1604669070.2362,-77
1604669070.2383,-77
1604669070.2402,-65
1604669070.2422,-51
1604669070.2442,-43
1604669070.2462,-29
1604669070.2483,19
1604669070.2502,14
1604669070.2522,-14
1604669070.2542,-14
1604669070.2554,-68
1604669070.2572,-111
1604669070.2592,-21
1604669070.2612,29
1604669070.2632,-43
1604669070.2653,-72
1604669070.2672,-46
1604669070.2692,-72
1604669070.2712,-97
1604669070.2732,-53
1604669070.2752,-29
1604669070.2773,34
1604669070.2792,333
1604669070.2812,771
1604669070.2832,987
1604669070.2838,637
1604669070.2852,-114
1604669070.2872,-530
1604669070.2892,-347
1604669070.2912,-87
1604669070.2934,-55
1604669070.2952,-94
1604669070.2972,-92
1604669070.2992,-80
1604669070.3012,-80
1604669070.3032,-60
1604669070.3052,-2
1604669070.3072,14
1604669070.3092,-31
1604669070.3112,-14
1604669070.3132,38
1604669070.3138,53
1604669070.3152,29
1604669070.3173,-9
1604669070.3193,48
1604669070.3212,126
1604669070.3232,87
1604669070.3252,46
1604669070.3272,102
1604669070.3292,165
1604669070.3312,126
1604669070.3332,58
1604669070.3352,109
1604669070.3373,153
1604669070.3392,68
1604669070.3412,34
1604669070.3432,38
1604669070.7761,-68
1604669070.7769,-85
1604669070.7794,24
1604669070.7820,-26
1604669070.7840,-116
1604669070.7860,-82
1604669070.7881,-63
1604669070.7900,-80
1604669070.7920,-102
1604669070.7940,-104
1604669070.7960,-75
1604669070.7981,-75
1604669070.8000,-65
1604669070.8019,-43
1604669070.8039,-68
1604669070.8059,-58
1604669070.8066,-24
1604669070.8079,-72
1604669070.8100,-85
1604669070.8120,-9
1604669070.8140,2
1604669070.8159,-24
1604669070.8180,-31
1604669070.8199,-41
1604669070.8222,-24
1604669070.8240,-7
1604669070.8259,-29
1604669070.8279,-70
1604669070.8299,-72
1604669070.8320,7
1604669070.8339,41
1604669070.8360,-29
1604669070.8366,-53
1604669070.8379,-9
1604669070.8399,2
1604669070.8419,-21
1604669070.8440,-41
1604669070.8459,-26
1604669070.8480,-26
1604669070.8499,-65
1604669070.8520,-72
1604669070.8540,-51
1604669070.8560,-34
1604669070.8580,-4
1604669070.8599,60
1604669070.8619,277
1604669070.8639,681
1604669070.8659,1004
1604669070.8665,766
1604669070.8679,-19
1604669070.8699,-474
1604669070.8719,-272
1604669070.8739,-104
1604669070.8759,-148
1604669070.8779,-82
1604669070.8799,-34
1604669070.8819,-111
1604669070.8839,-97
1604669070.8859,0
1604669070.8879,2
1604669070.8899,-31
1604669070.8919,-9
1604669070.8939,51
1604669070.8959,58
1604669070.8965,4
1604669070.8979,0
1604669070.8999,26
1604669070.9019,41
1604669070.9039,94
1604669070.9059,111
1604669070.9079,75
1604669070.9099,128
1604669070.9119,177
1604669071.3160,133
1604669071.3166,116
1604669071.3193,133
1604669071.3216,121
1604669071.3236,68
1604669071.3242,63
1604669071.3256,85
1604669071.3276,26
1604669071.3296,-43
1604669071.3316,-70
1604669071.3336,-90
1604669071.3356,-65
1604669071.3376,-21
1604669071.3396,-60
1604669071.3416,-136
1604669071.3436,-133
1604669071.3456,-63
1604669071.3477,-48
1604669071.3496,-80
1604669071.3516,-60
1604669071.3536,-41
1604669071.3542,-65
1604669071.3556,-51
1604669071.3576,-19
1604669071.3596,-41
1604669071.3616,-72
1604669071.3636,-58
1604669071.3656,-19
1604669071.3676,0
1604669071.3696,-38
1604669071.3716,-82
1604669071.3736,-36
1604669071.3756,9
1604669071.3776,-38
1604669071.3796,-94
1604669071.3816,-90
1604669071.3836,-29
1604669071.3842,17
1604669071.3856,-21
1604669071.3876,-87
1604669071.3896,-82
1604669071.3916,-2
1604669071.3936,9
1604669071.3956,-94
1604669071.3976,-70
1604669071.3996,80
1604669071.4016,51
1604669071.4036,-92
1604669071.4056,-126
1604669071.4076,-60
1604669071.4096,-92
1604669071.4116,-160
1604669071.4136,-14
1604669071.4143,26
1604669071.4156,-121
1604669071.4176,155
1604669071.4196,744
1604669071.4216,961
1604669071.4236,700
1604669071.4256,104
1604669071.4276,-394
1604669071.4296,-316
1604669071.4316,-90
1604669071.4336,-126
1604669071.4356,-199
1604669071.4376,-155
1604669071.4396,-80
1604669071.4416,-53
1604669071.4436,-70
1604669071.4442,-104
1604669071.4456,-51
1604669071.4476,111
1604669071.4496,94
1604669071.8865,-38
1604669071.8873,-48
1604669071.8897,-53
1604669071.8924,-63
1604669071.8944,14
1604669071.8964,55
1604669071.8985,-14
1604669071.9004,12
1604669071.9024,177
1604669071.9044,165
1604669071.9064,-2
1604669071.9070,24
1604669071.9083,165
1604669071.9103,58
1604669071.9123,-138
1604669071.9143,-107
1604669071.9163,-87
1604669071.9183,-148
1604669071.9203,-26
1604669071.9223,31
1604669071.9244,-109
1604669071.9263,-77
1604669071.9284,41
1604669071.9303,-60
1604669071.9323,-189
1604669071.9344,-158
1604669071.9363,-128
1604669071.9370,-167
1604669071.9383,-121
1604669071.9403,48
1604669071.9423,143
1604669071.9445,21
1604669071.9463,-85
1604669071.9483,-41
1604669071.9503,-80
1604669071.9523,-177
1604669071.9543,-104
1604669071.9563,38
1604669071.9583,82
1604669071.9603,24
1604669071.9623,-41
1604669071.9643,-53
1604669071.9663,-102
1604669071.9670,-43
1604669071.9683,148
1604669071.9703,119
1604669071.9723,-19
1604669071.9743,19
1604669071.9763,48
1604669071.9783,14
1604669071.9803,53
1604669071.9823,24
1604669071.9843,-94
1604669071.9863,-14
1604669071.9883,136
1604669071.9903,29
1604669071.9923,-90
1604669071.9943,17
1604669071.9963,87
1604669071.9970,4
1604669071.9983,-29
1604669072.0004,-9
1604669072.0023,-46
1604669072.0043,-17
1604669072.0063,180
1604669072.0083,571
1604669072.0103,990
1604669072.0123,992
1604669072.0143,408
1604669072.0163,-250
1604669072.0183,-364
1604669072.0203,-116
1604669072.0222,-38
