Time,ECG
1604061758.3983,5255
1604061758.4009,6024
1604061758.4035,6938
1604061758.4059,7687
1604061758.4079,8179
1604061758.4099,8686
1604061758.4119,9152
1604061758.4139,9491
1604061758.4161,9804
1604061758.4181,10105
1604061758.4201,10340
1604061758.4223,10546
1604061758.4243,10748
1604061758.4259,10917
1604061758.4279,11063
1604061758.4299,11191
1604061758.4319,11308
1604061758.4339,11419
1604061758.4359,11516
1604061758.4379,11592
1604061758.4399,11650
1604061758.4419,11706
1604061758.4439,11774
1604061758.4459,11851
1604061758.4479,11909
1604061758.4499,11926
1604061758.4519,11931
1604061758.4539,11938
1604061758.4558,11953
1604061758.4578,11968
1604061758.4598,11975
1604061758.4618,11980
1604061758.4638,11989
1604061758.4658,11994
1604061758.4678,12009
1604061758.4698,12106
1604061758.4719,12370
1604061758.4738,12756
1604061758.4758,13044
1604061758.4778,12981
1604061758.4798,12508
1604061758.4818,11871
1604061758.4838,11480
1604061758.4859,11499
1604061758.4878,11618
1604061758.4898,11558
1604061758.4919,11475
1604061758.4938,11492
1604061758.4958,11482
1604061758.4978,11429
1604061758.5010,11407
1604061758.5019,11388
1604061758.5037,11332
1604061758.5058,11279
1604061758.5078,11252
1604061758.5097,11228
1604061758.5117,11191
1604061758.5137,11150
1604061758.5157,11109
1604061758.5178,11077
1604061758.5198,11046
1604061758.5217,11000
1604061758.5238,10954
1604061758.5258,10900
1604061758.5278,10825
1604061758.5297,10740
1604061758.5317,10660
1604061758.5337,10588
1604061758.5358,10510
1604061758.5377,10411
1604061758.5397,10299
1604061758.5417,10190
1604061758.5437,10081
1604061758.9057,9974
1604061758.9067,9889
1604061758.9091,9809
1604061758.9117,9722
1604061758.9137,9644
1604061758.9157,9584
1604061758.9178,9525
1604061758.9197,9467
1604061758.9217,9407
1604061758.9237,9351
1604061758.9258,9297
1604061758.9277,9227
1604061758.9297,9154
1604061758.9317,9103
1604061758.9337,9053
1604061758.9357,8965
1604061758.9376,8861
1604061758.9396,8786
1604061758.9417,8720
1604061758.9436,8635
1604061758.9457,8551
1604061758.9476,8480
1604061758.9496,8410
1604061758.9516,8330
1604061758.9537,8255
1604061758.9556,8184
1604061758.9576,8114
1604061758.9596,8036
1604061758.9618,7964
1604061758.9637,7896
1604061758.9656,7833
1604061758.9676,7757
1604061758.9696,7663
1604061758.9716,7595
1604061758.9736,7537
1604061758.9756,7459
1604061758.9776,7384
1604061758.9796,7321
1604061758.9816,7248
1604061758.9836,7175
1604061758.9857,7115
1604061758.9876,7040
1604061758.9896,6962
1604061758.9916,6914
1604061758.9936,6882
1604061758.9956,6826
1604061758.9977,6741
1604061758.9996,6659
1604061759.0016,6586
1604061759.0036,6521
1604061759.0056,6448
1604061759.0076,6378
1604061759.0096,6319
1604061759.0116,6259
1604061759.0137,6196
1604061759.0156,6164
1604061759.0176,6193
1604061759.0196,6348
1604061759.0216,6642
1604061759.0236,6901
1604061759.0257,6901
1604061759.0276,6499
1604061759.0296,5844
1604061759.0316,5364
1604061759.0336,5291
1604061759.0356,5381
1604061759.0376,5325
1604061759.0396,5218
1604061759.0416,5206
1604061759.0436,5182
1604061759.0456,5117
1604061759.0476,5073
1604061759.0496,5041
1604061759.5059,4995
1604061759.5069,4944
1604061759.5094,4901
1604061759.5120,4862
1604061759.5140,4828
1604061759.5160,4789
1604061759.5183,4755
1604061759.5200,4726
1604061759.5220,4687
1604061759.5240,4639
1604061759.5260,4602
1604061759.5280,4568
1604061759.5300,4510
1604061759.5320,4442
1604061759.5340,4377
1604061759.5360,4311
1604061759.5381,4243
1604061759.5401,4171
1604061759.5421,4091
1604061759.5440,3999
1604061759.5459,3899
1604061759.5479,3819
1604061759.5499,3749
1604061759.5520,3688
1604061759.5540,3630
1604061759.5559,3574
1604061759.5579,3526
1604061759.5600,3497
1604061759.5619,3465
1604061759.5639,3436
1604061759.5660,3414
1604061759.5679,3383
1604061759.5699,3344
1604061759.5720,3310
1604061759.5739,3276
1604061759.5760,3237
1604061759.5780,3198
1604061759.5799,3159
1604061759.5819,3116
1604061759.5839,3075
1604061759.5860,3033
1604061759.5879,2990
1604061759.5900,2951
1604061759.5919,2910
1604061759.5939,2866
1604061759.5959,2830
1604061759.5979,2791
1604061759.5999,2750
1604061759.6019,2716
1604061759.6039,2682
1604061759.6059,2650
1604061759.6079,2619
1604061759.6099,2585
1604061759.6119,2556
1604061759.6139,2526
1604061759.6159,2490
1604061759.6179,2451
1604061759.6201,2427
1604061759.6220,2408
1604061759.6239,2369
1604061759.6259,2328
1604061759.6279,2318
1604061759.6299,2330
1604061759.6319,2315
1604061759.6339,2279
1604061759.6359,2243
1604061759.6379,2204
1604061759.6399,2163
1604061759.6419,2136
1604061759.6439,2119
1604061759.6459,2095
1604061759.6479,2071
1604061759.6499,2051
1604061760.0156,2049
1604061760.0164,2097
1604061760.0189,2272
1604061760.0215,2599
1604061760.0235,2931
1604061760.0255,3043
1604061760.0275,2750
1604061760.0294,2151
1604061760.0314,1651
1604061760.0334,1530
1604061760.0356,1653
1604061760.0374,1685
1604061760.0394,1615
1604061760.0414,1607
1604061760.0434,1619
1604061760.0454,1603
1604061760.0474,1607
1604061760.0494,1619
1604061760.0514,1605
1604061760.0534,1588
1604061760.0554,1588
1604061760.0574,1586
1604061760.0594,1588
1604061760.0614,1595
1604061760.0634,1595
1604061760.0654,1595
1604061760.0674,1603
1604061760.0694,1615
1604061760.0714,1617
1604061760.0734,1603
1604061760.0754,1583
1604061760.0774,1564
1604061760.0794,1535
1604061760.0814,1506
1604061760.0834,1479
1604061760.0856,1447
1604061760.0875,1396
1604061760.0894,1333
1604061760.0914,1278
1604061760.0934,1234
1604061760.0954,1195
1604061760.0974,1161
1604061760.0994,1132
1604061760.1014,1113
1604061760.1034,1105
1604061760.1054,1101
1604061760.1074,1098
1604061760.1094,1105
1604061760.1114,1105
1604061760.1134,1101
1604061760.1154,1098
1604061760.1174,1096
1604061760.1194,1091
1604061760.1214,1079
1604061760.1235,1064
1604061760.1254,1052
1604061760.1274,1035
1604061760.1294,1018
1604061760.1314,1004
1604061760.1334,991
1604061760.1354,977
1604061760.1374,962
1604061760.1394,950
1604061760.1414,933
1604061760.1434,916
1604061760.1454,902
1604061760.1474,890
1604061760.1494,873
1604061760.1514,868
1604061760.1534,873
1604061760.1554,858
1604061760.1574,826
1604061760.1594,814
1604061760.5860,848
1604061760.5870,865
1604061760.5895,836
1604061760.5921,822
1604061760.5941,822
1604061760.5961,807
1604061760.5981,790
1604061760.6001,780
1604061760.6021,776
1604061760.6041,773
1604061760.6060,763
1604061760.6080,768
1604061760.6100,809
1604061760.6122,933
1604061760.6141,1231
1604061760.6160,1639
1604061760.6180,1901
1604061760.6200,1787
1604061760.6220,1258
1604061760.6240,625
1604061760.6260,351
1604061760.6280,468
1604061760.6300,577
1604061760.6320,533
1604061760.6340,533
1604061760.6361,577
1604061760.6380,567
1604061760.6400,565
1604061760.6420,594
1604061760.6440,603
1604061760.6460,606
1604061760.6480,620
1604061760.6500,640
1604061760.6520,647
1604061760.6540,654
1604061760.6560,669
1604061760.6580,686
1604061760.6600,703
1604061760.6620,722
1604061760.6640,737
1604061760.6660,754
1604061760.6680,754
1604061760.6700,739
1604061760.6720,722
1604061760.6740,705
1604061760.6760,688
1604061760.6780,669
1604061760.6800,632
1604061760.6820,586
1604061760.6840,533
1604061760.6860,487
1604061760.6880,460
1604061760.6900,436
1604061760.6920,412
1604061760.6940,404
1604061760.6960,404
1604061760.6979,412
1604061760.7000,426
1604061760.7020,436
1604061760.7040,438
1604061760.7060,448
1604061760.7080,463
1604061760.7100,468
1604061760.7120,460
1604061760.7141,458
1604061760.7160,460
1604061760.7180,458
1604061760.7200,453
1604061760.7221,443
1604061760.7240,424
1604061760.7260,409
1604061760.7280,412
1604061760.7300,412
1604061761.1258,400
1604061761.1268,385
1604061761.1293,375
1604061761.1319,361
1604061761.1339,358
1604061761.1359,371
1604061761.1379,371
1604061761.1399,332
1604061761.1419,305
1604061761.1439,344
1604061761.1458,383
1604061761.1479,358
1604061761.1498,334
1604061761.1518,339
1604061761.1538,341
1604061761.1558,332
1604061761.1578,329
1604061761.1598,334
1604061761.1618,334
1604061761.1638,337
1604061761.1658,354
1604061761.1677,392
1604061761.1697,499
1604061761.1718,776
1604061761.1738,1183
1604061761.1758,1472
1604061761.1778,1433
1604061761.1798,996
1604061761.1818,356
1604061761.1838,-21
1604061761.1858,60
1604061761.1878,223
1604061761.1899,186
1604061761.1918,155
1604061761.1938,215
1604061761.1958,232
1604061761.1978,223
1604061761.1998,249
1604061761.2018,271
1604061761.2038,269
1604061761.2058,278
1604061761.2078,300
1604061761.2099,315
1604061761.2118,332
1604061761.2138,354
1604061761.2158,378
1604061761.2178,395
1604061761.2198,414
1604061761.2218,438
1604061761.2238,455
1604061761.2258,455
1604061761.2277,438
1604061761.2297,417
1604061761.2318,402
1604061761.2338,388
1604061761.2358,371
1604061761.2377,344
1604061761.2398,300
1604061761.2418,244
1604061761.2437,206
1604061761.2458,181
1604061761.2478,164
1604061761.2498,150
1604061761.2518,145
1604061761.2539,145
1604061761.2558,147
1604061761.2578,157
1604061761.2598,169
1604061761.2618,177
1604061761.2637,186
1604061761.2658,198
1604061761.2678,208
1604061761.2698,215
1604061761.7260,218
1604061761.7271,215
1604061761.7296,215
1604061761.7322,215
1604061761.7342,208
1604061761.7362,191
1604061761.7382,181
1604061761.7402,184
1604061761.7422,181
1604061761.7442,172
1604061761.7460,169
1604061761.7481,169
1604061761.7501,169
1604061761.7521,174
1604061761.7540,174
1604061761.7561,145
1604061761.7580,128
1604061761.7600,164
1604061761.7620,203
1604061761.7641,196
1604061761.7663,181
1604061761.7680,184
1604061761.7700,181
1604061761.7722,174
1604061761.7742,177
1604061761.7761,184
1604061761.7781,181
1604061761.7800,179
1604061761.7821,194
1604061761.7841,237
1604061761.7861,356
1604061761.7881,630
1604061761.7901,1008
1604061761.7921,1273
1604061761.7941,1202
1604061761.7960,739
1604061761.7981,147
1604061761.8001,-145
1604061761.8021,-46
1604061761.8041,75
1604061761.8060,31
1604061761.8081,21
1604061761.8100,77
1604061761.8121,87
1604061761.8140,87
1604061761.8161,111
1604061761.8181,130
1604061761.8201,138
1604061761.8221,155
1604061761.8240,177
1604061761.8261,196
1604061761.8281,218
1604061761.8301,237
1604061761.8321,259
1604061761.8341,283
1604061761.8361,307
1604061761.8381,327
1604061761.8401,337
1604061761.8421,337
1604061761.8441,327
1604061761.8461,307
1604061761.8480,288
1604061761.8501,266
1604061761.8521,242
1604061761.8540,206
1604061761.8561,157
1604061761.8581,111
1604061761.8600,75
1604061761.8621,48
1604061761.8640,26
1604061761.8661,14
1604061761.8682,14
1604061761.8701,19
1604061762.2657,31
1604061762.2668,46
1604061762.2692,58
1604061762.2718,75
1604061762.2738,92
1604061762.2757,101
1604061762.2778,111
1604061762.2797,121
1604061762.2818,126
1604061762.2837,123
1604061762.2857,113
1604061762.2877,109
1604061762.2898,111
1604061762.2917,111
1604061762.2937,104
1604061762.2957,101
1604061762.2977,101
1604061762.2997,99
1604061762.3017,92
1604061762.3037,89
1604061762.3057,97
1604061762.3077,92
1604061762.3097,60
1604061762.3117,50
1604061762.3137,97
1604061762.3157,128
1604061762.3177,113
1604061762.3197,109
1604061762.3217,116
1604061762.3237,109
1604061762.3257,101
1604061762.3277,109
1604061762.3297,116
1604061762.3317,113
1604061762.3337,118
1604061762.3358,135
1604061762.3377,186
1604061762.3397,324
1604061762.3417,618
1604061762.3437,1006
1604061762.3457,1268
1604061762.3477,1161
1604061762.3497,642
1604061762.3518,55
1604061762.3537,-189
1604061762.3557,-75
1604061762.3577,24
1604061762.3597,-24
1604061762.3617,-29
1604061762.3639,26
1604061762.3658,41
1604061762.3677,46
1604061762.3697,70
1604061762.3717,82
1604061762.3738,89
1604061762.3758,106
1604061762.3778,123
1604061762.3798,140
1604061762.3818,162
1604061762.3838,184
1604061762.3858,210
1604061762.3878,237
1604061762.3898,261
1604061762.3918,278
1604061762.3938,288
1604061762.3957,288
1604061762.3977,286
1604061762.3997,278
1604061762.4017,264
1604061762.4037,247
1604061762.4057,227
1604061762.4077,198
1604061762.4097,150
1604061762.8359,99
1604061762.8370,63
1604061762.8394,33
1604061762.8420,9
1604061762.8440,2
1604061762.8459,12
1604061762.8480,14
1604061762.8500,9
1604061762.8520,16
1604061762.8540,43
1604061762.8559,65
1604061762.8579,77
1604061762.8599,84
1604061762.8619,89
1604061762.8639,101
1604061762.8660,106
1604061762.8679,104
1604061762.8699,106
1604061762.8706,111
1604061762.8719,106
1604061762.8739,101
1604061762.8759,99
1604061762.8778,89
1604061762.8799,82
1604061762.8819,84
1604061762.8839,94
1604061762.8859,84
1604061762.8880,55
1604061762.8900,48
1604061762.8919,89
1604061762.8938,123
1604061762.8959,113
1604061762.8979,104
1604061762.8999,106
1604061762.9006,104
1604061762.9019,104
1604061762.9033,106
1604061762.9049,109
1604061762.9069,116
1604061762.9089,128
1604061762.9109,143
1604061762.9129,189
1604061762.9148,339
1604061762.9169,654
1604061762.9189,1052
1604061762.9209,1295
1604061762.9229,1164
1604061762.9249,625
1604061762.9269,12
1604061762.9289,-240
1604061762.9296,-104
1604061762.9309,19
1604061762.9329,-24
1604061762.9349,-24
1604061762.9369,29
1604061762.9388,38
1604061762.9409,41
1604061762.9429,65
1604061762.9449,84
1604061762.9468,99
1604061762.9488,121
1604061762.9509,140
1604061762.9529,152
1604061762.9549,179
1604061762.9569,208
1604061762.9588,230
1604061762.9595,247
1604061762.9609,269
1604061762.9629,286
1604061762.9648,295
1604061762.9668,300
1604061762.9689,295
1604061762.9709,286
1604061763.3755,274
1604061763.3764,257
1604061763.3788,232
1604061763.3814,194
1604061763.3834,140
1604061763.3857,94
1604061763.3875,65
1604061763.3894,41
1604061763.3901,7
1604061763.3914,-14
1604061763.3934,-7
1604061763.3953,0
1604061763.3973,9
1604061763.3993,33
1604061763.4013,48
1604061763.4033,53
1604061763.4053,65
1604061763.4073,80
1604061763.4093,97
1604061763.4113,109
1604061763.4133,109
1604061763.4154,104
1604061763.4173,109
1604061763.4194,109
1604061763.4213,97
1604061763.4233,87
1604061763.4253,87
1604061763.4273,84
1604061763.4293,80
1604061763.4313,84
1604061763.4333,77
1604061763.4353,43
1604061763.4373,38
1604061763.4393,89
1604061763.4413,113
1604061763.4433,84
1604061763.4453,80
1604061763.4473,97
1604061763.4493,84
1604061763.4500,75
1604061763.4523,87
1604061763.4544,92
1604061763.4563,80
1604061763.4583,84
1604061763.4604,118
1604061763.4623,194
1604061763.4644,373
1604061763.4663,725
1604061763.4683,1117
1604061763.4703,1295
1604061763.4723,1076
1604061763.4744,487
1604061763.4763,-113
1604061763.4783,-283
1604061763.4803,-75
1604061763.4810,14
1604061763.4835,-60
1604061763.4855,-36
1604061763.4873,26
1604061763.4893,16
1604061763.4913,19
1604061763.4933,55
1604061763.4953,72
1604061763.4974,75
1604061763.4993,92
1604061763.5013,116
1604061763.5033,133
1604061763.5053,145
1604061763.5073,164
1604061763.5093,191
1604061763.5113,215
1604061763.5120,235
1604061763.5133,249
1604061763.9458,259
1604061763.9469,257
1604061763.9493,244
1604061763.9519,232
1604061763.9539,223
1604061763.9559,196
1604061763.9579,152
1604061763.9599,106
1604061763.9619,60
1604061763.9638,14
1604061763.9658,-16
1604061763.9665,-33
1604061763.9688,-50
1604061763.9708,-63
1604061763.9728,-63
1604061763.9748,-60
1604061763.9768,-50
1604061763.9788,-36
1604061763.9808,-26
1604061763.9828,-12
1604061763.9848,4
1604061763.9868,19
1604061763.9888,33
1604061763.9908,43
1604061763.9928,46
1604061763.9948,43
1604061763.9968,41
1604061763.9975,38
1604061763.9988,36
1604061764.0010,26
1604061764.0028,14
1604061764.0049,9
1604061764.0068,12
1604061764.0088,14
1604061764.0109,-4
1604061764.0128,-36
1604061764.0148,-26
1604061764.0168,24
1604061764.0188,36
1604061764.0208,21
1604061764.0228,24
1604061764.0249,29
1604061764.0268,19
1604061764.0275,19
1604061764.0288,21
1604061764.0308,26
1604061764.0328,29
1604061764.0348,38
1604061764.0369,72
1604061764.0388,155
1604061764.0408,346
1604061764.0428,686
1604061764.0449,1025
1604061764.0468,1137
1604061764.0488,870
1604061764.0508,312
1604061764.0528,-179
1604061764.0548,-271
1604061764.0568,-92
1604061764.0575,-48
1604061764.0588,-111
1604061764.0608,-70
1604061764.0628,-19
1604061764.0648,-26
1604061764.0668,-14
1604061764.0688,12
1604061764.0708,21
1604061764.0728,36
1604061764.0748,60
1604061764.0768,82
1604061764.0788,101
1604061764.0808,128
1604061764.0828,155
1604061764.4856,181
1604061764.4868,208
1604061764.4884,230
1604061764.4910,242
1604061764.4929,249
1604061764.4949,249
1604061764.4968,235
1604061764.4988,213
1604061764.5008,196
1604061764.5029,177
1604061764.5047,130
1604061764.5067,72
1604061764.5089,21
1604061764.5108,-21
1604061764.5127,-53
1604061764.5148,-75
1604061764.5167,-87
1604061764.5187,-92
1604061764.5207,-94
1604061764.5227,-89
1604061764.5247,-75
1604061764.5267,-63
1604061764.5287,-48
1604061764.5307,-31
1604061764.5328,-21
1604061764.5348,-14
1604061764.5367,-2
1604061764.5387,9
1604061764.5407,16
1604061764.5427,19
1604061764.5447,16
1604061764.5467,14
1604061764.5487,14
1604061764.5507,14
1604061764.5527,9
1604061764.5547,4
1604061764.5567,0
1604061764.5587,-4
1604061764.5607,0
1604061764.5627,9
1604061764.5648,-2
1604061764.5667,-36
1604061764.5687,-38
1604061764.5707,12
1604061764.5727,36
1604061764.5747,19
1604061764.5766,16
1604061764.5787,19
1604061764.5807,12
1604061764.5827,7
1604061764.5847,12
1604061764.5866,16
1604061764.5886,19
1604061764.5907,24
1604061764.5927,48
1604061764.5947,116
1604061764.5967,288
1604061764.5987,601
1604061764.6007,953
1604061764.6027,1125
1604061764.6047,940
1604061764.6067,441
1604061764.6087,-82
1604061764.6108,-283
1604061764.6127,-143
1604061764.6147,-50
1604061764.6167,-113
1604061764.6187,-97
1604061764.6207,-38
1604061764.6227,-36
1604061764.6247,-29
1604061764.6267,2
1604061764.6287,16
1604061765.1158,26
1604061765.1169,48
1604061765.1193,70
1604061765.1220,84
1604061765.1239,99
1604061765.1259,121
1604061765.1280,150
1604061765.1299,177
1604061765.1319,198
1604061765.1339,213
1604061765.1359,225
1604061765.1379,227
1604061765.1400,220
1604061765.1419,210
1604061765.1440,201
1604061765.1460,181
1604061765.1480,145
1604061765.1499,87
1604061765.1519,31
1604061765.1540,-12
1604061765.1560,-50
1604061765.1635,-77
1604061765.1649,-89
1604061765.1669,-94
1604061765.1689,-94
1604061765.1709,-87
1604061765.1729,-77
1604061765.1749,-70
1604061765.1769,-53
1604061765.1789,-36
1604061765.1809,-19
1604061765.1829,-7
1604061765.1849,4
1604061765.1869,14
1604061765.1889,21
1604061765.1909,24
1604061765.1929,21
1604061765.1948,21
1604061765.1969,19
1604061765.1989,14
1604061765.2009,7
1604061765.2031,2
1604061765.2049,0
1604061765.2069,-2
1604061765.2089,-4
1604061765.2109,-9
1604061765.2129,-14
1604061765.2149,-12
1604061765.2168,-2
1604061765.2188,-4
1604061765.2209,-29
1604061765.2229,-26
1604061765.2249,24
1604061765.2269,53
1604061765.2288,41
1604061765.2308,33
1604061765.2328,31
1604061765.2349,19
1604061765.2368,14
1604061765.2389,24
1604061765.2408,29
1604061765.2429,31
1604061765.2449,36
1604061765.2469,50
1604061765.2488,111
1604061765.2509,269
1604061765.2529,567
1604061765.2549,919
1604061765.2568,1117
1604061765.2589,984
1604061765.2608,502
1604061765.2628,-41
1604061765.2648,-276
1604061765.6555,-157
1604061765.6563,-50
1604061765.6580,-101
1604061765.6600,-97
1604061765.6620,-36
1604061765.6640,-26
1604061765.6659,-24
1604061765.6679,2
1604061765.6699,16
1604061765.6719,26
1604061765.6739,46
1604061765.6759,67
1604061765.6780,84
1604061765.6799,94
1604061765.6819,111
1604061765.6839,140
1604061765.6859,169
1604061765.6879,191
1604061765.6899,208
1604061765.6927,220
1604061765.6939,225
1604061765.6959,223
1604061765.6979,213
1604061765.6999,203
1604061765.7019,194
1604061765.7039,167
1604061765.7059,118
1604061765.7079,67
1604061765.7099,21
1604061765.7119,-14
1604061765.7139,-41
1604061765.7159,-58
1604061765.7179,-72
1604061765.7199,-77
1604061765.7220,-67
1604061765.7239,-55
1604061765.7259,-46
1604061765.7279,-29
1604061765.7299,-14
1604061765.7319,-4
1604061765.7339,9
1604061765.7359,26
1604061765.7379,43
1604061765.7399,48
1604061765.7419,41
1604061765.7439,36
1604061765.7459,33
1604061765.7479,33
1604061765.7499,36
1604061765.7519,36
1604061765.7539,31
1604061765.7559,26
1604061765.7579,24
1604061765.7599,19
1604061765.7619,16
1604061765.7638,14
1604061765.7659,9
1604061765.7679,9
1604061765.7699,14
1604061765.7720,16
1604061765.7739,21
1604061765.7759,31
1604061765.7779,38
1604061765.7799,16
1604061765.7819,0
1604061765.7841,31
1604061765.7860,77
1604061765.7879,80
1604061765.7899,70
1604061765.7919,70
1604061765.7941,63
1604061765.7959,48
1604061765.7979,50
1604061766.1956,55
1604061766.1965,55
1604061766.1989,55
1604061766.2015,65
1604061766.2035,94
1604061766.2056,179
1604061766.2076,385
1604061766.2095,729
1604061766.2115,1059
1604061766.2135,1151
1604061766.2155,863
1604061766.2175,288
1604061766.2195,-177
1604061766.2215,-254
1604061766.2235,-84
1604061766.2255,-26
1604061766.2274,-82
1604061766.2295,-53
1604061766.2315,-2
1604061766.2335,-4
1604061766.2355,7
1604061766.2374,38
1604061766.2394,55
1604061766.2414,70
1604061766.2434,87
1604061766.2454,109
1604061766.2474,133
1604061766.2494,155
1604061766.2514,177
1604061766.2534,203
1604061766.2554,227
1604061766.2574,252
1604061766.2594,283
1604061766.2614,298
1604061766.2634,295
1604061766.2654,300
1604061766.2674,300
1604061766.2694,281
1604061766.2714,259
1604061766.2734,237
1604061766.2755,186
1604061766.2774,121
1604061766.2794,72
1604061766.2814,46
1604061766.2835,19
1604061766.2855,0
1604061766.2874,-9
1604061766.2894,-16
1604061766.2917,-24
1604061766.2935,-21
1604061766.2954,-7
1604061766.2974,14
1604061766.2994,36
1604061766.3014,38
1604061766.3034,41
1604061766.3054,55
1604061766.3074,67
1604061766.3094,67
1604061766.3115,75
1604061766.3134,87
1604061766.3155,87
1604061766.3174,67
1604061766.3194,67
1604061766.3214,77
1604061766.3234,72
1604061766.3255,53
1604061766.3275,46
1604061766.3294,53
1604061766.3314,46
1604061766.3334,33
1604061766.3355,43
1604061766.3374,50
1604061766.3395,41
1604061766.7655,38
1604061766.7664,36
1604061766.7688,21
1604061766.7715,41
1604061766.7735,94
1604061766.7755,111
1604061766.7775,94
1604061766.7794,82
1604061766.7814,58
1604061766.7834,46
1604061766.7855,60
1604061766.7874,67
1604061766.7894,67
1604061766.7914,67
1604061766.7934,65
1604061766.7953,94
1604061766.7973,167
1604061766.7993,320
1604061766.8013,630
1604061766.8033,994
1604061766.8053,1144
1604061766.8073,962
1604061766.8093,487
1604061766.8113,-65
1604061766.8133,-293
1604061766.8153,-116
1604061766.8175,9
1604061766.8193,-53
1604061766.8213,-50
1604061766.8233,9
1604061766.8253,12
1604061766.8273,16
1604061766.8293,48
1604061766.8313,55
1604061766.8333,55
1604061766.8353,77
1604061766.8373,104
1604061766.8394,118
1604061766.8413,135
1604061766.8433,157
1604061766.8453,181
1604061766.8473,206
1604061766.8493,230
1604061766.8513,254
1604061766.8533,271
1604061766.8553,271
1604061766.8573,254
1604061766.8593,247
1604061766.8613,244
1604061766.8633,223
1604061766.8653,184
1604061766.8673,138
1604061766.8693,80
1604061766.8713,21
1604061766.8733,-19
1604061766.8754,-53
1604061766.8773,-72
1604061766.8793,-72
1604061766.8813,-72
1604061766.8833,-77
1604061766.8853,-82
1604061766.8873,-82
1604061766.8893,-70
1604061766.8913,-46
1604061766.8933,-29
1604061766.8953,-14
1604061766.8973,-2
1604061766.8993,7
1604061766.9013,19
1604061766.9033,24
1604061766.9053,26
1604061766.9073,29
1604061766.9093,29
1604061767.3060,19
1604061767.3068,12
1604061767.3093,9
1604061767.3119,7
1604061767.3142,0
1604061767.3159,-4
1604061767.3180,-4
1604061767.3200,-2
1604061767.3219,-12
1604061767.3239,-21
1604061767.3259,-21
1604061767.3279,-16
1604061767.3300,-14
1604061767.3319,-9
1604061767.3339,-19
1604061767.3359,-38
1604061767.3378,-19
1604061767.3398,31
1604061767.3418,46
1604061767.3438,33
1604061767.3459,29
1604061767.3478,21
1604061767.3498,9
1604061767.3518,7
1604061767.3538,12
1604061767.3558,16
1604061767.3578,24
1604061767.3599,31
1604061767.3618,53
1604061767.3638,121
1604061767.3658,293
1604061767.3678,611
1604061767.3698,953
1604061767.3719,1101
1604061767.3738,911
1604061767.3759,417
1604061767.3779,-111
1604061767.3798,-300
1604061767.3818,-140
1604061767.3838,-50
1604061767.3859,-121
1604061767.3878,-104
1604061767.3898,-41
1604061767.3918,-41
1604061767.3938,-36
1604061767.3958,-7
1604061767.3978,0
1604061767.3998,7
1604061767.4018,29
1604061767.4038,48
1604061767.4059,65
1604061767.4079,92
1604061767.4098,118
1604061767.4118,140
1604061767.4138,164
1604061767.4160,189
1604061767.4178,210
1604061767.4198,225
1604061767.4218,232
1604061767.4238,225
1604061767.4258,215
1604061767.4279,206
1604061767.4298,184
1604061767.4318,147
1604061767.4338,92
1604061767.4358,29
1604061767.4378,-29
1604061767.4398,-70
1604061767.4418,-97
1604061767.4438,-116
1604061767.4458,-128
1604061767.4478,-130
1604061767.4499,-126
1604061767.8454,-116
1604061767.8462,-109
1604061767.8486,-97
1604061767.8513,-82
1604061767.8533,-70
1604061767.8553,-60
1604061767.8573,-53
1604061767.8593,-43
1604061767.8613,-26
1604061767.8633,-16
1604061767.8653,-12
1604061767.8673,-7
1604061767.8693,-7
1604061767.8713,-12
1604061767.8732,-14
1604061767.8753,-16
1604061767.8772,-21
1604061767.8793,-24
1604061767.8813,-24
1604061767.8833,-21
1604061767.8852,-21
1604061767.8872,-24
1604061767.8892,-26
1604061767.8912,-24
1604061767.8932,-26
1604061767.8953,-29
1604061767.8972,-24
1604061767.8992,-12
1604061767.9012,-14
1604061767.9032,-36
1604061767.9052,-41
1604061767.9072,-2
1604061767.9093,33
1604061767.9114,36
1604061767.9133,26
1604061767.9153,19
1604061767.9172,7
1604061767.9192,4
1604061767.9212,9
1604061767.9232,14
1604061767.9252,14
1604061767.9272,19
1604061767.9292,36
1604061767.9312,72
1604061767.9332,167
1604061767.9353,390
1604061767.9372,729
1604061767.9392,999
1604061767.9412,1011
1604061767.9432,703
1604061767.9452,181
1604061767.9472,-232
1604061767.9492,-264
1604061767.9512,-99
1604061767.9532,-87
1604061767.9553,-135
1604061767.9573,-84
1604061767.9592,-46
1604061767.9613,-53
1604061767.9632,-31
1604061767.9652,-9
1604061767.9672,-7
1604061767.9692,4
1604061767.9713,26
1604061767.9732,43
1604061767.9753,65
1604061767.9772,92
1604061767.9792,118
1604061767.9812,145
1604061767.9832,172
1604061767.9853,198
1604061767.9872,223
1604061767.9892,235
1604061768.4456,240
1604061768.4467,237
1604061768.4491,227
1604061768.4517,206
1604061768.4538,169
1604061768.4558,128
1604061768.4578,70
1604061768.4598,7
1604061768.4618,-41
1604061768.4637,-77
1604061768.4658,-101
1604061768.4680,-116
1604061768.4698,-116
1604061768.4718,-111
1604061768.4738,-111
1604061768.4757,-109
1604061768.4777,-97
1604061768.4797,-80
1604061768.4817,-63
1604061768.4837,-50
1604061768.4858,-36
1604061768.4876,-21
1604061768.4897,-12
1604061768.4917,-2
1604061768.4937,7
1604061768.4957,12
1604061768.4977,12
1604061768.4996,9
1604061768.5017,9
1604061768.5037,9
1604061768.5056,4
1604061768.5076,2
1604061768.5096,2
1604061768.5117,0
1604061768.5137,-2
1604061768.5157,-9
1604061768.5178,-9
1604061768.5197,-2
1604061768.5217,0
1604061768.5237,-12
1604061768.5257,-33
1604061768.5277,-21
1604061768.5297,21
1604061768.5317,41
1604061768.5336,29
1604061768.5357,24
1604061768.5377,24
1604061768.5397,14
1604061768.5416,14
1604061768.5436,24
1604061768.5456,29
1604061768.5477,26
1604061768.5497,31
1604061768.5517,53
1604061768.5536,111
1604061768.5557,261
1604061768.5576,560
1604061768.5597,897
1604061768.5617,1074
1604061768.5637,933
1604061768.5657,472
1604061768.5677,-55
1604061768.5698,-288
1604061768.5718,-157
1604061768.5737,-50
1604061768.5757,-109
1604061768.5777,-109
1604061768.5797,-48
1604061768.5817,-46
1604061768.5837,-46
1604061768.5857,-16
1604061768.5877,-4
1604061768.5896,2
1604061769.0155,24
1604061769.0163,46
1604061769.0187,60
1604061769.0214,82
1604061769.0234,106
1604061769.0255,133
1604061769.0275,162
1604061769.0294,191
1604061769.0314,206
1604061769.0334,210
1604061769.0353,220
1604061769.0374,220
1604061769.0394,210
1604061769.0413,198
1604061769.0434,179
1604061769.0453,143
1604061769.0473,84
1604061769.0493,19
1604061769.0513,-33
1604061769.0533,-80
1604061769.0553,-113
1604061769.0573,-130
1604061769.0593,-133
1604061769.0613,-135
1604061769.0633,-130
1604061769.0653,-123
1604061769.0673,-113
1604061769.0693,-101
1604061769.0713,-84
1604061769.0733,-70
1604061769.0753,-58
1604061769.0773,-53
1604061769.0793,-43
1604061769.0813,-29
1604061769.0833,-21
1604061769.0853,-21
1604061769.0873,-19
1604061769.0893,-14
1604061769.0913,-16
1604061769.0933,-19
1604061769.0954,-24
1604061769.0973,-29
1604061769.0993,-29
1604061769.1013,-26
1604061769.1035,-43
1604061769.1053,-67
1604061769.1073,-60
1604061769.1093,-14
1604061769.1113,2
1604061769.1133,-12
1604061769.1153,-14
1604061769.1173,-12
1604061769.1193,-14
1604061769.1213,-14
1604061769.1234,-9
1604061769.1240,-7
1604061769.1253,-7
1604061769.1273,0
1604061769.1293,24
1604061769.1313,89
1604061769.1333,257
1604061769.1353,565
1604061769.1373,909
1604061769.1393,1088
1604061769.1413,911
1604061769.1433,397
1604061769.1453,-130
1604061769.1473,-312
1604061769.1493,-167
1604061769.1513,-82
1604061769.1533,-138
1604061769.1540,-123
1604061769.1552,-67
1604061769.5556,-65
1604061769.5565,-60
1604061769.5589,-36
1604061769.5615,-19
1604061769.5635,-9
1604061769.5655,9
1604061769.5675,24
1604061769.5695,43
1604061769.5715,65
1604061769.5735,84
1604061769.5755,101
1604061769.5774,130
1604061769.5794,160
1604061769.5815,179
1604061769.5821,194
1604061769.5834,203
1604061769.5855,198
1604061769.5874,186
1604061769.5896,174
1604061769.5915,152
1604061769.5934,111
1604061769.5954,50
1604061769.5974,-12
1604061769.5994,-65
1604061769.6014,-104
1604061769.6034,-128
1604061769.6055,-138
1604061769.6074,-140
1604061769.6094,-138
1604061769.6114,-133
1604061769.6121,-126
1604061769.6134,-113
1604061769.6154,-97
1604061769.6175,-80
1604061769.6194,-65
1604061769.6214,-50
1604061769.6234,-36
1604061769.6255,-24
1604061769.6274,-16
1604061769.6294,-12
1604061769.6314,-9
1604061769.6334,-9
1604061769.6354,-9
1604061769.6374,-14
1604061769.6394,-16
1604061769.6414,-19
1604061769.6421,-24
1604061769.6434,-24
1604061769.6454,-14
1604061769.6474,-7
1604061769.6495,-26
1604061769.6514,-53
1604061769.6534,-29
1604061769.6554,19
1604061769.6574,26
1604061769.6594,12
1604061769.6614,12
1604061769.6634,9
1604061769.6654,0
1604061769.6674,0
1604061769.6694,2
1604061769.6714,7
1604061769.6721,14
1604061769.6734,19
1604061769.6754,36
1604061769.6774,109
1604061769.6794,300
1604061769.6814,640
1604061769.6834,991
1604061769.6856,1134
1604061769.6875,902
1604061769.6894,351
1604061769.6915,-155
1604061770.1555,-286
1604061770.1567,-135
1604061770.1591,-70
1604061770.1603,-128
1604061770.1618,-101
1604061770.1638,-48
1604061770.1657,-53
1604061770.1677,-60
1604061770.1698,-31
1604061770.1717,-4
1604061770.1737,4
1604061770.1757,19
1604061770.1776,50
1604061770.1797,77
1604061770.1817,92
1604061770.1836,111
1604061770.1857,133
1604061770.1876,152
1604061770.1896,174
1604061770.1903,196
1604061770.1917,213
1604061770.1936,223
1604061770.1957,220
1604061770.1976,213
1604061770.1996,203
1604061770.2016,189
1604061770.2036,150
1604061770.2057,94
1604061770.2077,41
1604061770.2096,-9
1604061770.2116,-50
1604061770.2137,-65
1604061770.2156,-77
1604061770.2176,-92
1604061770.2196,-89
1604061770.2203,-80
1604061770.2217,-77
1604061770.2236,-65
1604061770.2256,-38
1604061770.2276,-21
1604061770.2296,-12
1604061770.2316,-2
1604061770.2337,7
1604061770.2357,19
1604061770.2376,26
1604061770.2397,26
1604061770.2416,31
1604061770.2438,31
1604061770.2457,24
1604061770.2476,19
1604061770.2497,14
1604061770.2504,12
1604061770.2516,2
1604061770.2536,-7
1604061770.2556,0
1604061770.2577,19
1604061770.2596,14
1604061770.2616,-19
1604061770.2636,-31
1604061770.2656,12
1604061770.2676,53
1604061770.2696,48
1604061770.2716,38
1604061770.2736,36
1604061770.2756,24
1604061770.2776,16
1604061770.2796,24
1604061770.2803,31
1604061770.2816,36
1604061770.2837,41
1604061770.2857,48
1604061770.2876,87
1604061770.2897,198
1604061770.6666,455
1604061770.6674,846
1604061770.6689,1147
1604061770.6708,1134
1604061770.6728,725
1604061770.6747,97
1604061770.6767,-298
1604061770.6774,-244
1604061770.6787,-65
1604061770.6807,-87
1604061770.6827,-133
1604061770.6847,-72
1604061770.6867,-46
1604061770.6886,-53
1604061770.6906,-21
1604061770.6927,0
1604061770.6947,-2
1604061770.6967,12
1604061770.6986,41
1604061770.7007,55
1604061770.7027,70
1604061770.7048,97
1604061770.7066,128
1604061770.7073,167
1604061770.7086,186
1604061770.7108,196
1604061770.7127,223
1604061770.7147,242
1604061770.7166,232
1604061770.7187,223
1604061770.7206,218
1604061770.7227,203
1604061770.7246,184
1604061770.7266,145
1604061770.7286,82
1604061770.7306,26
1604061770.7326,-7
1604061770.7347,-48
1604061770.7367,-80
1604061770.7380,-80
1604061770.7397,-82
1604061770.7417,-89
1604061770.7436,-82
1604061770.7457,-67
1604061770.7477,-53
1604061770.7497,-36
1604061770.7517,-14
1604061770.7537,-9
1604061770.7558,-7
1604061770.7577,9
1604061770.7597,24
1604061770.7617,19
1604061770.7637,9
1604061770.7657,9
1604061770.7677,9
1604061770.7697,4
1604061770.7718,-2
1604061770.7737,-7
1604061770.7757,-12
1604061770.7777,-19
1604061770.7797,-24
1604061770.7817,-26
1604061770.7837,-24
1604061770.7857,-14
1604061770.7877,-19
1604061770.7897,-53
1604061770.7917,-60
1604061770.7936,-9
1604061770.7957,24
1604061770.7977,14
1604061770.7997,9
1604061770.8017,4
1604061770.8037,-16
1604061771.2354,-24
1604061771.2365,-19
1604061771.2390,-19
1604061771.2418,-16
1604061771.2436,-9
1604061771.2456,-2
1604061771.2477,33
1604061771.2496,152
1604061771.2516,424
1604061771.2536,802
1604061771.2556,1064
1604061771.2575,1016
1604061771.2596,594
1604061771.2615,-12
1604061771.2636,-366
1604061771.2655,-269
1604061771.2675,-104
1604061771.2696,-140
1604061771.2715,-167
1604061771.2735,-97
1604061771.2755,-77
1604061771.2775,-87
1604061771.2795,-60
1604061771.2815,-36
1604061771.2836,-29
1604061771.2856,-16
1604061771.2875,7
1604061771.2895,31
1604061771.2915,43
1604061771.2935,60
1604061771.2955,89
1604061771.2975,116
1604061771.2995,138
1604061771.3015,162
1604061771.3035,184
1604061771.3055,194
1604061771.3075,191
1604061771.3095,179
1604061771.3115,164
1604061771.3135,145
1604061771.3155,116
1604061771.3175,67
1604061771.3195,9
1604061771.3215,-41
1604061771.3235,-84
1604061771.3255,-113
1604061771.3275,-133
1604061771.3295,-145
1604061771.3315,-152
1604061771.3335,-145
1604061771.3355,-133
1604061771.3375,-123
1604061771.3395,-113
1604061771.3415,-99
1604061771.3436,-80
1604061771.3456,-65
1604061771.3475,-55
1604061771.3495,-41
1604061771.3515,-31
1604061771.3535,-26
1604061771.3555,-26
1604061771.3575,-26
1604061771.3595,-24
1604061771.3614,-24
1604061771.3635,-31
1604061771.3655,-38
1604061771.3675,-50
1604061771.3695,-55
1604061771.3715,-55
1604061771.3735,-58
1604061771.3755,-58
1604061771.3775,-46
1604061771.3795,-48
1604061771.8356,-80
1604061771.8367,-84
1604061771.8392,-38
1604061771.8418,-7
1604061771.8438,-14
1604061771.8458,-19
1604061771.8478,-31
1604061771.8498,-46
1604061771.8518,-46
1604061771.8538,-33
1604061771.8558,-31
1604061771.8578,-31
1604061771.8598,-26
1604061771.8618,-9
1604061771.8638,31
1604061771.8658,140
1604061771.8678,380
1604061771.8698,717
1604061771.8718,965
1604061771.8738,950
1604061771.8758,611
1604061771.8778,77
1604061771.8798,-291
1604061771.8818,-259
1604061771.8839,-101
1604061771.8857,-116
1604061771.8877,-152
1604061771.8897,-94
1604061771.8917,-65
1604061771.8937,-70
1604061771.8957,-53
1604061771.8977,-29
1604061771.8999,-16
1604061771.9018,-2
1604061771.9037,19
1604061771.9057,36
1604061771.9078,58
1604061771.9097,84
1604061771.9117,109
1604061771.9137,133
1604061771.9157,160
1604061771.9177,184
1604061771.9197,201
1604061771.9218,210
1604061771.9237,206
1604061771.9257,194
1604061771.9277,184
1604061771.9297,169
1604061771.9317,138
1604061771.9337,89
1604061771.9357,26
1604061771.9377,-31
1604061771.9397,-75
1604061771.9417,-101
1604061771.9437,-121
1604061771.9457,-133
1604061771.9477,-140
1604061771.9497,-145
1604061771.9517,-145
1604061771.9537,-143
1604061771.9557,-130
1604061771.9577,-113
1604061771.9597,-99
1604061771.9617,-84
1604061771.9637,-70
1604061771.9657,-58
1604061771.9677,-46
1604061771.9697,-38
1604061771.9717,-38
1604061771.9737,-41
1604061771.9757,-41
1604061771.9777,-36
1604061771.9797,-38
1604061772.3755,-43
1604061772.3763,-43
1604061772.3782,-46
1604061772.3798,-48
1604061772.3819,-50
1604061772.3837,-48
1604061772.3857,-46
1604061772.3878,-50
1604061772.3897,-50
1604061772.3917,-46
1604061772.3940,-43
1604061772.3958,-50
1604061772.3977,-58
1604061772.3998,-58
1604061772.4018,-53
1604061772.4038,-43
1604061772.4057,-46
1604061772.4077,-58
1604061772.4097,-46
1604061772.4117,-7
1604061772.4137,14
1604061772.4157,7
1604061772.4177,2
1604061772.4197,-4
1604061772.4218,-16
1604061772.4238,-16
1604061772.4257,-9
1604061772.4277,-9
1604061772.4297,-7
1604061772.4317,0
1604061772.4337,16
1604061772.4357,67
1604061772.4377,191
1604061772.4397,426
1604061772.4417,729
1604061772.4437,926
1604061772.4457,865
1604061772.4477,521
1604061772.4496,36
1604061772.4516,-264
1604061772.4536,-208
1604061772.4556,-72
1604061772.4576,-101
1604061772.4597,-126
1604061772.4616,-70
1604061772.4636,-46
1604061772.4656,-48
1604061772.4677,-26
1604061772.4698,-4
1604061772.4718,2
1604061772.4738,16
1604061772.4757,33
1604061772.4777,46
1604061772.4796,60
1604061772.4817,82
1604061772.4836,106
1604061772.4857,130
1604061772.4876,157
1604061772.4896,181
1604061772.4916,198
1604061772.4936,208
1604061772.4958,208
1604061772.4977,201
1604061772.4996,191
1604061772.5016,179
1604061772.5036,155
1604061772.5057,111
1604061772.5076,53
1604061772.5096,-4
1604061772.5116,-55
1604061772.5136,-89
1604061772.5157,-111
1604061772.5176,-126
1604061772.9156,-130
1604061772.9165,-133
1604061772.9190,-128
1604061772.9216,-116
1604061772.9236,-106
1604061772.9256,-89
1604061772.9276,-72
1604061772.9295,-60
1604061772.9315,-55
1604061772.9335,-48
1604061772.9355,-41
1604061772.9375,-31
1604061772.9395,-33
1604061772.9415,-36
1604061772.9435,-33
1604061772.9455,-31
1604061772.9475,-36
1604061772.9496,-38
1604061772.9515,-41
1604061772.9535,-41
1604061772.9555,-41
1604061772.9575,-36
1604061772.9595,-38
1604061772.9615,-41
1604061772.9635,-43
1604061772.9655,-41
1604061772.9675,-41
1604061772.9696,-38
1604061772.9715,-36
1604061772.9735,-31
1604061772.9755,-31
1604061772.9775,-36
1604061772.9795,-33
1604061772.9814,-16
1604061772.9834,-12
1604061772.9855,-26
1604061772.9875,-31
1604061772.9894,-2
1604061772.9915,33
1604061772.9937,41
1604061772.9955,29
1604061772.9975,19
1604061772.9995,9
1604061773.0014,0
1604061773.0035,-2
1604061773.0055,-2
1604061773.0074,-2
1604061773.0094,2
1604061773.0115,12
1604061773.0135,43
1604061773.0155,126
1604061773.0175,317
1604061773.0194,625
1604061773.0214,914
1604061773.0235,987
1604061773.0255,734
1604061773.0275,237
1604061773.0294,-189
1604061773.0314,-274
1604061773.0334,-123
1604061773.0355,-77
1604061773.0374,-128
1604061773.0394,-97
1604061773.0414,-58
1604061773.0434,-63
1604061773.0454,-46
1604061773.0474,-19
1604061773.0495,-9
1604061773.0514,9
1604061773.0534,36
1604061773.0554,48
1604061773.0574,60
1604061773.0595,82
1604061773.4855,101
1604061773.4863,116
1604061773.4888,140
1604061773.4914,164
1604061773.4934,181
1604061773.4954,189
1604061773.4975,186
1604061773.4994,186
1604061773.5014,179
1604061773.5034,172
1604061773.5054,162
1604061773.5074,135
1604061773.5094,82
1604061773.5115,21
1604061773.5134,-29
1604061773.5155,-65
1604061773.5174,-87
1604061773.5196,-104
1604061773.5214,-109
1604061773.5234,-106
1604061773.5254,-109
1604061773.5274,-104
1604061773.5294,-84
1604061773.5314,-67
1604061773.5334,-60
1604061773.5354,-48
1604061773.5373,-29
1604061773.5393,-16
1604061773.5413,-9
1604061773.5433,-2
1604061773.5454,2
1604061773.5473,4
1604061773.5494,2
1604061773.5513,-2
1604061773.5533,-2
1604061773.5553,-7
1604061773.5574,-19
1604061773.5593,-24
1604061773.5613,-24
1604061773.5634,-29
1604061773.5654,-33
1604061773.5673,-33
1604061773.5693,-29
1604061773.5713,-24
1604061773.5733,-21
1604061773.5754,-21
1604061773.5773,-19
1604061773.5793,-16
1604061773.5813,-7
1604061773.5833,-2
1604061773.5853,-21
1604061773.5873,-31
1604061773.5893,12
1604061773.5913,53
1604061773.5933,46
1604061773.5953,31
1604061773.5973,29
1604061773.5993,16
1604061773.6013,12
1604061773.6033,21
1604061773.6054,21
1604061773.6074,19
1604061773.6093,26
1604061773.6113,36
1604061773.6133,67
1604061773.6154,147
1604061773.6174,351
1604061773.6194,705
1604061773.6215,1033
1604061773.6234,1096
1604061773.6254,790
1604061773.6273,215
1604061773.6295,-261
1604061774.0252,-315
1604061774.0260,-111
1604061774.0285,-63
1604061774.0311,-126
1604061774.0331,-92
1604061774.0351,-50
1604061774.0371,-65
1604061774.0391,-60
1604061774.0411,-21
1604061774.0431,0
1604061774.0450,2
1604061774.0470,9
1604061774.0490,29
1604061774.0511,53
1604061774.0531,80
1604061774.0550,104
1604061774.0571,130
1604061774.0591,162
1604061774.0611,179
1604061774.0631,194
1604061774.0650,225
1604061774.0670,237
1604061774.0690,215
1604061774.0710,203
1604061774.0731,203
1604061774.0751,186
1604061774.0770,147
1604061774.0790,99
1604061774.0810,41
1604061774.0830,-7
1604061774.0850,-48
1604061774.0870,-84
1604061774.0890,-94
1604061774.0910,-94
1604061774.0930,-106
1604061774.0950,-111
1604061774.0970,-97
1604061774.0990,-82
1604061774.1011,-65
1604061774.1030,-43
1604061774.1050,-29
1604061774.1070,-19
1604061774.1090,-9
1604061774.1110,-2
1604061774.1131,7
1604061774.1151,21
1604061774.1172,19
1604061774.1191,2
1604061774.1210,0
1604061774.1230,4
1604061774.1251,-4
1604061774.1270,-14
1604061774.1290,-16
1604061774.1310,-19
1604061774.1330,-21
1604061774.1351,-19
1604061774.1370,-16
1604061774.1390,-19
1604061774.1410,-31
1604061774.1430,-31
1604061774.1450,-19
1604061774.1470,-14
1604061774.1490,-33
1604061774.1510,-38
1604061774.1530,-7
1604061774.1550,26
1604061774.1570,24
1604061774.1590,16
1604061774.1610,16
1604061774.1630,0
1604061774.1651,-14
1604061774.1670,-4
1604061774.1690,0
1604061774.5954,-2
1604061774.5965,2
1604061774.5989,12
1604061774.6015,36
1604061774.6035,113
1604061774.6055,322
1604061774.6076,686
1604061774.6095,1020
1604061774.6116,1108
1604061774.6136,819
1604061774.6156,225
1604061774.6175,-288
1604061774.6196,-358
1604061774.6215,-155
1604061774.6236,-111
1604061774.6256,-172
1604061774.6276,-135
1604061774.6296,-101
1604061774.6315,-111
1604061774.6336,-87
1604061774.6355,-53
1604061774.6375,-48
1604061774.6395,-38
1604061774.6415,-19
1604061774.6437,-4
1604061774.6455,12
1604061774.6475,41
1604061774.6495,67
1604061774.6515,89
1604061774.6535,118
1604061774.6555,143
1604061774.6574,164
1604061774.6595,179
1604061774.6615,179
1604061774.6635,172
1604061774.6655,157
1604061774.6675,140
1604061774.6695,126
1604061774.6715,99
1604061774.6736,46
1604061774.6755,-14
1604061774.6775,-60
1604061774.6794,-94
1604061774.6815,-118
1604061774.6835,-133
1604061774.6855,-143
1604061774.6875,-143
1604061774.6895,-140
1604061774.6915,-133
1604061774.6935,-123
1604061774.6955,-111
1604061774.6974,-97
1604061774.6995,-82
1604061774.7015,-67
1604061774.7035,-53
1604061774.7055,-41
1604061774.7075,-33
1604061774.7095,-31
1604061774.7115,-31
1604061774.7135,-33
1604061774.7154,-33
1604061774.7175,-33
1604061774.7195,-36
1604061774.7214,-41
1604061774.7235,-48
1604061774.7255,-48
1604061774.7275,-46
1604061774.7295,-46
1604061774.7314,-43
1604061774.7335,-41
1604061774.7355,-46
1604061774.7375,-53
1604061774.7394,-43
1604061775.1952,-31
1604061775.1961,-41
1604061775.1990,-67
1604061775.2012,-60
1604061775.2032,-14
1604061775.2052,4
1604061775.2072,-14
1604061775.2092,-24
1604061775.2113,-29
1604061775.2132,-46
1604061775.2152,-48
1604061775.2171,-36
1604061775.2191,-29
1604061775.2212,-29
1604061775.2231,-26
1604061775.2252,-12
1604061775.2272,29
1604061775.2291,140
1604061775.2312,392
1604061775.2331,739
1604061775.2351,977
1604061775.2371,933
1604061775.2391,560
1604061775.2412,19
1604061775.2432,-320
1604061775.2451,-269
1604061775.2471,-121
1604061775.2491,-147
1604061775.2511,-177
1604061775.2531,-118
1604061775.2551,-92
1604061775.2571,-92
1604061775.2591,-65
1604061775.2611,-46
1604061775.2631,-33
1604061775.2652,-14
1604061775.2671,4
1604061775.2690,21
1604061775.2711,46
1604061775.2731,70
1604061775.2751,92
1604061775.2771,116
1604061775.2792,145
1604061775.2811,172
1604061775.2831,189
1604061775.2851,198
1604061775.2871,198
1604061775.2891,191
1604061775.2911,179
1604061775.2931,162
1604061775.2951,135
1604061775.2970,89
1604061775.2991,26
1604061775.3012,-31
1604061775.3031,-75
1604061775.3051,-106
1604061775.3070,-130
1604061775.3090,-145
1604061775.3111,-147
1604061775.3131,-143
1604061775.3151,-138
1604061775.3170,-130
1604061775.3190,-118
1604061775.3210,-101
1604061775.3230,-87
1604061775.3251,-70
1604061775.3271,-53
1604061775.3290,-41
1604061775.3310,-36
1604061775.3331,-26
1604061775.3351,-19
1604061775.3370,-16
1604061775.3391,-24
1604061775.7353,-24
1604061775.7361,-26
1604061775.7385,-31
1604061775.7412,-33
1604061775.7431,-33
1604061775.7452,-33
1604061775.7473,-36
1604061775.7492,-38
1604061775.7512,-46
1604061775.7531,-50
1604061775.7538,-55
1604061775.7551,-60
1604061775.7571,-63
1604061775.7591,-60
1604061775.7611,-58
1604061775.7631,-50
1604061775.7652,-53
1604061775.7671,-70
1604061775.7691,-60
1604061775.7711,-12
1604061775.7731,7
1604061775.7752,-4
1604061775.7770,-7
1604061775.7790,-9
1604061775.7811,-19
1604061775.7832,-21
1604061775.7837,-19
1604061775.7850,-16
1604061775.7870,-16
1604061775.7891,-12
1604061775.7910,2
1604061775.7932,58
1604061775.7951,201
1604061775.7971,480
1604061775.7990,807
1604061775.8010,996
1604061775.8030,877
1604061775.8051,443
1604061775.8070,-70
1604061775.8090,-307
1604061775.8110,-201
1604061775.8130,-92
1604061775.8137,-135
1604061775.8151,-138
1604061775.8170,-82
1604061775.8190,-70
1604061775.8210,-67
1604061775.8230,-38
1604061775.8252,-19
1604061775.8270,-12
1604061775.8290,2
1604061775.8311,24
1604061775.8331,46
1604061775.8351,70
1604061775.8370,94
1604061775.8390,116
1604061775.8410,140
1604061775.8417,164
1604061775.8430,186
1604061775.8450,201
1604061775.8471,210
1604061775.8490,208
1604061775.8511,196
1604061775.8530,181
1604061775.8551,164
1604061775.8570,140
1604061775.8591,97
1604061775.8611,36
1604061775.8630,-24
1604061775.8651,-67
1604061775.8670,-94
1604061775.8690,-111
1604061775.8711,-121
1604061776.3054,-128
1604061776.3065,-126
1604061776.3084,-123
1604061776.3104,-116
1604061776.3124,-104
1604061776.3145,-87
1604061776.3165,-70
1604061776.3184,-55
1604061776.3205,-46
1604061776.3227,-36
1604061776.3244,-26
1604061776.3264,-19
1604061776.3283,-14
1604061776.3304,-14
1604061776.3323,-14
1604061776.3330,-16
1604061776.3344,-24
1604061776.3363,-24
1604061776.3384,-19
1604061776.3403,-21
1604061776.3424,-24
1604061776.3443,-24
1604061776.3463,-29
1604061776.3483,-36
1604061776.3503,-33
1604061776.3523,-31
1604061776.3543,-24
1604061776.3563,-21
1604061776.3583,-21
1604061776.3603,-19
1604061776.3623,-12
1604061776.3629,-7
1604061776.3644,-9
1604061776.3663,-21
1604061776.3683,-14
1604061776.3703,24
1604061776.3723,38
1604061776.3743,31
1604061776.3764,26
1604061776.3784,24
1604061776.3803,14
1604061776.3823,14
1604061776.3843,21
1604061776.3863,19
1604061776.3884,16
1604061776.3903,21
1604061776.3923,36
1604061776.3930,92
1604061776.3943,240
1604061776.3963,533
1604061776.3983,887
1604061776.4003,1093
1604061776.4023,960
1604061776.4042,472
1604061776.4063,-75
1604061776.4083,-305
1604061776.4103,-186
1604061776.4123,-72
1604061776.4143,-111
1604061776.4163,-111
1604061776.4184,-53
1604061776.4204,-43
1604061776.4223,-43
1604061776.4230,-16
1604061776.4243,0
1604061776.4263,14
1604061776.4283,38
1604061776.4303,50
1604061776.4323,53
1604061776.4343,72
1604061776.4363,101
1604061776.4385,126
1604061776.4403,152
1604061776.8454,186
1604061776.8463,206
1604061776.8488,220
1604061776.8514,235
1604061776.8520,240
1604061776.8534,235
1604061776.8554,232
1604061776.8575,220
1604061776.8594,186
1604061776.8614,135
1604061776.8634,77
1604061776.8654,21
1604061776.8673,-21
1604061776.8693,-55
1604061776.8713,-77
1604061776.8734,-89
1604061776.8754,-97
1604061776.8773,-99
1604061776.8793,-92
1604061776.8813,-75
1604061776.8820,-63
1604061776.8833,-53
1604061776.8854,-33
1604061776.8873,-14
1604061776.8893,-4
1604061776.8913,4
1604061776.8933,9
1604061776.8953,14
1604061776.8973,21
1604061776.8993,24
1604061776.9013,24
1604061776.9033,21
1604061776.9053,12
1604061776.9073,0
1604061776.9093,-2
1604061776.9113,4
1604061776.9120,9
1604061776.9133,-2
1604061776.9156,-14
1604061776.9174,-9
1604061776.9193,-2
1604061776.9213,-4
1604061776.9233,-4
1604061776.9253,9
1604061776.9273,16
1604061776.9293,-7
1604061776.9313,-31
1604061776.9333,0
1604061776.9353,50
1604061776.9373,50
1604061776.9393,31
1604061776.9413,31
1604061776.9420,26
1604061776.9433,19
1604061776.9453,16
1604061776.9473,14
1604061776.9493,16
1604061776.9513,29
1604061776.9533,43
1604061776.9553,70
1604061776.9573,147
1604061776.9593,366
1604061776.9614,742
1604061776.9633,1076
1604061776.9653,1130
1604061776.9673,807
1604061776.9693,215
1604061776.9713,-281
1604061776.9733,-332
1604061776.9754,-121
1604061776.9773,-77
1604061776.9793,-145
1604061776.9813,-109
1604061777.4153,-63
1604061777.4164,-63
1604061777.4188,-43
1604061777.4214,-19
1604061777.4234,-19
1604061777.4254,-9
1604061777.4275,7
1604061777.4295,14
1604061777.4314,36
1604061777.4335,67
1604061777.4354,84
1604061777.4375,101
1604061777.4394,133
1604061777.4414,162
1604061777.4434,179
1604061777.4454,196
1604061777.4477,208
1604061777.4495,198
1604061777.4514,184
1604061777.4534,174
1604061777.4554,162
1604061777.4574,126
1604061777.4594,67
1604061777.4614,4
1604061777.4634,-38
1604061777.4654,-70
1604061777.4674,-99
1604061777.4694,-118
1604061777.4714,-130
1604061777.4734,-130
1604061777.4754,-126
1604061777.4773,-116
1604061777.4794,-109
1604061777.4814,-94
1604061777.4834,-77
1604061777.4854,-63
1604061777.4874,-53
1604061777.4894,-43
1604061777.4914,-31
1604061777.4934,-21
1604061777.4953,-21
1604061777.4974,-24
1604061777.4994,-24
1604061777.5013,-21
1604061777.5034,-24
1604061777.5054,-31
1604061777.5073,-41
1604061777.5093,-43
1604061777.5114,-41
1604061777.5133,-41
1604061777.5153,-46
1604061777.5174,-46
1604061777.5193,-50
1604061777.5213,-55
1604061777.5234,-46
1604061777.5254,-38
1604061777.5273,-63
1604061777.5294,-75
1604061777.5313,-36
1604061777.5333,4
1604061777.5354,2
1604061777.5374,-7
1604061777.5394,-9
1604061777.5414,-24
1604061777.5433,-33
1604061777.5453,-29
1604061777.5474,-21
1604061777.5495,-19
1604061777.5514,-14
1604061777.5533,-7
1604061777.5553,24
1604061777.5573,113
1604061777.5593,337
1604061777.9553,693
1604061777.9561,1006
1604061777.9571,1059
1604061777.9591,737
1604061777.9611,160
1604061777.9631,-283
1604061777.9651,-315
1604061777.9670,-152
1604061777.9690,-140
1604061777.9710,-186
1604061777.9730,-140
1604061777.9751,-111
1604061777.9770,-116
1604061777.9790,-87
1604061777.9810,-58
1604061777.9830,-53
1604061777.9851,-38
1604061777.9870,-12
1604061777.9890,7
1604061777.9910,24
1604061777.9930,48
1604061777.9950,75
1604061777.9971,97
1604061777.9990,126
1604061778.0010,155
1604061778.0032,177
1604061778.0050,189
1604061778.0070,186
1604061778.0090,174
1604061778.0110,164
1604061778.0130,152
1604061778.0150,126
1604061778.0170,84
1604061778.0190,29
1604061778.0210,-33
1604061778.0230,-82
1604061778.0250,-116
1604061778.0270,-143
1604061778.0290,-157
1604061778.0310,-162
1604061778.0330,-155
1604061778.0350,-147
1604061778.0370,-140
1604061778.0390,-133
1604061778.0410,-121
1604061778.0432,-109
1604061778.0451,-99
1604061778.0469,-82
1604061778.0490,-65
1604061778.0510,-53
1604061778.0530,-43
1604061778.0550,-41
1604061778.0570,-38
1604061778.0590,-36
1604061778.0610,-36
1604061778.0630,-41
1604061778.0650,-46
1604061778.0670,-46
1604061778.0690,-48
1604061778.0710,-53
1604061778.0730,-55
1604061778.0750,-58
1604061778.0770,-65
1604061778.0790,-63
1604061778.0810,-48
1604061778.0830,-41
1604061778.0850,-60
1604061778.0870,-80
1604061778.0890,-53
1604061778.0910,-7
1604061778.0930,-2
1604061778.0950,-14
1604061778.0970,-16
1604061778.5859,-26
1604061778.5871,-36
1604061778.5895,-33
1604061778.5921,-29
1604061778.5942,-36
1604061778.5961,-38
1604061778.5982,-26
1604061778.6001,0
1604061778.6021,67
1604061778.6042,244
1604061778.6061,562
1604061778.6081,887
1604061778.6101,1016
1604061778.6121,805
1604061778.6142,312
1604061778.6161,-174
1604061778.6181,-332
1604061778.6202,-186
1604061778.6221,-118
1604061778.6242,-181
1604061778.6261,-157
1604061778.6281,-101
1604061778.6301,-99
1604061778.6324,-89
1604061778.6343,-60
1604061778.6361,-48
1604061778.6382,-36
1604061778.6401,21
1604061778.6422,162
1604061778.6442,417
1604061778.6461,649
1604061778.6481,368
1604061778.6501,-281
1604061778.6521,-332
1604061778.6541,72
1604061778.6561,147
1604061778.6581,116
1604061778.6601,225
1604061778.6621,220
1604061778.6641,147
1604061778.6661,198
1604061778.6681,247
1604061778.6701,257
1604061778.6721,344
1604061778.6741,215
1604061778.6761,12
1604061778.6781,41
1604061778.6801,-356
1604061778.6821,-1130
1604061778.6841,-1476
1604061778.6860,-1447
1604061778.6880,-1328
1604061778.6900,-1248
1604061778.6920,-1302
1604061778.6940,-1120
1604061778.6960,-557
1604061778.6980,-307
1604061778.7000,-666
1604061778.7020,-681
1604061778.7041,126
1604061778.7060,618
1604061778.7080,227
1604061778.7100,-174
1604061778.7120,-240
1604061778.7141,-128
1604061778.7161,92
1604061778.7181,89
1604061778.7200,60
1604061778.7220,261
1604061778.7240,67
1604061778.7260,-417
1604061778.7281,-361
1604061778.7300,-150
1604061779.0954,-349
1604061779.0965,-232
1604061779.0987,72
1604061779.1013,-223
1604061779.1033,-305
1604061779.1052,169
1604061779.1073,196
1604061779.1092,-227
1604061779.1112,-135
1604061779.1132,191
1604061779.1152,-77
1604061779.1172,-337
1604061779.1192,-123
1604061779.1212,118
1604061779.1232,257
1604061779.1253,227
1604061779.1272,50
1604061779.1292,-19
1604061779.1312,-50
1604061779.1332,70
1604061779.1352,395
1604061779.1372,630
1604061779.1392,1045
1604061779.1412,1413
1604061779.1432,950
1604061779.1452,240
1604061779.1472,-7
1604061779.1492,-155
1604061779.1512,-232
1604061779.1531,16
1604061779.1552,135
1604061779.1572,-87
1604061779.1592,-240
1604061779.1612,-278
1604061779.1632,-50
1604061779.1652,417
1604061779.1672,368
1604061779.1692,-206
1604061779.1712,-344
1604061779.1732,67
1604061779.1752,208
1604061779.1772,36
1604061779.1792,-2
1604061779.1812,186
1604061779.1832,266
1604061779.1852,-19
1604061779.1872,-84
1604061779.1893,208
1604061779.1912,194
1604061779.1932,-9
1604061779.1952,80
1604061779.1972,145
1604061779.1993,-12
1604061779.2012,29
1604061779.2032,77
1604061779.2052,-89
1604061779.2072,-19
1604061779.2092,121
1604061779.2112,-9
1604061779.2132,-143
1604061779.2152,-94
1604061779.2172,-41
1604061779.2192,-92
1604061779.2212,-94
1604061779.2233,-67
1604061779.2252,-87
1604061779.2272,-36
1604061779.2292,43
1604061779.2312,-16
1604061779.2332,-104
1604061779.2352,-82
1604061779.2372,-75
1604061779.2447,-92
1604061779.6655,-67
1604061779.6663,-55
1604061779.6675,-75
1604061779.6696,-89
1604061779.6716,-70
1604061779.6736,-67
1604061779.6755,-133
1604061779.6775,-174
1604061779.6795,-128
1604061779.6815,-75
1604061779.6835,-60
1604061779.6855,-87
1604061779.6874,-92
1604061779.6895,-58
1604061779.6915,-75
1604061779.6934,-58
1604061779.6954,-7
1604061779.6974,-50
1604061779.6994,-80
1604061779.7014,-60
1604061779.7034,-84
1604061779.7054,-72
1604061779.7074,-2
1604061779.7094,4
1604061779.7114,-7
1604061779.7135,106
1604061779.7155,349
1604061779.7174,696
1604061779.7194,1035
1604061779.7214,1076
1604061779.7236,630
1604061779.7255,14
1604061779.7274,-303
1604061779.7294,-305
1604061779.7314,-247
1604061779.7334,-266
1604061779.7354,-278
1604061779.7375,-210
1604061779.7394,-169
1604061779.7414,-169
1604061779.7434,-135
1604061779.7454,-118
1604061779.7474,-140
1604061779.7494,-109
1604061779.7514,-55
1604061779.7534,-41
1604061779.7554,-33
1604061779.7574,-2
1604061779.7595,9
1604061779.7615,-24
1604061779.7634,-19
1604061779.7655,38
1604061779.7675,70
1604061779.7694,75
1604061779.7714,65
1604061779.7734,33
1604061779.7755,16
1604061779.7774,33
1604061779.7794,50
1604061779.7815,12
1604061779.7834,-33
1604061779.7854,-41
1604061779.7874,-50
1604061779.7894,-38
1604061779.7914,-33
1604061779.7934,-75
1604061779.7954,-104
1604061779.7974,-99
1604061779.7994,-53
1604061779.8014,-58
1604061779.8034,-133
1604061779.8054,-92
1604061779.8074,-12
1604061780.2657,-55
1604061780.2669,-75
1604061780.2693,-31
1604061780.2719,-48
1604061780.2739,-38
1604061780.2759,16
1604061780.2782,4
1604061780.2799,-50
1604061780.2822,-89
1604061780.2841,-75
1604061780.2859,-7
1604061780.2879,-26
1604061780.2899,-133
1604061780.2919,-157
1604061780.2940,-46
1604061780.2959,26
1604061780.2979,-29
1604061780.2999,-72
1604061780.3019,-50
1604061780.3039,-72
1604061780.3058,-84
1604061780.3078,-29
1604061780.3098,4
1604061780.3118,2
1604061780.3138,-33
1604061780.3158,-72
1604061780.3178,-31
1604061780.3198,123
1604061780.3218,395
1604061780.3238,761
1604061780.3259,1052
1604061780.3279,1008
1604061780.3299,577
1604061780.3328,75
1604061780.3349,-194
1604061780.3363,-213
1604061780.3380,-145
1604061780.3400,-145
1604061780.3420,-157
1604061780.3440,-111
1604061780.3458,-77
1604061780.3478,-70
1604061780.3499,-41
1604061780.3520,2
1604061780.3540,31
1604061780.3558,29
1604061780.3578,4
1604061780.3599,12
1604061780.3619,50
1604061780.3638,60
1604061780.3658,70
1604061780.3679,126
1604061780.3698,150
1604061780.3719,116
1604061780.3738,140
1604061780.3759,208
1604061780.3778,181
1604061780.3798,116
1604061780.3819,126
1604061780.3840,138
1604061780.3859,113
1604061780.3879,94
1604061780.3899,65
1604061780.3918,12
1604061780.3938,-26
1604061780.3959,-43
1604061780.3979,-65
1604061780.3998,-89
1604061780.4019,-87
1604061780.4041,-63
1604061780.4058,-55
1604061780.4078,-72
1604061780.4098,-82
1604061780.8056,-75
1604061780.8065,-50
1604061780.8090,-24
1604061780.8115,-9
1604061780.8137,-2
1604061780.8155,-2
1604061780.8175,-2
1604061780.8194,-7
1604061780.8216,-26
1604061780.8234,-29
1604061780.8254,-7
1604061780.8274,-14
1604061780.8295,-55
1604061780.8315,-63
1604061780.8334,-43
1604061780.8355,-41
1604061780.8374,-43
1604061780.8394,-43
1604061780.8414,-48
1604061780.8434,-38
1604061780.8454,-21
1604061780.8474,-24
1604061780.8494,-46
1604061780.8514,-50
1604061780.8534,-31
1604061780.8555,-26
1604061780.8575,-31
1604061780.8594,19
1604061780.8614,155
1604061780.8634,424
1604061780.8655,800
1604061780.8674,1047
1604061780.8694,960
1604061780.8714,523
1604061780.8734,-36
1604061780.8754,-363
1604061780.8774,-312
1604061780.8796,-152
1604061780.8815,-147
1604061780.8834,-172
1604061780.8855,-121
1604061780.8874,-104
1604061780.8894,-109
1604061780.8914,-75
1604061780.8934,-33
1604061780.8954,-21
1604061780.8974,-19
1604061780.8994,-4
1604061780.9014,12
1604061780.9034,29
1604061780.9055,58
1604061780.9074,97
1604061780.9094,130
1604061780.9114,140
1604061780.9134,143
1604061780.9155,162
1604061780.9174,155
1604061780.9194,126
1604061780.9214,143
1604061780.9234,164
1604061780.9254,135
1604061780.9274,104
1604061780.9294,89
1604061780.9314,33
1604061780.9334,-53
1604061780.9354,-92
1604061780.9374,-87
1604061780.9394,-101
1604061780.9414,-138
1604061780.9434,-155
1604061780.9454,-135
1604061780.9474,-116
1604061780.9494,-106
1604061781.3155,-97
1604061781.3164,-89
1604061781.3189,-75
1604061781.3215,-70
1604061781.3235,-72
1604061781.3254,-48
1604061781.3275,-16
1604061781.3295,-31
1604061781.3314,-53
1604061781.3335,-33
1604061781.3354,-12
1604061781.3374,-36
1604061781.3394,-48
1604061781.3414,-58
1604061781.3434,-63
1604061781.3456,19
1604061781.3474,43
1604061781.3494,-77
1604061781.3514,-75
1604061781.3534,63
1604061781.3554,24
1604061781.3574,-140
1604061781.3594,-150
1604061781.3614,-106
1604061781.3634,-126
1604061781.3655,-99
1604061781.3674,-14
1604061781.3694,121
1604061781.3714,390
1604061781.3734,756
1604061781.3754,1037
1604061781.3774,989
1604061781.3795,528
1604061781.3814,-41
1604061781.3835,-307
1604061781.3854,-198
1604061781.3874,-53
1604061781.3894,-58
1604061781.3914,-99
1604061781.3934,-164
1604061781.3954,-145
1604061781.3974,-21
1604061781.3994,-63
1604061781.4014,-128
1604061781.4034,-53
1604061781.4054,-26
1604061781.4074,-48
1604061781.4094,-55
1604061781.4114,-58
1604061781.4134,-53
1604061781.4155,-72
1604061781.4174,-60
1604061781.4194,-12
1604061781.4214,-4
1604061781.4234,-19
1604061781.4255,19
1604061781.4274,60
1604061781.4294,29
1604061781.4315,7
1604061781.4334,29
1604061781.4354,43
1604061781.4374,72
1604061781.4394,50
1604061781.4414,-50
1604061781.4434,-2
1604061781.4454,58
1604061781.4476,-113
1604061781.4494,-179
1604061781.4514,-140
1604061781.4534,-194
1604061781.4554,-118
1604061781.4575,63
1604061781.4596,-12
1604061781.9154,-320
1604061781.9167,-227
1604061781.9190,101
1604061781.9217,-63
1604061781.9237,-303
1604061781.9257,-160
1604061781.9277,-84
1604061781.9297,-155
1604061781.9316,-70
1604061781.9337,21
1604061781.9356,-9
1604061781.9376,-84
1604061781.9396,-133
1604061781.9416,-58
1604061781.9436,29
1604061781.9456,67
1604061781.9476,87
1604061781.9496,-21
1604061781.9516,-84
1604061781.9536,-33
1604061781.9556,-67
1604061781.9576,-87
1604061781.9596,-29
1604061781.9616,-43
1604061781.9636,-50
1604061781.9656,36
1604061781.9676,157
1604061781.9696,402
1604061781.9716,809
1604061781.9723,1120
1604061781.9746,1033
1604061781.9767,560
1604061781.9785,46
1604061781.9806,-213
1604061781.9826,-220
1604061781.9846,-128
1604061781.9866,-87
1604061781.9886,-84
1604061781.9906,-72
1604061781.9926,-82
1604061781.9946,-77
1604061781.9966,-26
1604061781.9986,21
1604061782.0006,26
1604061782.0028,-2
1604061782.0033,-12
1604061782.0046,31
1604061782.0066,75
1604061782.0086,94
1604061782.0106,101
1604061782.0126,101
1604061782.0146,113
1604061782.0166,140
1604061782.0186,140
1604061782.0206,128
1604061782.0226,130
1604061782.0246,140
1604061782.0266,140
1604061782.0286,135
1604061782.0306,133
1604061782.0326,113
1604061782.0333,75
1604061782.0346,53
1604061782.0366,46
1604061782.0386,26
1604061782.0406,12
1604061782.0426,14
1604061782.0446,7
1604061782.0466,9
1604061782.0486,21
1604061782.0506,31
1604061782.0526,58
1604061782.0546,101
1604061782.4856,126
1604061782.4868,106
1604061782.4892,80
1604061782.4904,92
1604061782.4918,130
1604061782.4938,140
1604061782.4957,113
1604061782.4977,89
1604061782.4997,92
1604061782.5017,84
1604061782.5037,65
1604061782.5057,72
1604061782.5077,97
1604061782.5097,113
1604061782.5117,118
1604061782.5137,113
1604061782.5157,89
1604061782.5177,63
1604061782.5197,60
1604061782.5204,67
1604061782.5218,58
1604061782.5237,70
1604061782.5259,133
1604061782.5278,215
1604061782.5297,402
1604061782.5317,744
1604061782.5337,1084
1604061782.5357,1205
1604061782.5377,928
1604061782.5397,339
1604061782.5417,-147
1604061782.5437,-235
1604061782.5457,-87
1604061782.5477,-24
1604061782.5497,-46
1604061782.5504,-36
1604061782.5517,4
1604061782.5538,36
1604061782.5558,31
1604061782.5577,16
1604061782.5597,33
1604061782.5617,75
1604061782.5637,97
1604061782.5657,101
1604061782.5677,126
1604061782.5697,150
1604061782.5718,164
1604061782.5737,179
1604061782.5758,181
1604061782.5777,186
1604061782.5785,220
1604061782.5807,242
1604061782.5827,201
1604061782.5847,150
1604061782.5867,169
1604061782.5887,189
1604061782.5907,140
1604061782.5927,104
1604061782.5948,82
1604061782.5967,16
1604061782.5987,-24
1604061782.6007,-7
1604061782.6027,-29
1604061782.6047,-87
1604061782.6067,-72
1604061782.6087,-9
1604061782.6094,-26
1604061782.6107,-75
1604061782.6127,-26
1604061782.6147,14
1604061782.6167,-26
1604061782.6187,-14
1604061782.6207,31
1604061783.0257,19
1604061783.0267,36
1604061783.0290,77
1604061783.0317,36
1604061783.0337,-21
1604061783.0356,-7
1604061783.0364,21
1604061783.0386,26
1604061783.0406,36
1604061783.0426,36
1604061783.0447,31
1604061783.0466,63
1604061783.0486,75
1604061783.0506,12
1604061783.0526,-19
1604061783.0546,24
1604061783.0566,77
1604061783.0587,65
1604061783.0606,19
1604061783.0626,94
1604061783.0646,307
1604061783.0666,611
1604061783.0673,967
1604061783.0696,1258
1604061783.0716,1214
1604061783.0736,649
1604061783.0756,12
1604061783.0776,-230
1604061783.0796,-208
1604061783.0816,-140
1604061783.0836,-109
1604061783.0856,-123
1604061783.0876,-106
1604061783.0896,-26
1604061783.0916,0
1604061783.0936,-63
1604061783.0956,-97
1604061783.0976,-60
1604061783.0983,-26
1604061783.1006,9
1604061783.1026,60
1604061783.1046,87
1604061783.1066,123
1604061783.1086,145
1604061783.1106,75
1604061783.1126,21
1604061783.1146,75
1604061783.1166,138
1604061783.1186,150
1604061783.1206,77
1604061783.1226,55
1604061783.1248,138
1604061783.1266,150
1604061783.1286,70
1604061783.1293,12
1604061783.1316,-2
1604061783.1337,-26
1604061783.1356,-60
1604061783.1376,-60
1604061783.1396,-41
1604061783.1416,-53
1604061783.1436,-72
1604061783.1456,-58
1604061783.1476,-36
1604061783.1496,-48
1604061783.1516,-48
1604061783.1536,-2
1604061783.1556,2
1604061783.1576,-21
1604061783.1596,-4
1604061783.1603,9
1604061783.1626,9
1604061783.1646,2
1604061783.5954,-21
1604061783.5965,-38
1604061783.5989,-33
1604061783.6016,-12
1604061783.6036,0
1604061783.6055,-9
1604061783.6076,-50
1604061783.6096,-84
1604061783.6117,-63
1604061783.6135,-31
1604061783.6154,-55
1604061783.6174,-94
1604061783.6194,-87
1604061783.6214,-60
1604061783.6235,-36
1604061783.6254,19
1604061783.6274,184
1604061783.6294,538
1604061783.6314,960
1604061783.6334,1185
1604061783.6356,1006
1604061783.6375,472
1604061783.6394,-80
1604061783.6414,-354
1604061783.6435,-305
1604061783.6454,-198
1604061783.6474,-196
1604061783.6494,-189
1604061783.6514,-160
1604061783.6536,-147
1604061783.6555,-111
1604061783.6575,-70
1604061783.6595,-43
1604061783.6614,-21
1604061783.6634,-29
1604061783.6655,-38
1604061783.6674,2
1604061783.6694,58
1604061783.6715,60
1604061783.6734,24
1604061783.6754,26
1604061783.6774,67
1604061783.6795,123
1604061783.6815,126
1604061783.6834,53
1604061783.6855,38
1604061783.6874,97
1604061783.6894,92
1604061783.6914,38
1604061783.6934,60
1604061783.6954,104
1604061783.6975,60
1604061783.6994,-16
1604061783.7014,-38
1604061783.7034,-31
1604061783.7055,-38
1604061783.7074,-33
1604061783.7094,-12
1604061783.7114,-9
1604061783.7134,-14
1604061783.7155,-4
1604061783.7174,14
1604061783.7194,36
1604061783.7215,50
1604061783.7234,55
1604061783.7255,53
1604061783.7274,46
1604061783.7294,48
1604061783.7314,41
1604061783.7334,19
1604061783.7354,19
1604061783.7374,41
1604061783.7394,50
1604061784.1353,58
1604061784.1362,58
1604061784.1386,33
1604061784.1413,16
1604061784.1433,24
1604061784.1453,31
1604061784.1474,31
1604061784.1495,29
1604061784.1513,26
1604061784.1532,33
1604061784.1552,63
1604061784.1572,203
1604061784.1592,526
1604061784.1612,938
1604061784.1632,1200
1604061784.1653,1020
1604061784.1672,482
1604061784.1692,-2
1604061784.1712,-230
1604061784.1732,-218
1604061784.1753,-126
1604061784.1772,-138
1604061784.1792,-164
1604061784.1812,-113
1604061784.1832,-72
1604061784.1853,-72
1604061784.1872,-53
1604061784.1892,-31
1604061784.1912,-36
1604061784.1932,-29
1604061784.1952,-2
1604061784.1972,26
1604061784.1992,41
1604061784.2012,41
1604061784.2032,50
1604061784.2052,75
1604061784.2072,67
1604061784.2092,53
1604061784.2112,65
1604061784.2132,70
1604061784.2152,46
1604061784.2172,31
1604061784.2192,46
1604061784.2212,60
1604061784.2232,53
1604061784.2252,41
1604061784.2272,24
1604061784.2292,-4
1604061784.2312,-38
1604061784.2332,-36
1604061784.2352,0
1604061784.2372,-9
1604061784.2392,-65
1604061784.2412,-60
1604061784.2432,2
1604061784.2453,9
1604061784.2471,-9
1604061784.2492,14
1604061784.2513,38
1604061784.2532,24
1604061784.2552,4
1604061784.2572,21
1604061784.2592,60
1604061784.2611,55
1604061784.2632,0
1604061784.2652,-24
1604061784.2672,29
1604061784.2691,65
1604061784.2712,55
1604061784.2731,63
1604061784.2752,58
1604061784.2771,41
1604061784.2792,46
1604061784.6753,48
1604061784.6762,41
1604061784.6779,26
1604061784.6799,9
1604061784.6819,19
1604061784.6840,84
1604061784.6859,298
1604061784.6879,686
1604061784.6899,1074
1604061784.6919,1200
1604061784.6940,853
1604061784.6959,249
1604061784.6979,-116
1604061784.6999,-215
1604061784.7019,-201
1604061784.7040,-123
1604061784.7059,-104
1604061784.7079,-130
1604061784.7099,-101
1604061784.7120,-55
1604061784.7139,-33
1604061784.7158,-16
1604061784.7178,9
1604061784.7198,38
1604061784.7218,14
1604061784.7239,-14
1604061784.7259,19
1604061784.7278,38
1604061784.7298,33
1604061784.7318,63
1604061784.7339,99
1604061784.7359,99
1604061784.7378,65
1604061784.7398,48
1604061784.7419,63
1604061784.7439,65
1604061784.7460,50
1604061784.7479,55
1604061784.7498,65
1604061784.7518,60
1604061784.7539,48
1604061784.7558,21
1604061784.7578,-4
1604061784.7600,-16
1604061784.7618,-12
1604061784.7639,-7
1604061784.7658,-19
1604061784.7678,-9
1604061784.7698,19
1604061784.7719,12
1604061784.7739,-2
1604061784.7759,21
1604061784.7779,41
1604061784.7799,29
1604061784.7819,31
1604061784.7839,43
1604061784.7858,33
1604061784.7878,24
1604061784.7898,26
1604061784.7918,26
1604061784.7939,26
1604061784.7958,29
1604061784.7978,33
1604061784.7999,31
1604061784.8019,16
1604061784.8039,-7
1604061784.8058,-4
1604061784.8078,16
1604061784.8098,21
1604061784.8118,16
1604061784.8140,2
1604061784.8159,4
1604061784.8179,104
1604061785.2755,371
1604061785.2767,778
1604061785.2790,1149
1604061785.2817,1190
1604061785.2837,739
1604061785.2857,126
1604061785.2878,-201
1604061785.2897,-227
1604061785.2917,-150
1604061785.2937,-126
1604061785.2956,-169
1604061785.2977,-155
1604061785.2984,-89
1604061785.2997,-65
1604061785.3019,-60
1604061785.3037,-46
1604061785.3056,-31
1604061785.3076,-14
1604061785.3096,7
1604061785.3117,26
1604061785.3136,24
1604061785.3157,16
1604061785.3176,53
1604061785.3196,75
1604061785.3216,55
1604061785.3236,67
1604061785.3256,89
1604061785.3276,80
1604061785.3283,70
1604061785.3296,48
1604061785.3316,19
1604061785.3336,29
1604061785.3357,43
1604061785.3376,19
1604061785.3396,0
1604061785.3416,-7
1604061785.3436,-31
1604061785.3456,-72
1604061785.3476,-75
1604061785.3496,-24
1604061785.3516,9
1604061785.3536,-7
1604061785.3556,-19
1604061785.3576,0
1604061785.3582,24
1604061785.3597,48
1604061785.3617,67
1604061785.3636,70
1604061785.3657,70
1604061785.3676,67
1604061785.3696,58
1604061785.3715,65
1604061785.3736,160
1604061785.3756,223
1604061785.3776,99
1604061785.3797,48
1604061785.3816,147
1604061785.3836,116
1604061785.3856,53
1604061785.3862,111
1604061785.3876,82
1604061785.3896,26
1604061785.3916,97
1604061785.3936,77
1604061785.3956,26
1604061785.3978,177
1604061785.3996,502
1604061785.4016,919
1604061785.4036,1217
1604061785.4056,1081
1604061785.4076,521
1604061785.4096,4
1604061785.4116,-186
1604061785.8453,-186
1604061785.8462,-101
1604061785.8486,-9
1604061785.8512,-38
1604061785.8533,-116
1604061785.8553,-118
1604061785.8573,-130
1604061785.8592,-106
1604061785.8613,-53
1604061785.8632,-58
1604061785.8652,-48
1604061785.8672,-31
1604061785.8692,-38
1604061785.8712,-26
1604061785.8732,-9
1604061785.8739,-7
1604061785.8752,0
1604061785.8771,12
1604061785.8792,16
1604061785.8812,4
1604061785.8832,-2
1604061785.8852,12
1604061785.8872,19
1604061785.8891,2
1604061785.8912,-9
1604061785.8932,-7
1604061785.8951,7
1604061785.8972,7
1604061785.8991,4
1604061785.9012,50
1604061785.9032,9
1604061785.9039,-97
1604061785.9052,-67
1604061785.9071,-19
1604061785.9092,-65
1604061785.9112,-67
1604061785.9131,-21
1604061785.9152,-9
1604061785.9172,-19
1604061785.9192,-24
1604061785.9211,-21
1604061785.9232,-12
1604061785.9252,-4
1604061785.9273,-26
1604061785.9292,-53
1604061785.9312,-36
1604061785.9332,7
1604061785.9339,12
1604061785.9351,-7
1604061785.9372,-19
1604061785.9392,-24
1604061785.9412,-33
1604061785.9432,-41
1604061785.9452,-24
1604061785.9472,2
1604061785.9492,26
1604061785.9512,33
1604061785.9531,19
1604061785.9552,118
1604061785.9572,468
1604061785.9592,919
1604061785.9613,1176
1604061785.9632,1030
1604061785.9639,518
1604061785.9651,12
1604061785.9672,-206
1604061785.9692,-198
1604061785.9712,-140
1604061785.9732,-140
1604061785.9752,-147
1604061785.9771,-109
1604061785.9792,-80
1604061785.9812,-63
1604061786.3853,-41
1604061786.3862,-38
1604061786.3886,-31
1604061786.3912,24
1604061786.3933,65
1604061786.3939,41
1604061786.3953,31
1604061786.3973,26
1604061786.3992,9
1604061786.4013,72
1604061786.4033,123
1604061786.4053,63
1604061786.4072,26
1604061786.4092,33
1604061786.4112,9
1604061786.4132,14
1604061786.4153,48
1604061786.4172,48
1604061786.4192,33
1604061786.4212,38
1604061786.4232,43
1604061786.4241,31
1604061786.4252,16
1604061786.4272,7
1604061786.4292,14
1604061786.4312,80
1604061786.4332,116
1604061786.4353,38
1604061786.4372,-2
1604061786.4391,43
1604061786.4412,67
1604061786.4432,77
1604061786.4452,80
1604061786.4472,94
1604061786.4491,67
1604061786.4512,0
1604061786.4532,12
1604061786.4539,41
1604061786.4552,21
1604061786.4572,38
1604061786.4592,58
1604061786.4612,41
1604061786.4632,33
1604061786.4652,31
1604061786.4672,19
1604061786.4692,26
1604061786.4712,70
1604061786.4732,106
1604061786.4752,87
1604061786.4772,41
1604061786.4792,67
1604061786.4811,298
1604061786.4832,729
1604061786.4838,1173
1604061786.4851,1302
1604061786.4871,824
1604061786.4892,143
1604061786.4912,-177
1604061786.4931,-254
1604061786.4954,-215
1604061786.4972,-133
1604061786.4991,-143
1604061786.5012,-150
1604061786.5032,-109
1604061786.5052,-97
1604061786.5071,-97
1604061786.5092,-67
1604061786.5112,-48
1604061786.5132,-50
1604061786.5138,-48
1604061786.5152,-41
1604061786.5172,-36
1604061786.5194,-29
1604061786.9552,-19
1604061786.9561,-9
1604061786.9585,-14
1604061786.9612,-26
1604061786.9631,-26
1604061786.9652,-9
1604061786.9673,33
1604061786.9692,41
1604061786.9712,-14
1604061786.9732,-50
1604061786.9739,-41
1604061786.9751,-24
1604061786.9771,-43
1604061786.9791,-53
1604061786.9811,-55
1604061786.9831,-87
1604061786.9852,-55
1604061786.9871,-41
1604061786.9891,-106
1604061786.9911,-84
1604061786.9931,-9
1604061786.9952,-21
1604061786.9970,-50
1604061786.9991,-26
1604061787.0011,-2
1604061787.0030,-2
1604061787.0038,2
1604061787.0051,4
1604061787.0070,-12
1604061787.0091,-4
1604061787.0111,63
1604061787.0130,130
1604061787.0151,48
1604061787.0171,-60
1604061787.0191,29
1604061787.0211,46
1604061787.0231,-99
1604061787.0251,-60
1604061787.0271,7
1604061787.0291,-48
1604061787.0311,-31
1604061787.0331,16
1604061787.0338,63
1604061787.0351,295
1604061787.0371,732
1604061787.0391,1130
1604061787.0411,1168
1604061787.0430,688
1604061787.0451,72
1604061787.0471,-220
1604061787.0493,-249
1604061787.0512,-206
1604061787.0531,-172
1604061787.0551,-179
1604061787.0571,-169
1604061787.0591,-128
1604061787.0610,-113
1604061787.0631,-109
1604061787.0638,-99
1604061787.0651,-113
1604061787.0671,-99
1604061787.0690,-55
1604061787.0711,-48
1604061787.0731,-55
1604061787.0751,-31
1604061787.0771,-14
1604061787.0791,-14
1604061787.0811,-12
1604061787.0831,-4
1604061787.0851,41
1604061787.0871,109
1604061787.0891,50
1604061787.0911,-67
1604061787.5550,-14
1604061787.5558,38
1604061787.5581,-46
1604061787.5608,4
1604061787.5628,109
1604061787.5648,26
1604061787.5669,-50
1604061787.5688,-24
1604061787.5708,-26
1604061787.5728,-80
1604061787.5735,-60
1604061787.5748,2
1604061787.5768,12
1604061787.5788,12
1604061787.5808,29
1604061787.5828,31
1604061787.5850,33
1604061787.5868,50
1604061787.5888,53
1604061787.5907,36
1604061787.5928,21
1604061787.5947,33
1604061787.5968,53
1604061787.5987,50
1604061787.6008,53
1604061787.6027,53
1604061787.6034,14
1604061787.6048,-21
1604061787.6069,-16
1604061787.6088,-14
1604061787.6107,-14
1604061787.6128,4
1604061787.6148,-9
1604061787.6168,-33
1604061787.6188,104
1604061787.6208,504
1604061787.6228,955
1604061787.6248,1185
1604061787.6268,1037
1604061787.6288,455
1604061787.6308,-121
1604061787.6328,-295
1604061787.6334,-257
1604061787.6348,-203
1604061787.6368,-179
1604061787.6387,-206
1604061787.6407,-196
1604061787.6428,-133
1604061787.6448,-118
1604061787.6468,-111
1604061787.6488,-70
1604061787.6509,-50
1604061787.6528,-43
1604061787.6547,-19
1604061787.6567,-7
1604061787.6587,-2
1604061787.6608,9
1604061787.6628,24
1604061787.6635,38
1604061787.6648,97
1604061787.6668,179
1604061787.6687,135
1604061787.6708,65
1604061787.6728,92
1604061787.6748,48
1604061787.6768,31
1604061787.6788,111
1604061787.6808,46
1604061787.6828,-31
1604061787.6848,33
1604061787.6868,77
1604061787.6888,53
1604061787.6907,31
1604061788.0650,26
1604061788.0655,29
1604061788.0671,36
1604061788.0690,48
1604061788.0710,58
1604061788.0730,60
1604061788.0752,65
1604061788.0758,70
1604061788.0770,65
1604061788.0790,60
1604061788.0810,89
1604061788.0830,186
1604061788.0851,220
1604061788.0870,89
1604061788.0890,4
1604061788.0910,43
1604061788.0930,58
1604061788.0951,19
1604061788.0971,0
1604061788.0991,65
1604061788.1010,75
1604061788.1030,-19
1604061788.1051,-53
1604061788.1057,-24
1604061788.1070,-26
1604061788.1090,72
1604061788.1110,424
1604061788.1130,899
1604061788.1151,1214
1604061788.1170,1064
1604061788.1190,470
1604061788.1210,-53
1604061788.1231,-213
1604061788.1251,-208
1604061788.1271,-177
1604061788.1285,-143
1604061788.1301,-126
1604061788.1320,-84
1604061788.1328,24
1604061788.1351,38
1604061788.1370,-118
1604061788.1391,-147
1604061788.1410,7
1604061788.1431,-4
1604061788.1451,-111
1604061788.1470,-21
1604061788.1491,50
1604061788.1511,-60
1604061788.1531,-87
1604061788.1551,-9
1604061788.1570,-55
1604061788.1591,-99
1604061788.1605,-41
1604061788.1651,-31
1604061788.1658,-60
1604061788.1671,-48
1604061788.1691,-24
1604061788.1712,-12
1604061788.1730,4
1604061788.1751,16
1604061788.1771,16
1604061788.1790,24
1604061788.1810,16
1604061788.1831,-12
1604061788.1850,14
1604061788.1870,104
1604061788.1891,116
1604061788.1910,43
1604061788.1931,7
1604061788.1951,-29
1604061788.1957,29
1604061788.1970,123
1604061788.1990,-14
1604061788.6650,-123
1604061788.6659,7
1604061788.6671,38
1604061788.6691,-48
1604061788.6711,-19
1604061788.6731,24
1604061788.6751,-16
1604061788.6771,-31
1604061788.6790,-12
1604061788.6810,-21
1604061788.6830,-31
1604061788.6851,-14
1604061788.6870,-4
1604061788.6877,-4
1604061788.6890,9
1604061788.6910,36
1604061788.6931,135
1604061788.6950,463
1604061788.6969,953
1604061788.6990,1263
1604061788.7010,1084
1604061788.7030,465
1604061788.7049,-113
1604061788.7070,-324
1604061788.7090,-274
1604061788.7110,-177
1604061788.7130,-140
1604061788.7150,-191
1604061788.7157,-213
1604061788.7170,-130
1604061788.7190,-118
1604061788.7210,-181
1604061788.7231,-145
1604061788.7250,-87
1604061788.7270,-94
1604061788.7292,-82
1604061788.7310,-55
1604061788.7330,-58
1604061788.7350,-60
1604061788.7370,-50
1604061788.7389,-46
1604061788.7410,-33
1604061788.7430,-26
1604061788.7450,-29
1604061788.7457,-24
1604061788.7470,-19
1604061788.7490,-48
1604061788.7510,-77
1604061788.7529,-19
1604061788.7550,109
1604061788.7570,157
1604061788.7590,72
1604061788.7610,-41
1604061788.7630,-94
1604061788.7650,-24
1604061788.7670,77
1604061788.7690,-21
1604061788.7709,-133
1604061788.7730,-60
1604061788.7750,-21
1604061788.7757,-41
1604061788.7770,-4
1604061788.7790,16
1604061788.7810,2
1604061788.7830,4
1604061788.7850,4
1604061788.7869,7
1604061788.7890,29
1604061788.7910,43
1604061788.7930,31
1604061788.7950,19
1604061788.7970,16
1604061788.7990,24
1604061789.2056,33
1604061789.2068,0
1604061789.2085,-31
1604061789.2108,-2
1604061789.2129,19
1604061789.2149,19
1604061789.2168,123
1604061789.2189,468
1604061789.2208,950
1604061789.2228,1222
1604061789.2249,950
1604061789.2268,307
1604061789.2289,-143
1604061789.2310,-269
1604061789.2328,-259
1604061789.2348,-130
1604061789.2368,-82
1604061789.2388,-210
1604061789.2394,-169
1604061789.2408,-89
1604061789.2428,-203
1604061789.2448,-213
1604061789.2468,-94
1604061789.2487,-80
1604061789.2507,-101
1604061789.2525,-63
1604061789.2548,-41
1604061789.2568,-50
1604061789.2587,-38
1604061789.2608,-14
1604061789.2627,-9
1604061789.2648,-12
1604061789.2654,-12
1604061789.2668,-14
1604061789.2687,-9
1604061789.2708,-12
1604061789.2728,-29
1604061789.2748,-16
1604061789.2768,9
1604061789.2788,-2
1604061789.2808,-7
1604061789.2828,55
1604061789.2847,109
1604061789.2867,63
1604061789.2888,4
1604061789.2907,-48
1604061789.2927,-60
1604061789.2948,-7
1604061789.2955,-31
1604061789.2968,-36
1604061789.2987,43
1604061789.3007,58
1604061789.3027,26
1604061789.3048,26
1604061789.3068,29
1604061789.3088,19
1604061789.3108,26
1604061789.3128,46
1604061789.3148,48
1604061789.3168,43
1604061789.3188,46
1604061789.3208,41
1604061789.3228,36
1604061789.3248,43
1604061789.3256,12
1604061789.3268,-26
1604061789.3287,-9
1604061789.3308,2
1604061789.3328,14
1604061789.3348,162
1604061789.3367,506
1604061789.3388,957
1604061789.3407,1224
1604061789.7753,989
1604061789.7762,380
1604061789.7787,-87
1604061789.7813,-237
1604061789.7819,-218
1604061789.7844,-174
1604061789.7863,-174
1604061789.7883,-174
1604061789.7902,-152
1604061789.7922,-143
1604061789.7942,-126
1604061789.7962,-104
1604061789.7982,-94
1604061789.8002,-72
1604061789.8022,-48
1604061789.8042,-43
1604061789.8062,-41
1604061789.8082,-24
1604061789.8102,-9
1604061789.8122,-2
1604061789.8129,0
1604061789.8142,4
1604061789.8162,12
1604061789.8182,9
1604061789.8201,-9
1604061789.8222,-26
1604061789.8242,-24
1604061789.8261,-9
1604061789.8282,0
1604061789.8302,7
1604061789.8322,2
1604061789.8341,-7
1604061789.8362,-14
1604061789.8381,-26
1604061789.8401,-29
1604061789.8422,-21
1604061789.8428,-21
1604061789.8442,-21
1604061789.8462,-7
1604061789.8482,4
1604061789.8502,9
1604061789.8508,26
1604061789.8533,33
1604061789.8552,29
1604061789.8571,21
1604061789.8592,21
1604061789.8612,38
1604061789.8631,46
1604061789.8652,36
1604061789.8672,38
1604061789.8691,41
1604061789.8697,16
1604061789.8712,-2
1604061789.8732,-7
1604061789.8752,-9
1604061789.8772,-12
1604061789.8792,-14
1604061789.8811,-14
1604061789.8831,60
1604061789.8851,329
1604061789.8871,768
1604061789.8891,1176
1604061789.8911,1227
1604061789.8931,768
1604061789.8951,147
1604061789.8971,-203
1604061789.8992,-269
1604061789.8997,-189
1604061789.9011,-130
1604061789.9031,-135
1604061789.9051,-118
1604061789.9071,-92
1604061789.9092,-75
1604061790.3454,-41
1604061790.3465,-7
1604061790.3482,7
1604061790.3502,36
1604061790.3522,70
1604061790.3542,84
1604061790.3562,82
1604061790.3582,104
1604061790.3603,143
1604061790.3610,147
1604061790.3622,130
1604061790.3643,143
1604061790.3662,155
1604061790.3682,128
1604061790.3702,104
1604061790.3722,121
1604061790.3742,147
1604061790.3762,135
1604061790.3782,97
1604061790.3802,67
1604061790.3825,43
1604061790.3843,16
1604061790.3861,7
1604061790.3881,4
1604061790.3901,-14
1604061790.3907,-33
1604061790.3921,-21
1604061790.3942,2
1604061790.3961,4
1604061790.3981,9
1604061790.4001,38
1604061790.4021,70
1604061790.4041,65
1604061790.4061,38
1604061790.4081,55
1604061790.4101,106
1604061790.4122,104
1604061790.4142,92
1604061790.4161,111
1604061790.4181,99
1604061790.4201,67
1604061790.4207,80
1604061790.4221,89
1604061790.4241,65
1604061790.4261,58
1604061790.4281,99
1604061790.4301,150
1604061790.4321,240
1604061790.4341,506
1604061790.4361,911
1604061790.4381,1168
1604061790.4401,1064
1604061790.4421,567
1604061790.4442,-77
1604061790.4461,-366
1604061790.4481,-179
1604061790.4501,-7
1604061790.4507,-46
1604061790.4521,-48
1604061790.4541,-7
1604061790.4561,-9
1604061790.4581,4
1604061790.4601,33
1604061790.4621,46
1604061790.4641,43
1604061790.4661,55
1604061790.4681,87
1604061790.4701,109
1604061790.4721,111
1604061790.4741,128
1604061790.4761,162
1604061790.4783,177
1604061790.4801,186
1604061790.8552,203
1604061790.8561,213
1604061790.8585,208
1604061790.8611,198
1604061790.8632,198
1604061790.8651,184
1604061790.8672,150
1604061790.8691,116
1604061790.8711,72
1604061790.8731,24
1604061790.8752,-19
1604061790.8771,-55
1604061790.8791,-53
1604061790.8797,-36
1604061790.8811,-50
1604061790.8833,-55
1604061790.8851,-33
1604061790.8871,-29
1604061790.8891,-26
1604061790.8911,2
1604061790.8931,21
1604061790.8951,16
1604061790.8971,12
1604061790.8991,26
1604061790.9011,55
1604061790.9030,75
1604061790.9051,67
1604061790.9071,55
1604061790.9090,50
1604061790.9096,36
1604061790.9111,26
1604061790.9131,29
1604061790.9150,21
1604061790.9171,21
1604061790.9191,33
1604061790.9210,72
1604061790.9231,198
1604061790.9251,460
1604061790.9271,734
1604061790.9290,851
1604061790.9311,729
1604061790.9331,334
1604061790.9351,-145
1604061790.9370,-315
1604061790.9390,-128
1604061790.9396,-14
1604061790.9412,-75
1604061790.9430,-72
1604061790.9451,-26
1604061790.9472,-33
1604061790.9491,-26
1604061790.9510,0
1604061790.9531,7
1604061790.9550,14
1604061790.9571,33
1604061790.9591,46
1604061790.9611,58
1604061790.9631,82
1604061790.9651,104
1604061790.9670,126
1604061790.9676,145
1604061790.9691,160
1604061790.9710,160
1604061790.9730,157
1604061790.9751,150
1604061790.9771,133
1604061790.9790,118
1604061790.9811,109
1604061790.9831,80
1604061790.9851,33
1604061790.9871,-16
1604061790.9890,-63
1604061790.9911,-99
1604061791.4254,-116
1604061791.4266,-123
1604061791.4283,-133
1604061791.4307,-143
1604061791.4327,-150
1604061791.4347,-150
1604061791.4368,-143
1604061791.4387,-130
1604061791.4407,-118
1604061791.4427,-104
1604061791.4448,-89
1604061791.4467,-87
1604061791.4487,-109
1604061791.4507,-116
1604061791.4527,-84
1604061791.4547,-58
1604061791.4566,-72
1604061791.4586,-87
1604061791.4592,-87
1604061791.4607,-89
1604061791.4627,-89
1604061791.4647,-82
1604061791.4667,-80
1604061791.4686,-77
1604061791.4706,-72
1604061791.4726,-53
1604061791.4746,41
1604061791.4768,295
1604061791.4787,647
1604061791.4806,906
1604061791.4826,887
1604061791.4847,538
1604061791.4866,43
1604061791.4886,-312
1604061791.4892,-312
1604061791.4906,-147
1604061791.4926,-157
1604061791.4946,-208
1604061791.4966,-157
1604061791.4986,-133
1604061791.5006,-135
1604061791.5026,-106
1604061791.5046,-84
1604061791.5066,-82
1604061791.5086,-67
1604061791.5107,-46
1604061791.5126,-31
1604061791.5146,-12
1604061791.5166,14
1604061791.5186,38
1604061791.5192,60
1604061791.5206,77
1604061791.5226,84
1604061791.5246,84
1604061791.5266,77
1604061791.5286,70
1604061791.5306,58
1604061791.5326,53
1604061791.5346,36
1604061791.5366,-4
1604061791.5386,-48
1604061791.5406,-87
1604061791.5426,-118
1604061791.5447,-138
1604061791.5466,-140
1604061791.5486,-143
1604061791.5492,-145
1604061791.5506,-140
1604061791.5526,-135
1604061791.5546,-126
1604061791.5566,-109
1604061791.5586,-97
1604061791.5606,-87
1604061792.0253,-80
1604061792.0265,-77
1604061792.0289,-75
1604061792.0315,-60
1604061792.0335,-43
1604061792.0358,-67
1604061792.0377,-109
1604061792.0385,-97
1604061792.0405,-53
1604061792.0425,-46
1604061792.0445,-60
1604061792.0465,-67
1604061792.0485,-75
1604061792.0506,-82
1604061792.0525,-82
1604061792.0545,-75
1604061792.0565,-65
1604061792.0585,-55
1604061792.0606,-31
1604061792.0625,41
1604061792.0645,235
1604061792.0665,548
1604061792.0685,846
1604061792.0691,938
1604061792.0704,700
1604061792.0725,240
1604061792.0745,-191
1604061792.0766,-307
1604061792.0785,-150
1604061792.0805,-121
1604061792.0825,-191
1604061792.0845,-140
1604061792.0865,-89
1604061792.0885,-101
1604061792.0904,-84
1604061792.0925,-58
1604061792.0944,-53
1604061792.0965,-43
1604061792.0985,-21
1604061792.0990,-7
1604061792.1005,7
1604061792.1024,31
1604061792.1045,63
1604061792.1064,89
1604061792.1084,111
1604061792.1105,126
1604061792.1125,130
1604061792.1145,123
1604061792.1164,111
1604061792.1184,109
1604061792.1204,104
1604061792.1224,89
1604061792.1244,53
1604061792.1264,4
1604061792.1284,-33
1604061792.1290,-65
1604061792.1306,-92
1604061792.1324,-111
1604061792.1345,-116
1604061792.1364,-111
1604061792.1384,-111
1604061792.1404,-111
1604061792.1424,-101
1604061792.1445,-84
1604061792.1464,-72
1604061792.1484,-60
1604061792.1504,-55
1604061792.1524,-53
1604061792.1545,-46
1604061792.1564,-36
1604061792.1584,-33
1604061792.1590,-33
1604061792.1604,-31
1604061792.5653,-9
1604061792.5665,12
1604061792.5682,-2
1604061792.5700,-41
1604061792.5721,-36
1604061792.5741,7
1604061792.5760,24
1604061792.5781,7
1604061792.5800,-7
1604061792.5821,-16
1604061792.5841,-29
1604061792.5861,-33
1604061792.5881,-26
1604061792.5887,-19
1604061792.5901,-12
1604061792.5921,14
1604061792.5941,94
1604061792.5960,295
1604061792.5980,628
1604061792.6000,945
1604061792.6020,996
1604061792.6039,688
1604061792.6060,215
1604061792.6080,-184
1604061792.6100,-278
1604061792.6120,-121
1604061792.6141,-97
1604061792.6160,-160
1604061792.6180,-109
1604061792.6186,-65
1604061792.6200,-82
1604061792.6220,-67
1604061792.6240,-38
1604061792.6260,-33
1604061792.6282,-19
1604061792.6300,7
1604061792.6320,24
1604061792.6340,38
1604061792.6360,63
1604061792.6380,87
1604061792.6400,111
1604061792.6420,130
1604061792.6440,147
1604061792.6460,152
1604061792.6480,145
1604061792.6485,133
1604061792.6501,123
1604061792.6520,121
1604061792.6539,111
1604061792.6560,87
1604061792.6580,46
1604061792.6600,-2
1604061792.6620,-43
1604061792.6640,-75
1604061792.6660,-92
1604061792.6680,-99
1604061792.6699,-101
1604061792.6720,-97
1604061792.6740,-82
1604061792.6760,-67
1604061792.6780,-55
1604061792.6785,-43
1604061792.6800,-36
1604061792.6820,-24
1604061792.6840,-12
1604061792.6860,-7
1604061792.6880,-2
1604061792.6900,2
1604061792.6920,0
1604061792.6940,2
1604061792.6959,4
1604061792.6980,2
1604061792.6999,4
1604061793.1352,4
1604061793.1361,2
1604061793.1385,0
1604061793.1412,-2
1604061793.1432,-7
1604061793.1452,-4
1604061793.1473,-2
1604061793.1492,-4
1604061793.1512,-12
1604061793.1534,-9
1604061793.1553,-4
1604061793.1572,0
1604061793.1595,12
1604061793.1612,21
1604061793.1632,12
1604061793.1652,7
1604061793.1671,29
1604061793.1756,36
1604061793.1771,7
1604061793.1792,-14
1604061793.1811,-7
1604061793.1831,-2
1604061793.1852,-2
1604061793.1871,0
1604061793.1892,7
1604061793.1911,19
1604061793.1931,48
1604061793.1951,135
1604061793.1971,361
1604061793.1991,703
1604061793.2011,970
1604061793.2031,938
1604061793.2038,584
1604061793.2050,121
1604061793.2071,-198
1604061793.2091,-201
1604061793.2111,-58
1604061793.2131,-65
1604061793.2151,-104
1604061793.2171,-53
1604061793.2191,-24
1604061793.2211,-31
1604061793.2231,-14
1604061793.2251,4
1604061793.2271,4
1604061793.2291,12
1604061793.2311,31
1604061793.2331,50
1604061793.2337,72
1604061793.2351,97
1604061793.2371,121
1604061793.2391,143
1604061793.2411,167
1604061793.2431,186
1604061793.2451,191
1604061793.2471,191
1604061793.2491,184
1604061793.2511,172
1604061793.2531,157
1604061793.2551,150
1604061793.2571,135
1604061793.2591,106
1604061793.2611,65
1604061793.2632,21
1604061793.2639,-14
1604061793.2661,-43
1604061793.2681,-63
1604061793.2701,-72
1604061793.2721,-72
1604061793.2741,-67
1604061793.2761,-58
1604061793.2781,-41
1604061793.2801,-24
1604061793.6751,-16
1604061793.6760,-9
1604061793.6779,0
1604061793.6799,9
1604061793.6819,16
1604061793.6825,16
1604061793.6840,14
1604061793.6859,12
1604061793.6879,2
1604061793.6898,-12
1604061793.6919,-9
1604061793.6939,-4
1604061793.6958,-12
1604061793.6978,-19
1604061793.6999,-14
1604061793.7018,-16
1604061793.7039,-21
1604061793.7059,-16
1604061793.7078,-9
1604061793.7099,-12
1604061793.7119,-21
1604061793.7125,-16
1604061793.7138,12
1604061793.7158,24
1604061793.7178,12
1604061793.7199,14
1604061793.7218,41
1604061793.7239,41
1604061793.7258,9
1604061793.7278,-4
1604061793.7298,-2
1604061793.7318,-2
1604061793.7338,0
1604061793.7358,4
1604061793.7378,4
1604061793.7398,9
1604061793.7418,26
1604061793.7425,75
1604061793.7438,237
1604061793.7458,569
1604061793.7478,921
1604061793.7500,1028
1604061793.7518,739
1604061793.7538,230
1604061793.7558,-152
1604061793.7578,-232
1604061793.7598,-94
1604061793.7618,-48
1604061793.7638,-106
1604061793.7657,-77
1604061793.7678,-36
1604061793.7698,-38
1604061793.7718,-24
1604061793.7724,-2
1604061793.7738,0
1604061793.7758,9
1604061793.7778,31
1604061793.7798,50
1604061793.7818,67
1604061793.7838,84
1604061793.7858,104
1604061793.7878,126
1604061793.7898,145
1604061793.7918,157
1604061793.7938,164
1604061793.7958,162
1604061793.7978,143
1604061793.7998,113
1604061793.8017,92
1604061793.8024,77
1604061793.8038,65
1604061793.8058,43
1604061793.8078,7
1604061794.2452,-33
1604061794.2461,-67
1604061794.2485,-89
1604061794.2511,-104
1604061794.2531,-118
1604061794.2551,-135
1604061794.2572,-138
1604061794.2592,-123
1604061794.2611,-106
1604061794.2632,-94
1604061794.2651,-77
1604061794.2658,-60
1604061794.2671,-50
1604061794.2691,-43
1604061794.2711,-36
1604061794.2731,-33
1604061794.2752,-33
1604061794.2771,-36
1604061794.2791,-41
1604061794.2814,-41
1604061794.2832,-38
1604061794.2851,-41
1604061794.2871,-48
1604061794.2891,-55
1604061794.2911,-53
1604061794.2931,-53
1604061794.2952,-58
1604061794.2957,-55
1604061794.2971,-53
1604061794.2991,-60
1604061794.3011,-65
1604061794.3031,-65
1604061794.3051,-60
1604061794.3071,-55
1604061794.3091,-58
1604061794.3110,-65
1604061794.3131,-60
1604061794.3151,-43
1604061794.3171,-38
1604061794.3190,-43
1604061794.3210,-33
1604061794.3231,-2
1604061794.3251,2
1604061794.3257,-26
1604061794.3271,-46
1604061794.3291,-50
1604061794.3310,-53
1604061794.3331,-50
1604061794.3351,-48
1604061794.3371,-48
1604061794.3392,-43
1604061794.3410,-16
1604061794.3431,53
1604061794.3451,278
1604061794.3471,691
1604061794.3490,1067
1604061794.3511,1125
1604061794.3531,722
1604061794.3551,72
1604061794.3556,-339
1604061794.3570,-332
1604061794.3590,-179
1604061794.3611,-172
1604061794.3632,-213
1604061794.3651,-172
1604061794.3671,-140
1604061794.3691,-145
1604061794.3711,-130
1604061794.3731,-109
1604061794.3751,-94
1604061794.3772,-77
1604061794.3791,-58
1604061794.3811,-41
1604061794.7849,-21
1604061794.7856,-4
1604061794.7879,14
1604061794.7898,29
1604061794.7916,41
1604061794.7937,55
1604061794.7957,58
1604061794.7976,46
1604061794.7996,29
1604061794.8016,19
1604061794.8037,7
1604061794.8057,-4
1604061794.8076,-12
1604061794.8096,-21
1604061794.8116,-48
1604061794.8123,-87
1604061794.8137,-121
1604061794.8156,-147
1604061794.8176,-164
1604061794.8196,-177
1604061794.8217,-179
1604061794.8237,-179
1604061794.8256,-177
1604061794.8276,-169
1604061794.8296,-152
1604061794.8316,-130
1604061794.8337,-113
1604061794.8355,-101
1604061794.8376,-89
1604061794.8397,-77
1604061794.8416,-70
1604061794.8422,-67
1604061794.8437,-65
1604061794.8456,-70
1604061794.8476,-80
1604061794.8496,-82
1604061794.8516,-80
1604061794.8536,-82
1604061794.8557,-89
1604061794.8576,-92
1604061794.8596,-89
1604061794.8616,-89
1604061794.8637,-89
1604061794.8655,-84
1604061794.8675,-80
1604061794.8696,-84
1604061794.8716,-87
1604061794.8722,-84
1604061794.8739,-82
1604061794.8756,-82
1604061794.8776,-82
1604061794.8796,-87
1604061794.8816,-97
1604061794.8837,-97
1604061794.8856,-82
1604061794.8876,-77
1604061794.8897,-72
1604061794.8916,-53
1604061794.8937,-21
1604061794.8956,-12
1604061794.8976,-24
1604061794.8996,-41
1604061794.9016,-50
1604061794.9022,-48
1604061794.9037,-41
1604061794.9057,-38
1604061794.9076,-41
1604061794.9096,-33
1604061794.9116,-9
1604061794.9137,58
1604061794.9156,252
1604061794.9176,640
1604061794.9196,1050
1604061795.3848,1193
1604061795.3857,873
1604061795.3869,218
1604061795.3889,-281
1604061795.3909,-354
1604061795.3915,-201
1604061795.3929,-145
1604061795.3949,-184
1604061795.3969,-167
1604061795.3989,-126
1604061795.4009,-121
1604061795.4029,-101
1604061795.4048,-75
1604061795.4068,-63
1604061795.4088,-50
1604061795.4108,-38
1604061795.4129,-29
1604061795.4149,-12
1604061795.4168,9
1604061795.4189,26
1604061795.4209,43
1604061795.4214,63
1604061795.4228,82
1604061795.4249,89
1604061795.4268,84
1604061795.4288,77
1604061795.4310,72
1604061795.4329,58
1604061795.4348,43
1604061795.4368,38
1604061795.4388,38
1604061795.4408,26
1604061795.4428,-2
1604061795.4448,-36
1604061795.4468,-63
1604061795.4488,-82
1604061795.4508,-99
1604061795.4515,-106
1604061795.4528,-109
1604061795.4548,-111
1604061795.4568,-99
1604061795.4588,-77
1604061795.4608,-65
1604061795.4628,-53
1604061795.4648,-38
1604061795.4668,-29
1604061795.4688,-19
1604061795.4708,-12
1604061795.4728,-9
1604061795.4748,-9
1604061795.4768,-16
1604061795.4788,-26
1604061795.4808,-31
1604061795.4814,-29
1604061795.4828,-26
1604061795.4848,-31
1604061795.4868,-38
1604061795.4888,-41
1604061795.4907,-38
1604061795.4928,-38
1604061795.4948,-36
1604061795.4968,-36
1604061795.4988,-31
1604061795.5008,-31
1604061795.5027,-33
1604061795.5048,-29
1604061795.5068,-21
1604061795.5088,-24
1604061795.5108,-24
1604061795.5114,-19
1604061795.5128,-16
1604061795.5148,-14
1604061795.5168,0
1604061795.9550,33
1604061795.9559,58
1604061795.9583,46
1604061795.9610,46
1604061795.9632,70
1604061795.9650,48
1604061795.9671,14
1604061795.9690,31
1604061795.9710,33
1604061795.9729,-7
1604061795.9736,-7
1604061795.9749,48
1604061795.9769,130
1604061795.9789,337
1604061795.9809,749
1604061795.9829,1156
1604061795.9850,1241
1604061795.9869,882
1604061795.9889,252
1604061795.9909,-247
1604061795.9929,-310
1604061795.9949,-126
1604061795.9969,-80
1604061795.9989,-135
1604061796.0009,-94
1604061796.0029,-48
1604061796.0036,-58
1604061796.0049,-43
1604061796.0069,-4
1604061796.0089,4
1604061796.0109,9
1604061796.0129,29
1604061796.0149,29
1604061796.0169,29
1604061796.0189,50
1604061796.0209,80
1604061796.0228,101
1604061796.0249,133
1604061796.0269,162
1604061796.0289,164
1604061796.0309,164
1604061796.0328,169
1604061796.0336,157
1604061796.0349,140
1604061796.0369,130
1604061796.0389,121
1604061796.0410,111
1604061796.0428,89
1604061796.0449,50
1604061796.0469,12
1604061796.0489,-14
1604061796.0509,-33
1604061796.0529,-46
1604061796.0548,-58
1604061796.0569,-65
1604061796.0590,-63
1604061796.0609,-46
1604061796.0629,-29
1604061796.0635,-14
1604061796.0648,2
1604061796.0669,21
1604061796.0689,33
1604061796.0709,36
1604061796.0729,36
1604061796.0749,31
1604061796.0769,31
1604061796.0789,38
1604061796.0795,36
1604061796.0809,19
1604061796.0829,12
1604061796.0849,16
1604061796.0869,7
1604061796.0889,-4
1604061796.4950,-12
1604061796.4959,-12
1604061796.4983,-12
1604061796.5010,-12
1604061796.5030,-9
1604061796.5050,-7
1604061796.5071,-14
1604061796.5090,-26
1604061796.5110,-29
1604061796.5130,-4
1604061796.5150,14
1604061796.5169,4
1604061796.5190,-2
1604061796.5210,-38
1604061796.5229,-55
1604061796.5237,-7
1604061796.5249,-26
1604061796.5269,-55
1604061796.5290,14
1604061796.5310,41
1604061796.5329,4
1604061796.5350,7
1604061796.5369,12
1604061796.5389,-2
1604061796.5409,24
1604061796.5429,41
1604061796.5449,-36
1604061796.5469,-99
1604061796.5489,-65
1604061796.5509,14
1604061796.5529,106
1604061796.5536,300
1604061796.5549,717
1604061796.5570,1149
1604061796.5589,1193
1604061796.5609,705
1604061796.5629,16
1604061796.5649,-380
1604061796.5669,-383
1604061796.5689,-252
1604061796.5709,-235
1604061796.5729,-261
1604061796.5750,-220
1604061796.5769,-172
1604061796.5789,-160
1604061796.5809,-155
1604061796.5829,-140
1604061796.5836,-135
1604061796.5849,-133
1604061796.5869,-113
1604061796.5889,-94
1604061796.5909,-99
1604061796.5929,-97
1604061796.5949,-77
1604061796.5969,-60
1604061796.5989,-50
1604061796.6009,-31
1604061796.6029,-16
1604061796.6049,-24
1604061796.6069,-31
1604061796.6089,-43
1604061796.6109,-55
1604061796.6129,-58
1604061796.6135,-58
1604061796.6149,-65
1604061796.6169,-87
1604061796.6189,-121
1604061796.6209,-150
1604061796.6229,-169
1604061796.6249,-186
1604061796.6270,-198
1604061796.6289,-201
1604061796.6308,-198
1604061797.0348,-203
1604061797.0354,-203
1604061797.0358,-138
1604061797.0374,-101
1604061797.0394,-194
1604061797.0414,-194
1604061797.0434,-55
1604061797.0454,-75
1604061797.0474,-181
1604061797.0494,-147
1604061797.0514,-89
1604061797.0536,-121
1604061797.0555,-140
1604061797.0574,-87
1604061797.0594,-55
1604061797.0613,-111
1604061797.0634,-123
1604061797.0654,-75
1604061797.0660,-92
1604061797.0674,-104
1604061797.0694,-89
1604061797.0714,-92
1604061797.0734,-63
1604061797.0753,-46
1604061797.0774,-60
1604061797.0793,-60
1604061797.0814,-77
1604061797.0834,-75
1604061797.0854,-41
1604061797.0874,-50
1604061797.0893,-60
1604061797.0914,-38
1604061797.0934,-41
1604061797.0953,-26
1604061797.0959,24
1604061797.0974,31
1604061797.0994,-2
1604061797.1013,-33
1604061797.1034,-38
1604061797.1053,-19
1604061797.1074,-9
1604061797.1094,-4
1604061797.1114,-4
1604061797.1134,0
1604061797.1154,70
1604061797.1173,276
1604061797.1194,664
1604061797.1213,1064
1604061797.1234,1144
1604061797.1254,778
1604061797.1260,235
1604061797.1274,-133
1604061797.1294,-225
1604061797.1313,-189
1604061797.1334,-191
1604061797.1354,-174
1604061797.1373,-101
1604061797.1394,-80
1604061797.1414,-84
1604061797.1434,-53
1604061797.1454,-38
1604061797.1473,-53
1604061797.1495,-38
1604061797.1514,-4
1604061797.1534,9
1604061797.1554,14
1604061797.1560,26
1604061797.1573,41
1604061797.1594,60
1604061797.1613,80
1604061797.1633,99
1604061797.1654,109
1604061797.1675,109
1604061797.6050,106
1604061797.6059,99
1604061797.6083,97
1604061797.6109,101
1604061797.6130,89
1604061797.6149,65
1604061797.6170,55
1604061797.6190,38
1604061797.6210,7
1604061797.6217,-2
1604061797.6230,-2
1604061797.6249,-24
1604061797.6269,-38
1604061797.6289,-24
1604061797.6309,9
1604061797.6329,46
1604061797.6350,26
1604061797.6369,-21
1604061797.6390,33
1604061797.6409,72
1604061797.6429,12
1604061797.6449,-9
1604061797.6469,26
1604061797.6489,58
1604061797.6509,72
1604061797.6515,72
1604061797.6529,72
1604061797.6549,67
1604061797.6569,65
1604061797.6589,67
1604061797.6609,67
1604061797.6629,72
1604061797.6649,72
1604061797.6668,60
1604061797.6688,87
1604061797.6709,167
1604061797.6728,150
1604061797.6749,31
1604061797.6768,29
1604061797.6789,94
1604061797.6810,99
1604061797.6815,58
1604061797.6829,36
1604061797.6849,58
1604061797.6869,75
1604061797.6888,80
1604061797.6909,116
1604061797.6929,242
1604061797.6948,526
1604061797.6969,921
1604061797.6989,1173
1604061797.7009,1004
1604061797.7028,482
1604061797.7048,7
1604061797.7068,-177
1604061797.7088,-126
1604061797.7109,-67
1604061797.7115,-113
1604061797.7129,-145
1604061797.7148,-140
1604061797.7169,-104
1604061797.7188,-70
1604061797.7209,-99
1604061797.7229,-80
1604061797.7249,-29
1604061797.7269,-31
1604061797.7288,-29
1604061797.7308,-4
1604061797.7329,4
1604061797.7349,9
1604061797.7369,29
1604061797.7389,46
1604061797.7409,58
1604061798.1448,94
1604061798.1455,138
1604061798.1478,89
1604061798.1505,2
1604061798.1525,16
1604061798.1545,9
1604061798.1566,-33
1604061798.1585,-14
1604061798.1605,-12
1604061798.1627,-58
1604061798.1646,-94
1604061798.1665,-111
1604061798.1686,-128
1604061798.1691,-140
1604061798.1705,-152
1604061798.1725,-167
1604061798.1746,-164
1604061798.1765,-152
1604061798.1787,-150
1604061798.1806,-140
1604061798.1825,-111
1604061798.1846,-92
1604061798.1865,-101
1604061798.1885,-104
1604061798.1905,-82
1604061798.1925,-70
1604061798.1945,-80
1604061798.1965,-92
1604061798.1985,-87
1604061798.1991,-65
1604061798.2005,-53
1604061798.2024,-63
1604061798.2045,-80
1604061798.2065,-94
1604061798.2084,-72
1604061798.2104,-31
1604061798.2125,-31
1604061798.2145,-50
1604061798.2165,-41
1604061798.2185,-41
1604061798.2205,-55
1604061798.2224,-55
1604061798.2245,-43
1604061798.2265,-43
1604061798.2285,-50
1604061798.2291,-36
1604061798.2305,31
1604061798.2325,198
1604061798.2346,492
1604061798.2365,776
1604061798.2385,846
1604061798.2405,640
1604061798.2425,208
1604061798.2445,-218
1604061798.2465,-339
1604061798.2485,-172
1604061798.2504,-84
1604061798.2525,-133
1604061798.2545,-121
1604061798.2564,-77
1604061798.2585,-60
1604061798.2590,-36
1604061798.2605,-14
1604061798.2625,-4
1604061798.2645,19
1604061798.2665,48
1604061798.2685,70
1604061798.2705,99
1604061798.2725,126
1604061798.2747,152
1604061798.2766,191
1604061798.2785,223
1604061798.2805,240
1604061798.7747,261
1604061798.7755,274
1604061798.7779,274
1604061798.7796,266
1604061798.7816,247
1604061798.7837,230
1604061798.7857,203
1604061798.7876,150
1604061798.7896,80
1604061798.7916,19
1604061798.7937,-21
1604061798.7956,-58
1604061798.7976,-80
1604061798.7997,-80
1604061798.8016,-84
1604061798.8036,-94
1604061798.8055,-80
1604061798.8061,-60
1604061798.8075,-53
1604061798.8095,-33
1604061798.8116,-7
1604061798.8136,12
1604061798.8156,26
1604061798.8175,38
1604061798.8195,50
1604061798.8216,65
1604061798.8236,70
1604061798.8255,77
1604061798.8275,70
1604061798.8295,31
1604061798.8315,19
1604061798.8336,55
1604061798.8355,65
1604061798.8361,38
1604061798.8375,24
1604061798.8396,24
1604061798.8415,16
1604061798.8436,0
1604061798.8455,-9
1604061798.8475,-4
1604061798.8495,9
1604061798.8515,29
1604061798.8536,67
1604061798.8555,160
1604061798.8575,375
1604061798.8595,703
1604061798.8615,957
1604061798.8637,955
1604061798.8656,640
1604061798.8661,106
1604061798.8675,-276
1604061798.8695,-220
1604061798.8716,-4
1604061798.8736,-7
1604061798.8755,-63
1604061798.8775,-7
1604061798.8795,16
1604061798.8815,2
1604061798.8835,21
1604061798.8855,41
1604061798.8876,46
1604061798.8895,58
1604061798.8915,77
1604061798.8937,94
1604061798.8955,118
1604061798.8961,143
1604061798.8975,164
1604061798.8995,191
1604061798.9016,220
1604061798.9035,240
1604061798.9055,254
1604061798.9075,264
1604061798.9094,261
1604061799.3151,249
1604061799.3159,235
1604061799.3184,215
1604061799.3210,184
1604061799.3230,133
1604061799.3250,77
1604061799.3270,26
1604061799.3290,-12
1604061799.3296,-41
1604061799.3310,-58
1604061799.3330,-65
1604061799.3350,-70
1604061799.3371,-72
1604061799.3390,-75
1604061799.3410,-63
1604061799.3430,-43
1604061799.3450,-31
1604061799.3470,-16
1604061799.3489,0
1604061799.3510,12
1604061799.3530,19
1604061799.3549,24
1604061799.3569,29
1604061799.3589,38
1604061799.3595,48
1604061799.3612,26
1604061799.3630,-14
1604061799.3649,-9
1604061799.3669,33
1604061799.3689,43
1604061799.3709,38
1604061799.3729,38
1604061799.3750,29
1604061799.3769,21
1604061799.3789,26
1604061799.3809,31
1604061799.3829,36
1604061799.3849,41
1604061799.3869,60
1604061799.3889,111
1604061799.3895,218
1604061799.3909,443
1604061799.3929,783
1604061799.3949,1050
1604061799.3969,1033
1604061799.3989,698
1604061799.4009,194
1604061799.4029,-196
1604061799.4049,-208
1604061799.4069,-50
1604061799.4089,-70
1604061799.4109,-113
1604061799.4129,-55
1604061799.4149,-26
1604061799.4169,-36
1604061799.4189,-14
1604061799.4195,7
1604061799.4209,19
1604061799.4229,41
1604061799.4249,63
1604061799.4269,82
1604061799.4289,106
1604061799.4309,133
1604061799.4329,155
1604061799.4349,181
1604061799.4369,210
1604061799.4389,230
1604061799.4409,240
1604061799.4429,240
1604061799.4449,232
1604061799.4470,218
1604061799.4489,203
1604061799.4495,186
1604061799.8550,143
1604061799.8558,80
1604061799.8582,19
1604061799.8611,-24
1604061799.8629,-55
1604061799.8648,-80
1604061799.8669,-94
1604061799.8688,-97
1604061799.8708,-89
1604061799.8728,-84
1604061799.8748,-80
1604061799.8768,-67
1604061799.8774,-48
1604061799.8788,-33
1604061799.8808,-19
1604061799.8828,-4
1604061799.8849,9
1604061799.8868,16
1604061799.8888,19
1604061799.8908,21
1604061799.8928,21
1604061799.8948,16
1604061799.8968,19
1604061799.8988,33
1604061799.9008,16
1604061799.9028,-29
1604061799.9048,-29
1604061799.9068,19
1604061799.9073,38
1604061799.9088,19
1604061799.9107,12
1604061799.9128,4
1604061799.9148,-4
1604061799.9168,-7
1604061799.9187,0
1604061799.9207,4
1604061799.9227,7
1604061799.9248,26
1604061799.9268,87
1604061799.9287,227
1604061799.9308,511
1604061799.9327,902
1604061799.9348,1176
1604061799.9368,1093
1604061799.9373,649
1604061799.9387,70
1604061799.9408,-281
1604061799.9428,-208
1604061799.9448,-72
1604061799.9468,-135
1604061799.9488,-147
1604061799.9508,-72
1604061799.9528,-65
1604061799.9547,-67
1604061799.9569,-33
1604061799.9588,-14
1604061799.9608,-12
1604061799.9628,12
1604061799.9648,36
1604061799.9668,55
1604061799.9673,75
1604061799.9688,99
1604061799.9707,123
1604061799.9728,145
1604061799.9748,167
1604061799.9768,179
1604061799.9788,181
1604061799.9808,174
1604061799.9828,164
1604061799.9848,157
1604061799.9867,145
1604061799.9888,123
1604061799.9907,94
1604061800.4250,43
1604061800.4259,-9
1604061800.4277,-48
1604061800.4300,-80
1604061800.4320,-101
1604061800.4341,-111
1604061800.4360,-113
1604061800.4381,-121
1604061800.4400,-111
1604061800.4420,-89
1604061800.4441,-72
1604061800.4460,-63
1604061800.4479,-48
1604061800.4501,-36
1604061800.4520,-31
1604061800.4539,-19
1604061800.4560,-2
1604061800.4579,4
1604061800.4585,-4
1604061800.4600,-7
1604061800.4620,4
1604061800.4640,7
1604061800.4660,-7
1604061800.4680,-24
1604061800.4700,-29
1604061800.4720,-12
1604061800.4740,7
1604061800.4759,24
1604061800.4780,9
1604061800.4799,-43
1604061800.4820,-60
1604061800.4841,-7
1604061800.4862,29
1604061800.4880,14
1604061800.4886,4
1604061800.4899,16
1604061800.4919,36
1604061800.4940,31
1604061800.4959,-9
1604061800.4979,-16
1604061800.5000,9
1604061800.5019,14
1604061800.5039,55
1604061800.5060,252
1604061800.5079,632
1604061800.5099,1069
1604061800.5119,1299
1604061800.5139,1093
1604061800.5159,518
1604061800.5167,-92
1604061800.5179,-354
1604061800.5199,-208
1604061800.5219,-99
1604061800.5240,-169
1604061800.5259,-155
1604061800.5279,-97
1604061800.5299,-104
1604061800.5321,-94
1604061800.5341,-50
1604061800.5359,-48
1604061800.5379,-50
1604061800.5399,-14
1604061800.5419,21
1604061800.5440,24
1604061800.5459,46
1604061800.5465,80
1604061800.5479,92
1604061800.5501,106
1604061800.5519,135
1604061800.5539,150
1604061800.5559,152
1604061800.5579,155
1604061800.5599,150
1604061801.0250,135
1604061801.0259,126
1604061801.0284,123
1604061801.0310,106
1604061801.0331,63
1604061801.0350,9
1604061801.0357,-36
1604061801.0372,-67
1604061801.0391,-104
1604061801.0410,-143
1604061801.0433,-152
1604061801.0450,-135
1604061801.0470,-123
1604061801.0490,-113
1604061801.0510,-97
1604061801.0530,-82
1604061801.0549,-63
1604061801.0570,-50
1604061801.0590,-43
1604061801.0610,-38
1604061801.0629,-31
1604061801.0650,-26
1604061801.0655,-24
1604061801.0670,-19
1604061801.0690,-21
1604061801.0709,-29
1604061801.0730,-33
1604061801.0749,-36
1604061801.0769,-31
1604061801.0789,-29
1604061801.0809,-29
1604061801.0830,-29
1604061801.0850,-33
1604061801.0869,-41
1604061801.0889,-36
1604061801.0910,-16
1604061801.0929,-12
1604061801.0950,-41
1604061801.0955,-53
1604061801.0969,-7
1604061801.0989,24
1604061801.1009,4
1604061801.1029,-4
1604061801.1049,-2
1604061801.1069,-14
1604061801.1089,-21
1604061801.1109,-19
1604061801.1129,-19
1604061801.1150,-14
1604061801.1169,0
1604061801.1189,26
1604061801.1209,113
1604061801.1229,378
1604061801.1250,814
1604061801.1255,1185
1604061801.1269,1227
1604061801.1289,824
1604061801.1309,181
1604061801.1329,-261
1604061801.1350,-293
1604061801.1369,-147
1604061801.1391,-140
1604061801.1409,-181
1604061801.1429,-130
1604061801.1450,-94
1604061801.1469,-97
1604061801.1489,-77
1604061801.1510,-48
1604061801.1529,-36
1604061801.1549,-19
1604061801.1556,4
1604061801.1569,14
1604061801.1589,24
1604061801.5350,43
1604061801.5357,63
1604061801.5381,77
1604061801.5407,97
1604061801.5428,109
1604061801.5448,113
1604061801.5468,116
1604061801.5487,106
1604061801.5507,84
1604061801.5527,72
1604061801.5547,72
1604061801.5567,70
1604061801.5573,55
1604061801.5588,12
1604061801.5607,-43
1604061801.5628,-75
1604061801.5648,-94
1604061801.5667,-113
1604061801.5687,-126
1604061801.5707,-133
1604061801.5727,-130
1604061801.5748,-111
1604061801.5767,-101
1604061801.5787,-99
1604061801.5807,-84
1604061801.5827,-65
1604061801.5848,-53
1604061801.5867,-43
1604061801.5873,-36
1604061801.5887,-33
1604061801.5907,-38
1604061801.5926,-36
1604061801.5947,-33
1604061801.5967,-38
1604061801.5987,-41
1604061801.6007,-38
1604061801.6027,-43
1604061801.6047,-53
1604061801.6067,-53
1604061801.6089,-50
1604061801.6107,-53
1604061801.6127,-55
1604061801.6148,-53
1604061801.6167,-50
1604061801.6173,-55
1604061801.6187,-63
1604061801.6207,-60
1604061801.6228,-48
1604061801.6248,-50
1604061801.6267,-67
1604061801.6287,-55
1604061801.6307,-14
1604061801.6327,2
1604061801.6347,-12
1604061801.6367,-14
1604061801.6387,-12
1604061801.6407,-19
1604061801.6427,-24
1604061801.6447,-19
1604061801.6467,-16
1604061801.6473,-19
1604061801.6487,-9
1604061801.6507,24
1604061801.6527,145
1604061801.6547,451
1604061801.6567,880
1604061801.6587,1181
1604061801.6606,1093
1604061801.6627,589
1604061801.6647,2
1604061801.6667,-295
1604061801.6687,-261
1604061801.6707,-150
1604061802.1349,-157
1604061802.1358,-177
1604061802.1382,-135
1604061802.1409,-113
1604061802.1429,-111
1604061802.1449,-87
1604061802.1469,-63
1604061802.1488,-55
1604061802.1509,-38
1604061802.1529,-21
1604061802.1548,-12
1604061802.1569,7
1604061802.1588,29
1604061802.1609,48
1604061802.1628,60
1604061802.1649,75
1604061802.1654,99
1604061802.1670,118
1604061802.1689,121
1604061802.1709,116
1604061802.1728,104
1604061802.1749,92
1604061802.1768,94
1604061802.1788,97
1604061802.1808,84
1604061802.1828,60
1604061802.1848,24
1604061802.1868,-14
1604061802.1888,-46
1604061802.1908,-63
1604061802.1928,-70
1604061802.1948,-70
1604061802.1954,-67
1604061802.1968,-63
1604061802.1988,-55
1604061802.2008,-36
1604061802.2028,-14
1604061802.2049,0
1604061802.2068,9
1604061802.2088,21
1604061802.2108,26
1604061802.2128,24
1604061802.2148,19
1604061802.2168,21
1604061802.2188,21
1604061802.2208,12
1604061802.2228,2
1604061802.2248,4
1604061802.2254,2
1604061802.2268,-4
1604061802.2288,-4
1604061802.2308,-2
1604061802.2328,-9
1604061802.2348,-14
1604061802.2368,-14
1604061802.2388,-7
1604061802.2408,-19
1604061802.2428,-46
1604061802.2449,-36
1604061802.2468,7
1604061802.2488,12
1604061802.2508,-9
1604061802.2528,-2
1604061802.2548,7
1604061802.2554,0
1604061802.2568,0
1604061802.2588,9
1604061802.2608,14
1604061802.2630,19
1604061802.2648,36
1604061802.2668,89
1604061802.2688,235
1604061802.2708,569
1604061802.6747,1004
1604061802.6754,1256
1604061802.6764,1086
1604061802.6784,497
1604061802.6804,-126
1604061802.6811,-332
1604061802.6824,-169
1604061802.6845,-60
1604061802.6864,-109
1604061802.6884,-106
1604061802.6904,-55
1604061802.6924,-55
1604061802.6945,-60
1604061802.6964,-31
1604061802.6984,-14
1604061802.7004,-14
1604061802.7024,-4
1604061802.7044,14
1604061802.7063,31
1604061802.7083,41
1604061802.7104,53
1604061802.7116,70
1604061802.7134,87
1604061802.7154,99
1604061802.7174,104
1604061802.7194,101
1604061802.7213,97
1604061802.7234,82
1604061802.7254,63
1604061802.7273,48
1604061802.7293,41
1604061802.7313,29
1604061802.7333,4
1604061802.7354,-26
1604061802.7373,-53
1604061802.7393,-80
1604061802.7400,-94
1604061802.7413,-104
1604061802.7433,-109
1604061802.7453,-109
1604061802.7473,-97
1604061802.7493,-89
1604061802.7513,-80
1604061802.7534,-70
1604061802.7553,-55
1604061802.7573,-41
1604061802.7595,-31
1604061802.7614,-29
1604061802.7634,-29
1604061802.7653,-26
1604061802.7673,-31
1604061802.7693,-43
1604061802.7699,-46
1604061802.7714,-50
1604061802.7733,-55
1604061802.7753,-63
1604061802.7773,-67
1604061802.7794,-67
1604061802.7813,-67
1604061802.7834,-67
1604061802.7853,-67
1604061802.7873,-72
1604061802.7894,-77
1604061802.7913,-67
1604061802.7933,-55
1604061802.7954,-75
1604061802.7973,-99
1604061802.7993,-72
1604061802.7999,-24
1604061802.8013,-21
1604061802.8034,-38
1604061802.8053,-38
1604061802.8073,-38
1604061803.2148,-50
1604061803.2156,-53
1604061803.2180,-41
1604061803.2206,-33
1604061803.2226,-31
1604061803.2247,-21
1604061803.2267,19
1604061803.2286,152
1604061803.2306,455
1604061803.2326,846
1604061803.2332,1101
1604061803.2346,1006
1604061803.2366,521
1604061803.2386,-58
1604061803.2406,-337
1604061803.2426,-257
1604061803.2447,-147
1604061803.2466,-181
1604061803.2485,-186
1604061803.2506,-133
1604061803.2526,-121
1604061803.2546,-118
1604061803.2566,-92
1604061803.2585,-70
1604061803.2608,-58
1604061803.2627,-43
1604061803.2632,-21
1604061803.2646,-2
1604061803.2666,16
1604061803.2686,33
1604061803.2705,55
1604061803.2726,77
1604061803.2746,89
1604061803.2766,104
1604061803.2786,116
1604061803.2806,116
1604061803.2826,106
1604061803.2846,94
1604061803.2866,84
1604061803.2886,70
1604061803.2906,50
1604061803.2925,21
1604061803.2931,-19
1604061803.2946,-67
1604061803.2966,-101
1604061803.2985,-118
1604061803.3005,-130
1604061803.3026,-140
1604061803.3046,-145
1604061803.3065,-143
1604061803.3086,-135
1604061803.3106,-123
1604061803.3126,-106
1604061803.3146,-92
1604061803.3165,-77
1604061803.3186,-65
1604061803.3206,-55
1604061803.3225,-41
1604061803.3231,-31
1604061803.3246,-33
1604061803.3266,-41
1604061803.3285,-43
1604061803.3306,-43
1604061803.3326,-46
1604061803.3346,-48
1604061803.3366,-50
1604061803.3385,-50
1604061803.3406,-53
1604061803.3426,-55
1604061803.3447,-55
1604061803.3465,-53
1604061803.3486,-53
1604061803.3506,-48
1604061803.8151,-48
1604061803.8160,-55
1604061803.8187,-60
1604061803.8211,-55
1604061803.8231,-48
1604061803.8251,-60
1604061803.8271,-77
1604061803.8290,-53
1604061803.8310,-7
1604061803.8331,-4
1604061803.8350,-21
1604061803.8371,-16
1604061803.8390,-19
1604061803.8410,-29
1604061803.8416,-24
1604061803.8432,-16
1604061803.8450,-14
1604061803.8470,-9
1604061803.8490,4
1604061803.8510,58
1604061803.8530,215
1604061803.8550,543
1604061803.8570,933
1604061803.8590,1147
1604061803.8610,972
1604061803.8630,429
1604061803.8650,-113
1604061803.8670,-310
1604061803.8690,-201
1604061803.8710,-116
1604061803.8716,-152
1604061803.8730,-145
1604061803.8750,-99
1604061803.8770,-94
1604061803.8790,-92
1604061803.8810,-70
1604061803.8830,-55
1604061803.8851,-50
1604061803.8870,-36
1604061803.8890,-16
1604061803.8910,2
1604061803.8930,19
1604061803.8950,33
1604061803.8970,55
1604061803.8990,80
1604061803.9010,99
1604061803.9016,111
1604061803.9030,118
1604061803.9051,118
1604061803.9070,106
1604061803.9090,87
1604061803.9110,77
1604061803.9130,70
1604061803.9152,60
1604061803.9171,31
1604061803.9190,-9
1604061803.9210,-48
1604061803.9230,-77
1604061803.9250,-97
1604061803.9270,-113
1604061803.9290,-126
1604061803.9311,-128
1604061803.9316,-121
1604061803.9330,-109
1604061803.9350,-94
1604061803.9370,-84
1604061803.9390,-75
1604061803.9410,-65
1604061803.9430,-53
1604061803.9450,-48
1604061803.9470,-38
1604061803.9490,-29
1604061803.9510,-26
1604061804.3249,-26
1604061804.3256,-24
1604061804.3280,-31
1604061804.3306,-43
1604061804.3327,-43
1604061804.3333,-41
1604061804.3347,-46
1604061804.3366,-58
1604061804.3387,-63
1604061804.3407,-60
1604061804.3427,-63
1604061804.3447,-72
1604061804.3466,-75
1604061804.3486,-72
1604061804.3506,-70
1604061804.3526,-63
1604061804.3546,-58
1604061804.3566,-67
1604061804.3587,-67
1604061804.3606,-31
1604061804.3612,-9
1604061804.3628,-21
1604061804.3646,-24
1604061804.3665,-16
1604061804.3686,-14
1604061804.3706,-19
1604061804.3726,-21
1604061804.3746,-14
1604061804.3766,-12
1604061804.3786,-12
1604061804.3806,7
1604061804.3828,99
1604061804.3847,356
1604061804.3866,768
1604061804.3886,1115
1604061804.3906,1156
1604061804.3912,773
1604061804.3926,140
1604061804.3947,-293
1604061804.3966,-298
1604061804.3986,-138
1604061804.4006,-130
1604061804.4026,-179
1604061804.4046,-135
1604061804.4066,-99
1604061804.4086,-99
1604061804.4106,-77
1604061804.4126,-58
1604061804.4146,-50
1604061804.4166,-31
1604061804.4186,-12
1604061804.4206,7
1604061804.4212,19
1604061804.4226,33
1604061804.4247,55
1604061804.4266,84
1604061804.4286,104
1604061804.4306,123
1604061804.4326,138
1604061804.4346,138
1604061804.4366,133
1604061804.4386,130
1604061804.4406,121
1604061804.4426,113
1604061804.4447,104
1604061804.4466,77
