Time,ECG
1606913742.8274,2386
1606913742.8299,4792
1606913742.8325,6128
1606913742.8352,6879
1606913742.8375,7866
1606913742.8390,8621
1606913742.8410,9087
1606913742.8429,9601
1606913742.8449,10052
1606913742.8469,10351
1606913742.8492,10636
1606913742.8516,10918
1606913742.8537,11142
1606913742.8558,11328
1606913742.8578,11499
1606913742.8596,11652
1606913742.8609,11760
1606913742.8629,11849
1606913742.8649,11951
1606913742.8669,12004
1606913742.8689,12052
1606913742.8709,12344
1606913742.8729,12969
1606913742.8749,13471
1606913742.8769,13232
1606913742.8788,12460
1606913742.8809,12069
1606913742.8828,12231
1606913742.8848,12298
1606913742.8868,12192
1606913742.8888,12223
1606913742.8908,12272
1606913742.8928,12226
1606913742.8948,12211
1606913742.8968,12235
1606913742.8988,12221
1606913742.9008,12178
1606913742.9028,12151
1606913742.9048,12146
1606913742.9068,12115
1606913742.9088,12071
1606913742.9108,12045
1606913742.9128,12021
1606913742.9148,11982
1606913742.9168,11951
1606913742.9189,11931
1606913742.9208,11893
1606913742.9228,11842
1606913742.9249,11801
1606913742.9268,11760
1606913742.9290,11709
1606913742.9308,11639
1606913742.9328,11562
1606913742.9348,11497
1606913742.9368,11427
1606913742.9389,11331
1606913742.9408,11229
1606913742.9428,11142
1606913742.9448,11056
1606913742.9468,10964
1606913742.9488,10879
1606913742.9507,10812
1606913742.9527,10742
1606913742.9548,10660
1606913742.9568,10578
1606913742.9588,10513
1606913742.9608,10445
1606913742.9628,10368
1606913742.9648,10298
1606913742.9669,10235
1606913742.9688,10163
1606913742.9708,10083
1606913742.9728,10008
1606913743.3964,9943
1606913743.3976,9871
1606913743.4001,9786
1606913743.4027,9709
1606913743.4047,9644
1606913743.4067,9560
1606913743.4087,9470
1606913743.4107,9405
1606913743.4127,9347
1606913743.4147,9253
1606913743.4167,9140
1606913743.4187,9067
1606913743.4207,9007
1606913743.4227,8918
1606913743.4247,8833
1606913743.4267,8763
1606913743.4287,8686
1606913743.4307,8602
1606913743.4328,8527
1606913743.4347,8459
1606913743.4367,8377
1606913743.4386,8290
1606913743.4406,8218
1606913743.4426,8153
1606913743.4446,8078
1606913743.4466,7994
1606913743.4487,7914
1606913743.4506,7846
1606913743.4528,7769
1606913743.4547,7680
1606913743.4566,7620
1606913743.4586,7574
1606913743.4606,7506
1606913743.4626,7424
1606913743.4646,7352
1606913743.4666,7282
1606913743.4686,7209
1606913743.4706,7137
1606913743.4726,7050
1606913743.4746,6968
1606913743.4766,6891
1606913743.4787,6818
1606913743.4806,6758
1606913743.4826,6700
1606913743.4846,6630
1606913743.4866,6553
1606913743.4886,6490
1606913743.4906,6430
1606913743.4926,6353
1606913743.4946,6244
1606913743.4965,6184
1606913743.4987,6384
1606913743.5006,6922
1606913743.5026,7313
1606913743.5046,6915
1606913743.5066,6003
1606913743.5086,5542
1606913743.5106,5667
1606913743.5126,5680
1606913743.5146,5508
1606913743.5166,5472
1606913743.5186,5470
1606913743.5206,5390
1606913743.5226,5337
1606913743.5246,5306
1606913743.5266,5250
1606913743.5286,5197
1606913743.5306,5156
1606913743.5326,5103
1606913743.5346,5043
1606913743.5366,4987
1606913743.5386,4944
1606913743.5406,4903
1606913743.9652,4862
1606913743.9662,4825
1606913743.9687,4787
1606913743.9713,4743
1606913743.9733,4710
1606913743.9753,4678
1606913743.9776,4630
1606913743.9793,4574
1606913743.9812,4524
1606913743.9832,4473
1606913743.9852,4405
1606913743.9873,4319
1606913743.9893,4249
1606913743.9912,4186
1606913743.9932,4111
1606913743.9952,4044
1606913743.9972,3990
1606913743.9993,3940
1606913744.0013,3889
1606913744.0033,3841
1606913744.0052,3797
1606913744.0073,3749
1606913744.0094,3706
1606913744.0112,3670
1606913744.0134,3638
1606913744.0152,3602
1606913744.0173,3556
1606913744.0193,3518
1606913744.0212,3486
1606913744.0233,3450
1606913744.0254,3409
1606913744.0274,3373
1606913744.0293,3337
1606913744.0312,3300
1606913744.0332,3264
1606913744.0352,3228
1606913744.0372,3192
1606913744.0392,3158
1606913744.0412,3122
1606913744.0432,3083
1606913744.0452,3052
1606913744.0472,3016
1606913744.0492,2979
1606913744.0512,2948
1606913744.0532,2917
1606913744.0552,2881
1606913744.0573,2849
1606913744.0592,2818
1606913744.0612,2786
1606913744.0632,2753
1606913744.0652,2721
1606913744.0672,2692
1606913744.0692,2666
1606913744.0712,2634
1606913744.0732,2605
1606913744.0752,2572
1606913744.0772,2535
1606913744.0794,2502
1606913744.0813,2482
1606913744.0832,2470
1606913744.0853,2453
1606913744.0872,2424
1606913744.0892,2405
1606913744.0912,2388
1606913744.0932,2352
1606913744.0952,2301
1606913744.0972,2263
1606913744.0992,2244
1606913744.1012,2222
1606913744.1032,2190
1606913744.1052,2169
1606913744.1072,2154
1606913744.1092,2128
1606913744.5060,2099
1606913744.5067,2075
1606913744.5092,2036
1606913744.5118,1966
1606913744.5138,1968
1606913744.5158,2277
1606913744.5179,2890
1606913744.5197,3257
1606913744.5217,2842
1606913744.5237,1990
1606913744.5257,1592
1606913744.5278,1727
1606913744.5297,1744
1606913744.5317,1616
1606913744.5337,1633
1606913744.5357,1662
1606913744.5378,1621
1606913744.5397,1614
1606913744.5417,1626
1606913744.5437,1607
1606913744.5457,1587
1606913744.5478,1578
1606913744.5497,1568
1606913744.5517,1553
1606913744.5537,1544
1606913744.5557,1541
1606913744.5577,1534
1606913744.5597,1529
1606913744.5617,1529
1606913744.5637,1532
1606913744.5657,1529
1606913744.5677,1527
1606913744.5697,1527
1606913744.5717,1522
1606913744.5737,1508
1606913744.5759,1486
1606913744.5779,1459
1606913744.5797,1430
1606913744.5817,1397
1606913744.5837,1353
1606913744.5857,1312
1606913744.5877,1281
1606913744.5898,1252
1606913744.5917,1220
1606913744.5937,1199
1606913744.5957,1189
1606913744.5977,1175
1606913744.5997,1158
1606913744.6017,1146
1606913744.6037,1141
1606913744.6057,1129
1606913744.6077,1117
1606913744.6098,1107
1606913744.6117,1100
1606913744.6137,1093
1606913744.6157,1080
1606913744.6177,1076
1606913744.6197,1071
1606913744.6217,1059
1606913744.6237,1049
1606913744.6257,1042
1606913744.6277,1037
1606913744.6297,1027
1606913744.6317,1015
1606913744.6337,1006
1606913744.6357,998
1606913744.6378,986
1606913744.6397,974
1606913744.6417,969
1606913744.6437,957
1606913744.6457,945
1606913744.6477,936
1606913744.6497,926
1606913745.0461,916
1606913745.0470,907
1606913745.0496,900
1606913745.0521,890
1606913745.0541,875
1606913745.0561,861
1606913745.0582,854
1606913745.0601,851
1606913745.0621,851
1606913745.0641,846
1606913745.0661,844
1606913745.0681,844
1606913745.0700,825
1606913745.0722,789
1606913745.0741,774
1606913745.0761,781
1606913745.0781,776
1606913745.0800,762
1606913745.0820,757
1606913745.0840,752
1606913745.0860,743
1606913745.0880,735
1606913745.0900,735
1606913745.0920,721
1606913745.0940,678
1606913745.0960,644
1606913745.0980,827
1606913745.1000,1365
1606913745.1020,1915
1606913745.1040,1836
1606913745.1060,1064
1606913745.1080,446
1606913745.1100,487
1606913745.1120,624
1606913745.1140,523
1606913745.1160,499
1606913745.1181,567
1606913745.1200,557
1606913745.1220,540
1606913745.1240,562
1606913745.1260,562
1606913745.1281,554
1606913745.1300,559
1606913745.1320,564
1606913745.1340,562
1606913745.1360,569
1606913745.1380,574
1606913745.1401,579
1606913745.1420,583
1606913745.1440,598
1606913745.1460,610
1606913745.1481,620
1606913745.1500,629
1606913745.1520,639
1606913745.1540,641
1606913745.1560,639
1606913745.1580,629
1606913745.1600,617
1606913745.1620,603
1606913745.1640,579
1606913745.1660,547
1606913745.1680,521
1606913745.1700,497
1606913745.1720,475
1606913745.1742,458
1606913745.1761,443
1606913745.1781,436
1606913745.1800,431
1606913745.1820,427
1606913745.1840,427
1606913745.1860,424
1606913745.1880,417
1606913745.1900,415
1606913745.5861,410
1606913745.5868,405
1606913745.5893,402
1606913745.5919,405
1606913745.5939,402
1606913745.5959,400
1606913745.5979,393
1606913745.5999,390
1606913745.6019,390
1606913745.6039,388
1606913745.6059,388
1606913745.6079,393
1606913745.6099,393
1606913745.6119,386
1606913745.6139,376
1606913745.6159,378
1606913745.6179,383
1606913745.6198,378
1606913745.6218,374
1606913745.6238,374
1606913745.6258,374
1606913745.6279,369
1606913745.6298,366
1606913745.6318,366
1606913745.6338,364
1606913745.6358,361
1606913745.6379,364
1606913745.6399,364
1606913745.6418,357
1606913745.6438,349
1606913745.6458,345
1606913745.6479,345
1606913745.6498,347
1606913745.6519,352
1606913745.6538,359
1606913745.6558,369
1606913745.6580,374
1606913745.6598,374
1606913745.6618,361
1606913745.6638,337
1606913745.6658,323
1606913745.6679,330
1606913745.6700,335
1606913745.6719,330
1606913745.6738,328
1606913745.6758,328
1606913745.6779,325
1606913745.6798,325
1606913745.6819,325
1606913745.6894,313
1606913745.6909,272
1606913745.6929,258
1606913745.6948,475
1606913745.6968,1039
1606913745.6989,1544
1606913745.7008,1360
1606913745.7028,559
1606913745.7048,38
1606913745.7068,149
1606913745.7088,260
1606913745.7108,156
1606913745.7128,159
1606913745.7148,221
1606913745.7168,205
1606913745.7188,200
1606913745.7209,224
1606913745.7228,226
1606913745.7248,221
1606913745.7268,234
1606913745.7289,241
1606913745.7308,243
1606913745.7329,250
1606913745.7348,263
1606913746.1866,275
1606913746.1876,289
1606913746.1901,296
1606913746.1927,301
1606913746.1946,313
1606913746.1966,332
1606913746.1986,345
1606913746.2006,347
1606913746.2026,349
1606913746.2046,347
1606913746.2066,335
1606913746.2086,325
1606913746.2106,308
1606913746.2125,287
1606913746.2146,260
1606913746.2165,234
1606913746.2186,217
1606913746.2205,205
1606913746.2225,193
1606913746.2245,188
1606913746.2268,183
1606913746.2286,180
1606913746.2305,183
1606913746.2325,188
1606913746.2345,188
1606913746.2365,190
1606913746.2386,193
1606913746.2405,195
1606913746.2426,200
1606913746.2445,202
1606913746.2465,205
1606913746.2486,202
1606913746.2507,202
1606913746.2526,202
1606913746.2546,200
1606913746.2565,200
1606913746.2585,202
1606913746.2605,202
1606913746.2625,202
1606913746.2646,202
1606913746.2665,202
1606913746.2686,197
1606913746.2706,197
1606913746.2725,200
1606913746.2745,200
1606913746.2768,197
1606913746.2786,200
1606913746.2805,200
1606913746.2826,200
1606913746.2845,200
1606913746.2865,197
1606913746.2885,197
1606913746.2905,197
1606913746.2925,200
1606913746.2945,197
1606913746.2965,195
1606913746.2985,190
1606913746.3005,180
1606913746.3026,173
1606913746.3046,173
1606913746.3065,180
1606913746.3085,193
1606913746.3105,205
1606913746.3125,212
1606913746.3145,219
1606913746.3165,219
1606913746.3186,202
1606913746.3205,183
1606913746.3225,183
1606913746.3245,193
1606913746.3265,190
1606913746.3287,183
1606913746.3306,185
1606913746.7564,188
1606913746.7576,185
1606913746.7601,185
1606913746.7627,188
1606913746.7648,176
1606913746.7667,132
1606913746.7695,156
1606913746.7708,458
1606913746.7727,1042
1606913746.7747,1380
1606913746.7767,957
1606913746.7786,185
1606913746.7807,-94
1606913746.7826,79
1606913746.7847,108
1606913746.7866,16
1606913746.7886,55
1606913746.7906,94
1606913746.7926,74
1606913746.7946,82
1606913746.7966,106
1606913746.7986,108
1606913746.8006,113
1606913746.8026,125
1606913746.8047,132
1606913746.8066,139
1606913746.8086,152
1606913746.8106,159
1606913746.8126,168
1606913746.8146,183
1606913746.8166,197
1606913746.8186,212
1606913746.8206,226
1606913746.8226,238
1606913746.8246,253
1606913746.8266,258
1606913746.8286,255
1606913746.8306,248
1606913746.8326,236
1606913746.8346,224
1606913746.8366,209
1606913746.8386,190
1606913746.8406,166
1606913746.8426,142
1606913746.8445,125
1606913746.8466,113
1606913746.8486,106
1606913746.8506,98
1606913746.8526,94
1606913746.8547,91
1606913746.8566,94
1606913746.8585,94
1606913746.8606,98
1606913746.8626,106
1606913746.8646,110
1606913746.8666,115
1606913746.8686,118
1606913746.8706,123
1606913746.8726,127
1606913746.8746,127
1606913746.8766,127
1606913746.8786,127
1606913746.8806,125
1606913746.8826,125
1606913746.8846,127
1606913746.8866,130
1606913746.8886,127
1606913746.8906,125
1606913746.8926,127
1606913746.8946,130
1606913746.8966,130
1606913746.8987,130
1606913746.9006,127
1606913747.2971,127
1606913747.2979,127
1606913747.2995,127
1606913747.3015,130
1606913747.3034,132
1606913747.3055,130
1606913747.3075,127
1606913747.3095,125
1606913747.3115,125
1606913747.3135,118
1606913747.3154,110
1606913747.3174,118
1606913747.3194,120
1606913747.3223,113
1606913747.3234,108
1606913747.3256,110
1606913747.3274,115
1606913747.3294,125
1606913747.3314,142
1606913747.3334,152
1606913747.3341,156
1606913747.3354,161
1606913747.3375,156
1606913747.3394,135
1606913747.3414,120
1606913747.3435,125
1606913747.3455,135
1606913747.3476,130
1606913747.3494,127
1606913747.3514,132
1606913747.3534,132
1606913747.3554,130
1606913747.3574,130
1606913747.3595,127
1606913747.3615,103
1606913747.3634,79
1606913747.3641,226
1606913747.3654,716
1606913747.3675,1261
1606913747.3694,1191
1606913747.3715,446
1606913747.3734,-106
1606913747.3757,-48
1606913747.3774,69
1606913747.3796,-7
1606913747.3814,-14
1606913747.3834,45
1606913747.3855,38
1606913747.3874,33
1606913747.3894,60
1606913747.3914,69
1606913747.3923,72
1606913747.3935,84
1606913747.3956,89
1606913747.3974,94
1606913747.3994,103
1606913747.4014,113
1606913747.4034,123
1606913747.4054,137
1606913747.4074,154
1606913747.4097,166
1606913747.4114,178
1606913747.4134,195
1606913747.4154,207
1606913747.4174,214
1606913747.4194,217
1606913747.4202,214
1606913747.4224,202
1606913747.4244,190
1606913747.4266,178
1606913747.4285,156
1606913747.4304,127
1606913747.4324,106
1606913747.8957,89
1606913747.8975,74
1606913747.8980,65
1606913747.9002,57
1606913747.9022,53
1606913747.9043,50
1606913747.9062,45
1606913747.9085,41
1606913747.9172,48
1606913747.9325,55
1606913747.9393,57
1606913747.9412,65
1606913747.9434,69
1606913747.9453,72
1606913747.9472,77
1606913747.9492,77
1606913747.9512,79
1606913747.9532,79
1606913747.9539,79
1606913747.9563,79
1606913747.9586,82
1606913747.9603,84
1606913747.9622,84
1606913747.9642,84
1606913747.9663,86
1606913747.9683,86
1606913747.9703,86
1606913747.9722,86
1606913747.9742,91
1606913747.9764,89
1606913747.9783,84
1606913747.9803,86
1606913747.9823,91
1606913747.9843,94
1606913747.9849,91
1606913747.9862,86
1606913747.9882,84
1606913747.9903,86
1606913747.9925,86
1606913747.9943,86
1606913747.9964,86
1606913747.9982,89
1606913748.0003,91
1606913748.0022,91
1606913748.0042,89
1606913748.0063,86
1606913748.0175,84
1606913748.0351,91
1606913748.0382,103
1606913748.0388,115
1606913748.0404,125
1606913748.0433,135
1606913748.0443,139
1606913748.0463,125
1606913748.0483,101
1606913748.0503,94
1606913748.0525,103
1606913748.0543,110
1606913748.0563,108
1606913748.0587,106
1606913748.0603,108
1606913748.0623,106
1606913748.0643,106
1606913748.0663,106
1606913748.0670,103
1606913748.0683,67
1606913748.0703,45
1606913748.0724,243
1606913748.0743,784
1606913748.0763,1290
1606913748.0798,1122
1606913748.0815,349
1606913748.0914,-144
1606913748.4349,-45
1606913748.4352,57
1606913748.4365,-28
1606913748.4385,-26
1606913748.4406,26
1606913748.4436,12
1606913748.4471,12
1606913748.4490,36
1606913748.4505,36
1606913748.4526,36
1606913748.4545,50
1606913748.4565,50
1606913748.4588,45
1606913748.4606,60
1606913748.4628,74
1606913748.4634,84
1606913748.4645,96
1606913748.4665,113
1606913748.4686,127
1606913748.4705,142
1606913748.4725,156
1606913748.4746,166
1606913748.4768,171
1606913748.4786,171
1606913748.4806,166
1606913748.4825,164
1606913748.4845,152
1606913748.4865,135
1606913748.4885,113
1606913748.4905,89
1606913748.4926,67
1606913748.4932,53
1606913748.4945,43
1606913748.4967,36
1606913748.4991,31
1606913748.5022,24
1606913748.5176,21
1606913748.5199,21
1606913748.5215,24
1606913748.5235,28
1606913748.5256,33
1606913748.5278,38
1606913748.5299,45
1606913748.5315,48
1606913748.5335,53
1606913748.5356,60
1606913748.5375,62
1606913748.5382,62
1606913748.5395,67
1606913748.5415,72
1606913748.5437,69
1606913748.5457,69
1606913748.5477,72
1606913748.5495,69
1606913748.5515,69
1606913748.5536,72
1606913748.5555,72
1606913748.5576,72
1606913748.5597,72
1606913748.5618,72
1606913748.5638,74
1606913748.5655,77
1606913748.5677,77
1606913748.5682,74
1606913748.5695,77
1606913748.5715,79
1606913748.5735,77
1606913748.5770,77
1606913748.5815,79
1606913748.5828,79
1606913748.6233,82
1606913748.6522,82
1606913748.6724,82
1606913748.9764,84
1606913748.9797,84
1606913748.9821,84
1606913748.9848,84
1606913748.9878,79
1606913748.9892,62
1606913748.9910,53
1606913748.9928,60
1606913748.9948,77
1606913748.9967,91
1606913748.9988,101
1606913749.0007,106
1606913749.0031,106
1606913749.0050,103
1606913749.0067,84
1606913749.0093,69
1606913749.0107,74
1606913749.0128,82
1606913749.0151,82
1606913749.0168,82
1606913749.0188,82
1606913749.0208,74
1606913749.0228,74
1606913749.0248,79
1606913749.0268,77
1606913749.0290,53
1606913749.0310,21
1606913749.0327,137
1606913749.0365,598
1606913749.0380,1189
1606913749.0397,1242
1606913749.0425,542
1606913749.0437,-103
1606913749.0457,-120
1606913749.0477,31
1606913749.0535,-28
1606913749.0617,-65
1606913749.0636,-4
1606913749.0659,0
1606913749.0687,-14
1606913749.0697,9
1606913749.0717,26
1606913749.0737,26
1606913749.0757,33
1606913749.0778,41
1606913749.0797,43
1606913749.0817,50
1606913749.0837,62
1606913749.0857,72
1606913749.0880,82
1606913749.0897,101
1606913749.0920,113
1606913749.0937,123
1606913749.0957,142
1606913749.0978,159
1606913749.0997,168
1606913749.1017,173
1606913749.1037,173
1606913749.1058,166
1606913749.1078,154
1606913749.1098,139
1606913749.1117,120
1606913749.1137,96
1606913749.1160,67
1606913749.1179,41
1606913749.1197,28
1606913749.1217,19
1606913749.1237,7
1606913749.1258,2
1606913749.1278,4
1606913749.1297,4
1606913749.1317,7
1606913749.1337,9
1606913749.5758,14
1606913749.5762,21
1606913749.5777,28
1606913749.5795,28
1606913749.5815,33
1606913749.5835,36
1606913749.5855,28
1606913749.5877,28
1606913749.5895,41
1606913749.5915,45
1606913749.5935,43
1606913749.5955,45
1606913749.5975,53
1606913749.5995,50
1606913749.6015,45
1606913749.6036,50
1606913749.6055,57
1606913749.6076,53
1606913749.6096,50
1606913749.6116,53
1606913749.6136,55
1606913749.6156,55
1606913749.6176,55
1606913749.6196,60
1606913749.6216,62
1606913749.6236,62
1606913749.6256,60
1606913749.6276,55
1606913749.6296,57
1606913749.6316,65
1606913749.6336,67
1606913749.6356,65
1606913749.6376,67
1606913749.6396,65
1606913749.6416,57
1606913749.6436,53
1606913749.6456,57
1606913749.6476,67
1606913749.6496,82
1606913749.6516,91
1606913749.6536,94
1606913749.6559,103
1606913749.6576,106
1606913749.6596,86
1606913749.6616,65
1606913749.6636,65
1606913749.6656,74
1606913749.6676,77
1606913749.6696,74
1606913749.6716,72
1606913749.6736,72
1606913749.6756,77
1606913749.6776,79
1606913749.6797,79
1606913749.6817,67
1606913749.6837,31
1606913749.6857,57
1606913749.6878,369
1606913749.6897,984
1606913749.6917,1331
1606913749.6937,859
1606913749.6957,38
1606913749.6977,-221
1606913749.6997,-16
1606913749.7017,9
1606913749.7037,-77
1606913749.7057,-31
1606913749.7077,2
1606913749.7097,-21
1606913749.7117,-4
1606913749.7137,26
1606913749.7156,26
1606913749.7177,24
1606913750.1178,38
1606913750.1205,48
1606913750.1232,53
1606913750.1258,65
1606913750.1280,74
1606913750.1295,89
1606913750.1318,101
1606913750.1335,108
1606913750.1355,120
1606913750.1375,147
1606913750.1398,164
1606913750.1420,164
1606913750.1445,166
1606913750.1467,168
1606913750.1488,164
1606913750.1505,152
1606913750.1525,135
1606913750.1545,115
1606913750.1565,82
1606913750.1590,48
1606913750.1605,26
1606913750.1625,14
1606913750.1645,-2
1606913750.1665,-14
1606913750.1686,-14
1606913750.1705,-16
1606913750.1725,-26
1606913750.1745,-26
1606913750.1765,-14
1606913750.1788,-7
1606913750.1813,-2
1606913750.1835,4
1606913750.1857,9
1606913750.1878,14
1606913750.1895,21
1606913750.1915,31
1606913750.1935,36
1606913750.1955,38
1606913750.1975,41
1606913750.1995,43
1606913750.2015,45
1606913750.2035,48
1606913750.2055,48
1606913750.2075,48
1606913750.2095,50
1606913750.2115,53
1606913750.2135,53
1606913750.2155,50
1606913750.2176,53
1606913750.2198,57
1606913750.2221,53
1606913750.2243,53
1606913750.2268,57
1606913750.2291,57
1606913750.2305,55
1606913750.2325,55
1606913750.2345,57
1606913750.2365,57
1606913750.2385,57
1606913750.2405,60
1606913750.2425,62
1606913750.2445,62
1606913750.2465,60
1606913750.2485,62
1606913750.2505,65
1606913750.2525,65
1606913750.2545,60
1606913750.2565,57
1606913750.2588,55
1606913750.2610,57
1606913750.2644,74
1606913750.2678,86
1606913750.2698,86
1606913750.6870,91
1606913750.6887,98
1606913750.6912,84
1606913750.6930,60
1606913750.6947,53
1606913750.7081,65
1606913750.7107,72
1606913750.7169,65
1606913750.7187,53
1606913750.7206,50
1606913750.7227,55
1606913750.7247,57
1606913750.7267,57
1606913750.7286,45
1606913750.7307,14
1606913750.7327,4
1606913750.7348,234
1606913750.7367,813
1606913750.7387,1331
1606913750.7407,1155
1606913750.7427,349
1606913750.7447,-193
1606913750.7483,-103
1606913750.7497,4
1606913750.7516,-98
1606913750.7537,-98
1606913750.7559,-31
1606913750.7577,-41
1606913750.7596,-45
1606913750.7616,-19
1606913750.7643,-14
1606913750.7656,-12
1606913750.7676,0
1606913750.7696,4
1606913750.7718,9
1606913750.7736,24
1606913750.7757,33
1606913750.7777,38
1606913750.7797,53
1606913750.7816,72
1606913750.7836,86
1606913750.7856,103
1606913750.7877,123
1606913750.7896,137
1606913750.7916,147
1606913750.7937,149
1606913750.8013,152
1606913750.8057,147
1606913750.8080,130
1606913750.8100,106
1606913750.8127,82
1606913750.8147,57
1606913750.8188,33
1606913750.8206,16
1606913750.8229,7
1606913750.8247,-2
1606913750.8266,-4
1606913750.8287,-7
1606913750.8386,-7
1606913750.8406,-7
1606913750.8426,-4
1606913750.8446,0
1606913750.8466,2
1606913750.8486,9
1606913750.8559,9
1606913750.8577,2
1606913750.8687,9
1606913750.8766,21
1606913750.8799,26
1606913750.8809,28
1606913750.8835,31
1606913750.8847,38
1606913750.8865,41
1606913751.2264,43
1606913751.2282,45
1606913751.2306,48
1606913751.2333,45
1606913751.2352,48
1606913751.2372,50
1606913751.2395,50
1606913751.2413,48
1606913751.2518,43
1606913751.2539,36
1606913751.2556,28
1606913751.2574,33
1606913751.2610,38
1606913751.2624,36
1606913751.2643,36
1606913751.2663,43
1606913751.2683,43
1606913751.2703,43
1606913751.2723,45
1606913751.2743,50
1606913751.2764,50
1606913751.2786,48
1606913751.2803,50
1606913751.2823,53
1606913751.2843,53
1606913751.2863,55
1606913751.2887,55
1606913751.2903,57
1606913751.2924,50
1606913751.2943,43
1606913751.2964,48
1606913751.2983,67
1606913751.3193,79
1606913751.3207,86
1606913751.3226,96
1606913751.3245,103
1606913751.3266,89
1606913751.3286,65
1606913751.3305,60
1606913751.3328,65
1606913751.3346,65
1606913751.3364,62
1606913751.3386,62
1606913751.3405,67
1606913751.3449,65
1606913751.3626,57
1606913751.3645,62
1606913751.3665,65
1606913751.3687,36
1606913751.3705,-2
1606913751.3725,139
1606913751.3745,641
1606913751.3775,1237
1606913751.3803,1278
1606913751.3815,574
1606913751.3837,-106
1606913751.3857,-149
1606913751.3884,2
1606913751.3895,-62
1606913751.4035,-106
1606913751.4045,-45
1606913751.4065,-41
1606913751.4095,-55
1606913751.4296,-38
1606913751.4346,-28
1606913751.4359,-12
1606913751.4376,9
1606913751.4395,9
1606913751.4415,4
1606913751.4438,19
1606913751.4455,31
1606913751.4475,38
1606913751.4495,50
1606913751.7662,60
1606913751.7670,74
1606913751.7695,96
1606913751.7723,110
1606913751.7743,120
1606913751.7761,123
1606913751.7781,118
1606913751.7801,120
1606913751.7821,130
1606913751.7841,137
1606913751.7861,113
1606913751.7881,72
1606913751.7901,48
1606913751.7920,38
1606913751.7941,21
1606913751.7961,2
1606913751.7981,-7
1606913751.8001,-21
1606913751.8021,-26
1606913751.8041,-16
1606913751.8061,-12
1606913751.8082,-14
1606913751.8102,-9
1606913751.8122,-4
1606913751.8142,2
1606913751.8162,9
1606913751.8182,12
1606913751.8202,19
1606913751.8222,28
1606913751.8242,31
1606913751.8262,28
1606913751.8282,31
1606913751.8302,41
1606913751.8322,41
1606913751.8342,38
1606913751.8362,50
1606913751.8382,55
1606913751.8402,45
1606913751.8422,50
1606913751.8442,57
1606913751.8462,53
1606913751.8482,53
1606913751.8502,57
1606913751.8522,57
1606913751.8542,55
1606913751.8562,62
1606913751.8583,67
1606913751.8686,50
1606913751.8702,41
1606913751.8721,55
1606913751.8741,67
1606913751.8761,60
1606913751.8782,45
1606913751.8802,38
1606913751.8822,45
1606913751.8847,67
1606913751.8863,74
1606913751.8884,62
1606913751.8903,57
1606913751.8922,62
1606913751.8942,65
1606913751.8962,60
1606913751.8982,55
1606913751.9002,45
1606913751.9022,43
1606913751.9042,57
1606913751.9064,60
1606913751.9082,57
1606913751.9102,67
1606913751.9122,79
1606913751.9142,82
1606913751.9162,91
1606913751.9182,103
1606913752.3373,96
1606913752.3399,77
1606913752.3423,60
1606913752.3445,50
1606913752.3473,48
1606913752.3493,57
1606913752.3509,67
1606913752.3529,65
1606913752.3550,57
1606913752.3569,50
1606913752.3592,48
1606913752.3614,57
1606913752.3635,55
1606913752.3656,7
1606913752.3681,57
1606913752.3699,427
1606913752.3719,1023
1606913752.3739,1276
1606913752.3759,767
1606913752.3784,36
1606913752.3850,-171
1606913752.3940,-31
1606913752.3961,-48
1606913752.3980,-110
1606913752.4038,-48
1606913752.4053,-21
1606913752.4069,-50
1606913752.4089,-36
1606913752.4109,-12
1606913752.4129,-12
1606913752.4149,-4
1606913752.4207,4
1606913752.4221,14
1606913752.4243,21
1606913752.4261,24
1606913752.4279,31
1606913752.4299,43
1606913752.4370,60
1606913752.4390,72
1606913752.4409,84
1606913752.4430,103
1606913752.4450,118
1606913752.4470,123
1606913752.4590,130
1606913752.4604,135
1606913752.4621,135
1606913752.4640,135
1606913752.4695,125
1606913752.4712,101
1606913752.4730,74
1606913752.4752,50
1606913752.4770,26
1606913752.4790,9
1606913752.4810,0
1606913752.4866,-9
1606913752.4881,-14
1606913752.4901,-16
1606913752.4922,-24
1606913752.4941,-24
1606913752.4960,-19
1606913752.5057,-16
1606913752.5081,-9
1606913752.5099,9
1606913752.5112,12
1606913752.5131,4
1606913752.5186,9
1606913752.5200,16
1606913752.5214,19
1606913752.5231,26
1606913752.5252,28
1606913752.5271,26
1606913752.5291,33
1606913752.5312,36
1606913752.9377,31
1606913752.9398,33
1606913752.9423,41
1606913752.9454,41
1606913752.9489,26
1606913752.9510,16
1606913752.9529,21
1606913752.9549,31
1606913752.9569,41
1606913752.9590,41
1606913752.9706,36
1606913752.9724,33
1606913752.9741,36
1606913752.9760,33
1606913752.9811,28
1606913752.9830,26
1606913752.9850,28
1606913752.9870,33
1606913752.9890,36
1606913752.9910,33
1606913752.9930,36
1606913752.9986,38
1606913752.9999,38
1606913753.0020,41
1606913753.0041,41
1606913753.0060,41
1606913753.0082,43
1606913753.0191,38
1606913753.0211,33
1606913753.0232,38
1606913753.0255,48
1606913753.0349,57
1606913753.0369,67
1606913753.0512,77
1606913753.0521,82
1606913753.0541,69
1606913753.0561,48
1606913753.0582,31
1606913753.0633,33
1606913753.0647,41
1606913753.0662,41
1606913753.0683,43
1606913753.0702,48
1606913753.0722,50
1606913753.0742,43
1606913753.0798,36
1606913753.0813,38
1606913753.0833,36
1606913753.0852,-2
1606913753.0872,50
1606913753.0892,427
1606913753.0912,1047
1606913753.0968,1283
1606913753.0983,694
1606913753.1003,-86
1606913753.1022,-246
1606913753.1042,-41
1606913753.1062,-48
1606913753.1099,-118
1606913753.1132,-62
1606913753.1144,-38
1606913753.1163,-53
1606913753.1187,-28
1606913753.1202,-12
1606913753.1223,-16
1606913753.1242,-7
1606913753.1299,4
1606913753.1313,4
1606913753.1333,14
1606913753.1353,31
1606913753.1373,41
1606913753.1393,45
1606913753.1453,65
1606913753.4835,91
1606913753.4862,108
1606913753.4925,123
1606913753.4939,142
1606913753.4957,156
1606913753.4979,161
1606913753.4997,164
1606913753.5017,159
1606913753.5037,149
1606913753.5099,137
1606913753.5127,98
1606913753.5149,53
1606913753.5281,26
1606913753.5297,2
1606913753.5318,-24
1606913753.5338,-33
1606913753.5358,-41
1606913753.5413,-48
1606913753.5698,-48
1606913753.5723,-45
1606913753.5768,-43
1606913753.5786,-41
1606913753.5809,-31
1606913753.5827,-24
1606913753.5848,-16
1606913753.5867,-12
1606913753.5896,-7
1606913753.5907,-4
1606913753.5927,-4
1606913753.5948,0
1606913753.5968,9
1606913753.5988,19
1606913753.6007,24
1606913753.6027,26
1606913753.6056,28
1606913753.6067,26
1606913753.6088,24
1606913753.6107,26
1606913753.6150,26
1606913753.6167,26
1606913753.6190,28
1606913753.6235,26
1606913753.6247,26
1606913753.6268,38
1606913753.6287,36
1606913753.6308,26
1606913753.6331,31
1606913753.6351,41
1606913753.6396,36
1606913753.6408,38
1606913753.6428,50
1606913753.6447,50
1606913753.6467,48
1606913753.6488,48
1606913753.6507,43
1606913753.6527,28
1606913753.6559,28
1606913753.6578,48
1606913753.6597,48
1606913753.6617,45
1606913753.6638,69
1606913753.6657,77
1606913753.6678,69
1606913753.6723,89
1606913753.6733,86
1606913753.6747,43
1606913753.6767,36
1606913753.6775,57
1606913753.6788,50
1606913753.6807,38
1606913753.6826,50
1606913753.6847,65
1606913753.6872,55
1606913754.0458,38
1606913754.0469,45
1606913754.0481,53
1606913754.0515,14
1606913754.0531,-24
1606913754.0551,149
1606913754.0570,694
1606913754.0591,1278
1606913754.0603,1211
1606913754.0621,419
1606913754.0641,-202
1606913754.0672,-161
1606913754.0707,-24
1606913754.0721,-113
1606913754.0741,-132
1606913754.0761,-62
1606913754.0782,-67
1606913754.0801,-77
1606913754.0870,-50
1606913754.0894,-45
1606913754.0911,-48
1606913754.0932,-38
1606913754.0952,-21
1606913754.0972,-14
1606913754.1026,-14
1606913754.1042,-12
1606913754.1062,0
1606913754.1082,24
1606913754.1103,41
1606913754.1122,48
1606913754.1142,57
1606913754.1188,79
1606913754.1205,101
1606913754.1222,113
1606913754.1242,120
1606913754.1262,118
1606913754.1282,110
1606913754.1302,96
1606913754.1356,79
1606913754.1373,65
1606913754.1386,43
1606913754.1402,14
1606913754.1422,-12
1606913754.1442,-31
1606913754.1462,-33
1606913754.1518,-21
1606913754.1532,-26
1606913754.1544,-36
1606913754.1562,-26
1606913754.1583,-24
1606913754.1602,-31
1606913754.1622,-28
1606913754.1650,-12
1606913754.1695,0
1606913754.1712,-2
1606913754.1732,-2
1606913754.1745,12
1606913754.1762,21
1606913754.1783,19
1606913754.1802,16
1606913754.1856,21
1606913754.1872,24
1606913754.1892,21
1606913754.1912,28
1606913754.1932,41
1606913754.1952,38
1606913754.2029,33
1606913754.2057,31
1606913754.2079,28
1606913754.2099,31
1606913754.2113,38
1606913754.2132,48
1606913754.2183,43
1606913754.6504,33
1606913754.6520,28
1606913754.6545,36
1606913754.6572,48
1606913754.6592,43
1606913754.6640,36
1606913754.6652,41
1606913754.6671,43
1606913754.6691,38
1606913754.6711,31
1606913754.6731,24
1606913754.6773,21
1606913754.6809,19
1606913754.6821,14
1606913754.6832,24
1606913754.6852,45
1606913754.6872,57
1606913754.6892,57
1606913754.6912,69
1606913754.6943,69
1606913754.6979,48
1606913754.6992,26
1606913754.7012,28
1606913754.7032,36
1606913754.7053,33
1606913754.7072,31
1606913754.7123,36
1606913754.7183,41
1606913754.7202,41
1606913754.7214,38
1606913754.7232,45
1606913754.7256,33
1606913754.7307,-12
1606913754.7322,12
1606913754.7342,340
1606913754.7362,948
1606913754.7382,1312
1606913754.7402,933
1606913754.7460,152
1606913754.7474,-209
1606913754.7492,-79
1606913754.7512,-36
1606913754.7532,-123
1606913754.7552,-94
1606913754.7572,-55
1606913754.7660,-69
1606913754.7687,-60
1606913754.7707,-33
1606913754.7723,-31
1606913754.7743,-26
1606913754.7800,-16
1606913754.7813,-16
1606913754.7833,-14
1606913754.7853,-2
1606913754.7874,4
1606913754.7893,16
1606913754.7951,36
1606913754.7965,50
1606913754.7985,62
1606913754.8003,77
1606913754.8023,96
1606913754.8035,113
1606913754.8054,120
1606913754.8073,125
1606913754.8170,123
1606913754.8190,115
1606913754.8204,106
1606913754.8224,89
1606913754.8283,60
1606913754.8299,33
1606913754.8314,14
1606913754.8334,-2
1606913754.8354,-21
1606913755.1595,-26
1606913755.1611,-19
1606913755.1636,-19
1606913755.1663,-24
1606913755.1675,-19
1606913755.1694,-19
1606913755.1747,-24
1606913755.1801,-24
1606913755.1813,-14
1606913755.1833,-14
1606913755.1853,-12
1606913755.1909,-4
1606913755.1924,2
1606913755.1943,4
1606913755.1963,2
1606913755.1983,2
1606913755.2003,4
1606913755.2023,7
1606913755.2078,7
1606913755.2093,9
1606913755.2106,19
1606913755.2123,21
1606913755.2143,19
1606913755.2163,16
1606913755.2185,19
1606913755.2287,24
1606913755.2301,31
1606913755.2314,28
1606913755.2334,19
1606913755.2353,21
1606913755.2388,28
1606913755.2426,28
1606913755.2443,26
1606913755.2463,24
1606913755.2484,21
1606913755.2504,21
1606913755.2518,21
1606913755.2573,28
1606913755.2587,41
1606913755.2603,26
1606913755.2623,9
1606913755.2643,26
1606913755.2663,48
1606913755.2685,41
1606913755.2789,38
1606913755.2804,53
1606913755.2824,60
1606913755.2844,65
1606913755.2879,72
1606913755.2920,53
1606913755.2934,24
1606913755.2954,26
1606913755.2969,45
1606913755.2985,45
1606913755.3004,33
1606913755.3024,38
1606913755.3080,43
1606913755.3094,43
1606913755.3115,43
1606913755.3135,38
1606913755.3155,21
1606913755.3175,-12
1606913755.3230,4
1606913755.3246,272
1606913755.3265,851
1606913755.3285,1293
1606913755.3305,1008
1606913755.3325,200
1606913755.3344,-229
1606913755.3411,-89
1606913755.3425,-24
1606913755.3445,-135
1606913755.3465,-113
1606913755.7022,-57
1606913755.7037,-82
1606913755.7063,-79
1606913755.7093,-55
1606913755.7109,-53
1606913755.7129,-50
1606913755.7190,-41
1606913755.7202,-36
1606913755.7219,-26
1606913755.7239,-19
1606913755.7259,-19
1606913755.7279,-7
1606913755.7300,9
1606913755.7358,31
1606913755.7372,53
1606913755.7389,65
1606913755.7409,82
1606913755.7429,106
1606913755.7449,125
1606913755.7469,123
1606913755.7572,120
1606913755.7591,120
1606913755.7610,106
1606913755.7629,84
1606913755.7689,62
1606913755.7702,28
1606913755.7720,-12
1606913755.7740,-31
1606913755.7761,-38
1606913755.7780,-62
1606913755.7800,-65
1606913755.7830,-33
1606913755.7866,-33
1606913755.7880,-60
1606913755.7900,-57
1606913755.7921,-38
1606913755.7941,-36
1606913755.7960,-38
1606913755.7988,-43
1606913755.8075,-36
1606913755.8093,-19
1606913755.8110,-9
1606913755.8130,-16
1606913755.8179,-19
1606913755.8194,-7
1606913755.8210,9
1606913755.8230,19
1606913755.8250,16
1606913755.8270,16
1606913755.8291,21
1606913755.8345,19
1606913755.8358,12
1606913755.8370,12
1606913755.8390,19
1606913755.8414,19
1606913755.8431,19
1606913755.8450,24
1606913755.8471,19
1606913755.8531,14
1606913755.8551,26
1606913755.8571,43
1606913755.8591,38
1606913755.8611,28
1606913755.8631,24
1606913755.8688,19
1606913755.8701,16
1606913755.8721,21
1606913755.8741,19
1606913755.8761,14
1606913755.8787,19
1606913755.8877,33
1606913755.8894,48
1606913755.8911,53
1606913756.3001,57
1606913756.3016,69
1606913756.3027,65
1606913756.3046,38
1606913756.3066,16
1606913756.3087,21
1606913756.3138,33
1606913756.3157,33
1606913756.3177,24
1606913756.3197,26
1606913756.3217,33
1606913756.3237,31
1606913756.3291,26
1606913756.3307,31
1606913756.3327,16
1606913756.3347,-21
1606913756.3367,72
1606913756.3389,513
1606913756.3414,1138
1606913756.3498,1254
1606913756.3517,557
1606913756.3537,-168
1606913756.3557,-221
1606913756.3580,-24
1606913756.3674,-69
1606913756.3692,-123
1606913756.3708,-57
1606913756.3727,-45
1606913756.3748,-55
1606913756.3814,-26
1606913756.3829,-14
1606913756.3848,-14
1606913756.3872,0
1606913756.3890,4
1606913756.3908,12
1606913756.3965,31
1606913756.3978,41
1606913756.3998,45
1606913756.4018,60
1606913756.4038,72
1606913756.4058,89
1606913756.4157,118
1606913756.4180,139
1606913756.4200,147
1606913756.4219,149
1606913756.4241,156
1606913756.4294,171
1606913756.4309,166
1606913756.4329,144
1606913756.4349,127
1606913756.4369,108
1606913756.4389,67
1606913756.4410,31
1606913756.4463,14
1606913756.4479,0
1606913756.4499,-16
1606913756.4519,-28
1606913756.4539,-41
1606913756.4559,-45
1606913756.4618,-45
1606913756.4631,-41
1606913756.4649,-41
1606913756.4669,-41
1606913756.4689,-36
1606913756.4709,-31
1606913756.4729,-24
1606913756.4779,-16
1606913756.4795,-14
1606913756.4809,0
1606913756.4829,12
1606913756.4849,7
1606913756.4869,4
1606913756.4892,12
1606913756.8677,12
1606913756.8705,9
1606913756.8731,12
1606913756.8758,14
1606913756.8783,14
1606913756.8795,16
1606913756.8817,19
1606913756.8835,19
1606913756.8855,14
1606913756.8875,7
1606913756.8904,4
1606913756.8932,7
1606913756.8956,9
1606913756.8983,9
1606913756.8998,9
1606913756.9015,4
1606913756.9035,4
1606913756.9055,12
1606913756.9075,16
1606913756.9095,14
1606913756.9115,9
1606913756.9135,12
1606913756.9155,24
1606913756.9175,28
1606913756.9195,26
1606913756.9215,24
1606913756.9235,24
1606913756.9259,24
1606913756.9275,26
1606913756.9299,24
1606913756.9323,21
1606913756.9351,19
1606913756.9373,24
1606913756.9390,38
1606913756.9405,48
1606913756.9425,57
1606913756.9445,74
1606913756.9465,77
1606913756.9485,57
1606913756.9505,41
1606913756.9525,36
1606913756.9546,38
1606913756.9565,43
1606913756.9585,41
1606913756.9606,38
1606913756.9627,38
1606913756.9645,43
1606913756.9665,36
1606913756.9687,33
1606913756.9709,36
1606913756.9731,-7
1606913756.9754,-43
1606913756.9779,161
1606913756.9795,726
1606913756.9815,1290
1606913756.9835,1252
1606913756.9855,494
1606913756.9876,-180
1606913756.9899,-173
1606913756.9922,-19
1606913756.9944,-120
1606913756.9972,-142
1606913756.9993,-53
1606913757.0006,-62
1606913757.0025,-89
1606913757.0045,-57
1606913757.0065,-33
1606913757.0085,-38
1606913757.0105,-31
1606913757.0125,-19
1606913757.0145,-14
1606913757.0165,-12
1606913757.0187,-2
1606913757.4077,9
1606913757.4106,21
1606913757.4133,33
1606913757.4159,48
1606913757.4180,69
1606913757.4197,89
1606913757.4217,96
1606913757.4237,103
1606913757.4257,118
1606913757.4278,123
1606913757.4301,108
1606913757.4322,89
1606913757.4347,82
1606913757.4371,65
1606913757.4392,33
1606913757.4407,4
1606913757.4427,-7
1606913757.4447,-14
1606913757.4467,-28
1606913757.4487,-41
1606913757.4507,-41
1606913757.4527,-31
1606913757.4547,-31
1606913757.4567,-31
1606913757.4589,-31
1606913757.4607,-31
1606913757.4627,-21
1606913757.4647,-14
1606913757.4667,-12
1606913757.4689,-7
1606913757.4714,0
1606913757.4736,0
1606913757.4760,4
1606913757.4782,7
1606913757.4797,9
1606913757.4816,14
1606913757.4861,16
1606913757.4874,14
1606913757.4887,9
1606913757.4911,14
1606913757.4929,24
1606913757.4947,24
1606913757.4967,14
1606913757.4987,12
1606913757.5007,24
1606913757.5027,24
1606913757.5047,16
1606913757.5067,16
1606913757.5092,21
1606913757.5114,21
1606913757.5135,19
1606913757.5159,21
1606913757.5181,21
1606913757.5197,24
1606913757.5217,31
1606913757.5237,33
1606913757.5258,28
1606913757.5279,26
1606913757.5300,28
1606913757.5325,31
1606913757.5355,33
1606913757.5376,31
1606913757.5394,33
1606913757.5406,38
1606913757.5427,36
1606913757.5447,33
1606913757.5468,36
1606913757.5487,33
1606913757.5507,28
1606913757.5527,28
1606913757.5547,28
1606913757.5567,38
1606913757.5588,60
1606913757.9478,72
1606913757.9505,69
1606913757.9532,72
1606913757.9559,69
1606913757.9581,50
1606913757.9607,36
1606913757.9698,38
1606913757.9716,41
1606913757.9736,31
1606913757.9756,28
1606913757.9779,36
1606913757.9801,33
1606913757.9826,28
1606913757.9847,31
1606913757.9869,41
1606913757.9889,21
1606913757.9906,-24
1606913757.9931,45
1606913757.9949,441
1606913757.9967,1047
1606913757.9987,1281
1606913758.0007,760
1606913758.0027,12
1606913758.0047,-209
1606913758.0066,-53
1606913758.0088,-60
1606913758.0107,-137
1606913758.0126,-84
1606913758.0146,-57
1606913758.0166,-86
1606913758.0186,-74
1606913758.0206,-48
1606913758.0227,-48
1606913758.0248,-41
1606913758.0267,-24
1606913758.0287,-26
1606913758.0307,-28
1606913758.0327,-9
1606913758.0349,4
1606913758.0367,7
1606913758.0387,21
1606913758.0407,43
1606913758.0439,55
1606913758.0465,69
1606913758.0479,89
1606913758.0496,98
1606913758.0516,106
1606913758.0536,110
1606913758.0556,106
1606913758.0577,101
1606913758.0596,91
1606913758.0616,77
1606913758.0636,55
1606913758.0656,33
1606913758.0677,9
1606913758.0696,-7
1606913758.0716,-16
1606913758.0736,-21
1606913758.0756,-21
1606913758.0778,-21
1606913758.0803,-24
1606913758.0825,-24
1606913758.0846,-21
1606913758.0868,-19
1606913758.0888,-16
1606913758.0906,-7
1606913758.0926,-2
1606913758.0946,0
1606913758.0970,0
1606913758.0987,2
1606913758.1006,7
1606913758.1026,12
1606913758.1046,12
1606913758.5171,14
1606913758.5197,16
1606913758.5219,19
1606913758.5240,28
1606913758.5263,28
1606913758.5284,12
1606913758.5304,4
1606913758.5324,19
1606913758.5344,24
1606913758.5364,12
1606913758.5386,4
1606913758.5408,21
1606913758.5432,38
1606913758.5457,31
1606913758.5478,19
1606913758.5496,24
1606913758.5514,28
1606913758.5534,21
1606913758.5558,19
1606913758.5574,19
1606913758.5594,19
1606913758.5614,19
1606913758.5634,24
1606913758.5654,31
1606913758.5675,31
1606913758.5700,28
1606913758.5722,21
1606913758.5744,19
1606913758.5768,21
1606913758.5787,16
1606913758.5804,19
1606913758.5824,31
1606913758.5844,28
1606913758.5864,19
1606913758.5884,19
1606913758.5904,14
1606913758.5924,9
1606913758.5944,21
1606913758.5966,53
1606913758.5986,69
1606913758.6008,65
1606913758.6030,62
1606913758.6053,69
1606913758.6075,53
1606913758.6093,21
1606913758.6114,16
1606913758.6137,38
1606913758.6154,43
1606913758.6176,36
1606913758.6199,31
1606913758.6220,33
1606913758.6242,36
1606913758.6266,38
1606913758.6287,33
1606913758.6304,24
1606913758.6324,-4
1606913758.6344,-12
1606913758.6364,205
1606913758.6384,755
1606913758.6404,1225
1606913758.6424,1003
1606913758.6444,226
1606913758.6464,-231
1606913758.6484,-120
1606913758.6503,-36
1606913758.6524,-123
1606913758.6544,-108
1606913758.6564,-65
1606913758.6586,-84
1606913758.6609,-72
1606913758.6631,-41
1606913758.6652,-38
1606913758.6673,-45
1606913759.0574,-33
1606913759.0603,-24
1606913759.0630,-19
1606913759.0656,-9
1606913759.0678,-7
1606913759.0694,-9
1606913759.0714,9
1606913759.0734,31
1606913759.0755,31
1606913759.0774,53
1606913759.0796,96
1606913759.0817,103
1606913759.0842,106
1606913759.0863,118
1606913759.0887,113
1606913759.1017,101
1606913759.1033,91
1606913759.1055,77
1606913759.1075,55
1606913759.1094,26
1606913759.1114,-2
1606913759.1134,-28
1606913759.1155,-45
1606913759.1175,-53
1606913759.1198,-60
1606913759.1214,-65
1606913759.1234,-50
1606913759.1255,-43
1606913759.1275,-53
1606913759.1294,-48
1606913759.1314,-38
1606913759.1334,-33
1606913759.1354,-24
1606913759.1375,-21
1606913759.1400,-24
1606913759.1423,-19
1606913759.1445,-14
1606913759.1468,-16
1606913759.1489,-2
1606913759.1504,14
1606913759.1525,9
1606913759.1544,-2
1606913759.1564,2
1606913759.1584,19
1606913759.1604,21
1606913759.1624,9
1606913759.1645,7
1606913759.1664,16
1606913759.1685,14
1606913759.1704,9
1606913759.1724,19
1606913759.1744,26
1606913759.1765,19
1606913759.1787,19
1606913759.1809,26
1606913759.1830,24
1606913759.1850,24
1606913759.1871,26
1606913759.1896,31
1606913759.1920,31
1606913759.2094,26
1606913759.2113,21
1606913759.2133,16
1606913759.2153,19
1606913759.2173,19
1606913759.2194,19
1606913759.2214,38
1606913759.2234,57
1606913759.2255,67
1606913759.2274,72
1606913759.2297,67
1606913759.2319,45
1606913759.2343,24
1606913759.6629,28
1606913759.6641,43
1606913759.6851,36
1606913759.6866,21
1606913759.6886,19
1606913759.6906,28
1606913759.6926,21
1606913759.6945,14
1606913759.6966,21
1606913759.6987,9
1606913759.7005,-26
1606913759.7026,0
1606913759.7045,284
1606913759.7065,871
1606913759.7086,1242
1606913759.7106,810
1606913759.7126,-21
1606913759.7146,-318
1606913759.7166,-96
1606913759.7187,-33
1606913759.7206,-127
1606913759.7226,-94
1606913759.7246,-50
1606913759.7266,-65
1606913759.7287,-53
1606913759.7307,-28
1606913759.7327,-28
1606913759.7347,-26
1606913759.7366,-14
1606913759.7386,-7
1606913759.7406,0
1606913759.7426,16
1606913759.7447,26
1606913759.7466,28
1606913759.7488,41
1606913759.7507,62
1606913759.7527,86
1606913759.7547,103
1606913759.7568,115
1606913759.7591,127
1606913759.7614,139
1606913759.7635,142
1606913759.7657,137
1606913759.7680,127
1606913759.7697,115
1606913759.7718,94
1606913759.7738,60
1606913759.7758,26
1606913759.7786,2
1606913759.7812,-12
1606913759.7833,-26
1606913759.7854,-36
1606913759.7875,-36
1606913759.7894,-41
1606913759.7910,-41
1606913759.7927,-36
1606913759.7947,-36
1606913759.7967,-36
1606913759.7987,-26
1606913759.8007,-14
1606913759.8028,-7
1606913759.8105,-2
1606913759.8127,0
1606913759.8149,4
1606913759.8169,9
1606913759.8194,12
1606913759.8216,9
1606913759.8239,9
1606913759.8261,14
1606913759.8282,14
1606913759.8297,14
1606913759.8317,21
1606913759.8337,24
1606913760.2578,19
1606913760.2607,14
1606913760.2633,16
1606913760.2660,19
1606913760.2680,16
1606913760.2697,12
1606913760.2719,7
1606913760.2737,4
1606913760.2757,0
1606913760.2779,-14
1606913760.2801,-14
1606913760.2825,-4
1606913760.2849,-4
1606913760.2871,0
1606913760.2889,7
1606913760.2907,0
1606913760.2927,-12
1606913760.2947,-14
1606913760.2967,0
1606913760.2987,12
1606913760.3007,14
1606913760.3027,24
1606913760.3047,48
1606913760.3067,57
1606913760.3092,38
1606913760.3114,14
1606913760.3136,4
1606913760.3157,4
1606913760.3178,12
1606913760.3197,16
1606913760.3217,19
1606913760.3244,19
1606913760.3259,7
1606913760.3278,0
1606913760.3297,12
1606913760.3309,24
1606913760.3328,2
1606913760.3349,-48
1606913760.3367,19
1606913760.3390,422
1606913760.3412,1027
1606913760.3435,1249
1606913760.3457,709
1606913760.3482,-45
1606913760.3498,-238
1606913760.3517,-57
1606913760.3538,-62
1606913760.3557,-147
1606913760.3579,-96
1606913760.3606,-69
1606913760.3627,-91
1606913760.3648,-74
1606913760.3669,-60
1606913760.3687,-57
1606913760.3807,-41
1606913760.3820,-28
1606913760.3838,-28
1606913760.3858,-26
1606913760.3878,-16
1606913760.3898,-4
1606913760.3919,9
1606913760.3938,19
1606913760.3958,21
1606913760.3978,28
1606913760.3998,48
1606913760.4018,69
1606913760.4039,91
1606913760.4051,103
1606913760.4069,101
1606913760.4088,94
1606913760.4108,86
1606913760.4128,69
1606913760.4148,43
1606913760.7974,16
1606913760.7989,-4
1606913760.8014,-14
1606913760.8040,-26
1606913760.8060,-38
1606913760.8080,-48
1606913760.8103,-48
1606913760.8112,-41
1606913760.8134,-41
1606913760.8156,-43
1606913760.8181,-41
1606913760.8200,-36
1606913760.8220,-31
1606913760.8240,-38
1606913760.8261,-50
1606913760.8282,-41
1606913760.8301,-28
1606913760.8321,-28
1606913760.8341,-31
1606913760.8360,-24
1606913760.8380,-4
1606913760.8400,0
1606913760.8419,-12
1606913760.8431,-4
1606913760.8452,9
1606913760.8470,7
1606913760.8491,0
1606913760.8510,2
1606913760.8530,7
1606913760.8550,12
1606913760.8570,14
1606913760.8596,12
1606913760.8611,9
1606913760.8633,4
1606913760.8652,4
1606913760.8673,21
1606913760.8690,26
1606913760.8710,14
1606913760.8730,14
1606913760.8737,24
1606913760.8750,21
1606913760.8782,16
1606913760.8815,16
1606913760.8830,12
1606913760.8850,7
1606913760.8870,14
1606913760.8890,36
1606913760.8910,48
1606913760.8931,48
1606913760.8951,57
1606913760.8986,69
1606913760.9000,50
1606913760.9020,16
1606913760.9040,16
1606913760.9060,38
1606913760.9068,33
1606913760.9080,19
1606913760.9101,21
1606913760.9121,26
1606913760.9157,31
1606913760.9176,36
1606913760.9191,33
1606913760.9210,26
1606913760.9230,0
1606913760.9250,-28
1606913760.9271,125
1606913760.9302,620
1606913760.9319,1158
1606913760.9340,1119
1606913760.9360,410
1606913760.9380,-176
1606913760.9390,-161
1606913760.9400,-31
1606913761.3374,-103
1606913761.3402,-123
1606913761.3429,-60
1606913761.3471,-67
1606913761.3492,-77
1606913761.3515,-45
1606913761.3533,-36
1606913761.3552,-43
1606913761.3572,-36
1606913761.3593,-21
1606913761.3617,-14
1606913761.3644,-21
1606913761.3656,-24
1606913761.3673,-7
1606913761.3693,9
1606913761.3713,21
1606913761.3733,36
1606913761.3759,62
1606913761.3775,79
1606913761.3819,89
1606913761.3841,101
1606913761.3862,110
1606913761.3886,108
1606913761.3903,98
1606913761.3924,91
1606913761.3943,84
1606913761.3965,62
1606913761.3983,28
1606913761.3995,7
1606913761.4013,-12
1606913761.4034,-33
1606913761.4053,-43
1606913761.4073,-36
1606913761.4094,-28
1606913761.4117,-38
1606913761.4133,-48
1606913761.4153,-43
1606913761.4173,-33
1606913761.4196,-31
1606913761.4212,-31
1606913761.4233,-36
1606913761.4253,-33
1606913761.4275,-24
1606913761.4299,-16
1606913761.4329,-14
1606913761.4342,-7
1606913761.4363,0
1606913761.4383,-4
1606913761.4404,0
1606913761.4425,4
1606913761.4444,2
1606913761.4465,2
1606913761.4497,12
1606913761.4513,9
1606913761.4533,2
1606913761.4554,4
1606913761.4573,9
1606913761.4594,9
1606913761.4619,4
1606913761.4677,4
1606913761.4696,12
1606913761.4713,9
1606913761.4733,0
1606913761.4753,0
1606913761.4774,7
1606913761.4846,7
1606913761.4864,4
1606913761.4884,9
1606913761.4903,14
1606913761.4930,7
1606913761.4951,7
1606913761.5048,24
1606913761.5064,33
1606913761.8778,36
1606913761.8856,50
1606913761.8883,57
1606913761.8900,36
1606913761.8916,9
1606913761.8937,9
1606913761.9005,19
1606913761.9020,21
1606913761.9036,12
1606913761.9056,4
1606913761.9076,9
1606913761.9096,14
1606913761.9121,16
1606913761.9154,19
1606913761.9168,9
1606913761.9187,-14
1606913761.9210,-16
1606913761.9226,168
1606913761.9246,687
1606913761.9266,1206
1606913761.9336,1039
1606913761.9351,229
1606913761.9366,-284
1606913761.9387,-156
1606913761.9407,-24
1606913761.9430,-115
1606913761.9453,-110
1606913761.9492,-45
1606913761.9509,-60
1606913761.9532,-69
1606913761.9549,-38
1606913761.9567,-31
1606913761.9586,-31
1606913761.9608,-16
1606913761.9677,-4
1606913761.9693,-2
1606913761.9706,4
1606913761.9727,21
1606913761.9747,33
1606913761.9767,45
1606913761.9819,60
1606913761.9838,84
1606913761.9861,108
1606913761.9877,115
1606913761.9897,130
1606913761.9917,159
1606913761.9938,159
1606913761.9967,139
1606913761.9988,135
1606913762.0007,127
1606913762.0027,101
1606913762.0049,65
1606913762.0067,33
1606913762.0087,9
1606913762.0107,-12
1606913762.0127,-33
1606913762.0147,-41
1606913762.0167,-41
1606913762.0187,-43
1606913762.0207,-55
1606913762.0227,-55
1606913762.0247,-48
1606913762.0267,-45
1606913762.0287,-38
1606913762.0307,-26
1606913762.0327,-16
1606913762.0347,-19
1606913762.0371,-24
1606913762.0389,-19
1606913762.0407,-12
1606913762.0428,-12
1606913762.0450,-12
1606913762.0468,-7
1606913762.4479,0
1606913762.4506,0
1606913762.4533,-9
1606913762.4559,-9
1606913762.4583,9
1606913762.4606,9
1606913762.4643,-9
1606913762.4664,-9
1606913762.4685,-2
1606913762.4697,-7
1606913762.4716,-7
1606913762.4736,-2
1606913762.4758,0
1606913762.4786,4
1606913762.4810,2
1606913762.4832,2
1606913762.4854,2
1606913762.4878,-2
1606913762.4896,-7
1606913762.4916,2
1606913762.4936,24
1606913762.4956,36
1606913762.4977,33
1606913762.4996,41
1606913762.5016,55
1606913762.5036,48
1606913762.5056,24
1606913762.5077,12
1606913762.5096,19
1606913762.5122,26
1606913762.5136,24
1606913762.5156,16
1606913762.5177,21
1606913762.5196,28
1606913762.5216,24
1606913762.5236,16
1606913762.5257,21
1606913762.5277,12
1606913762.5296,-36
1606913762.5317,38
1606913762.5337,470
1606913762.5356,1097
1606913762.5377,1266
1606913762.5396,637
1606913762.5416,-115
1606913762.5440,-241
1606913762.5466,-53
1606913762.5487,-82
1606913762.5507,-144
1606913762.5526,-82
1606913762.5547,-65
1606913762.5566,-84
1606913762.5586,-65
1606913762.5606,-45
1606913762.5626,-50
1606913762.5646,-48
1606913762.5666,-28
1606913762.5689,-12
1606913762.5714,-12
1606913762.5738,-9
1606913762.5762,0
1606913762.5788,14
1606913762.5806,28
1606913762.5827,38
1606913762.5846,50
1606913762.5866,67
1606913762.5886,94
1606913762.5906,113
1606913762.5927,113
1606913762.5949,103
1606913762.5966,103
1606913762.5989,96
1606913762.6013,77
1606913763.0475,55
1606913763.0527,38
1606913763.0550,12
1606913763.0579,-19
1606913763.0597,-33
1606913763.0618,-28
1606913763.0638,-41
1606913763.0664,-57
1606913763.0677,-53
1606913763.0697,-45
1606913763.0716,-48
1606913763.0737,-45
1606913763.0758,-41
1606913763.0788,-43
1606913763.0812,-45
1606913763.0833,-28
1606913763.0854,-21
1606913763.0879,-21
1606913763.0896,-14
1606913763.0916,-9
1606913763.0936,-9
1606913763.0957,-7
1606913763.0977,-7
1606913763.1000,-14
1606913763.1017,-9
1606913763.1036,0
1606913763.1056,-2
1606913763.1077,-12
1606913763.1096,-7
1606913763.1116,-2
1606913763.1136,0
1606913763.1156,7
1606913763.1179,9
1606913763.1200,4
1606913763.1222,2
1606913763.1247,-2
1606913763.1272,-2
1606913763.1299,2
1606913763.1317,0
1606913763.1336,-2
1606913763.1357,4
1606913763.1377,9
1606913763.1397,2
1606913763.1416,2
1606913763.1436,7
1606913763.1457,-4
1606913763.1478,-16
1606913763.1497,-7
1606913763.1516,14
1606913763.1536,28
1606913763.1556,33
1606913763.1578,45
1606913763.1602,53
1606913763.1636,36
1606913763.1658,12
1606913763.1679,2
1606913763.1697,7
1606913763.1717,16
1606913763.1737,19
1606913763.1758,9
1606913763.1782,4
1606913763.1797,7
1606913763.1816,9
1606913763.1837,19
1606913763.1856,21
1606913763.1877,-4
1606913763.1896,-48
1606913763.1916,57
1606913763.1936,513
1606913763.1957,1107
1606913763.1978,1228
1606913763.2004,608
1606913763.2025,-101
1606913763.5875,-219
1606913763.5908,-57
1606913763.5937,-91
1606913763.5959,-142
1606913763.5980,-86
1606913763.5994,-77
1606913763.6014,-91
1606913763.6033,-69
1606913763.6053,-62
1606913763.6073,-65
1606913763.6105,-48
1606913763.6130,-36
1606913763.6152,-41
1606913763.6173,-36
1606913763.6191,-21
1606913763.6203,-12
1606913763.6223,-4
1606913763.6245,7
1606913763.6263,28
1606913763.6284,45
1606913763.6303,53
1606913763.6323,72
1606913763.6343,96
1606913763.6363,103
1606913763.6383,94
1606913763.6403,86
1606913763.6424,82
1606913763.6443,74
1606913763.6463,60
1606913763.6483,31
1606913763.6503,2
1606913763.6523,-16
1606913763.6543,-31
1606913763.6563,-38
1606913763.6583,-41
1606913763.6603,-50
1606913763.6623,-53
1606913763.6643,-48
1606913763.6664,-45
1606913763.6683,-48
1606913763.6703,-38
1606913763.6723,-28
1606913763.6743,-33
1606913763.6763,-33
1606913763.6784,-26
1606913763.6803,-19
1606913763.6823,-12
1606913763.6844,-7
1606913763.6863,-7
1606913763.6886,-12
1606913763.6908,-14
1606913763.6931,-9
1606913763.6988,-2
1606913763.7001,2
1606913763.7015,2
1606913763.7033,0
1606913763.7055,-2
1606913763.7073,-4
1606913763.7094,0
1606913763.7114,7
1606913763.7133,9
1606913763.7153,7
1606913763.7173,9
1606913763.7196,14
1606913763.7217,12
1606913763.7240,9
1606913763.7263,9
1606913763.7285,12
1606913763.7303,14
1606913763.7324,9
1606913763.7343,4
1606913763.7364,2
1606913763.7384,7
1606913764.1272,7
1606913764.1298,2
1606913764.1325,14
1606913764.1352,38
1606913764.1374,53
1606913764.1398,57
1606913764.1422,65
1606913764.1445,62
1606913764.1466,38
1606913764.1487,12
1606913764.1499,9
1606913764.1519,24
1606913764.1539,24
1606913764.1559,19
1606913764.1579,21
1606913764.1599,24
1606913764.1619,28
1606913764.1639,31
1606913764.1659,26
1606913764.1681,12
1606913764.1703,-26
1606913764.1724,-38
1606913764.1746,180
1606913764.1768,735
1606913764.1789,1237
1606913764.1809,1061
1606913764.1829,270
1606913764.1849,-250
1606913764.1869,-132
1606913764.1889,-4
1606913764.1913,-113
1606913764.1929,-139
1606913764.1949,-86
1606913764.1969,-72
1606913764.1991,-53
1606913764.2013,-38
1606913764.2038,-33
1606913764.2063,-36
1606913764.2086,-33
1606913764.2099,-19
1606913764.2119,2
1606913764.2139,7
1606913764.2159,12
1606913764.2181,24
1606913764.2203,33
1606913764.2224,50
1606913764.2245,72
1606913764.2279,79
1606913764.2311,89
1606913764.2329,118
1606913764.2349,137
1606913764.2369,132
1606913764.2390,127
1606913764.2409,137
1606913764.2429,130
1606913764.2449,98
1606913764.2469,77
1606913764.2489,55
1606913764.2509,24
1606913764.2529,2
1606913764.2549,-14
1606913764.2569,-28
1606913764.2592,-31
1606913764.2615,-36
1606913764.2642,-36
1606913764.2663,-28
1606913764.2684,-28
1606913764.2699,-31
1606913764.2719,-31
1606913764.2739,-19
1606913764.2759,-9
1606913764.2781,-12
1606913764.2803,-12
1606913764.6978,-4
1606913764.7005,-2
1606913764.7032,-4
1606913764.7058,-4
1606913764.7079,-4
1606913764.7095,-4
1606913764.7118,-7
1606913764.7136,-9
1606913764.7159,-2
1606913764.7178,4
1606913764.7220,-4
1606913764.7254,-16
1606913764.7281,-7
1606913764.7295,0
1606913764.7316,-12
1606913764.7336,-12
1606913764.7356,12
1606913764.7377,19
1606913764.7396,4
1606913764.7416,4
1606913764.7436,9
1606913764.7456,2
1606913764.7476,-4
1606913764.7496,4
1606913764.7516,9
1606913764.7536,2
1606913764.7556,4
1606913764.7576,9
1606913764.7595,9
1606913764.7616,16
1606913764.7635,28
1606913764.7656,41
1606913764.7676,53
1606913764.7695,62
1606913764.7716,50
1606913764.7737,24
1606913764.7758,12
1606913764.7777,21
1606913764.7796,31
1606913764.7816,24
1606913764.7836,19
1606913764.7856,16
1606913764.7878,21
1606913764.7900,26
1606913764.7922,31
1606913764.7945,31
1606913764.7969,21
1606913764.7989,-12
1606913764.8005,14
1606913764.8026,328
1606913764.8081,953
1606913764.8117,1307
1606913764.9480,817
1606913764.9484,-41
1606913764.9778,-318
1606913764.9800,-82
1606913764.9814,-41
1606913764.9821,-144
1606913764.9842,-86
1606913764.9864,-36
1606913764.9883,-69
1606913764.9894,-62
1606913764.9912,-26
1606913764.9933,-21
1606913764.9957,-26
1606913764.9974,-12
1606913764.9983,2
1606913764.9995,9
1606913765.0017,21
1606913765.0032,36
1606913765.0064,45
1606913765.0068,53
1606913765.0199,62
1606913765.2361,96
1606913765.2373,132
1606913765.2397,137
1606913765.2434,139
1606913765.2444,152
1606913765.2464,152
1606913765.2485,142
1606913765.2504,127
1606913765.2523,106
1606913765.2543,82
1606913765.2565,45
1606913765.2584,7
1606913765.2604,-14
1606913765.2627,-33
1606913765.2645,-50
1606913765.2664,-57
1606913765.2685,-60
1606913765.2703,-55
1606913765.2724,-45
1606913765.2743,-50
1606913765.2810,-57
1606913765.2827,-43
1606913765.2850,-31
1606913765.2864,-33
1606913765.2884,-33
1606913765.2904,-26
1606913765.2932,-21
1606913765.2956,-19
1606913765.2978,-12
1606913765.2996,-7
1606913765.3015,-2
1606913765.3034,0
1606913765.3057,-2
1606913765.3079,-4
1606913765.3202,0
1606913765.3219,7
1606913765.3470,-2
1606913765.3481,-12
1606913765.3499,9
1606913765.3526,31
1606913765.3545,16
1606913765.3565,2
1606913765.3586,4
1606913765.3607,4
1606913765.3626,4
1606913765.3646,9
1606913765.3666,9
1606913765.3686,4
1606913765.3706,4
1606913765.3726,12
1606913765.3746,12
1606913765.3767,4
1606913765.3787,9
1606913765.3806,19
1606913765.3826,14
1606913765.3847,12
1606913765.3866,12
1606913765.3887,12
1606913765.3906,24
1606913765.3929,38
1606913765.3947,48
1606913765.3967,60
1606913765.3986,62
1606913765.4008,38
1606913765.4027,16
1606913765.5385,19
1606913765.5391,33
1606913765.5672,33
1606913765.5683,21
1606913765.5755,14
1606913765.5776,9
1606913765.5800,9
1606913765.5818,12
1606913765.8056,12
1606913765.8062,7
1606913765.8247,-9
1606913765.8274,-53
1606913765.8292,31
1606913765.8317,480
1606913765.8331,1119
1606913765.8353,1290
1606913765.8371,653
1606913765.8391,-120
1606913765.8411,-260
1606913765.8431,-62
1606913765.8454,-89
1606913765.8471,-166
1606913765.8492,-106
1606913765.8513,-77
1606913765.8531,-89
1606913765.8551,-77
1606913765.8571,-67
1606913765.8595,-65
1606913765.8611,-50
1606913765.8631,-36
1606913765.8651,-31
1606913765.8671,-24
1606913765.8691,-14
1606913765.8711,-4
1606913765.8731,9
1606913765.8751,21
1606913765.8772,26
1606913765.8793,43
1606913765.8811,77
1606913765.8832,101
1606913765.8851,98
1606913765.8872,103
1606913765.8884,110
1606913765.8901,91
1606913765.8921,79
1606913765.8942,77
1606913765.8964,57
1606913765.8981,31
1606913765.9001,9
1606913765.9021,-9
1606913765.9040,-19
1606913765.9061,-21
1606913765.9081,-28
1606913765.9102,-36
1606913765.9121,-33
1606913765.9141,-31
1606913765.9161,-38
1606913765.9181,-48
1606913765.9201,-41
1606913765.9220,-31
1606913765.9240,-31
1606913765.9273,-31
1606913765.9292,-19
1606913765.9312,-14
1606913765.9332,-12
1606913765.9351,-12
1606913765.9371,-16
1606913765.9390,-16
1606913765.9410,-2
1606913765.9432,4
1606913765.9452,-7
1606913765.9472,-14
1606913765.9491,-7
1606913765.9511,-7
1606913765.9532,-14
1606913765.9551,-9
1606913765.9570,2
1606913765.9595,4
1606913765.9611,-2
1606913765.9631,-7
1606913765.9651,-2
1606913766.4052,2
1606913766.4057,2
1606913766.4075,4
1606913766.4093,4
1606913766.4113,2
1606913766.4133,-7
1606913766.4152,-16
1606913766.4173,-14
1606913766.4192,-4
1606913766.4212,-2
1606913766.4232,12
1606913766.4252,36
1606913766.4273,50
1606913766.4292,50
1606913766.4312,41
1606913766.4333,19
1606913766.4352,0
1606913766.4372,2
1606913766.4392,14
1606913766.4412,16
1606913766.4432,21
1606913766.4452,16
1606913766.4473,9
1606913766.4492,9
1606913766.4512,12
1606913766.4533,16
1606913766.4552,7
1606913766.4573,-45
1606913766.4593,-21
1606913766.4612,304
1606913766.4632,914
1606913766.4652,1286
1606913766.4673,914
1606913766.4692,113
1606913766.4712,-255
1606913766.4732,-103
1606913766.4752,-55
1606913766.4773,-149
1606913766.4792,-113
1606913766.4812,-77
1606913766.4832,-94
1606913766.4852,-69
1606913766.4873,-45
1606913766.4892,-53
1606913766.4914,-43
1606913766.4933,-24
1606913766.4952,-21
1606913766.4973,-24
1606913766.4992,-21
1606913766.5012,-14
1606913766.5032,4
1606913766.5052,24
1606913766.5073,31
1606913766.5092,38
1606913766.5112,55
1606913766.5132,72
1606913766.5152,84
1606913766.5173,89
1606913766.5192,94
1606913766.5212,96
1606913766.5232,91
1606913766.5252,74
1606913766.5273,50
1606913766.5292,26
1606913766.5312,0
1606913766.5332,-16
1606913766.5352,-28
1606913766.5373,-38
1606913766.5392,-50
1606913766.5412,-50
1606913766.5432,-45
1606913766.5452,-43
1606913766.5473,-45
1606913766.9460,-43
1606913766.9469,-36
1606913766.9495,-38
1606913766.9522,-43
1606913766.9541,-38
1606913766.9548,-31
1606913766.9570,-28
1606913766.9590,-28
1606913766.9610,-26
1606913766.9629,-21
1606913766.9649,-21
1606913766.9669,-28
1606913766.9689,-31
1606913766.9709,-26
1606913766.9729,-26
1606913766.9749,-21
1606913766.9769,-9
1606913766.9789,-4
1606913766.9809,-9
1606913766.9830,-12
1606913766.9849,-14
1606913766.9856,-9
1606913766.9871,2
1606913766.9890,-2
1606913766.9909,-26
1606913766.9929,-26
1606913766.9949,0
1606913766.9969,19
1606913766.9989,24
1606913767.0010,33
1606913767.0029,43
1606913767.0049,45
1606913767.0069,31
1606913767.0089,9
1606913767.0109,0
1606913767.0129,7
1606913767.0136,12
1606913767.0149,4
1606913767.0169,7
1606913767.0189,12
1606913767.0209,9
1606913767.0229,4
1606913767.0249,9
1606913767.0269,9
1606913767.0289,-7
1606913767.0309,-45
1606913767.0329,2
1606913767.0349,359
1606913767.0369,967
1606913767.0389,1245
1606913767.0409,740
1606913767.0429,-26
1606913767.0436,-255
1606913767.0449,-79
1606913767.0469,-72
1606913767.0489,-156
1606913767.0509,-108
1606913767.0529,-69
1606913767.0549,-94
1606913767.0569,-84
1606913767.0589,-57
1606913767.0609,-55
1606913767.0629,-50
1606913767.0649,-36
1606913767.0669,-31
1606913767.0689,-26
1606913767.0709,-14
1606913767.0729,-4
1606913767.0736,4
1606913767.0749,19
1606913767.0769,31
1606913767.0789,48
1606913767.0809,72
1606913767.5159,86
1606913767.5166,94
1606913767.5189,96
1606913767.5216,101
1606913767.5236,96
1606913767.5256,86
1606913767.5277,69
1606913767.5296,41
1606913767.5315,9
1606913767.5335,-12
1606913767.5356,-26
1606913767.5376,-36
1606913767.5396,-45
1606913767.5416,-53
1606913767.5436,-50
1606913767.5455,-45
1606913767.5476,-50
1606913767.5483,-57
1606913767.5506,-50
1606913767.5526,-45
1606913767.5546,-48
1606913767.5565,-41
1606913767.5586,-31
1606913767.5605,-26
1606913767.5626,-24
1606913767.5645,-16
1606913767.5666,-12
1606913767.5686,-12
1606913767.5706,-9
1606913767.5725,-4
1606913767.5746,2
1606913767.5765,0
1606913767.5786,-2
1606913767.5792,-2
1606913767.5815,-4
1606913767.5836,-7
1606913767.5856,-2
1606913767.5876,-2
1606913767.5896,-7
1606913767.5915,-9
1606913767.5935,-16
1606913767.5955,-24
1606913767.5976,-26
1606913767.5996,-26
1606913767.6015,-16
1606913767.6035,2
1606913767.6055,19
1606913767.6076,26
1606913767.6096,33
1606913767.6102,31
1606913767.6115,2
1606913767.6137,-19
1606913767.6156,-12
1606913767.6176,0
1606913767.6195,-4
1606913767.6215,-4
1606913767.6235,0
1606913767.6255,2
1606913767.6276,2
1606913767.6295,4
1606913767.6315,7
1606913767.6336,0
1606913767.6355,-33
1606913767.6376,-43
1606913767.6396,171
1606913767.6403,721
1606913767.6425,1208
1606913767.6446,1013
1606913767.6466,238
1606913767.6486,-246
1606913767.6506,-147
1606913767.6525,-48
1606913767.6545,-135
1606913768.0561,-127
1606913768.0570,-72
1606913768.0595,-82
1606913768.0622,-77
1606913768.0642,-53
1606913768.0661,-53
1606913768.0681,-53
1606913768.0701,-36
1606913768.0708,-28
1606913768.0731,-28
1606913768.0751,-19
1606913768.0771,-7
1606913768.0791,-4
1606913768.0811,7
1606913768.0831,26
1606913768.0850,43
1606913768.0870,60
1606913768.0890,79
1606913768.0910,91
1606913768.0930,98
1606913768.0950,106
1606913768.0970,106
1606913768.0990,98
1606913768.1010,86
1606913768.1017,67
1606913768.1030,41
1606913768.1050,14
1606913768.1070,-4
1606913768.1090,-24
1606913768.1112,-43
1606913768.1131,-43
1606913768.1150,-36
1606913768.1170,-48
1606913768.1190,-57
1606913768.1210,-48
1606913768.1230,-43
1606913768.1251,-48
1606913768.1270,-43
1606913768.1290,-28
1606913768.1297,-26
1606913768.1320,-26
1606913768.1340,-19
1606913768.1361,-12
1606913768.1380,-9
1606913768.1401,-9
1606913768.1420,-9
1606913768.1440,-2
1606913768.1460,2
1606913768.1480,0
1606913768.1500,2
1606913768.1520,9
1606913768.1540,9
1606913768.1560,7
1606913768.1580,9
1606913768.1600,9
1606913768.1607,7
1606913768.1620,4
1606913768.1640,7
1606913768.1660,4
1606913768.1680,7
1606913768.1700,4
1606913768.1721,0
1606913768.1740,-2
1606913768.1760,-4
1606913768.1781,-2
1606913768.1800,0
1606913768.1820,0
1606913768.1840,-2
1606913768.1860,-2
1606913768.1882,-2
1606913768.1901,-4
1606913768.1920,2
1606913768.1940,16
1606913768.6254,31
1606913768.6261,41
1606913768.6286,53
1606913768.6312,55
1606913768.6331,28
1606913768.6352,-2
1606913768.6373,-2
1606913768.6394,7
1606913768.6413,4
1606913768.6432,2
1606913768.6452,4
1606913768.6473,7
1606913768.6492,9
1606913768.6512,12
1606913768.6532,12
1606913768.6552,4
1606913768.6572,-19
1606913768.6592,-26
1606913768.6612,183
1606913768.6632,743
1606913768.6652,1235
1606913768.6672,986
1606913768.6692,147
1606913768.6712,-318
1606913768.6732,-152
1606913768.6752,-41
1606913768.6773,-139
1606913768.6791,-125
1606913768.6811,-67
1606913768.6831,-84
1606913768.6852,-82
1606913768.6872,-48
1606913768.6891,-41
1606913768.6911,-41
1606913768.6931,-26
1606913768.6951,-16
1606913768.6972,-9
1606913768.6991,0
1606913768.7011,7
1606913768.7031,21
1606913768.7052,41
1606913768.7072,55
1606913768.7091,69
1606913768.7112,89
1606913768.7132,110
1606913768.7152,123
1606913768.7172,127
1606913768.7192,135
1606913768.7212,135
1606913768.7232,130
1606913768.7252,115
1606913768.7272,91
1606913768.7292,57
1606913768.7312,26
1606913768.7332,4
1606913768.7352,-12
1606913768.7372,-26
1606913768.7392,-33
1606913768.7413,-38
1606913768.7432,-45
1606913768.7451,-48
1606913768.7472,-45
1606913768.7491,-41
1606913768.7512,-36
1606913768.7531,-28
1606913768.7551,-26
1606913768.7572,-16
1606913768.7591,-7
1606913768.7611,-4
1606913768.7632,-7
1606913768.7652,0
1606913768.7672,7
1606913768.7692,7
1606913769.1661,7
1606913769.1670,12
1606913769.1695,12
1606913769.1722,7
1606913769.1741,7
1606913769.1761,9
1606913769.1781,14
1606913769.1801,9
1606913769.1820,0
1606913769.1840,0
1606913769.1860,2
1606913769.1881,0
1606913769.1901,0
1606913769.1920,-2
1606913769.1940,-4
1606913769.1960,-4
1606913769.1981,-7
1606913769.2000,-12
1606913769.2021,-9
1606913769.2040,-7
1606913769.2060,-7
1606913769.2081,-4
1606913769.2100,-2
1606913769.2120,-2
1606913769.2140,-4
1606913769.2160,-2
1606913769.2181,-2
1606913769.2200,-4
1606913769.2221,-2
1606913769.2240,-2
1606913769.2260,-4
1606913769.2281,9
1606913769.2300,31
1606913769.2320,38
1606913769.2340,41
1606913769.2360,50
1606913769.2382,45
1606913769.2400,21
1606913769.2420,9
1606913769.2440,16
1606913769.2460,24
1606913769.2480,19
1606913769.2500,14
1606913769.2521,14
1606913769.2540,16
1606913769.2560,16
1606913769.2580,16
1606913769.2600,16
1606913769.2620,4
1606913769.2640,-38
1606913769.2660,26
1606913769.2681,424
1606913769.2700,1059
1606913769.2721,1307
1606913769.2740,743
1606913769.2760,-53
1606913769.2780,-255
1606913769.2800,-60
1606913769.2820,-72
1606913769.2840,-164
1606913769.2860,-103
1606913769.2880,-67
1606913769.2900,-94
1606913769.2920,-77
1606913769.2940,-48
1606913769.2960,-50
1606913769.2980,-45
1606913769.3000,-31
1606913769.3020,-21
1606913769.3040,-16
1606913769.3060,-12
1606913769.3080,-2
1606913769.3100,12
1606913769.7661,24
1606913769.7670,36
1606913769.7695,50
1606913769.7722,67
1606913769.7740,77
1606913769.7761,82
1606913769.7782,91
1606913769.7801,98
1606913769.7821,94
1606913769.7841,79
1606913769.7861,65
1606913769.7880,50
1606913769.7900,31
1606913769.7920,7
1606913769.7942,-12
1606913769.7960,-26
1606913769.7981,-36
1606913769.8000,-43
1606913769.8020,-45
1606913769.8040,-43
1606913769.8060,-41
1606913769.8081,-41
1606913769.8100,-38
1606913769.8120,-38
1606913769.8140,-36
1606913769.8160,-26
1606913769.8180,-21
1606913769.8200,-21
1606913769.8220,-21
1606913769.8240,-14
1606913769.8260,-7
1606913769.8280,-4
1606913769.8300,-4
1606913769.8320,-2
1606913769.8340,-2
1606913769.8360,-2
1606913769.8380,-2
1606913769.8400,-2
1606913769.8420,0
1606913769.8440,0
1606913769.8460,-2
1606913769.8480,-2
1606913769.8500,0
1606913769.8520,0
1606913769.8540,-4
1606913769.8560,-4
1606913769.8580,0
1606913769.8600,2
1606913769.8620,2
1606913769.8640,2
1606913769.8660,0
1606913769.8680,2
1606913769.8700,2
1606913769.8720,4
1606913769.8740,7
1606913769.8760,9
1606913769.8780,9
1606913769.8800,12
1606913769.8820,14
1606913769.8840,7
1606913769.8860,0
1606913769.8880,4
1606913769.8900,4
1606913769.8920,2
1606913769.8940,14
1606913769.8961,31
1606913769.8980,33
1606913769.9000,38
1606913769.9020,53
1606913769.9026,50
1606913769.9039,26
1606913769.9060,9
1606913769.9080,12
1606913770.3057,19
1606913770.3064,16
1606913770.3079,9
1606913770.3098,7
1606913770.3118,12
1606913770.3138,9
1606913770.3158,9
1606913770.3178,14
1606913770.3198,4
1606913770.3205,-41
1606913770.3218,-48
1606913770.3238,226
1606913770.3258,830
1606913770.3278,1266
1606913770.3298,982
1606913770.3318,185
1606913770.3338,-263
1606913770.3358,-144
1606913770.3378,-62
1606913770.3398,-159
1606913770.3418,-139
1606913770.3438,-82
1606913770.3458,-94
1606913770.3478,-94
1606913770.3498,-67
1606913770.3504,-65
1606913770.3518,-65
1606913770.3538,-53
1606913770.3558,-48
1606913770.3578,-48
1606913770.3598,-38
1606913770.3618,-21
1606913770.3638,-7
1606913770.3658,2
1606913770.3678,14
1606913770.3698,33
1606913770.3718,50
1606913770.3738,65
1606913770.3758,82
1606913770.3778,94
1606913770.3798,94
1606913770.3804,89
1606913770.3818,84
1606913770.3839,72
1606913770.3858,57
1606913770.3878,38
1606913770.3898,14
1606913770.3918,0
1606913770.3938,-14
1606913770.3958,-31
1606913770.3978,-41
1606913770.3998,-38
1606913770.4018,-36
1606913770.4038,-36
1606913770.4058,-38
1606913770.4078,-41
1606913770.4098,-36
1606913770.4104,-36
1606913770.4118,-41
1606913770.4138,-36
1606913770.4158,-24
1606913770.4178,-19
1606913770.4198,-21
1606913770.4218,-19
1606913770.4238,-16
1606913770.4259,-16
1606913770.4279,-16
1606913770.4298,-14
1606913770.4318,-12
1606913770.4338,-9
1606913770.4358,-2
1606913770.4378,0
1606913770.4398,-2
1606913770.9361,-7
1606913770.9370,-7
1606913770.9387,2
1606913770.9405,12
1606913770.9425,4
1606913770.9445,-7
1606913770.9465,-2
1606913770.9485,2
1606913770.9505,-7
1606913770.9525,-14
1606913770.9545,-2
1606913770.9565,2
1606913770.9585,-2
1606913770.9604,7
1606913770.9624,14
1606913770.9644,0
1606913770.9650,-2
1606913770.9664,12
1606913770.9684,12
1606913770.9704,0
1606913770.9724,-2
1606913770.9745,9
1606913770.9764,9
1606913770.9783,-9
1606913770.9803,-4
1606913770.9823,24
1606913770.9845,45
1606913770.9865,43
1606913770.9884,43
1606913770.9903,55
1606913770.9923,41
1606913770.9944,12
1606913770.9950,12
1606913770.9963,31
1606913770.9984,33
1606913771.0003,21
1606913771.0023,24
1606913771.0043,26
1606913771.0063,19
1606913771.0084,14
1606913771.0103,16
1606913771.0125,21
1606913771.0145,21
1606913771.0164,-16
1606913771.0184,-14
1606913771.0205,267
1606913771.0224,856
1606913771.0244,1228
1606913771.0251,878
1606913771.0264,132
1606913771.0285,-219
1606913771.0304,-101
1606913771.0323,-50
1606913771.0343,-132
1606913771.0363,-115
1606913771.0383,-77
1606913771.0403,-89
1606913771.0423,-77
1606913771.0444,-55
1606913771.0463,-55
1606913771.0483,-57
1606913771.0504,-60
1606913771.0524,-57
1606913771.0544,-41
1606913771.0550,-19
1606913771.0564,-7
1606913771.0584,-2
1606913771.0603,0
1606913771.0623,12
1606913771.0643,28
1606913771.0663,45
1606913771.0684,62
1606913771.0705,74
1606913771.4160,79
1606913771.4167,82
1606913771.4178,79
1606913771.4198,69
1606913771.4203,60
1606913771.4217,53
1606913771.4237,28
1606913771.4257,-2
1606913771.4278,-28
1606913771.4297,-36
1606913771.4317,-36
1606913771.4337,-55
1606913771.4356,-77
1606913771.4377,-77
1606913771.4397,-67
1606913771.4416,-72
1606913771.4436,-82
1606913771.4457,-77
1606913771.4477,-65
1606913771.4497,-60
1606913771.4503,-62
1606913771.4517,-57
1606913771.4536,-45
1606913771.4556,-33
1606913771.4577,-28
1606913771.4596,-33
1606913771.4616,-31
1606913771.4637,-21
1606913771.4656,-19
1606913771.4677,-19
1606913771.4696,-19
1606913771.4717,-16
1606913771.4737,-9
1606913771.4757,-7
1606913771.4777,-4
1606913771.4796,-2
1606913771.4804,0
1606913771.4817,-2
1606913771.4836,-2
1606913771.4857,-2
1606913771.4877,0
1606913771.4897,-2
1606913771.4916,-2
1606913771.4936,-4
1606913771.4957,0
1606913771.4977,16
1606913771.4997,19
1606913771.5016,9
1606913771.5036,7
1606913771.5056,0
1606913771.5078,-16
1606913771.5097,-28
1606913771.5103,0
1606913771.5117,26
1606913771.5136,28
1606913771.5156,36
1606913771.5177,43
1606913771.5196,41
1606913771.5216,41
1606913771.5236,45
1606913771.5256,33
1606913771.5277,2
1606913771.5296,-9
1606913771.5316,4
1606913771.5336,12
1606913771.5356,12
1606913771.5377,24
1606913771.5396,28
1606913771.5403,19
1606913771.5417,16
1606913771.5437,21
1606913771.5456,26
1606913771.5477,12
1606913771.9856,-26
1606913771.9865,26
1606913771.9890,383
1606913771.9916,991
1606913771.9936,1257
1606913771.9956,699
1606913771.9975,-94
1606913771.9995,-275
1606913772.0015,-67
1606913772.0022,-74
1606913772.0035,-156
1606913772.0056,-89
1606913772.0075,-60
1606913772.0095,-91
1606913772.0115,-69
1606913772.0135,-41
1606913772.0155,-55
1606913772.0175,-45
1606913772.0195,-2
1606913772.0215,2
1606913772.0235,-12
1606913772.0255,2
1606913772.0275,19
1606913772.0295,26
1606913772.0315,38
1606913772.0321,60
1606913772.0336,77
1606913772.0355,86
1606913772.0377,103
1606913772.0395,113
1606913772.0415,120
1606913772.0435,125
1606913772.0455,113
1606913772.0475,96
1606913772.0495,91
1606913772.0515,79
1606913772.0535,38
1606913772.0555,2
1606913772.0575,-19
1606913772.0595,-36
1606913772.0615,-48
1606913772.0621,-48
1606913772.0635,-45
1606913772.0655,-55
1606913772.0675,-60
1606913772.0695,-55
1606913772.0715,-50
1606913772.0735,-48
1606913772.0755,-41
1606913772.0775,-33
1606913772.0795,-31
1606913772.0815,-36
1606913772.0835,-26
1606913772.0855,-14
1606913772.0875,-9
1606913772.0895,-4
1606913772.0915,-2
1606913772.0921,-4
1606913772.0935,-4
1606913772.0955,-4
1606913772.0975,-2
1606913772.0995,7
1606913772.1015,9
1606913772.1035,4
1606913772.1055,-2
1606913772.1074,2
1606913772.1095,14
1606913772.1115,14
1606913772.1135,7
1606913772.1155,4
1606913772.1175,4
1606913772.1195,2
1606913772.1215,4
1606913772.5256,9
1606913772.5266,12
1606913772.5290,0
1606913772.5317,-9
1606913772.5337,4
1606913772.5357,21
1606913772.5379,7
1606913772.5396,2
1606913772.5416,16
1606913772.5436,33
1606913772.5456,36
1606913772.5476,21
1606913772.5496,14
1606913772.5516,31
1606913772.5523,36
1606913772.5536,19
1606913772.5556,7
1606913772.5576,2
1606913772.5596,-2
1606913772.5616,9
1606913772.5636,33
1606913772.5656,38
1606913772.5676,16
1606913772.5696,2
1606913772.5716,-16
1606913772.5735,-50
1606913772.5755,77
1606913772.5776,557
1606913772.5795,1150
1606913772.5816,1201
1606913772.5822,492
1606913772.5836,-185
1606913772.5856,-207
1606913772.5876,-33
1606913772.5895,-101
1606913772.5916,-154
1606913772.5935,-86
1606913772.5955,-77
1606913772.5976,-101
1606913772.5995,-77
1606913772.6015,-60
1606913772.6035,-67
1606913772.6056,-55
1606913772.6076,-41
1606913772.6096,-41
1606913772.6116,-36
1606913772.6122,-28
1606913772.6135,-21
1606913772.6155,-12
1606913772.6176,2
1606913772.6195,12
1606913772.6216,26
1606913772.6236,57
1606913772.6255,74
1606913772.6276,72
1606913772.6296,74
1606913772.6315,79
1606913772.6337,77
1606913772.6356,69
1606913772.6376,55
1606913772.6396,33
1606913772.6415,7
1606913772.6422,-16
1606913772.6435,-38
1606913772.6456,-48
1606913772.6476,-55
1606913772.6495,-60
1606913772.6516,-57
1606913772.6535,-55
1606913772.6556,-55
1606913772.6576,-62
1606913772.6595,-60
1606913772.6616,-48
1606913773.1556,-36
1606913773.1564,-31
1606913773.1577,-31
1606913773.1596,-38
1606913773.1603,-45
1606913773.1616,-36
1606913773.1636,-19
1606913773.1656,-24
1606913773.1676,-26
1606913773.1695,-16
1606913773.1715,-12
1606913773.1735,-9
1606913773.1755,-2
1606913773.1776,-4
1606913773.1795,-12
1606913773.1815,-4
1606913773.1835,12
1606913773.1855,4
1606913773.1875,-9
1606913773.1895,-7
1606913773.1902,-2
1606913773.1915,0
1606913773.1935,0
1606913773.1955,-2
1606913773.1975,-2
1606913773.1995,7
1606913773.2015,14
1606913773.2035,7
1606913773.2055,2
1606913773.2075,4
1606913773.2095,0
1606913773.2115,-9
1606913773.2135,-16
1606913773.2155,-12
1606913773.2175,4
1606913773.2196,19
1606913773.2203,33
1606913773.2215,48
1606913773.2235,50
1606913773.2255,33
1606913773.2275,14
1606913773.2295,4
1606913773.2315,12
1606913773.2335,16
1606913773.2355,9
1606913773.2377,-2
1606913773.2395,2
1606913773.2415,14
1606913773.2435,9
1606913773.2455,12
1606913773.2475,14
1606913773.2495,-12
1606913773.2502,-55
1606913773.2525,43
1606913773.2545,468
1606913773.2565,1059
1606913773.2585,1218
1606913773.2605,627
1606913773.2625,-82
1606913773.2645,-207
1606913773.2665,-48
1606913773.2685,-91
1606913773.2705,-154
1606913773.2725,-96
1606913773.2745,-82
1606913773.2766,-101
1606913773.2785,-79
1606913773.2805,-65
1606913773.2812,-60
1606913773.2825,-38
1606913773.2845,-31
1606913773.2865,-36
1606913773.2885,-16
1606913773.6956,-4
1606913773.6964,-9
1606913773.6989,-4
1606913773.7016,9
1606913773.7036,16
1606913773.7055,31
1606913773.7075,57
1606913773.7094,69
1606913773.7115,67
1606913773.7198,69
1606913773.7215,69
1606913773.7235,67
1606913773.7254,65
1606913773.7277,53
1606913773.7295,28
1606913773.7314,2
1606913773.7334,-16
1606913773.7354,-26
1606913773.7375,-36
1606913773.7394,-45
1606913773.7414,-57
1606913773.7434,-57
1606913773.7454,-55
1606913773.7474,-62
1606913773.7482,-67
1606913773.7494,-65
1606913773.7514,-57
1606913773.7534,-53
1606913773.7554,-50
1606913773.7575,-48
1606913773.7594,-41
1606913773.7614,-38
1606913773.7634,-36
1606913773.7654,-31
1606913773.7675,-26
1606913773.7694,-24
1606913773.7714,-26
1606913773.7734,-28
1606913773.7754,-21
1606913773.7774,-7
1606913773.7781,-2
1606913773.7795,0
1606913773.7815,4
1606913773.7834,2
1606913773.7854,-2
1606913773.7874,-7
1606913773.7894,-9
1606913773.7914,-4
1606913773.7934,2
1606913773.7954,0
1606913773.7974,-4
1606913773.7994,4
1606913773.8014,9
1606913773.8034,4
1606913773.8054,7
1606913773.8074,4
1606913773.8081,2
1606913773.8104,7
1606913773.8124,16
1606913773.8145,14
1606913773.8164,7
1606913773.8185,7
1606913773.8204,9
1606913773.8224,2
1606913773.8246,-2
1606913773.8265,9
1606913773.8284,33
1606913773.8304,36
1606913773.8324,33
1606913773.8344,45
1606913773.8364,57
1606913773.8384,41
1606913773.8391,19
1606913774.2356,7
1606913774.2364,4
1606913774.2388,7
1606913774.2415,12
1606913774.2435,16
1606913774.2455,21
1606913774.2475,21
1606913774.2495,19
1606913774.2515,4
1606913774.2535,0
1606913774.2555,9
1606913774.2575,-21
1606913774.2594,-16
1606913774.2614,287
1606913774.2635,878
1606913774.2642,1223
1606913774.2664,839
1606913774.2685,74
1606913774.2705,-260
1606913774.2724,-110
1606913774.2744,-55
1606913774.2764,-147
1606913774.2784,-123
1606913774.2804,-82
1606913774.2824,-101
1606913774.2844,-89
1606913774.2864,-65
1606913774.2884,-72
1606913774.2904,-65
1606913774.2924,-45
1606913774.2944,-38
1606913774.2952,-28
1606913774.2975,-24
1606913774.2994,-21
1606913774.3014,-2
1606913774.3034,14
1606913774.3054,21
1606913774.3074,26
1606913774.3094,41
1606913774.3114,72
1606913774.3134,89
1606913774.3154,89
1606913774.3176,94
1606913774.3194,101
1606913774.3214,98
1606913774.3234,82
1606913774.3254,62
1606913774.3261,45
1606913774.3285,19
1606913774.3304,-4
1606913774.3325,-9
1606913774.3344,-19
1606913774.3364,-36
1606913774.3384,-48
1606913774.3404,-50
1606913774.3424,-50
1606913774.3444,-60
1606913774.3464,-50
1606913774.3484,-33
1606913774.3504,-50
1606913774.3524,-55
1606913774.3544,-38
1606913774.3564,-36
1606913774.3571,-36
1606913774.3594,-31
1606913774.3614,-31
1606913774.3634,-26
1606913774.3654,-19
1606913774.3674,-19
1606913774.3694,-21
1606913774.3714,-16
1606913774.3735,-9
1606913774.3754,-7
1606913774.8359,-4
1606913774.8367,-7
1606913774.8384,-4
1606913774.8409,4
1606913774.8428,9
1606913774.8449,7
1606913774.8468,2
1606913774.8488,-7
1606913774.8508,-16
1606913774.8527,-14
1606913774.8547,-9
1606913774.8568,-12
1606913774.8587,-19
1606913774.8607,-16
1606913774.8627,-2
1606913774.8647,4
1606913774.8667,0
1606913774.8687,0
1606913774.8694,2
1606913774.8707,-2
1606913774.8730,-2
1606913774.8748,4
1606913774.8767,7
1606913774.8787,-4
1606913774.8807,-9
1606913774.8827,-2
1606913774.8847,12
1606913774.8867,26
1606913774.8887,36
1606913774.8907,45
1606913774.8927,50
1606913774.8947,53
1606913774.8967,41
1606913774.8987,12
1606913774.8994,4
1606913774.9007,24
1606913774.9027,31
1606913774.9047,26
1606913774.9067,21
1606913774.9087,19
1606913774.9107,19
1606913774.9127,28
1606913774.9147,38
1606913774.9150,28
1606913774.9154,4
1606913774.9177,-19
1606913774.9198,77
1606913774.9217,501
1606913774.9237,1114
1606913774.9257,1240
1606913774.9263,542
1606913774.9277,-193
1606913774.9297,-236
1606913774.9317,-38
1606913774.9337,-94
1606913774.9357,-144
1606913774.9377,-74
1606913774.9397,-67
1606913774.9417,-69
1606913774.9437,-33
1606913774.9457,-28
1606913774.9477,-33
1606913774.9497,-21
1606913774.9517,-12
1606913774.9537,-9
1606913774.9557,-2
1606913774.9563,9
1606913774.9577,26
1606913774.9597,33
1606913774.9617,43
1606913774.9637,62
1606913774.9659,82
1606913774.9678,103
1606913775.3456,118
1606913775.3462,125
1606913775.3466,132
1606913775.3483,127
1606913775.3502,110
1606913775.3521,96
1606913775.3542,89
1606913775.3562,72
1606913775.3581,43
1606913775.3602,9
1606913775.3622,-19
1606913775.3642,-43
1606913775.3662,-62
1606913775.3682,-79
1606913775.3701,-77
1606913775.3721,-62
1606913775.3742,-67
1606913775.3761,-79
1606913775.3767,-74
1606913775.3781,-72
1606913775.3801,-72
1606913775.3821,-57
1606913775.3841,-45
1606913775.3861,-48
1606913775.3881,-43
1606913775.3901,-28
1606913775.3921,-21
1606913775.3941,-24
1606913775.3961,-19
1606913775.3981,-14
1606913775.4001,-14
1606913775.4021,-12
1606913775.4041,-7
1606913775.4061,-7
1606913775.4067,-7
1606913775.4082,-4
1606913775.4101,-7
1606913775.4121,-4
1606913775.4141,-4
1606913775.4161,-2
1606913775.4181,-2
1606913775.4201,-4
1606913775.4221,4
1606913775.4241,7
1606913775.4261,4
1606913775.4282,2
1606913775.4301,2
1606913775.4321,-2
1606913775.4341,0
1606913775.4363,7
1606913775.4367,9
1606913775.4381,7
1606913775.4401,9
1606913775.4421,12
1606913775.4441,9
1606913775.4461,0
1606913775.4481,0
1606913775.4501,12
1606913775.4521,28
1606913775.4542,38
1606913775.4561,45
1606913775.4582,55
1606913775.4601,57
1606913775.4621,36
1606913775.4641,12
1606913775.4661,16
1606913775.4667,28
1606913775.4681,26
1606913775.4701,16
1606913775.4721,14
1606913775.4741,19
1606913775.4761,21
1606913775.4781,12
1606913775.8858,7
1606913775.8864,12
1606913775.8888,-9
1606913775.8905,-45
1606913775.8925,91
1606913775.8945,586
1606913775.8965,1194
1606913775.8985,1247
1606913775.9005,523
1606913775.9011,-190
1606913775.9025,-234
1606913775.9045,-48
1606913775.9065,-106
1606913775.9085,-156
1606913775.9105,-94
1606913775.9124,-84
1606913775.9144,-98
1606913775.9164,-72
1606913775.9185,-60
1606913775.9204,-57
1606913775.9225,-43
1606913775.9244,-38
1606913775.9264,-43
1606913775.9285,-31
1606913775.9304,-12
1606913775.9310,0
1606913775.9324,16
1606913775.9347,36
1606913775.9365,41
1606913775.9385,50
1606913775.9404,74
1606913775.9424,96
1606913775.9444,106
1606913775.9464,108
1606913775.9485,106
1606913775.9504,101
1606913775.9524,89
1606913775.9544,65
1606913775.9564,31
1606913775.9585,14
1606913775.9590,14
1606913775.9604,-7
1606913775.9624,-38
1606913775.9644,-41
1606913775.9664,-38
1606913775.9685,-53
1606913775.9704,-53
1606913775.9724,-41
1606913775.9744,-43
1606913775.9764,-43
1606913775.9785,-31
1606913775.9804,-31
1606913775.9825,-36
1606913775.9845,-38
1606913775.9865,-31
1606913775.9885,-16
1606913775.9891,-2
1606913775.9905,2
1606913775.9926,0
1606913775.9946,0
1606913775.9964,4
1606913775.9985,7
1606913776.0005,9
1606913776.0025,14
1606913776.0045,9
1606913776.0065,0
1606913776.0085,4
1606913776.0104,16
1606913776.0125,19
1606913776.0144,14
1606913776.0164,14
1606913776.0184,14
1606913776.0190,14
1606913776.4858,16
1606913776.4864,19
1606913776.4888,21
1606913776.4915,12
1606913776.4935,2
1606913776.4957,7
1606913776.4976,14
1606913776.4995,9
1606913776.5015,7
1606913776.5035,16
1606913776.5055,14
1606913776.5075,12
1606913776.5081,16
1606913776.5095,14
1606913776.5115,9
1606913776.5135,7
1606913776.5155,7
1606913776.5175,14
1606913776.5194,41
1606913776.5214,55
1606913776.5234,50
1606913776.5254,53
1606913776.5274,50
1606913776.5295,24
1606913776.5314,9
1606913776.5335,28
1606913776.5354,31
1606913776.5375,14
1606913776.5380,19
1606913776.5394,28
1606913776.5414,21
1606913776.5434,26
1606913776.5454,33
1606913776.5475,26
1606913776.5494,9
1606913776.5514,-26
1606913776.5534,-9
1606913776.5554,279
1606913776.5575,883
1606913776.5594,1298
1606913776.5614,967
1606913776.5634,168
1606913776.5654,-234
1606913776.5675,-101
1606913776.5680,-43
1606913776.5694,-144
1606913776.5714,-125
1606913776.5734,-74
1606913776.5754,-89
1606913776.5775,-86
1606913776.5794,-67
1606913776.5814,-67
1606913776.5834,-62
1606913776.5854,-50
1606913776.5875,-48
1606913776.5894,-48
1606913776.5916,-38
1606913776.5935,-21
1606913776.5954,-16
1606913776.5975,-4
1606913776.5980,12
1606913776.5994,24
1606913776.6014,38
1606913776.6034,55
1606913776.6054,69
1606913776.6075,79
1606913776.6095,82
1606913776.6114,82
1606913776.6134,77
1606913776.6154,69
1606913776.6175,57
1606913776.6194,38
1606913776.6214,12
1606913777.0556,-14
1606913777.0565,-21
1606913777.0590,-28
1606913777.0601,-43
1606913777.0617,-50
1606913777.0636,-43
1606913777.0656,-38
1606913777.0677,-38
1606913777.0696,-45
1606913777.0715,-48
1606913777.0735,-36
1606913777.0756,-38
1606913777.0776,-43
1606913777.0796,-33
1606913777.0816,-28
1606913777.0835,-31
1606913777.0855,-24
1606913777.0876,-14
1606913777.0895,-12
1606913777.0902,-9
1606913777.0916,-4
1606913777.0935,0
1606913777.0955,0
1606913777.0976,-2
1606913777.0995,0
1606913777.1015,4
1606913777.1035,4
1606913777.1055,9
1606913777.1076,19
1606913777.1095,19
1606913777.1118,14
1606913777.1136,16
1606913777.1155,19
1606913777.1176,16
1606913777.1197,16
1606913777.1201,14
1606913777.1215,12
1606913777.1235,14
1606913777.1255,14
1606913777.1276,14
1606913777.1295,16
1606913777.1315,19
1606913777.1335,24
1606913777.1355,28
1606913777.1375,31
1606913777.1395,26
1606913777.1415,19
1606913777.1435,12
1606913777.1456,4
1606913777.1475,12
1606913777.1495,16
1606913777.1501,9
1606913777.1515,7
1606913777.1535,12
1606913777.1555,21
1606913777.1575,36
1606913777.1595,45
1606913777.1615,48
1606913777.1635,57
1606913777.1655,65
1606913777.1675,43
1606913777.1695,21
1606913777.1715,19
1606913777.1735,28
1606913777.1755,31
1606913777.1776,28
1606913777.1795,31
1606913777.1801,28
1606913777.1815,24
1606913777.1835,26
1606913777.1855,28
1606913777.1875,24
1606913777.1895,4
1606913777.5959,-33
1606913777.5966,45
1606913777.5990,453
1606913777.6017,1064
1606913777.6036,1269
1606913777.6056,704
1606913777.6078,-48
1606913777.6096,-226
1606913777.6102,-55
1606913777.6116,-86
1606913777.6136,-171
1606913777.6156,-110
1606913777.6178,-79
1606913777.6196,-106
1606913777.6216,-89
1606913777.6236,-67
1606913777.6256,-67
1606913777.6276,-57
1606913777.6296,-45
1606913777.6316,-43
1606913777.6336,-41
1606913777.6356,-28
1606913777.6376,-19
1606913777.6396,-7
1606913777.6402,2
1606913777.6416,9
1606913777.6436,26
1606913777.6456,53
1606913777.6476,67
1606913777.6495,74
1606913777.6516,86
1606913777.6536,91
1606913777.6556,89
1606913777.6576,82
1606913777.6596,69
1606913777.6616,55
1606913777.6636,33
1606913777.6656,7
1606913777.6676,-14
1606913777.6696,-28
1606913777.6702,-43
1606913777.6715,-53
1606913777.6736,-50
1606913777.6755,-48
1606913777.6776,-50
1606913777.6796,-55
1606913777.6815,-53
1606913777.6835,-41
1606913777.6856,-36
1606913777.6876,-36
1606913777.6896,-33
1606913777.6916,-26
1606913777.6936,-21
1606913777.6955,-16
1606913777.6976,-12
1606913777.6996,-7
1606913777.7002,-7
1606913777.7016,-7
1606913777.7036,-7
1606913777.7056,-4
1606913777.7076,2
1606913777.7096,7
1606913777.7115,7
1606913777.7137,7
1606913777.7156,7
1606913777.7176,12
1606913777.7196,16
1606913777.7215,14
1606913777.7235,14
1606913777.7255,12
1606913777.7276,7
1606913777.7295,4
1606913777.7302,9
1606913778.1660,12
1606913778.1669,12
1606913778.1694,16
1606913778.1720,16
1606913778.1740,14
1606913778.1760,14
1606913778.1781,9
1606913778.1799,2
1606913778.1819,4
1606913778.1839,9
1606913778.1859,7
1606913778.1880,2
1606913778.1900,2
1606913778.1919,7
1606913778.1926,9
1606913778.1939,7
1606913778.1959,12
1606913778.1980,16
1606913778.2000,4
1606913778.2019,0
1606913778.2039,12
1606913778.2059,28
1606913778.2080,41
1606913778.2099,48
1606913778.2119,53
1606913778.2139,50
1606913778.2159,36
1606913778.2179,16
1606913778.2199,4
1606913778.2219,4
1606913778.2225,9
1606913778.2239,16
1606913778.2259,14
1606913778.2279,7
1606913778.2299,7
1606913778.2319,12
1606913778.2339,7
1606913778.2359,0
1606913778.2379,-12
1606913778.2399,-36
1606913778.2419,43
1606913778.2441,439
1606913778.2459,1047
1606913778.2479,1235
1606913778.2499,632
1606913778.2519,-113
1606913778.2525,-250
1606913778.2539,-67
1606913778.2559,-98
1606913778.2579,-164
1606913778.2599,-94
1606913778.2619,-74
1606913778.2639,-89
1606913778.2659,-53
1606913778.2679,-50
1606913778.2699,-79
1606913778.2719,-65
1606913778.2739,-36
1606913778.2759,-31
1606913778.2779,-28
1606913778.2799,-24
1606913778.2819,-24
1606913778.2826,-7
1606913778.2839,16
1606913778.2859,28
1606913778.2880,43
1606913778.2899,65
1606913778.2919,84
1606913778.2939,94
1606913778.2959,96
1606913778.2980,106
1606913778.2999,115
1606913778.3019,103
1606913778.7053,84
1606913778.7060,72
1606913778.7077,48
1606913778.7101,14
1606913778.7121,-12
1606913778.7140,-31
1606913778.7160,-41
1606913778.7181,-50
1606913778.7200,-62
1606913778.7220,-62
1606913778.7240,-62
1606913778.7261,-62
1606913778.7281,-65
1606913778.7301,-60
1606913778.7321,-45
1606913778.7341,-43
1606913778.7360,-48
1606913778.7381,-43
1606913778.7386,-31
1606913778.7402,-28
1606913778.7421,-26
1606913778.7440,-12
1606913778.7460,-4
1606913778.7481,-4
1606913778.7500,-7
1606913778.7520,-7
1606913778.7540,-12
1606913778.7560,-16
1606913778.7581,-9
1606913778.7600,-2
1606913778.7620,-9
1606913778.7640,-14
1606913778.7661,-2
1606913778.7681,7
1606913778.7686,0
1606913778.7700,-4
1606913778.7720,4
1606913778.7740,12
1606913778.7760,4
1606913778.7780,2
1606913778.7800,0
1606913778.7820,-4
1606913778.7840,2
1606913778.7860,9
1606913778.7880,7
1606913778.7901,12
1606913778.7920,12
1606913778.7940,-2
1606913778.7960,-2
1606913778.7980,7
1606913778.7986,14
1606913778.8000,19
1606913778.8020,31
1606913778.8040,36
1606913778.8060,38
1606913778.8080,43
1606913778.8100,41
1606913778.8120,19
1606913778.8140,2
1606913778.8160,9
1606913778.8180,16
1606913778.8200,19
1606913778.8220,14
1606913778.8240,12
1606913778.8260,14
1606913778.8280,16
1606913778.8286,14
1606913778.8300,14
1606913778.8320,9
1606913778.8340,-19
1606913778.8361,-12
1606913778.8381,243
1606913778.8400,830
1606913779.2757,1271
1606913779.2764,921
1606913779.2778,62
1606913779.2798,-320
1606913779.2818,-120
1606913779.2837,-53
1606913779.2857,-166
1606913779.2864,-127
1606913779.2877,-67
1606913779.2897,-94
1606913779.2917,-91
1606913779.2937,-62
1606913779.2957,-60
1606913779.2978,-62
1606913779.2997,-50
1606913779.3017,-38
1606913779.3037,-38
1606913779.3057,-31
1606913779.3077,-14
1606913779.3097,-7
1606913779.3117,0
1606913779.3137,14
1606913779.3157,31
1606913779.3163,50
1606913779.3177,74
1606913779.3197,96
1606913779.3217,106
1606913779.3237,110
1606913779.3257,106
1606913779.3277,98
1606913779.3297,89
1606913779.3317,67
1606913779.3337,36
1606913779.3357,7
1606913779.3377,-19
1606913779.3397,-41
1606913779.3417,-53
1606913779.3437,-55
1606913779.3457,-60
1606913779.3463,-65
1606913779.3477,-65
1606913779.3497,-57
1606913779.3517,-60
1606913779.3537,-65
1606913779.3557,-50
1606913779.3577,-31
1606913779.3597,-38
1606913779.3617,-41
1606913779.3638,-31
1606913779.3657,-24
1606913779.3678,-16
1606913779.3697,-9
1606913779.3717,-9
1606913779.3737,-9
1606913779.3757,-7
1606913779.3763,-2
1606913779.3777,2
1606913779.3797,4
1606913779.3817,4
1606913779.3837,4
1606913779.3857,7
1606913779.3877,7
1606913779.3897,4
1606913779.3917,2
1606913779.3937,2
1606913779.3957,9
1606913779.3977,16
1606913779.3997,14
1606913779.4017,9
1606913779.4037,12
1606913779.4057,7
1606913779.4063,2
1606913779.4077,9
1606913779.8760,21
1606913779.8769,19
1606913779.8796,9
1606913779.8820,7
1606913779.8841,4
1606913779.8860,-2
1606913779.8880,-9
1606913779.8900,-9
1606913779.8920,4
1606913779.8940,19
1606913779.8960,21
1606913779.8980,28
1606913779.8987,43
1606913779.8999,41
1606913779.9019,14
1606913779.9039,-4
1606913779.9060,0
1606913779.9080,9
1606913779.9099,4
1606913779.9119,7
1606913779.9139,19
1606913779.9159,14
1606913779.9180,9
1606913779.9199,16
1606913779.9219,21
1606913779.9239,9
1606913779.9261,-31
1606913779.9280,-36
1606913779.9285,217
1606913779.9299,817
1606913779.9319,1293
1606913779.9339,1023
1606913779.9359,197
1606913779.9379,-275
1606913779.9399,-144
1606913779.9419,-48
1606913779.9439,-149
1606913779.9459,-144
1606913779.9479,-91
1606913779.9499,-101
1606913779.9519,-91
1606913779.9539,-62
1606913779.9559,-62
1606913779.9579,-62
1606913779.9585,-45
1606913779.9599,-26
1606913779.9619,-28
1606913779.9639,-43
1606913779.9659,-41
1606913779.9679,-26
1606913779.9699,-4
1606913779.9719,16
1606913779.9739,33
1606913779.9759,45
1606913779.9779,60
1606913779.9799,79
1606913779.9819,86
1606913779.9839,82
1606913779.9859,82
1606913779.9879,94
1606913779.9885,84
1606913779.9899,53
1606913779.9919,31
1606913779.9939,12
1606913779.9959,-14
1606913779.9979,-24
1606913779.9999,-31
1606913780.0019,-43
1606913780.0039,-53
1606913780.0059,-55
1606913780.0079,-45
1606913780.0099,-36
1606913780.0119,-38
1606913780.4157,-41
1606913780.4165,-38
1606913780.4188,-33
1606913780.4214,-36
1606913780.4236,-31
1606913780.4255,-28
1606913780.4274,-28
1606913780.4294,-16
1606913780.4314,-9
1606913780.4334,-12
1606913780.4354,-12
1606913780.4375,-12
1606913780.4394,-14
1606913780.4414,-7
1606913780.4434,-4
1606913780.4455,-9
1606913780.4475,-7
1606913780.4480,2
1606913780.4494,4
1606913780.4514,-2
1606913780.4534,-4
1606913780.4554,2
1606913780.4575,12
1606913780.4594,9
1606913780.4614,-2
1606913780.4634,-4
1606913780.4654,0
1606913780.4674,-2
1606913780.4694,0
1606913780.4714,14
1606913780.4734,14
1606913780.4754,7
1606913780.4774,7
1606913780.4780,9
1606913780.4794,4
1606913780.4814,0
1606913780.4834,-2
1606913780.4854,-7
1606913780.4874,12
1606913780.4893,41
1606913780.4914,45
1606913780.4934,50
1606913780.4954,57
1606913780.4974,48
1606913780.4994,21
1606913780.5014,4
1606913780.5034,12
1606913780.5054,28
1606913780.5074,28
1606913780.5080,21
1606913780.5094,24
1606913780.5114,21
1606913780.5134,19
1606913780.5153,26
1606913780.5174,31
1606913780.5195,19
1606913780.5214,-24
1606913780.5234,-38
1606913780.5253,195
1606913780.5274,760
1606913780.5294,1233
1606913780.5314,1020
1606913780.5334,248
1606913780.5354,-229
1606913780.5374,-127
1606913780.5380,-36
1606913780.5394,-132
1606913780.5414,-127
1606913780.5434,-77
1606913780.5454,-98
1606913780.5474,-96
1606913780.5494,-67
1606913780.5514,-65
1606913780.9859,-60
1606913780.9868,-45
1606913780.9893,-41
1606913780.9919,-41
1606913780.9939,-28
1606913780.9959,-14
1606913780.9980,-9
1606913780.9999,-2
1606913781.0005,12
1606913781.0018,19
1606913781.0038,31
1606913781.0059,55
1606913781.0079,72
1606913781.0098,77
1606913781.0118,79
1606913781.0138,82
1606913781.0158,79
1606913781.0179,67
1606913781.0198,53
1606913781.0218,28
1606913781.0238,2
1606913781.0258,-9
1606913781.0279,-21
1606913781.0298,-41
1606913781.0304,-50
1606913781.0318,-48
1606913781.0338,-45
1606913781.0358,-43
1606913781.0378,-43
1606913781.0398,-43
1606913781.0418,-41
1606913781.0438,-36
1606913781.0458,-33
1606913781.0480,-28
1606913781.0498,-19
1606913781.0518,-14
1606913781.0538,-19
1606913781.0558,-24
1606913781.0579,-14
1606913781.0598,0
1606913781.0604,4
1606913781.0618,-2
1606913781.0638,-2
1606913781.0658,4
1606913781.0678,9
1606913781.0699,12
1606913781.0719,9
1606913781.0738,12
1606913781.0758,12
1606913781.0779,9
1606913781.0798,14
1606913781.0818,12
1606913781.0838,7
1606913781.0858,9
1606913781.0878,14
1606913781.0898,9
1606913781.0904,7
1606913781.0918,7
1606913781.0940,7
1606913781.0960,12
1606913781.0980,14
1606913781.0999,4
1606913781.1018,-2
1606913781.1038,4
1606913781.1058,12
1606913781.1079,9
1606913781.1098,4
1606913781.1120,2
1606913781.1138,2
1606913781.1158,2
1606913781.1178,0
1606913781.1198,12
1606913781.1204,38
1606913781.5257,48
1606913781.5266,45
1606913781.5290,53
1606913781.5317,48
1606913781.5337,21
1606913781.5357,7
1606913781.5377,12
1606913781.5396,14
1606913781.5416,9
1606913781.5436,4
1606913781.5456,-7
1606913781.5479,-12
1606913781.5483,-2
1606913781.5496,2
1606913781.5516,4
1606913781.5536,-2
1606913781.5557,-33
1606913781.5577,2
1606913781.5589,323
1606913781.5606,921
1606913781.5626,1245
1606913781.5646,786
1606913781.5666,-7
1606913781.5686,-277
1606913781.5706,-89
1606913781.5726,-57
1606913781.5746,-147
1606913781.5752,-108
1606913781.5766,-67
1606913781.5785,-84
1606913781.5805,-77
1606913781.5825,-57
1606913781.5846,-53
1606913781.5865,-48
1606913781.5886,-45
1606913781.5906,-41
1606913781.5926,-24
1606913781.5945,-16
1606913781.5965,-14
1606913781.5985,2
1606913781.6006,16
1606913781.6025,28
1606913781.6045,45
1606913781.6052,60
1606913781.6065,77
1606913781.6085,96
1606913781.6105,110
1606913781.6126,113
1606913781.6145,113
1606913781.6165,106
1606913781.6185,86
1606913781.6205,60
1606913781.6226,31
1606913781.6245,-2
1606913781.6265,-28
1606913781.6285,-45
1606913781.6305,-60
1606913781.6325,-72
1606913781.6346,-69
1606913781.6352,-67
1606913781.6365,-72
1606913781.6385,-72
1606913781.6407,-62
1606913781.6426,-60
1606913781.6445,-60
1606913781.6466,-55
1606913781.6485,-43
1606913781.6505,-38
1606913781.6525,-36
1606913781.6545,-36
1606913781.6565,-36
1606913781.6586,-28
1606913781.6605,-26
1606913782.0660,-28
1606913782.0669,-24
1606913782.0687,-12
1606913782.0710,-9
1606913782.0730,-14
1606913782.0750,-12
1606913782.0770,-7
1606913782.0789,-12
1606913782.0809,-16
1606913782.0829,-14
1606913782.0849,-9
1606913782.0869,-14
1606913782.0889,-12
1606913782.0909,-9
1606913782.0929,-9
1606913782.0949,-9
1606913782.0970,-2
1606913782.0989,2
1606913782.0995,-2
1606913782.1009,-4
1606913782.1029,0
1606913782.1049,7
1606913782.1070,7
1606913782.1089,4
1606913782.1109,2
1606913782.1129,0
1606913782.1149,-9
1606913782.1169,-4
1606913782.1189,12
1606913782.1209,21
1606913782.1229,24
1606913782.1249,31
1606913782.1269,48
1606913782.1289,48
1606913782.1295,19
1606913782.1309,-2
1606913782.1329,2
1606913782.1349,16
1606913782.1369,19
1606913782.1389,16
1606913782.1411,14
1606913782.1429,9
1606913782.1449,7
1606913782.1469,12
1606913782.1489,16
1606913782.1509,9
1606913782.1529,-21
1606913782.1549,-41
1606913782.1569,147
1606913782.1589,694
1606913782.1595,1237
1606913782.1609,1100
1606913782.1629,284
1606913782.1649,-289
1606913782.1669,-190
1606913782.1689,-38
1606913782.1708,-123
1606913782.1729,-135
1606913782.1749,-67
1606913782.1769,-74
1606913782.1789,-84
1606913782.1809,-55
1606913782.1828,-45
1606913782.1849,-45
1606913782.1870,-31
1606913782.1889,-26
1606913782.1895,-26
1606913782.1909,-12
1606913782.1929,4
1606913782.1949,12
1606913782.1969,21
1606913782.1989,36
1606913782.2009,55
1606913782.6359,72
1606913782.6368,86
1606913782.6381,108
1606913782.6400,120
1606913782.6419,118
1606913782.6439,113
1606913782.6459,106
1606913782.6465,89
1606913782.6479,67
1606913782.6499,43
1606913782.6519,9
1606913782.6539,-19
1606913782.6559,-38
1606913782.6580,-50
1606913782.6599,-60
1606913782.6618,-62
1606913782.6639,-65
1606913782.6658,-65
1606913782.6681,-62
1606913782.6699,-60
1606913782.6719,-60
1606913782.6739,-57
1606913782.6759,-60
1606913782.6765,-55
1606913782.6778,-48
1606913782.6798,-43
1606913782.6818,-31
1606913782.6839,-26
1606913782.6858,-31
1606913782.6879,-31
1606913782.6898,-16
1606913782.6919,-9
1606913782.6938,-12
1606913782.6958,-9
1606913782.6978,-9
1606913782.6998,-7
1606913782.7019,-2
1606913782.7038,0
1606913782.7058,-4
1606913782.7064,-9
1606913782.7079,-7
1606913782.7098,-4
1606913782.7118,-7
1606913782.7138,-9
1606913782.7158,-4
1606913782.7178,-2
1606913782.7198,-2
1606913782.7218,-2
1606913782.7238,-2
1606913782.7258,2
1606913782.7280,0
1606913782.7298,-2
1606913782.7318,0
1606913782.7338,0
1606913782.7358,4
1606913782.7364,4
1606913782.7378,2
1606913782.7398,2
1606913782.7418,0
1606913782.7438,0
1606913782.7458,4
1606913782.7478,7
1606913782.7498,2
1606913782.7518,-2
1606913782.7538,0
1606913782.7558,9
1606913782.7578,19
1606913782.7598,28
1606913782.7618,36
1606913782.7640,45
1606913782.7658,48
1606913782.7664,36
1606913782.7679,16
1606913783.2359,7
1606913783.2368,7
1606913783.2394,12
1606913783.2420,9
1606913783.2439,7
1606913783.2459,2
1606913783.2480,-2
1606913783.2499,0
1606913783.2519,4
1606913783.2539,0
1606913783.2559,-12
1606913783.2579,-48
1606913783.2599,-43
1606913783.2605,234
1606913783.2619,842
1606913783.2639,1295
1606913783.2658,1003
1606913783.2679,188
1606913783.2699,-270
1606913783.2719,-142
1606913783.2739,-62
1606913783.2759,-168
1606913783.2779,-154
1606913783.2798,-98
1606913783.2818,-115
1606913783.2838,-110
1606913783.2858,-82
1606913783.2879,-82
1606913783.2898,-79
1606913783.2904,-62
1606913783.2918,-57
1606913783.2938,-55
1606913783.2958,-50
1606913783.2979,-43
1606913783.2998,-31
1606913783.3018,-14
1606913783.3038,-2
1606913783.3058,7
1606913783.3079,26
1606913783.3099,43
1606913783.3118,55
1606913783.3138,65
1606913783.3159,74
1606913783.3178,77
1606913783.3198,69
1606913783.3204,60
1606913783.3218,48
1606913783.3240,28
1606913783.3259,0
1606913783.3279,-21
1606913783.3298,-33
1606913783.3318,-45
1606913783.3338,-57
1606913783.3358,-62
1606913783.3378,-55
1606913783.3398,-53
1606913783.3418,-55
1606913783.3438,-53
1606913783.3458,-45
1606913783.3478,-43
1606913783.3500,-38
1606913783.3518,-33
1606913783.3538,-28
1606913783.3558,-28
1606913783.3578,-24
1606913783.3598,-24
1606913783.3618,-21
1606913783.3638,-16
1606913783.3658,-12
1606913783.3678,-12
1606913783.3699,-7
1606913783.3719,0
1606913783.3738,2
1606913783.7757,4
1606913783.7765,9
1606913783.7789,12
1606913783.7816,12
1606913783.7835,7
1606913783.7855,2
1606913783.7877,2
1606913783.7895,9
1606913783.7915,7
1606913783.7935,4
1606913783.7955,2
1606913783.7976,-4
1606913783.7995,-4
1606913783.8015,0
1606913783.8035,0
1606913783.8055,0
1606913783.8076,2
1606913783.8081,7
1606913783.8095,9
1606913783.8115,7
1606913783.8135,4
1606913783.8155,7
1606913783.8175,7
1606913783.8195,2
1606913783.8215,2
1606913783.8237,4
1606913783.8256,4
1606913783.8276,0
1606913783.8295,0
1606913783.8315,4
1606913783.8335,12
1606913783.8355,21
1606913783.8375,36
1606913783.8381,48
1606913783.8395,48
1606913783.8415,36
1606913783.8435,21
1606913783.8455,7
1606913783.8476,0
1606913783.8495,7
1606913783.8515,16
1606913783.8535,16
1606913783.8555,12
1606913783.8575,12
1606913783.8595,14
1606913783.8615,16
1606913783.8635,16
1606913783.8655,16
1606913783.8675,-4
1606913783.8681,-43
1606913783.8696,53
1606913783.8716,484
1606913783.8735,1088
1606913783.8755,1245
1606913783.8775,632
1606913783.8795,-94
1606913783.8815,-224
1606913783.8835,-57
1606913783.8855,-91
1606913783.8875,-156
1606913783.8895,-98
1606913783.8915,-82
1606913783.8935,-98
1606913783.8955,-74
1606913783.8975,-57
1606913783.8981,-65
1606913783.8995,-60
1606913783.9015,-48
1606913783.9035,-45
1606913783.9055,-48
1606913783.9075,-38
1606913783.9095,-21
1606913783.9115,-14
1606913784.3757,-4
1606913784.3765,12
1606913784.3789,31
1606913784.3819,45
1606913784.3837,62
1606913784.3843,79
1606913784.3856,89
1606913784.3877,84
1606913784.3896,74
1606913784.3916,69
1606913784.3936,62
1606913784.3956,43
1606913784.3976,19
1606913784.3996,-2
1606913784.4016,-19
1606913784.4036,-36
1606913784.4056,-50
1606913784.4076,-55
1606913784.4095,-53
1606913784.4116,-57
1606913784.4136,-60
1606913784.4142,-50
1606913784.4155,-43
1606913784.4176,-50
1606913784.4195,-50
1606913784.4215,-41
1606913784.4235,-38
1606913784.4255,-41
1606913784.4276,-31
1606913784.4296,-24
1606913784.4315,-24
1606913784.4335,-24
1606913784.4355,-16
1606913784.4376,-12
1606913784.4395,-9
1606913784.4415,-4
1606913784.4435,0
1606913784.4441,-2
1606913784.4455,-4
1606913784.4476,0
1606913784.4495,2
1606913784.4515,2
1606913784.4535,4
1606913784.4555,2
1606913784.4576,2
1606913784.4596,9
1606913784.4615,12
1606913784.4635,4
1606913784.4655,-7
1606913784.4676,-4
1606913784.4695,21
1606913784.4715,26
1606913784.4735,14
1606913784.4741,12
1606913784.4757,9
1606913784.4775,7
1606913784.4795,12
1606913784.4815,14
1606913784.4835,12
1606913784.4855,9
1606913784.4875,9
1606913784.4895,9
1606913784.4915,9
1606913784.4936,7
1606913784.4955,9
1606913784.4975,14
1606913784.4995,14
1606913784.5015,7
1606913784.5035,4
1606913784.5041,12
1606913784.5055,24
1606913784.5075,33
1606913784.5095,41
1606913784.8857,45
1606913784.8864,45
1606913784.8888,33
1606913784.8915,14
1606913784.8935,7
1606913784.8954,9
1606913784.8975,12
1606913784.8994,14
1606913784.9014,12
1606913784.9034,9
1606913784.9054,4
1606913784.9075,-2
1606913784.9080,-7
1606913784.9094,-9
1606913784.9114,-19
1606913784.9134,-45
1606913784.9154,-19
1606913784.9174,263
1606913784.9194,851
1606913784.9214,1257
1606913784.9234,883
1606913784.9254,45
1606913784.9274,-313
1606913784.9294,-123
1606913784.9314,-65
1606913784.9334,-168
1606913784.9354,-132
1606913784.9374,-82
1606913784.9380,-101
1606913784.9394,-98
1606913784.9414,-77
1606913784.9434,-77
1606913784.9455,-67
1606913784.9475,-53
1606913784.9494,-48
1606913784.9514,-36
1606913784.9534,-24
1606913784.9554,-19
1606913784.9574,-7
1606913784.9594,9
1606913784.9614,26
1606913784.9634,43
1606913784.9654,57
1606913784.9674,77
1606913784.9680,96
1606913784.9694,110
1606913784.9714,118
1606913784.9734,123
1606913784.9754,118
1606913784.9774,101
1606913784.9794,72
1606913784.9814,38
1606913784.9834,12
1606913784.9854,-12
1606913784.9874,-33
1606913784.9894,-50
1606913784.9914,-62
1606913784.9934,-65
1606913784.9954,-60
1606913784.9974,-65
1606913784.9980,-65
1606913784.9994,-55
1606913785.0016,-53
1606913785.0035,-53
1606913785.0054,-48
1606913785.0074,-45
1606913785.0094,-41
1606913785.0114,-28
1606913785.0134,-28
1606913785.0154,-31
1606913785.0174,-16
1606913785.0194,-4
1606913785.0214,-7
1606913785.4559,-9
1606913785.4568,-12
1606913785.4592,-14
1606913785.4619,-9
1606913785.4639,-7
1606913785.4659,-14
1606913785.4679,-19
1606913785.4698,-16
1606913785.4718,-7
1606913785.4738,0
1606913785.4760,-9
1606913785.4779,-12
1606913785.4798,-2
1606913785.4818,-7
1606913785.4838,-19
1606913785.4858,-16
1606913785.4878,-7
1606913785.4884,2
1606913785.4898,2
1606913785.4918,-2
1606913785.4939,0
1606913785.4958,9
1606913785.4978,2
1606913785.4998,-2
1606913785.5018,-4
1606913785.5038,-2
1606913785.5058,7
1606913785.5078,9
1606913785.5098,12
1606913785.5118,19
1606913785.5137,9
1606913785.5158,9
1606913785.5178,28
1606913785.5184,41
1606913785.5198,38
1606913785.5217,43
1606913785.5237,50
1606913785.5257,45
1606913785.5278,21
1606913785.5297,14
1606913785.5317,24
1606913785.5337,21
1606913785.5357,9
1606913785.5378,9
1606913785.5398,12
1606913785.5417,7
1606913785.5437,4
1606913785.5457,12
1606913785.5478,14
1606913785.5484,4
1606913785.5497,-26
1606913785.5518,-28
1606913785.5537,202
1606913785.5557,789
1606913785.5578,1288
1606913785.5598,1032
1606913785.5617,173
1606913785.5637,-311
1606913785.5657,-159
1606913785.5678,-48
1606913785.5697,-154
1606913785.5719,-147
1606913785.5738,-74
1606913785.5758,-89
1606913785.5778,-101
1606913785.5784,-69
1606913785.5797,-60
1606913785.5817,-69
1606913785.5837,-60
1606913785.5857,-45
1606913785.5877,-33
1606913785.5897,-24
1606913785.5917,-12
1606913785.9952,-7
1606913785.9959,4
1606913785.9983,24
1606913786.0009,38
1606913786.0029,50
1606913786.0049,74
1606913786.0070,94
1606913786.0075,96
1606913786.0089,94
1606913786.0109,98
1606913786.0129,96
1606913786.0149,82
1606913786.0169,65
1606913786.0189,43
1606913786.0209,12
1606913786.0229,-19
1606913786.0249,-38
1606913786.0269,-48
1606913786.0289,-57
1606913786.0309,-62
1606913786.0329,-60
1606913786.0349,-55
1606913786.0369,-60
1606913786.0374,-62
1606913786.0388,-55
1606913786.0408,-48
1606913786.0428,-43
1606913786.0448,-41
1606913786.0469,-38
1606913786.0488,-28
1606913786.0508,-16
1606913786.0528,-16
1606913786.0548,-24
1606913786.0569,-16
1606913786.0588,-7
1606913786.0608,-12
1606913786.0628,-14
1606913786.0648,-4
1606913786.0669,0
1606913786.0676,-2
1606913786.0689,-2
1606913786.0710,0
1606913786.0729,2
1606913786.0748,0
1606913786.0770,2
1606913786.0789,7
1606913786.0808,4
1606913786.0828,4
1606913786.0848,9
1606913786.0869,2
1606913786.0888,4
1606913786.0908,19
1606913786.0928,14
1606913786.0948,7
1606913786.0969,9
1606913786.0975,9
1606913786.0988,14
1606913786.1008,19
1606913786.1029,14
1606913786.1048,7
1606913786.1069,7
1606913786.1088,14
1606913786.1108,14
1606913786.1128,9
1606913786.1148,2
1606913786.1169,4
1606913786.1188,12
1606913786.1208,14
1606913786.1228,9
1606913786.1248,4
1606913786.1269,7
1606913786.1274,14
1606913786.1288,24
1606913786.6558,36
1606913786.6567,45
1606913786.6591,50
1606913786.6608,48
1606913786.6628,31
1606913786.6648,7
1606913786.6669,-4
1606913786.6688,-2
1606913786.6708,4
1606913786.6728,4
1606913786.6748,0
1606913786.6770,7
1606913786.6776,14
1606913786.6788,7
1606913786.6808,4
1606913786.6828,9
1606913786.6848,-12
1606913786.6871,-57
1606913786.6888,26
1606913786.6907,451
1606913786.6927,1066
1606913786.6947,1283
1606913786.6968,735
1606913786.6987,-43
1606913786.7007,-265
1606913786.7027,-89
1606913786.7047,-98
1606913786.7067,-183
1606913786.7073,-127
1606913786.7087,-96
1606913786.7107,-118
1606913786.7127,-103
1606913786.7147,-84
1606913786.7167,-82
1606913786.7187,-72
1606913786.7207,-60
1606913786.7227,-62
1606913786.7247,-55
1606913786.7267,-38
1606913786.7287,-31
1606913786.7307,-24
1606913786.7327,-14
1606913786.7347,-7
1606913786.7367,4
1606913786.7373,33
1606913786.7387,57
1606913786.7407,69
1606913786.7427,79
1606913786.7447,84
1606913786.7467,84
1606913786.7487,82
1606913786.7507,74
1606913786.7527,50
1606913786.7547,24
1606913786.7567,2
1606913786.7587,-19
1606913786.7607,-36
1606913786.7627,-53
1606913786.7647,-65
1606913786.7667,-55
1606913786.7673,-45
1606913786.7687,-45
1606913786.7707,-45
1606913786.7727,-43
1606913786.7747,-41
1606913786.7768,-41
1606913786.7787,-38
1606913786.7807,-36
1606913786.7828,-33
1606913786.7847,-28
1606913786.7867,-26
1606913786.7887,-19
1606913786.7907,-12
1606913787.1357,-14
1606913787.1363,-14
1606913787.1387,-9
1606913787.1398,-7
1606913787.1414,-2
1606913787.1433,2
1606913787.1454,2
1606913787.1473,2
1606913787.1493,2
1606913787.1513,0
1606913787.1533,-4
1606913787.1553,-7
1606913787.1574,0
1606913787.1593,-2
1606913787.1613,-4
1606913787.1633,0
1606913787.1653,-2
1606913787.1674,-9
1606913787.1693,-14
1606913787.1699,-12
1606913787.1713,-12
1606913787.1733,-12
1606913787.1753,-7
1606913787.1774,-2
1606913787.1793,-2
1606913787.1813,-4
1606913787.1833,-4
1606913787.1853,-4
1606913787.1873,-2
1606913787.1893,0
1606913787.1913,2
1606913787.1933,4
1606913787.1953,2
1606913787.1973,-2
1606913787.1993,-2
1606913787.1999,4
1606913787.2013,12
1606913787.2033,16
1606913787.2053,26
1606913787.2074,38
1606913787.2093,48
1606913787.2113,45
1606913787.2133,38
1606913787.2153,26
1606913787.2173,9
1606913787.2193,-4
1606913787.2215,-4
1606913787.2234,-4
1606913787.2253,-4
1606913787.2274,-4
1606913787.2279,0
1606913787.2293,2
1606913787.2313,4
1606913787.2333,2
1606913787.2353,-12
1606913787.2373,-45
1606913787.2393,-19
1606913787.2413,289
1606913787.2433,887
1606913787.2453,1264
1606913787.2473,892
1606913787.2493,91
1606913787.2513,-277
1606913787.2533,-125
1606913787.2555,-72
1606913787.2559,-168
1606913787.2574,-139
1606913787.2593,-96
1606913787.2613,-115
1606913787.2633,-106
1606913787.2653,-79
1606913787.2674,-74
1606913787.2693,-69
1606913787.7058,-53
1606913787.7067,-45
1606913787.7091,-50
1606913787.7118,-45
1606913787.7138,-28
1606913787.7144,-16
1606913787.7158,-12
1606913787.7179,-12
1606913787.7198,2
1606913787.7220,31
1606913787.7238,53
1606913787.7258,62
1606913787.7278,74
1606913787.7297,89
1606913787.7317,94
1606913787.7337,86
1606913787.7357,77
1606913787.7378,60
1606913787.7397,38
1606913787.7417,9
1606913787.7437,-14
1606913787.7443,-28
1606913787.7457,-50
1606913787.7477,-62
1606913787.7498,-57
1606913787.7517,-53
1606913787.7537,-62
1606913787.7556,-62
1606913787.7577,-55
1606913787.7597,-50
1606913787.7617,-50
1606913787.7637,-48
1606913787.7657,-38
1606913787.7676,-31
1606913787.7697,-28
1606913787.7717,-26
1606913787.7737,-19
1606913787.7743,-28
1606913787.7757,-38
1606913787.7776,-28
1606913787.7797,-16
1606913787.7817,-19
1606913787.7837,-21
1606913787.7857,-14
1606913787.7877,-7
1606913787.7897,-7
1606913787.7917,-4
1606913787.7937,-4
1606913787.7957,-4
1606913787.7977,0
1606913787.7996,2
1606913787.8018,0
1606913787.8037,0
1606913787.8043,4
1606913787.8057,7
1606913787.8077,2
1606913787.8097,2
1606913787.8117,4
1606913787.8137,7
1606913787.8157,12
1606913787.8177,14
1606913787.8197,7
1606913787.8217,2
1606913787.8229,14
1606913787.8247,16
1606913787.8268,7
1606913787.8286,7
1606913787.8307,12
1606913787.8314,12
1606913787.8327,9
1606913787.8346,9
1606913787.8367,19
1606913787.8387,36
1606913788.2453,45
1606913788.2463,50
1606913788.2489,50
1606913788.2514,38
1606913788.2533,21
1606913788.2553,7
1606913788.2573,9
1606913788.2593,16
1606913788.2613,7
1606913788.2633,-4
1606913788.2653,0
1606913788.2660,4
1606913788.2674,2
1606913788.2693,2
1606913788.2713,2
1606913788.2733,0
1606913788.2753,-24
1606913788.2773,-45
1606913788.2792,135
1606913788.2813,682
1606913788.2833,1235
1606913788.2852,1095
1606913788.2873,267
1606913788.2893,-308
1606913788.2912,-200
1606913788.2933,-48
1606913788.2953,-137
1606913788.2959,-152
1606913788.2973,-91
1606913788.2993,-101
1606913788.3012,-106
1606913788.3032,-79
1606913788.3053,-74
1606913788.3073,-69
1606913788.3093,-53
1606913788.3112,-45
1606913788.3133,-41
1606913788.3152,-26
1606913788.3173,-12
1606913788.3192,-4
1606913788.3212,7
1606913788.3232,28
1606913788.3252,43
1606913788.3259,55
1606913788.3273,77
1606913788.3292,98
1606913788.3313,110
1606913788.3332,113
1606913788.3353,113
1606913788.3372,113
1606913788.3392,108
1606913788.3412,89
1606913788.3433,57
1606913788.3454,24
1606913788.3474,-9
1606913788.3493,-33
1606913788.3513,-43
1606913788.3533,-55
1606913788.3552,-62
1606913788.3559,-65
1606913788.3572,-69
1606913788.3593,-67
1606913788.3613,-60
1606913788.3632,-55
1606913788.3653,-55
1606913788.3673,-53
1606913788.3693,-45
1606913788.3712,-41
1606913788.3732,-33
1606913788.3752,-26
1606913788.3773,-24
1606913788.3792,-21
1606913788.3812,-19
1606913788.8159,-12
1606913788.8168,-7
1606913788.8192,-9
1606913788.8219,-4
1606913788.8239,-2
1606913788.8260,-19
1606913788.8280,-26
1606913788.8298,-9
1606913788.8319,2
1606913788.8338,-7
1606913788.8358,-14
1606913788.8378,-7
1606913788.8398,-7
1606913788.8418,-14
1606913788.8438,-4
1606913788.8458,7
1606913788.8465,0
1606913788.8478,-9
1606913788.8498,-2
1606913788.8518,2
1606913788.8538,-4
1606913788.8558,-7
1606913788.8579,-2
1606913788.8598,-4
1606913788.8618,-12
1606913788.8638,-9
1606913788.8658,-7
1606913788.8678,-7
1606913788.8698,-4
1606913788.8718,-9
1606913788.8737,-9
1606913788.8760,0
1606913788.8841,16
1606913788.8858,33
1606913788.8878,41
1606913788.8897,45
1606913788.8918,38
1606913788.8938,24
1606913788.8957,7
1606913788.8978,0
1606913788.8998,4
1606913788.9018,9
1606913788.9038,9
1606913788.9058,14
1606913788.9078,14
1606913788.9098,7
1606913788.9118,2
1606913788.9124,4
1606913788.9137,4
1606913788.9158,-14
1606913788.9178,-57
1606913788.9197,12
1606913788.9218,419
1606913788.9237,1052
1606913788.9258,1274
1606913788.9278,704
1606913788.9297,-65
1606913788.9318,-260
1606913788.9338,-82
1606913788.9358,-91
1606913788.9378,-168
1606913788.9397,-115
1606913788.9417,-94
1606913788.9424,-120
1606913788.9438,-106
1606913788.9457,-77
1606913788.9478,-72
1606913788.9498,-67
1606913788.9518,-57
1606913788.9537,-50
1606913788.9558,-48
1606913788.9578,-33
1606913788.9598,-19
1606913789.3557,-16
1606913789.3563,-12
1606913789.3588,2
1606913789.3600,24
1606913789.3614,43
1606913789.3634,57
1606913789.3654,65
1606913789.3675,72
1606913789.3695,74
1606913789.3716,74
1606913789.3735,69
1606913789.3754,60
1606913789.3773,41
1606913789.3794,12
1606913789.3813,-14
1606913789.3833,-33
1606913789.3854,-48
1606913789.3874,-62
1606913789.3894,-65
1606913789.3901,-60
1606913789.3924,-65
1606913789.3944,-62
1606913789.3963,-53
1606913789.3983,-53
1606913789.4003,-57
1606913789.4023,-45
1606913789.4043,-41
1606913789.4063,-41
1606913789.4084,-33
1606913789.4103,-26
1606913789.4123,-26
1606913789.4143,-24
1606913789.4163,-19
1606913789.4183,-16
1606913789.4203,-12
1606913789.4211,-9
1606913789.4233,-9
1606913789.4253,-4
1606913789.4273,4
1606913789.4293,2
1606913789.4313,0
1606913789.4333,7
1606913789.4353,12
1606913789.4374,7
1606913789.4393,7
1606913789.4413,4
1606913789.4433,-2
1606913789.4453,0
1606913789.4474,14
1606913789.4493,14
1606913789.4513,7
1606913789.4521,7
1606913789.4544,7
1606913789.4564,9
1606913789.4584,9
1606913789.4604,4
1606913789.4624,9
1606913789.4643,12
1606913789.4664,12
1606913789.4684,12
1606913789.4705,7
1606913789.4724,-2
1606913789.4743,0
1606913789.4763,12
1606913789.4784,19
1606913789.4803,21
1606913789.4824,28
1606913789.4831,43
1606913789.4854,55
1606913789.4874,45
1606913789.4894,19
1606913789.4913,7
1606913789.4934,12
1606913789.9561,16
1606913789.9573,9
1606913789.9597,7
1606913789.9624,9
1606913789.9643,4
1606913789.9663,0
1606913789.9684,0
1606913789.9704,0
1606913789.9723,-2
1606913789.9743,-36
1606913789.9750,-69
1606913789.9763,89
1606913789.9783,569
1606913789.9803,1112
1606913789.9823,1129
1606913789.9844,463
1606913789.9864,-166
1606913789.9883,-205
1606913789.9903,-72
1606913789.9923,-142
1606913789.9943,-173
1606913789.9963,-96
1606913789.9983,-72
1606913790.0003,-89
1606913790.0023,-84
1606913790.0043,-72
1606913790.0050,-60
1606913790.0074,-48
1606913790.0093,-48
1606913790.0113,-50
1606913790.0132,-48
1606913790.0154,-38
1606913790.0173,-31
1606913790.0192,-26
1606913790.0212,-7
1606913790.0233,14
1606913790.0253,21
1606913790.0273,38
1606913790.0294,60
1606913790.0314,72
1606913790.0333,79
1606913790.0353,89
1606913790.0359,98
1606913790.0373,91
