Time,ECG
1604391823.7070,6092
1604391823.7095,6788
1604391823.7121,7472
1604391823.7146,7803
1604391823.7165,8146
1604391823.7185,8555
1604391823.7206,8842
1604391823.7226,9071
1604391823.7246,9312
1604391823.7266,9531
1604391823.7286,9725
1604391823.7306,9915
1604391823.7326,10081
1604391823.7346,10241
1604391823.7366,10399
1604391823.7385,10531
1604391823.7405,10660
1604391823.7425,10793
1604391823.7445,10905
1604391823.7465,11032
1604391823.7485,11171
1604391823.7505,11256
1604391823.7525,11331
1604391823.7545,11426
1604391823.7565,11494
1604391823.7585,11533
1604391823.7605,11565
1604391823.7625,11575
1604391823.7644,11550
1604391823.7664,11523
1604391823.7685,11516
1604391823.7704,11516
1604391823.7724,11519
1604391823.7745,11516
1604391823.7764,11519
1604391823.7784,11528
1604391823.7804,11543
1604391823.7824,11553
1604391823.7845,11565
1604391823.7864,11562
1604391823.7885,11543
1604391823.7904,11533
1604391823.7925,11526
1604391823.7945,11526
1604391823.7965,11533
1604391823.7985,11509
1604391823.8004,11460
1604391823.8025,11443
1604391823.8045,11424
1604391823.8064,11380
1604391823.8091,11351
1604391823.8104,11317
1604391823.8124,11256
1604391823.8144,11205
1604391823.8164,11173
1604391823.8184,11129
1604391823.8204,11068
1604391823.8224,11012
1604391823.8245,10954
1604391823.8264,10896
1604391823.8284,10842
1604391823.8304,10786
1604391823.8324,10733
1604391823.8344,10677
1604391823.8364,10599
1604391823.8384,10531
1604391823.8404,10499
1604391823.8424,10453
1604391823.8444,10370
1604391823.8464,10304
1604391823.8484,10256
1604391823.8504,10168
1604391823.8524,10061
1604391824.2443,9993
1604391824.2454,9942
1604391824.2479,9864
1604391824.2505,9774
1604391824.2525,9708
1604391824.2545,9647
1604391824.2566,9570
1604391824.2585,9492
1604391824.2605,9382
1604391824.2625,9188
1604391824.2646,9017
1604391824.2665,9226
1604391824.2685,10017
1604391824.2705,10896
1604391824.2725,10859
1604391824.2745,9557
1604391824.2764,8346
1604391824.2784,8360
1604391824.2805,8628
1604391824.2824,8414
1604391824.2844,8285
1604391824.2864,8309
1604391824.2884,8207
1604391824.2904,8105
1604391824.2924,8078
1604391824.2945,8012
1604391824.2964,7927
1604391824.2984,7869
1604391824.3006,7808
1604391824.3026,7735
1604391824.3045,7664
1604391824.3064,7603
1604391824.3084,7545
1604391824.3104,7482
1604391824.3124,7419
1604391824.3145,7365
1604391824.3165,7319
1604391824.3184,7270
1604391824.3204,7214
1604391824.3224,7153
1604391824.3245,7114
1604391824.3264,7066
1604391824.3284,6985
1604391824.3304,6905
1604391824.3324,6837
1604391824.3344,6745
1604391824.3364,6628
1604391824.3384,6511
1604391824.3404,6401
1604391824.3424,6294
1604391824.3444,6199
1604391824.3464,6119
1604391824.3484,6053
1604391824.3504,5985
1604391824.3524,5915
1604391824.3544,5861
1604391824.3564,5808
1604391824.3584,5744
1604391824.3604,5684
1604391824.3624,5625
1604391824.3644,5569
1604391824.3664,5518
1604391824.3684,5457
1604391824.3704,5394
1604391824.3724,5343
1604391824.3744,5289
1604391824.3764,5229
1604391824.3784,5177
1604391824.3804,5122
1604391824.3824,5056
1604391824.3844,5000
1604391824.3864,4954
1604391824.3884,4900
1604391824.8148,4832
1604391824.8156,4771
1604391824.8181,4722
1604391824.8208,4674
1604391824.8228,4620
1604391824.8248,4569
1604391824.8271,4525
1604391824.8287,4472
1604391824.8307,4401
1604391824.8328,4350
1604391824.8347,4314
1604391824.8368,4260
1604391824.8387,4207
1604391824.8406,4160
1604391824.8426,4109
1604391824.8447,4058
1604391824.8466,4024
1604391824.8487,4000
1604391824.8507,3956
1604391824.8526,3900
1604391824.8546,3856
1604391824.8566,3815
1604391824.8586,3759
1604391824.8606,3703
1604391824.8626,3654
1604391824.8647,3615
1604391824.8666,3579
1604391824.8686,3537
1604391824.8706,3496
1604391824.8726,3464
1604391824.8746,3428
1604391824.8766,3365
1604391824.8786,3245
1604391824.8806,3078
1604391824.8826,3061
1604391824.8846,3535
1604391824.8866,4445
1604391824.8887,5112
1604391824.8906,4632
1604391824.8926,3211
1604391824.8946,2498
1604391824.8966,2825
1604391824.8986,2927
1604391824.9006,2708
1604391824.9026,2722
1604391824.9046,2773
1604391824.9067,2691
1604391824.9086,2654
1604391824.9106,2664
1604391824.9126,2635
1604391824.9147,2603
1604391824.9165,2591
1604391824.9186,2574
1604391824.9206,2545
1604391824.9226,2520
1604391824.9246,2503
1604391824.9266,2489
1604391824.9288,2472
1604391824.9306,2455
1604391824.9326,2447
1604391824.9346,2447
1604391824.9367,2440
1604391824.9386,2430
1604391824.9406,2428
1604391824.9426,2423
1604391824.9446,2408
1604391824.9466,2384
1604391824.9486,2352
1604391824.9506,2311
1604391824.9526,2270
1604391824.9546,2216
1604391824.9566,2146
1604391824.9586,2075
1604391825.3552,2014
1604391825.3559,1970
1604391825.3575,1941
1604391825.3595,1917
1604391825.3615,1890
1604391825.3635,1866
1604391825.3654,1851
1604391825.3674,1837
1604391825.3694,1812
1604391825.3714,1783
1604391825.3734,1766
1604391825.3754,1754
1604391825.3774,1732
1604391825.3794,1713
1604391825.3814,1700
1604391825.3833,1688
1604391825.3854,1674
1604391825.3874,1654
1604391825.3894,1635
1604391825.3914,1620
1604391825.3934,1605
1604391825.3954,1588
1604391825.3973,1562
1604391825.3994,1537
1604391825.4014,1520
1604391825.4034,1506
1604391825.4054,1494
1604391825.4073,1479
1604391825.4093,1459
1604391825.4114,1442
1604391825.4134,1428
1604391825.4153,1413
1604391825.4173,1399
1604391825.4193,1386
1604391825.4213,1369
1604391825.4236,1350
1604391825.4254,1335
1604391825.4274,1328
1604391825.4293,1318
1604391825.4313,1296
1604391825.4333,1277
1604391825.4354,1272
1604391825.4374,1272
1604391825.4394,1272
1604391825.4414,1253
1604391825.4434,1233
1604391825.4454,1228
1604391825.4474,1214
1604391825.4494,1185
1604391825.4513,1167
1604391825.4534,1160
1604391825.4553,1146
1604391825.4573,1126
1604391825.4594,1114
1604391825.4614,1102
1604391825.4634,1085
1604391825.4654,1080
1604391825.4674,1058
1604391825.4693,951
1604391825.4714,810
1604391825.4734,919
1604391825.4754,1547
1604391825.4774,2464
1604391825.4793,2900
1604391825.4813,2129
1604391825.4834,815
1604391825.4853,484
1604391825.4874,873
1604391825.4893,873
1604391825.4914,732
1604391825.4934,812
1604391825.4954,837
1604391825.4974,778
1604391825.9244,793
1604391825.9252,810
1604391825.9276,795
1604391825.9303,798
1604391825.9322,802
1604391825.9342,793
1604391825.9363,781
1604391825.9382,788
1604391825.9402,798
1604391825.9422,802
1604391825.9442,807
1604391825.9462,817
1604391825.9482,829
1604391825.9505,844
1604391825.9522,854
1604391825.9541,858
1604391825.9562,871
1604391825.9581,880
1604391825.9601,880
1604391825.9621,873
1604391825.9642,861
1604391825.9661,837
1604391825.9681,802
1604391825.9701,761
1604391825.9721,710
1604391825.9742,659
1604391825.9761,627
1604391825.9782,613
1604391825.9801,598
1604391825.9821,581
1604391825.9841,574
1604391825.9861,576
1604391825.9881,576
1604391825.9901,579
1604391825.9921,579
1604391825.9942,574
1604391825.9961,571
1604391825.9981,576
1604391826.0001,576
1604391826.0021,571
1604391826.0041,571
1604391826.0061,571
1604391826.0083,566
1604391826.0101,562
1604391826.0121,562
1604391826.0142,559
1604391826.0161,554
1604391826.0181,545
1604391826.0201,532
1604391826.0221,532
1604391826.0241,532
1604391826.0261,523
1604391826.0281,513
1604391826.0301,510
1604391826.0321,510
1604391826.0341,506
1604391826.0361,503
1604391826.0381,501
1604391826.0401,493
1604391826.0421,491
1604391826.0441,491
1604391826.0461,486
1604391826.0481,479
1604391826.0501,481
1604391826.0523,479
1604391826.0542,467
1604391826.0561,476
1604391826.0581,498
1604391826.0601,486
1604391826.0621,464
1604391826.0642,462
1604391826.0661,457
1604391826.0681,442
1604391826.4646,437
1604391826.4654,435
1604391826.4679,423
1604391826.4705,418
1604391826.4725,420
1604391826.4745,418
1604391826.4766,406
1604391826.4784,389
1604391826.4805,379
1604391826.4824,326
1604391826.4844,184
1604391826.4864,153
1604391826.4884,562
1604391826.4904,1408
1604391826.4924,2138
1604391826.4945,1866
1604391826.4964,603
1604391826.4984,-163
1604391826.5004,114
1604391826.5024,323
1604391826.5044,182
1604391826.5064,194
1604391826.5084,270
1604391826.5104,233
1604391826.5124,228
1604391826.5144,267
1604391826.5164,267
1604391826.5185,267
1604391826.5204,284
1604391826.5224,289
1604391826.5244,294
1604391826.5264,309
1604391826.5284,323
1604391826.5304,333
1604391826.5324,343
1604391826.5344,352
1604391826.5365,369
1604391826.5384,394
1604391826.5404,413
1604391826.5424,430
1604391826.5444,450
1604391826.5464,467
1604391826.5486,472
1604391826.5504,472
1604391826.5524,469
1604391826.5544,450
1604391826.5564,418
1604391826.5584,382
1604391826.5604,340
1604391826.5624,299
1604391826.5644,265
1604391826.5665,243
1604391826.5684,226
1604391826.5704,211
1604391826.5724,206
1604391826.5745,211
1604391826.5764,218
1604391826.5784,223
1604391826.5804,223
1604391826.5824,228
1604391826.5844,233
1604391826.5864,231
1604391826.5884,236
1604391826.5904,240
1604391826.5924,240
1604391826.5944,240
1604391826.5964,243
1604391826.5984,245
1604391826.6004,245
1604391826.6024,240
1604391826.6044,236
1604391826.6064,236
1604391826.6084,233
1604391827.0650,231
1604391827.0662,223
1604391827.0687,218
1604391827.0713,216
1604391827.0733,209
1604391827.0753,201
1604391827.0773,201
1604391827.0792,209
1604391827.0812,209
1604391827.0833,199
1604391827.0852,197
1604391827.0872,206
1604391827.0892,218
1604391827.0912,231
1604391827.0933,233
1604391827.0951,228
1604391827.0972,231
1604391827.0991,226
1604391827.1012,214
1604391827.1032,209
1604391827.1053,206
1604391827.1072,206
1604391827.1092,211
1604391827.1111,209
1604391827.1132,209
1604391827.1151,216
1604391827.1172,216
1604391827.1191,187
1604391827.1211,82
1604391827.1232,-29
1604391827.1252,153
1604391827.1272,861
1604391827.1291,1778
1604391827.1311,2060
1604391827.1332,1107
1604391827.1351,-119
1604391827.1372,-231
1604391827.1391,170
1604391827.1411,102
1604391827.1432,-9
1604391827.1451,94
1604391827.1471,109
1604391827.1491,68
1604391827.1512,99
1604391827.1532,124
1604391827.1552,114
1604391827.1571,124
1604391827.1592,141
1604391827.1611,143
1604391827.1632,145
1604391827.1652,155
1604391827.1671,165
1604391827.1692,180
1604391827.1712,199
1604391827.1732,216
1604391827.1751,233
1604391827.1772,255
1604391827.1792,274
1604391827.1812,294
1604391827.1832,311
1604391827.1852,323
1604391827.1871,323
1604391827.1891,316
1604391827.1912,304
1604391827.1932,284
1604391827.1951,255
1604391827.1971,211
1604391827.1991,165
1604391827.2012,131
1604391827.2032,109
1604391827.2052,90
1604391827.2073,85
1604391827.2092,87
1604391827.6340,90
1604391827.6348,94
1604391827.6372,99
1604391827.6399,109
1604391827.6419,114
1604391827.6439,119
1604391827.6459,124
1604391827.6479,128
1604391827.6499,121
1604391827.6519,109
1604391827.6538,107
1604391827.6558,109
1604391827.6578,109
1604391827.6598,107
1604391827.6619,104
1604391827.6639,107
1604391827.6658,107
1604391827.6678,104
1604391827.6698,104
1604391827.6718,104
1604391827.6738,97
1604391827.6758,94
1604391827.6778,97
1604391827.6798,107
1604391827.6818,119
1604391827.6838,131
1604391827.6858,131
1604391827.6878,128
1604391827.6898,133
1604391827.6918,128
1604391827.6938,114
1604391827.6958,107
1604391827.6978,107
1604391827.6998,107
1604391827.7018,104
1604391827.7038,104
1604391827.7058,107
1604391827.7078,109
1604391827.7098,114
1604391827.7118,94
1604391827.7139,-4
1604391827.7158,-114
1604391827.7178,70
1604391827.7198,766
1604391827.7218,1666
1604391827.7238,1927
1604391827.7258,966
1604391827.7278,-228
1604391827.7298,-318
1604391827.7320,70
1604391827.7339,9
1604391827.7358,-90
1604391827.7378,7
1604391827.7398,19
1604391827.7418,-19
1604391827.7438,17
1604391827.7458,38
1604391827.7478,31
1604391827.7499,46
1604391827.7518,60
1604391827.7538,60
1604391827.7558,72
1604391827.7578,90
1604391827.7598,99
1604391827.7618,114
1604391827.7638,133
1604391827.7658,153
1604391827.7678,175
1604391827.7698,194
1604391827.7718,218
1604391827.7738,240
1604391827.7758,257
1604391827.7778,260
1604391828.1746,257
1604391828.1752,253
1604391828.1765,240
1604391828.1785,221
1604391828.1805,192
1604391828.1825,148
1604391828.1845,104
1604391828.1865,72
1604391828.1885,53
1604391828.1904,38
1604391828.1924,24
1604391828.1945,19
1604391828.1964,29
1604391828.1984,38
1604391828.2004,43
1604391828.2025,53
1604391828.2044,65
1604391828.2064,68
1604391828.2071,70
1604391828.2084,75
1604391828.2104,80
1604391828.2124,80
1604391828.2145,82
1604391828.2164,85
1604391828.2184,85
1604391828.2204,82
1604391828.2224,80
1604391828.2246,80
1604391828.2265,80
1604391828.2284,77
1604391828.2304,72
1604391828.2324,65
1604391828.2344,63
1604391828.2364,68
1604391828.2371,80
1604391828.2384,92
1604391828.2404,94
1604391828.2424,90
1604391828.2445,90
1604391828.2464,90
1604391828.2484,80
1604391828.2504,72
1604391828.2524,75
1604391828.2544,77
1604391828.2564,75
1604391828.2584,77
1604391828.2604,82
1604391828.2624,87
1604391828.2645,90
1604391828.2665,85
1604391828.2671,24
1604391828.2695,-99
1604391828.2714,-77
1604391828.2734,406
1604391828.2754,1304
1604391828.2774,1929
1604391828.2794,1411
1604391828.2814,94
1604391828.2835,-445
1604391828.2854,-77
1604391828.2874,31
1604391828.2894,-121
1604391828.2914,-68
1604391828.2935,-9
1604391828.2954,-58
1604391828.2974,-48
1604391828.2981,-7
1604391828.2994,-9
1604391828.3015,-2
1604391828.3035,19
1604391828.3054,26
1604391828.3075,38
1604391828.3094,55
1604391828.7444,68
1604391828.7456,77
1604391828.7480,94
1604391828.7506,114
1604391828.7526,133
1604391828.7547,158
1604391828.7566,180
1604391828.7572,197
1604391828.7595,199
1604391828.7615,206
1604391828.7636,214
1604391828.7655,204
1604391828.7675,194
1604391828.7695,184
1604391828.7715,163
1604391828.7735,121
1604391828.7755,87
1604391828.7775,60
1604391828.7795,38
1604391828.7815,19
1604391828.7835,12
1604391828.7855,14
1604391828.7875,21
1604391828.7882,24
1604391828.7905,31
1604391828.7925,46
1604391828.7945,51
1604391828.7965,53
1604391828.7985,65
1604391828.8005,75
1604391828.8025,68
1604391828.8045,63
1604391828.8065,72
1604391828.8085,77
1604391828.8105,70
1604391828.8125,63
1604391828.8145,65
1604391828.8165,70
1604391828.8185,75
1604391828.8192,75
1604391828.8215,68
1604391828.8235,60
1604391828.8255,60
1604391828.8275,65
1604391828.8295,68
1604391828.8315,80
1604391828.8335,92
1604391828.8355,92
1604391828.8375,87
1604391828.8395,90
1604391828.8415,87
1604391828.8435,82
1604391828.8455,80
1604391828.8475,80
1604391828.8482,77
1604391828.8505,70
1604391828.8526,70
1604391828.8546,72
1604391828.8565,82
1604391828.8584,92
1604391828.8604,80
1604391828.8625,2
1604391828.8645,-119
1604391828.8665,-41
1604391828.8685,518
1604391828.8705,1408
1604391828.8725,1880
1604391828.8745,1165
1604391828.8765,-107
1604391828.8785,-433
1604391828.8792,-34
1604391828.8805,12
1604391828.8825,-104
1604391829.2847,-24
1604391829.2855,14
1604391829.2879,-31
1604391829.2906,-12
1604391829.2926,24
1604391829.2945,17
1604391829.2965,26
1604391829.2985,46
1604391829.3005,43
1604391829.3025,41
1604391829.3045,58
1604391829.3064,70
1604391829.3084,80
1604391829.3092,102
1604391829.3115,124
1604391829.3135,141
1604391829.3155,160
1604391829.3175,184
1604391829.3194,209
1604391829.3215,216
1604391829.3235,211
1604391829.3254,214
1604391829.3274,214
1604391829.3294,204
1604391829.3314,192
1604391829.3334,167
1604391829.3355,124
1604391829.3374,75
1604391829.3394,38
1604391829.3402,21
1604391829.3425,2
1604391829.3445,-12
1604391829.3465,0
1604391829.3485,21
1604391829.3506,29
1604391829.3525,31
1604391829.3545,36
1604391829.3564,43
1604391829.3584,55
1604391829.3605,63
1604391829.3625,58
1604391829.3644,53
1604391829.3665,53
1604391829.3685,58
1604391829.3704,60
1604391829.3711,55
1604391829.3725,51
1604391829.3745,51
1604391829.3765,51
1604391829.3785,48
1604391829.3805,41
1604391829.3825,36
1604391829.3846,38
1604391829.3864,46
1604391829.3885,53
1604391829.3905,70
1604391829.3924,85
1604391829.3945,90
1604391829.3965,85
1604391829.3985,70
1604391829.4005,58
1604391829.4012,58
1604391829.4035,68
1604391829.4055,65
1604391829.4075,60
1604391829.4095,70
1604391829.4115,80
1604391829.4134,75
1604391829.4155,77
1604391829.4175,87
1604391829.4195,77
1604391829.4215,-4
1604391829.4235,-116
1604391829.8243,2
1604391829.8250,610
1604391829.8264,1474
1604391829.8284,1788
1604391829.8304,917
1604391829.8324,-279
1604391829.8344,-445
1604391829.8365,-53
1604391829.8384,-34
1604391829.8404,-99
1604391829.8424,-19
1604391829.8444,-9
1604391829.8465,-43
1604391829.8484,-9
1604391829.8503,19
1604391829.8524,21
1604391829.8544,36
1604391829.8563,55
1604391829.8583,58
1604391829.8603,68
1604391829.8623,87
1604391829.8644,102
1604391829.8664,121
1604391829.8683,143
1604391829.8703,158
1604391829.8723,175
1604391829.8744,201
1604391829.8763,223
1604391829.8783,233
1604391829.8803,238
1604391829.8824,243
1604391829.8843,243
1604391829.8863,231
1604391829.8883,209
1604391829.8903,182
1604391829.8923,148
1604391829.8944,99
1604391829.8963,51
1604391829.8983,19
1604391829.9003,-2
1604391829.9023,-17
1604391829.9043,-19
1604391829.9063,-17
1604391829.9084,-12
1604391829.9103,-4
1604391829.9123,2
1604391829.9144,7
1604391829.9163,19
1604391829.9183,34
1604391829.9205,36
1604391829.9223,34
1604391829.9244,36
1604391829.9263,41
1604391829.9283,46
1604391829.9303,51
1604391829.9323,55
1604391829.9343,53
1604391829.9363,46
1604391829.9384,46
1604391829.9403,48
1604391829.9423,46
1604391829.9443,46
1604391829.9463,43
1604391829.9485,43
1604391829.9504,46
1604391829.9524,55
1604391829.9544,72
1604391829.9564,80
1604391829.9583,75
1604391829.9603,70
1604391829.9623,72
1604391829.9644,63
1604391829.9664,48
1604391830.4247,48
1604391830.4255,55
1604391830.4280,51
1604391830.4306,38
1604391830.4326,34
1604391830.4346,41
1604391830.4366,46
1604391830.4386,48
1604391830.4406,36
1604391830.4426,-46
1604391830.4445,-172
1604391830.4465,-77
1604391830.4485,513
1604391830.4505,1416
1604391830.4525,1868
1604391830.4545,1126
1604391830.4566,-150
1604391830.4585,-457
1604391830.4605,-43
1604391830.4625,-12
1604391830.4646,-141
1604391830.4666,-65
1604391830.4686,-38
1604391830.4705,-77
1604391830.4725,-46
1604391830.4746,-14
1604391830.4766,-21
1604391830.4786,-14
1604391830.4805,2
1604391830.4825,12
1604391830.4845,17
1604391830.4865,29
1604391830.4885,46
1604391830.4905,60
1604391830.4925,72
1604391830.4945,94
1604391830.4966,119
1604391830.4985,138
1604391830.5006,150
1604391830.5025,167
1604391830.5045,184
1604391830.5067,189
1604391830.5085,182
1604391830.5105,177
1604391830.5125,170
1604391830.5145,153
1604391830.5165,126
1604391830.5185,97
1604391830.5205,60
1604391830.5225,29
1604391830.5245,2
1604391830.5265,-12
1604391830.5285,-19
1604391830.5305,-21
1604391830.5325,-17
1604391830.5345,-2
1604391830.5366,7
1604391830.5386,9
1604391830.5405,14
1604391830.5425,24
1604391830.5445,26
1604391830.5465,29
1604391830.5485,31
1604391830.5505,31
1604391830.5525,31
1604391830.5545,31
1604391830.5565,31
1604391830.5585,31
1604391830.5605,31
1604391830.5625,26
1604391830.5645,26
1604391830.5666,29
1604391830.5685,29
1604391831.0241,26
1604391831.0249,21
1604391831.0274,24
1604391831.0300,26
1604391831.0320,31
1604391831.0340,46
1604391831.0361,65
1604391831.0380,63
1604391831.0400,43
1604391831.0420,41
1604391831.0440,46
1604391831.0460,36
1604391831.0480,26
1604391831.0500,31
1604391831.0520,29
1604391831.0539,26
1604391831.0560,29
1604391831.0579,34
1604391831.0599,36
1604391831.0621,38
1604391831.0640,38
1604391831.0659,-7
1604391831.0679,-133
1604391831.0699,-165
1604391831.0719,240
1604391831.0740,1109
1604391831.0759,1856
1604391831.0779,1559
1604391831.0799,277
1604391831.0819,-462
1604391831.0839,-155
1604391831.0859,43
1604391831.0879,-114
1604391831.0899,-92
1604391831.0919,-9
1604391831.0939,-46
1604391831.0959,-53
1604391831.0979,-12
1604391831.0999,-7
1604391831.1020,-9
1604391831.1039,12
1604391831.1059,21
1604391831.1079,21
1604391831.1099,31
1604391831.1119,46
1604391831.1139,58
1604391831.1159,70
1604391831.1179,87
1604391831.1199,109
1604391831.1219,128
1604391831.1239,141
1604391831.1259,155
1604391831.1279,172
1604391831.1299,182
1604391831.1319,180
1604391831.1339,175
1604391831.1359,167
1604391831.1379,155
1604391831.1399,133
1604391831.1419,104
1604391831.1439,68
1604391831.1459,34
1604391831.1479,4
1604391831.1499,-12
1604391831.1519,-19
1604391831.1539,-24
1604391831.1559,-21
1604391831.1578,-12
1604391831.1599,-2
1604391831.1619,4
1604391831.1640,12
1604391831.1659,17
1604391831.1680,24
1604391831.5340,31
1604391831.5347,31
1604391831.5371,31
1604391831.5397,34
1604391831.5417,36
1604391831.5438,36
1604391831.5457,29
1604391831.5477,21
1604391831.5497,26
1604391831.5517,29
1604391831.5537,26
1604391831.5557,26
1604391831.5577,26
1604391831.5597,14
1604391831.5617,7
1604391831.5637,12
1604391831.5656,14
1604391831.5676,14
1604391831.5696,26
1604391831.5717,46
1604391831.5737,55
1604391831.5756,53
1604391831.5776,55
1604391831.5796,58
1604391831.5816,53
1604391831.5837,41
1604391831.5856,36
1604391831.5876,43
1604391831.5896,46
1604391831.5916,43
1604391831.5937,46
1604391831.5957,53
1604391831.5976,53
1604391831.5996,53
1604391831.6017,43
1604391831.6038,-38
1604391831.6057,-172
1604391831.6076,-82
1604391831.6096,528
1604391831.6116,1450
1604391831.6137,1888
1604391831.6156,1119
1604391831.6176,-153
1604391831.6197,-430
1604391831.6216,-24
1604391831.6237,-17
1604391831.6256,-141
1604391831.6276,-55
1604391831.6298,-24
1604391831.6317,-68
1604391831.6336,-43
1604391831.6356,-14
1604391831.6377,-19
1604391831.6396,-7
1604391831.6416,12
1604391831.6437,12
1604391831.6456,17
1604391831.6476,36
1604391831.6496,48
1604391831.6516,63
1604391831.6537,82
1604391831.6557,99
1604391831.6576,114
1604391831.6596,133
1604391831.6616,160
1604391831.6637,180
1604391831.6656,184
1604391831.6677,182
1604391831.6696,187
1604391831.6716,187
1604391831.6737,175
1604391831.6756,155
1604391831.6776,126
1604391832.1045,90
1604391832.1053,46
1604391832.1077,2
1604391832.1104,-19
1604391832.1124,-21
1604391832.1144,-26
1604391832.1163,-38
1604391832.1183,-43
1604391832.1203,-29
1604391832.1223,-17
1604391832.1243,-14
1604391832.1263,-9
1604391832.1283,7
1604391832.1303,14
1604391832.1323,17
1604391832.1342,21
1604391832.1363,24
1604391832.1383,24
1604391832.1402,21
1604391832.1423,24
1604391832.1443,29
1604391832.1462,34
1604391832.1483,31
1604391832.1502,26
1604391832.1522,31
1604391832.1543,41
1604391832.1564,38
1604391832.1583,34
1604391832.1602,36
1604391832.1622,38
1604391832.1643,34
1604391832.1663,26
1604391832.1683,34
1604391832.1703,43
1604391832.1723,48
1604391832.1743,63
1604391832.1762,77
1604391832.1783,75
1604391832.1803,68
1604391832.1822,60
1604391832.1843,53
1604391832.1862,51
1604391832.1883,55
1604391832.1903,53
1604391832.1923,48
1604391832.1943,53
1604391832.1962,68
1604391832.1982,70
1604391832.2002,63
1604391832.2023,55
1604391832.2043,9
1604391832.2062,-109
1604391832.2082,-136
1604391832.2102,255
1604391832.2122,1092
1604391832.2142,1778
1604391832.2162,1418
1604391832.2182,170
1604391832.2203,-464
1604391832.2223,-155
1604391832.2243,14
1604391832.2263,-97
1604391832.2283,-51
1604391832.2302,9
1604391832.2322,-41
1604391832.2342,-46
1604391832.2362,-7
1604391832.2383,0
1604391832.2402,2
1604391832.2423,17
1604391832.2443,26
1604391832.2463,38
1604391832.2482,58
1604391832.6440,72
1604391832.6446,77
1604391832.6470,87
1604391832.6496,114
1604391832.6518,138
1604391832.6537,150
1604391832.6557,165
1604391832.6576,189
1604391832.6596,204
1604391832.6616,211
1604391832.6637,209
1604391832.6656,197
1604391832.6676,182
1604391832.6696,167
1604391832.6716,141
1604391832.6736,109
1604391832.6756,65
1604391832.6776,21
1604391832.6796,-7
1604391832.6816,-29
1604391832.6836,-43
1604391832.6856,-38
1604391832.6876,-31
1604391832.6896,-31
1604391832.6916,-26
1604391832.6936,-19
1604391832.6956,-14
1604391832.6976,0
1604391832.6996,17
1604391832.7016,19
1604391832.7036,24
1604391832.7056,34
1604391832.7076,36
1604391832.7096,36
1604391832.7116,34
1604391832.7136,21
1604391832.7156,26
1604391832.7176,36
1604391832.7196,34
1604391832.7216,26
1604391832.7236,24
1604391832.7256,29
1604391832.7276,34
1604391832.7296,34
1604391832.7316,31
1604391832.7336,34
1604391832.7356,31
1604391832.7376,26
1604391832.7396,36
1604391832.7416,51
1604391832.7436,60
1604391832.7456,68
1604391832.7476,65
1604391832.7496,60
1604391832.7516,60
1604391832.7538,53
1604391832.7556,36
1604391832.7576,26
1604391832.7596,29
1604391832.7616,34
1604391832.7636,34
1604391832.7656,36
1604391832.7676,36
1604391832.7696,34
1604391832.7716,38
1604391832.7736,31
1604391832.7756,-53
1604391832.7776,-182
1604391832.7796,-82
1604391832.7816,515
1604391832.7836,1399
1604391832.7856,1778
1604391832.7877,987
1604391833.2441,-231
1604391833.2449,-474
1604391833.2473,-82
1604391833.2501,-46
1604391833.2520,-136
1604391833.2539,-68
1604391833.2560,-46
1604391833.2579,-72
1604391833.2599,-48
1604391833.2619,-26
1604391833.2639,-29
1604391833.2659,-14
1604391833.2679,2
1604391833.2699,7
1604391833.2719,14
1604391833.2739,26
1604391833.2758,38
1604391833.2778,51
1604391833.2799,68
1604391833.2818,90
1604391833.2839,114
1604391833.2858,131
1604391833.2879,145
1604391833.2898,165
1604391833.2918,184
1604391833.2939,189
1604391833.2958,187
1604391833.2978,180
1604391833.2999,165
1604391833.3018,143
1604391833.3038,114
1604391833.3058,68
1604391833.3079,21
1604391833.3100,-14
1604391833.3120,-38
1604391833.3139,-55
1604391833.3159,-65
1604391833.3178,-68
1604391833.3198,-63
1604391833.3218,-53
1604391833.3239,-43
1604391833.3259,-34
1604391833.3278,-24
1604391833.3299,-12
1604391833.3319,-4
1604391833.3338,2
1604391833.3358,7
1604391833.3378,7
1604391833.3398,7
1604391833.3418,4
1604391833.3439,2
1604391833.3459,0
1604391833.3478,2
1604391833.3498,4
1604391833.3518,7
1604391833.3538,2
1604391833.3558,-2
1604391833.3578,0
1604391833.3598,2
1604391833.3618,2
1604391833.3639,4
1604391833.3659,7
1604391833.3678,9
1604391833.3698,9
1604391833.3718,7
1604391833.3739,7
1604391833.3758,7
1604391833.3778,9
1604391833.3799,19
1604391833.3818,38
1604391833.3838,48
1604391833.3858,41
1604391833.3879,38
1604391833.8142,46
1604391833.8151,41
1604391833.8176,26
1604391833.8202,21
1604391833.8222,26
1604391833.8242,26
1604391833.8262,24
1604391833.8281,26
1604391833.8301,31
1604391833.8322,29
1604391833.8341,24
1604391833.8363,-4
1604391833.8381,-109
1604391833.8400,-231
1604391833.8421,-58
1604391833.8441,649
1604391833.8461,1584
1604391833.8481,1885
1604391833.8501,951
1604391833.8521,-284
1604391833.8541,-425
1604391833.8561,-31
1604391833.8581,-80
1604391833.8601,-187
1604391833.8621,-85
1604391833.8641,-70
1604391833.8661,-111
1604391833.8681,-77
1604391833.8701,-48
1604391833.8721,-53
1604391833.8741,-43
1604391833.8761,-24
1604391833.8781,-21
1604391833.8800,-17
1604391833.8821,-2
1604391833.8840,9
1604391833.8861,24
1604391833.8881,41
1604391833.8900,55
1604391833.8921,72
1604391833.8941,94
1604391833.8961,114
1604391833.8981,128
1604391833.9001,143
1604391833.9021,153
1604391833.9041,153
1604391833.9061,145
1604391833.9081,141
1604391833.9101,124
1604391833.9121,94
1604391833.9141,53
1604391833.9160,14
1604391833.9181,-17
1604391833.9202,-36
1604391833.9221,-51
1604391833.9241,-55
1604391833.9261,-53
1604391833.9281,-51
1604391833.9300,-41
1604391833.9321,-29
1604391833.9341,-19
1604391833.9361,-14
1604391833.9382,-7
1604391833.9401,0
1604391833.9421,4
1604391833.9441,7
1604391833.9461,12
1604391833.9480,17
1604391833.9501,19
1604391833.9521,14
1604391833.9541,14
1604391833.9561,19
1604391833.9581,17
1604391834.3844,17
1604391834.3852,19
1604391834.3867,17
1604391834.3887,14
1604391834.3907,19
1604391834.3927,21
1604391834.3946,24
1604391834.3966,21
1604391834.3986,19
1604391834.4006,21
1604391834.4026,19
1604391834.4046,7
1604391834.4066,7
1604391834.4086,24
1604391834.4106,36
1604391834.4126,38
1604391834.4146,41
1604391834.4166,43
1604391834.4186,43
1604391834.4206,34
1604391834.4226,26
1604391834.4246,29
1604391834.4266,29
1604391834.4286,26
1604391834.4306,26
1604391834.4325,29
1604391834.4346,31
1604391834.4366,34
1604391834.4386,36
1604391834.4406,9
1604391834.4426,-102
1604391834.4446,-226
1604391834.4466,-41
1604391834.4486,681
1604391834.4506,1605
1604391834.4526,1849
1604391834.4546,866
1604391834.4566,-313
1604391834.4586,-389
1604391834.4606,-14
1604391834.4627,-82
1604391834.4646,-170
1604391834.4665,-70
1604391834.4686,-65
1604391834.4706,-104
1604391834.4726,-70
1604391834.4746,-51
1604391834.4766,-55
1604391834.4786,-38
1604391834.4806,-24
1604391834.4826,-21
1604391834.4846,-12
1604391834.4866,2
1604391834.4886,14
1604391834.4906,29
1604391834.4926,51
1604391834.4946,70
1604391834.4966,87
1604391834.4986,107
1604391834.5006,133
1604391834.5026,155
1604391834.5047,165
1604391834.5066,165
1604391834.5086,170
1604391834.5106,170
1604391834.5126,155
1604391834.5146,136
1604391834.5166,107
1604391834.5186,63
1604391834.5205,17
1604391834.5226,-9
1604391834.5246,-29
1604391834.5253,-46
1604391834.9242,-48
1604391834.9250,-43
1604391834.9275,-43
1604391834.9301,-43
1604391834.9321,-36
1604391834.9340,-21
1604391834.9360,-12
1604391834.9380,-9
1604391834.9400,-7
1604391834.9420,-2
1604391834.9440,-2
1604391834.9460,0
1604391834.9480,-2
1604391834.9500,-4
1604391834.9507,4
1604391834.9530,12
1604391834.9550,9
1604391834.9570,7
1604391834.9591,7
1604391834.9611,9
1604391834.9631,4
1604391834.9650,2
1604391834.9669,12
1604391834.9690,17
1604391834.9710,9
1604391834.9730,14
1604391834.9750,21
1604391834.9770,9
1604391834.9790,2
1604391834.9810,17
1604391834.9816,26
1604391834.9830,12
1604391834.9850,9
1604391834.9871,24
1604391834.9890,29
1604391834.9910,36
1604391834.9931,55
1604391834.9950,55
1604391834.9970,43
1604391834.9990,53
1604391835.0010,55
1604391835.0030,34
1604391835.0050,26
1604391835.0070,41
1604391835.0090,41
1604391835.0097,29
1604391835.0120,34
1604391835.0141,48
1604391835.0160,53
1604391835.0180,51
1604391835.0199,43
1604391835.0220,-29
1604391835.0240,-167
1604391835.0260,-114
1604391835.0280,440
1604391835.0300,1348
1604391835.0320,1846
1604391835.0340,1158
1604391835.0360,-116
1604391835.0380,-472
1604391835.0400,-77
1604391835.0407,-24
1604391835.0420,-148
1604391835.0440,-77
1604391835.0460,-36
1604391835.0480,-75
1604391835.0499,-51
1604391835.0520,-17
1604391835.0539,-26
1604391835.0561,-17
1604391835.0580,4
1604391835.0600,9
1604391835.0620,19
1604391835.4642,41
1604391835.4648,53
1604391835.4664,60
1604391835.4689,72
1604391835.4709,97
1604391835.4729,119
1604391835.4748,136
1604391835.4769,165
1604391835.4788,189
1604391835.4808,194
1604391835.4828,199
1604391835.4848,206
1604391835.4868,206
1604391835.4888,189
1604391835.4909,160
1604391835.4928,131
1604391835.4948,102
1604391835.4968,60
1604391835.4975,14
1604391835.4988,-21
1604391835.5008,-46
1604391835.5028,-53
1604391835.5048,-60
1604391835.5068,-70
1604391835.5088,-60
1604391835.5108,-36
1604391835.5128,-24
1604391835.5149,-17
1604391835.5169,-7
1604391835.5188,-4
1604391835.5208,2
1604391835.5228,17
1604391835.5248,14
1604391835.5268,12
1604391835.5275,24
1604391835.5288,38
1604391835.5308,36
1604391835.5328,31
1604391835.5348,38
1604391835.5368,38
1604391835.5388,26
1604391835.5408,21
1604391835.5428,24
1604391835.5448,26
1604391835.5468,26
1604391835.5488,24
1604391835.5508,31
1604391835.5530,38
1604391835.5549,31
1604391835.5568,19
1604391835.5575,24
1604391835.5588,31
1604391835.5608,36
1604391835.5628,51
1604391835.5648,65
1604391835.5669,58
1604391835.5688,53
1604391835.5708,58
1604391835.5728,55
1604391835.5748,41
1604391835.5768,36
1604391835.5788,41
1604391835.5808,38
1604391835.5828,36
1604391835.5848,41
1604391835.5868,43
1604391835.5875,46
1604391835.5888,53
1604391835.5908,48
1604391835.5928,-24
1604391835.5948,-160
1604391835.5968,-131
1604391835.5988,379
1604391836.0346,1257
1604391836.0358,1781
1604391836.0382,1167
1604391836.0408,-92
1604391836.0428,-523
1604391836.0447,-153
1604391836.0467,-51
1604391836.0487,-148
1604391836.0507,-85
1604391836.0515,-46
1604391836.0536,-80
1604391836.0557,-55
1604391836.0577,-19
1604391836.0598,-26
1604391836.0617,-31
1604391836.0637,-12
1604391836.0657,-2
1604391836.0677,7
1604391836.0697,24
1604391836.0717,41
1604391836.0738,53
1604391836.0757,70
1604391836.0777,90
1604391836.0797,114
1604391836.0805,145
1604391836.0819,170
1604391836.0837,187
1604391836.0857,206
1604391836.0877,231
1604391836.0897,238
1604391836.0917,223
1604391836.0937,209
1604391836.0957,192
1604391836.0977,153
1604391836.0997,92
1604391836.1017,38
1604391836.1037,0
1604391836.1057,-29
1604391836.1077,-53
1604391836.1097,-68
1604391836.1180,-75
1604391836.1197,-77
1604391836.1217,-70
1604391836.1237,-58
1604391836.1257,-48
1604391836.1277,-41
1604391836.1296,-31
1604391836.1318,-19
1604391836.1337,-7
1604391836.1357,0
1604391836.1377,4
1604391836.1397,9
1604391836.1417,19
1604391836.1437,21
1604391836.1457,19
1604391836.1476,21
1604391836.1497,24
1604391836.1517,17
1604391836.1536,12
1604391836.1557,7
1604391836.1577,4
1604391836.1597,2
1604391836.1617,7
1604391836.1636,14
1604391836.1657,14
1604391836.1677,9
1604391836.1697,9
1604391836.1717,12
1604391836.1737,9
1604391836.1757,4
1604391836.1777,2
1604391836.1797,0
1604391836.1817,0
1604391836.5745,2
1604391836.5753,9
1604391836.5778,24
1604391836.5806,36
1604391836.5824,24
1604391836.5843,17
1604391836.5864,21
1604391836.5883,9
1604391836.5903,-12
1604391836.5923,-19
1604391836.5944,-14
1604391836.5963,-12
1604391836.5983,-9
1604391836.6003,-4
1604391836.6023,0
1604391836.6044,-4
1604391836.6063,-4
1604391836.6083,-2
1604391836.6103,-51
1604391836.6123,-189
1604391836.6143,-248
1604391836.6163,124
1604391836.6183,1000
1604391836.6203,1839
1604391836.6223,1710
1604391836.6243,452
1604391836.6263,-498
1604391836.6283,-306
1604391836.6303,-31
1604391836.6323,-175
1604391836.6343,-192
1604391836.6363,-97
1604391836.6383,-119
1604391836.6403,-131
1604391836.6423,-87
1604391836.6443,-80
1604391836.6463,-82
1604391836.6483,-58
1604391836.6502,-46
1604391836.6523,-41
1604391836.6543,-26
1604391836.6563,-7
1604391836.6583,4
1604391836.6603,19
1604391836.6623,36
1604391836.6643,58
1604391836.6663,77
1604391836.6683,97
1604391836.6703,124
1604391836.6723,148
1604391836.6743,167
1604391836.6763,175
1604391836.6783,175
1604391836.6803,170
1604391836.6824,155
1604391836.6844,133
1604391836.6863,99
1604391836.6883,53
1604391836.6903,4
1604391836.6923,-29
1604391836.6943,-46
1604391836.6963,-60
1604391836.6983,-68
1604391836.7003,-65
1604391836.7023,-63
1604391836.7043,-55
1604391836.7063,-46
1604391836.7083,-36
1604391836.7103,-29
1604391836.7123,-19
1604391836.7143,-12
1604391836.7163,-7
1604391836.7183,-2
1604391837.2044,-4
1604391837.2052,-4
1604391837.2076,0
1604391837.2102,2
1604391837.2122,-2
1604391837.2143,-12
1604391837.2163,-14
1604391837.2182,-7
1604391837.2202,-4
1604391837.2222,-9
1604391837.2243,-7
1604391837.2263,-2
1604391837.2283,-2
1604391837.2302,-4
1604391837.2322,-4
1604391837.2342,-2
1604391837.2362,-4
1604391837.2382,-7
1604391837.2402,-7
1604391837.2422,-4
1604391837.2443,-4
1604391837.2462,-7
1604391837.2482,-2
1604391837.2503,9
1604391837.2522,24
1604391837.2542,36
1604391837.2562,34
1604391837.2582,29
1604391837.2602,31
1604391837.2622,31
1604391837.2642,24
1604391837.2662,17
1604391837.2684,19
1604391837.2702,19
1604391837.2722,19
1604391837.2742,19
1604391837.2762,17
1604391837.2782,19
1604391837.2802,24
1604391837.2822,21
1604391837.2842,-34
1604391837.2861,-170
1604391837.2882,-211
1604391837.2902,180
1604391837.2922,1053
1604391837.2942,1846
1604391837.2962,1632
1604391837.2982,360
1604391837.3003,-479
1604391837.3022,-236
1604391837.3042,-7
1604391837.3062,-158
1604391837.3082,-155
1604391837.3102,-65
1604391837.3122,-92
1604391837.3142,-102
1604391837.3162,-63
1604391837.3182,-60
1604391837.3201,-58
1604391837.3222,-34
1604391837.3242,-24
1604391837.3262,-19
1604391837.3282,-2
1604391837.3302,9
1604391837.3322,19
1604391837.3341,31
1604391837.3362,43
1604391837.3382,60
1604391837.3402,85
1604391837.3421,111
1604391837.3442,136
1604391837.3462,158
1604391837.3482,175
1604391837.7140,192
1604391837.7148,194
1604391837.7173,182
1604391837.7199,163
1604391837.7219,141
1604391837.7239,107
1604391837.7259,58
1604391837.7279,12
1604391837.7299,-26
1604391837.7319,-51
1604391837.7341,-63
1604391837.7359,-72
1604391837.7379,-77
1604391837.7399,-77
1604391837.7419,-75
1604391837.7439,-68
1604391837.7458,-55
1604391837.7478,-48
1604391837.7498,-34
1604391837.7518,-21
1604391837.7539,-24
1604391837.7558,-21
1604391837.7578,-12
1604391837.7598,-4
1604391837.7618,-4
1604391837.7638,2
1604391837.7658,14
1604391837.7678,19
1604391837.7698,14
1604391837.7718,7
1604391837.7738,9
1604391837.7758,14
1604391837.7779,7
1604391837.7798,2
1604391837.7818,7
1604391837.7838,14
1604391837.7858,17
1604391837.7878,7
1604391837.7898,4
1604391837.7919,12
1604391837.7939,14
1604391837.7958,9
1604391837.7979,9
1604391837.7998,14
1604391837.8019,21
1604391837.8039,29
1604391837.8058,43
1604391837.8078,51
1604391837.8098,46
1604391837.8118,43
1604391837.8139,46
1604391837.8158,38
1604391837.8178,24
1604391837.8198,26
1604391837.8218,36
1604391837.8239,29
1604391837.8258,19
1604391837.8278,17
1604391837.8298,17
1604391837.8318,21
1604391837.8338,29
1604391837.8360,-12
1604391837.8379,-138
1604391837.8398,-216
1604391837.8418,63
1604391837.8439,844
1604391837.8458,1695
1604391837.8478,1688
1604391837.8498,528
1604391837.8518,-455
1604391837.8539,-313
1604391837.8558,-7
1604391837.8578,-116
1604391838.2843,-150
1604391838.2851,-51
1604391838.2876,-58
1604391838.2902,-77
1604391838.2922,-43
1604391838.2942,-31
1604391838.2962,-43
1604391838.2981,-31
1604391838.3003,-12
1604391838.3021,0
1604391838.3041,12
1604391838.3061,26
1604391838.3081,41
1604391838.3101,51
1604391838.3121,68
1604391838.3141,94
1604391838.3161,111
1604391838.3181,138
1604391838.3201,177
1604391838.3221,209
1604391838.3241,221
1604391838.3261,221
1604391838.3281,228
1604391838.3301,223
1604391838.3321,204
1604391838.3341,182
1604391838.3361,145
1604391838.3381,92
1604391838.3401,41
1604391838.3421,4
1604391838.3441,-17
1604391838.3461,-43
1604391838.3481,-60
1604391838.3501,-55
1604391838.3521,-46
1604391838.3541,-43
1604391838.3561,-38
1604391838.3581,-21
1604391838.3601,-14
1604391838.3622,-19
1604391838.3641,-14
1604391838.3661,2
1604391838.3681,14
1604391838.3701,21
1604391838.3721,26
1604391838.3741,29
1604391838.3761,29
1604391838.3781,36
1604391838.3801,31
1604391838.3821,19
1604391838.3841,19
1604391838.3861,24
1604391838.3881,19
1604391838.3901,19
1604391838.3921,19
1604391838.3941,9
1604391838.3961,4
1604391838.3981,9
1604391838.4001,14
1604391838.4021,24
1604391838.4041,19
1604391838.4061,12
1604391838.4081,31
1604391838.4101,51
1604391838.4121,41
1604391838.4141,29
1604391838.4161,36
1604391838.4181,43
1604391838.4201,29
1604391838.4220,14
1604391838.4241,17
1604391838.4261,24
1604391838.4281,29
1604391838.8541,31
1604391838.8550,26
1604391838.8574,26
1604391838.8600,29
1604391838.8620,26
1604391838.8641,-24
1604391838.8660,-148
1604391838.8680,-194
1604391838.8700,160
1604391838.8720,990
1604391838.8740,1730
1604391838.8759,1435
1604391838.8779,170
1604391838.8803,-559
1604391838.8819,-279
1604391838.8839,-63
1604391838.8859,-155
1604391838.8881,-121
1604391838.8900,-51
1604391838.8919,-80
1604391838.8939,-75
1604391838.8959,-38
1604391838.8979,-38
1604391838.8999,-34
1604391838.9019,-14
1604391838.9040,-4
1604391838.9059,4
1604391838.9079,21
1604391838.9100,31
1604391838.9119,46
1604391838.9138,65
1604391838.9159,92
1604391838.9179,114
1604391838.9199,136
1604391838.9219,163
1604391838.9239,192
1604391838.9259,226
1604391838.9279,245
1604391838.9299,248
1604391838.9319,245
1604391838.9339,236
1604391838.9359,211
1604391838.9379,167
1604391838.9399,116
1604391838.9419,55
1604391838.9439,-2
1604391838.9459,-36
1604391838.9475,-58
1604391838.9489,-72
1604391838.9510,-80
1604391838.9530,-87
1604391838.9549,-87
1604391838.9569,-77
1604391838.9589,-68
1604391838.9609,-60
1604391838.9630,-55
1604391838.9649,-43
1604391838.9670,-29
1604391838.9689,-17
1604391838.9709,-14
1604391838.9730,-12
1604391838.9749,-4
1604391838.9769,9
1604391838.9789,12
1604391838.9804,9
1604391838.9819,7
1604391838.9839,2
1604391838.9860,0
1604391838.9881,0
1604391838.9900,-2
1604391838.9919,-2
1604391838.9940,-7
1604391838.9960,-7
1604391839.3937,-4
1604391839.3943,-2
1604391839.3968,-2
1604391839.3993,-2
1604391839.4014,-4
1604391839.4034,-14
1604391839.4055,-21
1604391839.4074,-12
1604391839.4094,7
1604391839.4114,12
1604391839.4134,-2
1604391839.4153,-7
1604391839.4173,2
1604391839.4193,-4
1604391839.4213,-17
1604391839.4234,-17
1604391839.4253,-17
1604391839.4273,-17
1604391839.4293,-17
1604391839.4314,-17
1604391839.4333,-14
1604391839.4353,-12
1604391839.4373,-12
1604391839.4393,-12
1604391839.4413,-60
1604391839.4433,-199
1604391839.4453,-243
1604391839.4473,163
1604391839.4493,1053
1604391839.4513,1851
1604391839.4535,1637
1604391839.4553,355
1604391839.4573,-513
1604391839.4593,-270
1604391839.4613,-21
1604391839.4634,-172
1604391839.4653,-177
1604391839.4673,-87
1604391839.4694,-116
1604391839.4714,-124
1604391839.4733,-80
1604391839.4754,-72
1604391839.4774,-72
1604391839.4793,-51
1604391839.4813,-38
1604391839.4833,-34
1604391839.4855,-17
1604391839.4874,2
1604391839.4893,14
1604391839.4913,26
1604391839.4933,48
1604391839.4953,72
1604391839.4973,92
1604391839.4993,116
1604391839.5013,145
1604391839.5034,177
1604391839.5053,194
1604391839.5073,204
1604391839.5093,209
1604391839.5114,201
1604391839.5134,182
1604391839.5153,158
1604391839.5173,121
1604391839.5193,75
1604391839.5213,29
1604391839.5233,-4
1604391839.5254,-24
1604391839.5273,-31
1604391839.5293,-38
1604391839.5313,-36
1604391839.5334,-31
1604391839.5354,-26
1604391839.5374,-17
1604391839.9338,-9
1604391839.9345,0
1604391839.9369,9
1604391839.9395,17
1604391839.9415,21
1604391839.9436,29
1604391839.9455,31
1604391839.9475,26
1604391839.9495,24
1604391839.9515,34
1604391839.9535,34
1604391839.9554,34
1604391839.9575,38
1604391839.9595,41
1604391839.9614,41
1604391839.9635,43
1604391839.9654,43
1604391839.9675,43
1604391839.9695,46
1604391839.9714,48
1604391839.9735,48
1604391839.9755,46
1604391839.9775,41
1604391839.9794,38
1604391839.9816,43
1604391839.9835,53
1604391839.9854,63
1604391839.9875,77
1604391839.9895,82
1604391839.9914,77
1604391839.9935,70
1604391839.9955,70
1604391839.9975,68
1604391839.9994,58
1604391840.0016,55
1604391840.0037,58
1604391840.0063,58
1604391840.0077,58
1604391840.0095,60
1604391840.0114,63
1604391840.0135,63
1604391840.0154,68
1604391840.0174,46
1604391840.0194,-58
1604391840.0215,-184
1604391840.0235,-24
1604391840.0255,669
1604391840.0274,1603
1604391840.0295,1924
1604391840.0315,1014
1604391840.0336,-218
1604391840.0354,-374
1604391840.0374,7
1604391840.0394,-36
1604391840.0415,-143
1604391840.0436,-48
1604391840.0456,-29
1604391840.0474,-65
1604391840.0495,-36
1604391840.0515,-7
1604391840.0535,-12
1604391840.0556,0
1604391840.0574,17
1604391840.0594,24
1604391840.0615,36
1604391840.0635,53
1604391840.0655,65
1604391840.0674,80
1604391840.0694,94
1604391840.0714,109
1604391840.0735,128
1604391840.0755,153
1604391840.0774,180
1604391840.5343,204
1604391840.5351,228
1604391840.5378,243
1604391840.5402,243
1604391840.5422,228
1604391840.5442,214
1604391840.5462,199
1604391840.5482,167
1604391840.5501,116
1604391840.5522,68
1604391840.5542,31
1604391840.5561,9
1604391840.5581,-2
1604391840.5601,-9
1604391840.5621,-14
1604391840.5642,-12
1604391840.5661,-4
1604391840.5681,2
1604391840.5701,7
1604391840.5721,14
1604391840.5741,21
1604391840.5761,29
1604391840.5781,36
1604391840.5801,36
1604391840.5821,38
1604391840.5841,53
1604391840.5861,60
1604391840.5881,51
1604391840.5901,48
1604391840.5921,58
1604391840.5941,55
1604391840.5961,53
1604391840.5981,53
1604391840.6001,58
1604391840.6021,58
1604391840.6041,53
1604391840.6061,55
1604391840.6081,68
1604391840.6101,68
1604391840.6121,65
1604391840.6141,63
1604391840.6161,60
1604391840.6181,53
1604391840.6201,48
1604391840.6221,55
1604391840.6241,65
1604391840.6261,68
1604391840.6282,82
1604391840.6301,97
1604391840.6321,94
1604391840.6341,85
1604391840.6361,82
1604391840.6381,80
1604391840.6402,70
1604391840.6422,65
1604391840.6441,70
1604391840.6461,75
1604391840.6481,75
1604391840.6501,65
1604391840.6521,60
1604391840.6541,68
1604391840.6561,82
1604391840.6581,68
1604391840.6601,-24
1604391840.6621,-167
1604391840.6641,-104
1604391840.6661,455
1604391840.6681,1369
1604391840.6701,1897
1604391840.6721,1233
1604391840.6741,-72
1604391840.6761,-462
1604391840.6781,-68
1604391841.1044,-14
1604391841.1053,-145
1604391841.1077,-65
1604391841.1103,-17
1604391841.1123,-65
1604391841.1143,-58
1604391841.1164,-21
1604391841.1183,-19
1604391841.1203,-14
1604391841.1223,-9
1604391841.1243,-9
1604391841.1263,9
1604391841.1283,36
1604391841.1303,41
1604391841.1323,41
1604391841.1342,53
1604391841.1362,70
1604391841.1382,90
1604391841.1402,121
1604391841.1422,155
1604391841.1443,180
1604391841.1462,194
1604391841.1483,209
1604391841.1502,214
1604391841.1522,214
1604391841.1542,216
1604391841.1562,197
1604391841.1582,148
1604391841.1602,97
1604391841.1622,65
1604391841.1642,31
1604391841.1664,-9
1604391841.1683,-31
1604391841.1702,-41
1604391841.1722,-48
1604391841.1743,-51
1604391841.1749,-48
1604391841.1773,-41
1604391841.1792,-29
1604391841.1812,-19
1604391841.1833,-17
1604391841.1852,-4
1604391841.1873,9
1604391841.1892,17
1604391841.1912,21
1604391841.1933,21
1604391841.1952,21
1604391841.1972,29
1604391841.1992,31
1604391841.2012,29
1604391841.2032,24
1604391841.2039,17
1604391841.2052,14
1604391841.2072,14
1604391841.2092,21
1604391841.2112,21
1604391841.2133,17
1604391841.2152,19
1604391841.2172,19
1604391841.2192,17
1604391841.2212,19
1604391841.2232,21
1604391841.2252,21
1604391841.2272,29
1604391841.2292,38
1604391841.2312,41
1604391841.2333,41
1604391841.2339,43
1604391841.2363,36
1604391841.2382,29
1604391841.2402,21
1604391841.2422,12
1604391841.2442,17
1604391841.6439,26
1604391841.6448,21
1604391841.6472,19
1604391841.6498,21
1604391841.6518,31
1604391841.6538,36
1604391841.6558,9
1604391841.6565,-94
1604391841.6587,-209
1604391841.6609,-65
1604391841.6629,591
1604391841.6647,1486
1604391841.6667,1720
1604391841.6687,727
1604391841.6707,-430
1604391841.6728,-489
1604391841.6747,-107
1604391841.6767,-126
1604391841.6788,-177
1604391841.6807,-90
1604391841.6827,-90
1604391841.6847,-111
1604391841.6867,-72
1604391841.6874,-48
1604391841.6897,-51
1604391841.6918,-43
1604391841.6938,-29
1604391841.6957,-14
1604391841.6977,0
1604391841.6997,12
1604391841.7017,24
1604391841.7038,41
1604391841.7057,65
1604391841.7077,85
1604391841.7097,107
1604391841.7117,138
1604391841.7137,167
1604391841.7157,192
1604391841.7178,216
1604391841.7184,231
1604391841.7207,240
1604391841.7228,236
1604391841.7247,206
1604391841.7267,160
1604391841.7288,119
1604391841.7307,65
1604391841.7327,4
1604391841.7347,-36
1604391841.7367,-65
1604391841.7387,-92
1604391841.7407,-102
1604391841.7428,-102
1604391841.7447,-107
1604391841.7467,-107
1604391841.7487,-97
1604391841.7494,-87
1604391841.7517,-77
1604391841.7538,-65
1604391841.7557,-51
1604391841.7577,-36
1604391841.7599,-26
1604391841.7618,-19
1604391841.7638,-17
1604391841.7657,-9
1604391841.7677,-4
1604391841.7697,-9
1604391841.7717,-9
1604391841.7738,-7
1604391841.7757,-9
1604391841.7777,-14
1604391841.7797,-14
1604391841.7804,-14
1604391841.7827,-19
1604391842.1844,-31
1604391842.1852,-36
1604391842.1876,-31
1604391842.1903,-24
1604391842.1923,-24
1604391842.1942,-29
1604391842.1962,-31
1604391842.1982,-36
1604391842.2002,-34
1604391842.2022,-19
1604391842.2042,-7
1604391842.2061,-17
1604391842.2081,-19
1604391842.2102,-7
1604391842.2109,-14
1604391842.2132,-29
1604391842.2151,-29
1604391842.2172,-21
1604391842.2191,-26
1604391842.2212,-29
1604391842.2232,-19
1604391842.2251,-9
1604391842.2271,-7
1604391842.2291,-9
1604391842.2311,-21
1604391842.2331,-102
1604391842.2351,-245
1604391842.2371,-180
1604391842.2391,418
1604391842.2398,1379
1604391842.2421,1919
1604391842.2442,1238
1604391842.2463,-126
1604391842.2481,-576
1604391842.2501,-165
1604391842.2522,-92
1604391842.2542,-243
1604391842.2561,-167
1604391842.2583,-111
1604391842.2602,-153
1604391842.2621,-136
1604391842.2641,-102
1604391842.2661,-107
1604391842.2681,-97
1604391842.2701,-70
1604391842.2708,-60
1604391842.2732,-55
1604391842.2752,-41
1604391842.2771,-26
1604391842.2791,-12
1604391842.2812,4
1604391842.2832,19
1604391842.2851,41
1604391842.2871,68
1604391842.2891,92
1604391842.2911,116
1604391842.2932,145
1604391842.2951,165
1604391842.2971,172
1604391842.2991,167
1604391842.3012,155
1604391842.3019,136
1604391842.3042,102
1604391842.3062,51
1604391842.3082,-4
1604391842.3101,-55
1604391842.3121,-92
1604391842.3142,-107
1604391842.3161,-114
1604391842.3181,-116
1604391842.3201,-114
1604391842.3221,-107
1604391842.3242,-99
1604391842.7544,-90
1604391842.7552,-80
1604391842.7569,-70
1604391842.7593,-60
1604391842.7613,-53
1604391842.7632,-55
1604391842.7652,-51
1604391842.7673,-38
1604391842.7692,-36
1604391842.7713,-36
1604391842.7732,-31
1604391842.7752,-29
1604391842.7772,-31
1604391842.7792,-31
1604391842.7812,-26
1604391842.7832,-24
1604391842.7853,-29
1604391842.7872,-29
1604391842.7892,-26
1604391842.7912,-21
1604391842.7932,-21
1604391842.7952,-24
1604391842.7972,-21
1604391842.7992,-26
1604391842.8012,-34
1604391842.8032,-34
1604391842.8052,-26
1604391842.8071,-17
1604391842.8092,-4
1604391842.8112,0
1604391842.8133,-2
1604391842.8152,2
1604391842.8172,2
1604391842.8192,-4
1604391842.8212,-12
1604391842.8232,-14
1604391842.8252,-12
1604391842.8272,-9
1604391842.8292,-7
1604391842.8312,-4
1604391842.8332,-4
1604391842.8352,0
1604391842.8372,7
1604391842.8392,-9
1604391842.8412,-109
1604391842.8432,-245
1604391842.8452,-119
1604391842.8472,552
1604391842.8492,1508
1604391842.8512,1924
1604391842.8532,1097
1604391842.8552,-204
1604391842.8572,-479
1604391842.8592,-85
1604391842.8612,-99
1604391842.8632,-231
1604391842.8652,-143
1604391842.8672,-116
1604391842.8692,-163
1604391842.8712,-138
1604391842.8732,-107
1604391842.8752,-109
1604391842.8772,-97
1604391842.8792,-75
1604391842.8812,-70
1604391842.8832,-60
1604391842.8852,-43
1604391842.8873,-31
1604391842.8892,-17
1604391842.8912,2
1604391842.8932,19
1604391842.8952,38
1604391842.8972,63
1604391843.2944,92
1604391843.2952,116
1604391843.2976,138
1604391843.3003,155
1604391843.3023,163
1604391843.3042,158
1604391843.3062,138
1604391843.3082,114
1604391843.3102,85
1604391843.3122,41
1604391843.3143,-9
1604391843.3162,-46
1604391843.3182,-65
1604391843.3202,-85
1604391843.3222,-99
1604391843.3242,-102
1604391843.3262,-97
1604391843.3282,-92
1604391843.3302,-87
1604391843.3322,-77
1604391843.3343,-68
1604391843.3362,-63
1604391843.3382,-58
1604391843.3402,-46
1604391843.3422,-34
1604391843.3442,-29
1604391843.3462,-24
1604391843.3482,-17
1604391843.3502,-9
1604391843.3522,-9
1604391843.3542,-9
1604391843.3562,-2
1604391843.3582,-2
1604391843.3602,-12
1604391843.3622,-14
1604391843.3642,-4
1604391843.3662,-2
1604391843.3682,-12
1604391843.3702,-12
1604391843.3722,-7
1604391843.3742,-2
1604391843.3762,4
1604391843.3782,17
1604391843.3802,26
1604391843.3822,7
1604391843.3844,-31
1604391843.3862,-29
1604391843.3882,-9
1604391843.3902,-17
1604391843.3922,-7
1604391843.3942,17
1604391843.3962,7
1604391843.3982,-9
1604391843.4002,-2
1604391843.4022,0
1604391843.4042,-7
1604391843.4063,0
1604391843.4082,29
1604391843.4102,63
1604391843.4122,60
1604391843.4142,-7
1604391843.4162,-133
1604391843.4182,-194
1604391843.4202,-29
1604391843.4222,163
1604391843.4242,68
1604391843.4262,-155
1604391843.4282,-211
1604391843.4302,31
1604391843.4322,715
1604391843.4342,1596
1604391843.4362,1790
1604391843.4382,749
1604391843.8944,-406
1604391843.8953,-396
1604391843.8978,0
1604391843.9004,-80
1604391843.9024,-141
1604391843.9044,-7
1604391843.9066,-17
1604391843.9084,-85
1604391843.9104,-21
1604391843.9124,21
1604391843.9144,-14
1604391843.9164,-19
1604391843.9184,-29
1604391843.9203,-58
1604391843.9223,-55
1604391843.9244,-29
1604391843.9264,21
1604391843.9283,60
1604391843.9304,53
1604391843.9324,41
1604391843.9343,58
1604391843.9363,92
1604391843.9383,158
1604391843.9405,223
1604391843.9424,236
1604391843.9443,226
1604391843.9463,211
1604391843.9483,216
1604391843.9503,260
1604391843.9523,248
1604391843.9543,148
1604391843.9563,75
1604391843.9583,43
1604391843.9603,-14
1604391843.9623,-65
1604391843.9644,-72
1604391843.9663,-82
1604391843.9683,-102
1604391843.9703,-109
1604391843.9723,-131
1604391843.9743,-148
1604391843.9763,-94
1604391843.9783,-29
1604391843.9803,-41
1604391843.9823,-70
1604391843.9843,-72
1604391843.9863,-92
1604391843.9883,-85
1604391843.9903,-34
1604391843.9923,-4
1604391843.9943,0
1604391843.9963,0
1604391843.9983,-7
1604391844.0003,-12
1604391844.0023,-9
1604391844.0043,-14
1604391844.0063,-26
1604391844.0083,-26
1604391844.0103,-31
1604391844.0123,-31
1604391844.0143,-7
1604391844.0163,9
1604391844.0183,4
1604391844.0203,4
1604391844.0223,4
1604391844.0243,-12
1604391844.0263,-21
1604391844.0283,-24
1604391844.0303,-26
1604391844.0323,-34
1604391844.0343,-46
1604391844.0364,-53
1604391844.0383,-36
1604391844.4944,-12
1604391844.4954,-7
1604391844.4977,-4
1604391844.5002,-17
1604391844.5023,-114
1604391844.5043,-274
1604391844.5063,-221
1604391844.5082,396
1604391844.5102,1396
1604391844.5122,1871
1604391844.5143,1009
1604391844.5162,-367
1604391844.5182,-635
1604391844.5202,-177
1604391844.5222,-141
1604391844.5242,-233
1604391844.5262,-133
1604391844.5282,-109
1604391844.5302,-143
1604391844.5322,-114
1604391844.5342,-92
1604391844.5362,-102
1604391844.5382,-77
1604391844.5402,-48
1604391844.5422,-46
1604391844.5442,-43
1604391844.5462,-24
1604391844.5482,-4
1604391844.5502,4
1604391844.5522,26
1604391844.5542,63
1604391844.5562,82
1604391844.5582,102
1604391844.5602,138
1604391844.5622,182
1604391844.5642,218
1604391844.5662,238
1604391844.5682,238
1604391844.5702,223
1604391844.5722,204
1604391844.5742,175
1604391844.5762,121
1604391844.5783,43
1604391844.5802,-19
1604391844.5822,-51
1604391844.5842,-87
1604391844.5862,-116
1604391844.5882,-114
1604391844.5902,-99
1604391844.5922,-97
1604391844.5942,-90
1604391844.5962,-77
1604391844.5983,-75
1604391844.6002,-68
1604391844.6022,-46
1604391844.6042,-29
1604391844.6062,-21
1604391844.6082,-9
1604391844.6102,0
1604391844.6122,2
1604391844.6142,2
1604391844.6161,4
1604391844.6183,4
1604391844.6202,9
1604391844.6222,17
1604391844.6242,17
1604391844.6262,19
1604391844.6282,26
1604391844.6302,24
1604391844.6322,36
1604391844.6342,58
1604391844.6362,60
1604391844.6382,55
1604391845.0043,55
1604391845.0052,53
1604391845.0076,46
1604391845.0102,41
1604391845.0122,48
1604391845.0142,55
1604391845.0162,55
1604391845.0182,58
1604391845.0202,60
1604391845.0222,55
1604391845.0242,55
1604391845.0261,55
1604391845.0282,-2
1604391845.0301,-148
1604391845.0322,-189
1604391845.0341,228
1604391845.0361,1131
1604391845.0381,1936
1604391845.0402,1713
1604391845.0421,384
1604391845.0442,-491
1604391845.0461,-192
1604391845.0481,63
1604391845.0501,-128
1604391845.0521,-128
1604391845.0542,-26
1604391845.0561,-60
1604391845.0581,-68
1604391845.0601,-21
1604391845.0621,-21
1604391845.0643,-29
1604391845.0662,-9
1604391845.0681,-2
1604391845.0701,7
1604391845.0722,29
1604391845.0742,38
1604391845.0761,48
1604391845.0781,72
1604391845.0801,94
1604391845.0821,114
1604391845.0841,133
1604391845.0861,148
1604391845.0881,172
1604391845.0902,197
1604391845.0921,214
1604391845.0942,221
1604391845.0961,228
1604391845.0981,233
1604391845.1001,216
1604391845.1021,180
1604391845.1042,150
1604391845.1061,114
1604391845.1081,65
1604391845.1101,36
1604391845.1121,21
1604391845.1142,9
1604391845.1161,4
1604391845.1181,12
1604391845.1201,21
1604391845.1221,29
1604391845.1241,34
1604391845.1261,43
1604391845.1281,55
1604391845.1301,60
1604391845.1321,70
1604391845.1341,75
1604391845.1361,72
1604391845.1381,77
1604391845.1401,85
1604391845.1421,77
1604391845.1442,75
1604391845.1461,82
1604391845.1481,85
1604391845.5741,85
1604391845.5749,87
1604391845.5774,94
1604391845.5800,102
1604391845.5820,109
1604391845.5840,97
1604391845.5860,63
1604391845.5879,48
1604391845.5901,53
1604391845.5919,63
1604391845.5940,60
1604391845.5959,48
1604391845.5979,48
1604391845.5999,55
1604391845.6019,58
1604391845.6039,60
1604391845.6060,19
1604391845.6079,-116
1604391845.6099,-204
1604391845.6119,131
1604391845.6139,1009
1604391845.6159,1905
1604391845.6179,1854
1604391845.6199,569
1604391845.6219,-520
1604391845.6239,-338
1604391845.6258,26
1604391845.6279,-126
1604391845.6299,-187
1604391845.6319,-90
1604391845.6339,-111
1604391845.6359,-131
1604391845.6379,-92
1604391845.6399,-90
1604391845.6419,-87
1604391845.6439,-58
1604391845.6459,-55
1604391845.6479,-63
1604391845.6498,-55
1604391845.6519,-31
1604391845.6539,-7
1604391845.6559,2
1604391845.6579,9
1604391845.6599,29
1604391845.6619,51
1604391845.6639,58
1604391845.6659,63
1604391845.6679,80
1604391845.6699,97
1604391845.6719,94
1604391845.6739,80
1604391845.6759,53
1604391845.6779,41
1604391845.6799,53
1604391845.6819,17
1604391845.6839,-60
1604391845.6859,-92
1604391845.6879,-92
1604391845.6899,-121
1604391845.6920,-143
1604391845.6940,-136
1604391845.6959,-136
1604391845.6979,-131
1604391845.6999,-116
1604391845.7019,-104
1604391845.7039,-94
1604391845.7059,-94
1604391845.7079,-94
1604391845.7099,-85
1604391845.7119,-75
1604391845.7140,-72
1604391845.7159,-65
1604391845.7179,-58
1604391846.1140,-58
1604391846.1149,-43
1604391846.1174,-29
1604391846.1200,-36
1604391846.1220,-51
1604391846.1240,-53
1604391846.1259,-51
1604391846.1279,-60
1604391846.1299,-90
1604391846.1319,-85
1604391846.1339,-58
1604391846.1358,-70
1604391846.1379,-92
1604391846.1398,-77
1604391846.1419,-70
1604391846.1439,-87
1604391846.1458,-82
1604391846.1479,-77
1604391846.1498,-170
1604391846.1518,-321
1604391846.1539,-233
1604391846.1558,374
1604391846.1578,1306
1604391846.1598,1795
1604391846.1619,1073
1604391846.1638,-233
1604391846.1659,-569
1604391846.1679,-148
1604391846.1698,-119
1604391846.1718,-248
1604391846.1739,-167
1604391846.1758,-143
1604391846.1779,-163
1604391846.1798,-133
1604391846.1819,-145
1604391846.1838,-148
1604391846.1858,-90
1604391846.1880,-82
1604391846.1899,-107
1604391846.1919,-70
1604391846.1939,-29
1604391846.1958,-41
1604391846.1979,-43
1604391846.1999,-7
1604391846.2018,14
1604391846.2038,12
1604391846.2058,29
1604391846.2078,60
1604391846.2098,58
1604391846.2119,70
1604391846.2139,124
1604391846.2159,124
1604391846.2179,75
1604391846.2198,70
1604391846.2218,82
1604391846.2239,38
1604391846.2258,-14
1604391846.2279,-21
1604391846.2298,-36
1604391846.2319,-80
1604391846.2339,-92
1604391846.2358,-75
1604391846.2379,-68
1604391846.2398,-68
1604391846.2418,-60
1604391846.2439,-55
1604391846.2459,-58
1604391846.2479,-55
1604391846.2498,-43
1604391846.2519,-34
1604391846.2539,-31
1604391846.2558,-34
1604391846.2579,-24
1604391846.6844,-12
1604391846.6853,-7
1604391846.6877,-9
1604391846.6903,-4
1604391846.6923,-9
1604391846.6943,-24
1604391846.6963,-34
1604391846.6983,-38
1604391846.7003,-48
1604391846.7023,-55
1604391846.7042,-58
1604391846.7063,-60
1604391846.7082,-58
1604391846.7103,-51
1604391846.7122,-43
1604391846.7144,-36
1604391846.7162,-24
1604391846.7183,-60
1604391846.7202,-194
1604391846.7222,-284
1604391846.7243,9
1604391846.7262,815
1604391846.7282,1640
1604391846.7302,1545
1604391846.7322,350
1604391846.7342,-549
1604391846.7362,-350
1604391846.7382,-55
1604391846.7402,-153
1604391846.7422,-163
1604391846.7442,-80
1604391846.7462,-99
1604391846.7482,-107
1604391846.7502,-75
1604391846.7522,-70
1604391846.7543,-63
1604391846.7563,-29
1604391846.7582,-12
1604391846.7602,-7
1604391846.7622,2
1604391846.7642,14
1604391846.7662,36
1604391846.7682,63
1604391846.7702,77
1604391846.7722,92
1604391846.7743,121
1604391846.7762,148
1604391846.7782,160
1604391846.7802,172
1604391846.7822,189
1604391846.7842,199
1604391846.7863,187
1604391846.7882,175
1604391846.7902,155
1604391846.7922,121
1604391846.7942,92
1604391846.7962,72
1604391846.7982,24
1604391846.8003,-34
1604391846.8022,-48
1604391846.8043,-31
1604391846.8062,-31
1604391846.8082,-43
1604391846.8102,-36
1604391846.8122,-9
1604391846.8143,0
1604391846.8164,-14
1604391846.8183,-19
1604391846.8202,0
1604391846.8222,17
1604391846.8242,24
1604391846.8262,43
1604391846.8282,48
1604391847.3139,19
1604391847.3147,9
1604391847.3173,17
1604391847.3198,14
1604391847.3219,12
1604391847.3239,2
1604391847.3259,-12
1604391847.3278,-12
1604391847.3298,-9
1604391847.3318,-24
1604391847.3337,-41
1604391847.3357,-41
1604391847.3377,-14
1604391847.3398,19
1604391847.3418,7
1604391847.3438,-77
1604391847.3457,-194
1604391847.3477,-194
1604391847.3497,214
1604391847.3518,1048
1604391847.3537,1632
1604391847.3557,1085
1604391847.3577,-170
1604391847.3597,-608
1604391847.3617,-236
1604391847.3638,-114
1604391847.3657,-180
1604391847.3677,-102
1604391847.3697,-75
1604391847.3717,-114
1604391847.3738,-75
1604391847.3757,-14
1604391847.3777,-19
1604391847.3797,-36
1604391847.3817,-38
1604391847.3837,-48
1604391847.3857,-19
1604391847.3878,41
1604391847.3897,48
1604391847.3917,31
1604391847.3938,55
1604391847.3957,85
1604391847.3977,90
1604391847.3997,114
1604391847.4019,158
1604391847.4038,172
1604391847.4057,170
1604391847.4078,177
1604391847.4097,182
1604391847.4117,170
1604391847.4137,150
1604391847.4157,128
1604391847.4177,99
1604391847.4197,55
1604391847.4218,12
1604391847.4238,-17
1604391847.4257,-41
1604391847.4277,-60
1604391847.4297,-58
1604391847.4317,-55
1604391847.4324,-60
1604391847.4347,-53
1604391847.4367,-34
1604391847.4387,-21
1604391847.4407,-12
1604391847.4428,-2
1604391847.4447,2
1604391847.4467,-7
1604391847.4487,-7
1604391847.4507,9
1604391847.4528,24
1604391847.4547,29
1604391847.4567,26
1604391847.8242,19
1604391847.8248,17
1604391847.8272,14
1604391847.8299,9
1604391847.8319,4
1604391847.8338,-4
1604391847.8359,-17
1604391847.8378,-34
1604391847.8398,-38
1604391847.8418,-24
1604391847.8439,-12
1604391847.8458,-26
1604391847.8478,-51
1604391847.8498,-131
1604391847.8518,-287
1604391847.8539,-233
1604391847.8558,401
1604391847.8566,1411
1604391847.8589,1970
1604391847.8608,1277
1604391847.8628,-136
1604391847.8648,-598
1604391847.8670,-153
1604391847.8689,-90
1604391847.8708,-267
1604391847.8729,-184
1604391847.8748,-124
1604391847.8768,-184
1604391847.8788,-172
1604391847.8808,-128
1604391847.8829,-128
1604391847.8848,-126
1604391847.8868,-111
1604391847.8875,-107
1604391847.8898,-85
1604391847.8918,-63
1604391847.8939,-65
1604391847.8959,-58
1604391847.8978,-41
1604391847.8999,-36
1604391847.9018,-24
1604391847.9039,-2
1604391847.9058,12
1604391847.9078,17
1604391847.9098,29
1604391847.9118,36
1604391847.9139,29
1604391847.9158,21
1604391847.9178,26
1604391847.9185,26
1604391847.9198,17
1604391847.9218,17
1604391847.9239,2
1604391847.9258,-24
1604391847.9278,-34
1604391847.9298,-46
1604391847.9318,-43
1604391847.9338,-17
1604391847.9358,-17
1604391847.9378,-26
1604391847.9398,-14
1604391847.9418,-7
1604391847.9439,-9
1604391847.9458,-2
1604391847.9478,2
1604391847.9485,12
1604391847.9508,17
1604391847.9528,17
1604391847.9548,29
1604391847.9569,48
1604391847.9588,36
1604391847.9608,17
1604391847.9628,21
1604391848.3638,24
1604391848.3645,7
1604391848.3661,0
1604391848.3681,12
1604391848.3688,12
1604391848.3711,12
1604391848.3731,21
1604391848.3751,21
1604391848.3771,7
1604391848.3791,-34
1604391848.3810,-165
1604391848.3830,-316
1604391848.3850,-119
1604391848.3871,695
1604391848.3891,1725
1604391848.3911,2017
1604391848.3931,983
1604391848.3951,-330
1604391848.3971,-450
1604391848.3991,-29
1604391848.3997,-111
1604391848.4021,-228
1604391848.4041,-102
1604391848.4060,-82
1604391848.4081,-133
1604391848.4101,-104
1604391848.4121,-85
1604391848.4141,-97
1604391848.4161,-72
1604391848.4181,-48
1604391848.4201,-51
1604391848.4221,-48
1604391848.4241,-34
1604391848.4261,-19
1604391848.4281,-7
1604391848.4301,0
1604391848.4308,2
1604391848.4330,12
1604391848.4351,29
1604391848.4371,43
1604391848.4391,46
1604391848.4411,48
1604391848.4431,55
1604391848.4451,53
1604391848.4471,43
1604391848.4491,41
1604391848.4511,51
1604391848.4531,46
1604391848.4551,34
1604391848.4571,24
1604391848.4591,4
1604391848.4612,-14
1604391848.4618,-14
1604391848.4631,-14
1604391848.4650,-19
1604391848.4671,-19
1604391848.4691,4
1604391848.4711,26
1604391848.4731,26
1604391848.4751,26
1604391848.4771,36
1604391848.4791,41
1604391848.4810,31
1604391848.4830,19
1604391848.4850,21
1604391848.4870,53
1604391848.4890,77
1604391848.4910,60
1604391848.4918,41
1604391848.4941,51
1604391848.4960,48
1604391848.4981,31
1604391848.5001,19
1604391848.9340,19
1604391848.9349,21
1604391848.9373,12
1604391848.9400,14
1604391848.9420,24
1604391848.9439,21
1604391848.9460,-4
1604391848.9480,-126
1604391848.9499,-289
1604391848.9519,-165
1604391848.9539,547
1604391848.9546,1567
1604391848.9569,2012
1604391848.9589,1158
1604391848.9609,-204
1604391848.9629,-489
1604391848.9649,-60
1604391848.9669,-82
1604391848.9689,-238
1604391848.9708,-141
1604391848.9729,-102
1604391848.9749,-155
1604391848.9768,-131
1604391848.9789,-102
1604391848.9809,-111
1604391848.9829,-102
1604391848.9849,-85
1604391848.9856,-87
1604391848.9878,-82
1604391848.9900,-65
1604391848.9919,-58
1604391848.9938,-53
1604391848.9959,-43
1604391848.9979,-31
1604391848.9998,-21
1604391849.0019,-14
1604391849.0039,-7
1604391849.0058,0
1604391849.0078,0
1604391849.0099,-2
1604391849.0118,-2
1604391849.0139,-9
1604391849.0158,-12
1604391849.0179,-4
1604391849.0199,0
1604391849.0219,-7
1604391849.0239,-19
1604391849.0259,-29
1604391849.0278,-46
1604391849.0298,-53
1604391849.0318,-46
1604391849.0339,-36
1604391849.0358,-31
1604391849.0378,-29
1604391849.0399,-24
1604391849.0418,-12
1604391849.0438,-2
1604391849.0459,-2
1604391849.0478,0
1604391849.0498,0
1604391849.0518,0
1604391849.0539,4
1604391849.0559,7
1604391849.0579,12
1604391849.0598,24
1604391849.0619,26
1604391849.0639,19
1604391849.0658,19
1604391849.0679,17
1604391849.0699,7
1604391849.0719,4
1604391849.0739,4
1604391849.0758,7
1604391849.4738,12
1604391849.4744,17
1604391849.4768,17
1604391849.4794,17
1604391849.4814,-12
1604391849.4834,-131
1604391849.4855,-270
1604391849.4876,-90
1604391849.4895,644
1604391849.4914,1603
1604391849.4935,1876
1604391849.4954,880
1604391849.4974,-335
1604391849.4994,-430
1604391849.5014,-55
1604391849.5035,-111
1604391849.5055,-194
1604391849.5074,-97
1604391849.5094,-94
1604391849.5114,-119
1604391849.5135,-85
1604391849.5154,-70
1604391849.5175,-75
1604391849.5194,-58
1604391849.5214,-46
1604391849.5235,-36
1604391849.5254,-19
1604391849.5274,-4
1604391849.5294,9
1604391849.5314,24
1604391849.5334,29
1604391849.5354,41
1604391849.5374,65
1604391849.5394,77
1604391849.5414,77
1604391849.5435,80
1604391849.5454,90
1604391849.5474,102
1604391849.5494,92
1604391849.5514,72
1604391849.5535,82
1604391849.5554,94
1604391849.5574,80
1604391849.5594,60
1604391849.5614,58
1604391849.5634,38
1604391849.5654,7
1604391849.5674,2
1604391849.5695,14
1604391849.5714,24
1604391849.5734,31
1604391849.5754,36
1604391849.5774,38
1604391849.5794,41
1604391849.5814,43
1604391849.5834,51
1604391849.5854,58
1604391849.5874,58
1604391849.5895,53
1604391849.5914,55
1604391849.5934,80
1604391849.5954,97
1604391849.5974,82
1604391849.5994,55
1604391849.6014,41
1604391849.6034,31
1604391849.6054,29
1604391849.6073,26
1604391849.6094,29
1604391849.6114,38
1604391849.6134,36
1604391849.6154,26
1604391849.6175,36
1604391850.0440,53
1604391850.0449,4
1604391850.0474,-136
1604391850.0500,-223
1604391850.0520,72
1604391850.0540,890
1604391850.0559,1703
1604391850.0579,1498
1604391850.0599,221
1604391850.0619,-591
1604391850.0640,-323
1604391850.0659,-72
1604391850.0679,-158
1604391850.0699,-116
1604391850.0719,-46
1604391850.0740,-77
1604391850.0759,-72
1604391850.0779,-38
1604391850.0799,-51
1604391850.0819,-58
1604391850.0839,-38
1604391850.0859,-29
1604391850.0879,-24
1604391850.0899,-21
1604391850.0919,-14
1604391850.0939,4
1604391850.0959,17
1604391850.0979,17
1604391850.0999,31
1604391850.1019,41
1604391850.1039,41
1604391850.1059,51
1604391850.1079,70
1604391850.1099,70
1604391850.1119,60
1604391850.1139,58
1604391850.1162,51
1604391850.1180,48
1604391850.1199,46
1604391850.1219,36
1604391850.1239,14
1604391850.1258,-19
1604391850.1279,-51
1604391850.1299,-53
1604391850.1319,-51
1604391850.1339,-60
1604391850.1359,-63
1604391850.1378,-43
1604391850.1399,-26
1604391850.1419,-24
1604391850.1439,-12
1604391850.1459,-4
1604391850.1479,-9
1604391850.1499,-2
1604391850.1519,4
1604391850.1539,-2
1604391850.1559,-4
1604391850.1579,2
1604391850.1599,4
1604391850.1619,-2
1604391850.1639,-4
1604391850.1659,-4
1604391850.1679,-17
1604391850.1699,-31
1604391850.1719,-34
1604391850.1739,-34
1604391850.1759,-36
1604391850.1779,-38
1604391850.1799,-38
1604391850.1819,-34
1604391850.1839,-31
1604391850.1859,-70
1604391850.1879,-194
1604391850.6439,-279
1604391850.6448,12
1604391850.6472,822
1604391850.6498,1698
1604391850.6518,1710
1604391850.6539,518
1604391850.6559,-549
1604391850.6578,-418
1604391850.6598,-75
1604391850.6618,-206
1604391850.6638,-250
1604391850.6658,-136
1604391850.6678,-153
1604391850.6698,-187
1604391850.6720,-150
1604391850.6738,-138
1604391850.6758,-136
1604391850.6778,-114
1604391850.6798,-104
1604391850.6818,-102
1604391850.6838,-92
1604391850.6858,-82
1604391850.6878,-82
1604391850.6898,-80
1604391850.6918,-70
1604391850.6939,-55
1604391850.6959,-48
1604391850.6977,-46
1604391850.6998,-41
1604391850.7017,-38
1604391850.7037,-36
1604391850.7057,-34
1604391850.7077,-36
1604391850.7098,-38
1604391850.7117,-36
1604391850.7138,-26
1604391850.7157,-17
1604391850.7178,-12
1604391850.7197,-17
1604391850.7217,-29
1604391850.7238,-38
1604391850.7257,-38
1604391850.7264,-31
1604391850.7277,-26
1604391850.7297,-19
1604391850.7317,-4
1604391850.7337,-4
1604391850.7357,-4
1604391850.7377,7
1604391850.7397,9
1604391850.7417,-4
1604391850.7438,-9
1604391850.7458,-2
1604391850.7478,12
1604391850.7497,21
1604391850.7518,12
1604391850.7537,7
1604391850.7558,21
1604391850.7640,26
1604391850.7657,-2
1604391850.7677,-21
1604391850.7697,0
1604391850.7717,19
1604391850.7738,2
1604391850.7758,-4
1604391850.7779,2
1604391850.7798,4
1604391850.7818,-51
1604391850.7837,-197
1604391850.7857,-270
1604391850.7877,77
1604391850.7897,941
1604391850.7917,1815
1604391851.2139,1805
1604391851.2147,603
1604391851.2171,-462
1604391851.2198,-316
1604391851.2218,14
1604391851.2238,-145
1604391851.2258,-184
1604391851.2277,-75
1604391851.2298,-111
1604391851.2317,-128
1604391851.2337,-77
1604391851.2357,-82
1604391851.2377,-94
1604391851.2397,-75
1604391851.2417,-77
1604391851.2437,-82
1604391851.2444,-60
1604391851.2457,-48
1604391851.2477,-60
1604391851.2497,-58
1604391851.2518,-29
1604391851.2538,-12
1604391851.2557,-34
1604391851.2577,-36
1604391851.2597,7
1604391851.2617,24
1604391851.2637,-12
1604391851.2657,-31
1604391851.2677,-24
1604391851.2697,-19
1604391851.2717,-14
1604391851.2737,2
1604391851.2744,24
1604391851.2767,29
1604391851.2787,29
1604391851.2807,36
1604391851.2827,38
1604391851.2847,29
1604391851.2867,17
1604391851.2887,12
1604391851.2907,46
1604391851.2927,72
1604391851.2947,46
1604391851.2968,43
1604391851.2988,85
1604391851.3008,75
1604391851.3028,43
1604391851.3047,51
1604391851.3054,46
1604391851.3077,26
1604391851.3097,60
1604391851.3117,107
1604391851.3137,90
1604391851.3157,63
1604391851.3177,75
1604391851.3197,70
1604391851.3217,48
1604391851.3237,41
1604391851.3257,41
1604391851.3277,53
1604391851.3297,63
1604391851.3317,51
1604391851.3337,46
1604391851.3357,53
1604391851.3364,-17
1604391851.3387,-170
1604391851.3407,-192
1604391851.3427,267
1604391851.3447,1194
1604391851.3467,1944
1604391851.3487,1584
1604391851.3507,226
1604391851.3527,-501
1604391851.7543,-141
1604391851.7552,24
1604391851.7576,-175
1604391851.7603,-126
1604391851.7622,-31
1604391851.7629,-92
1604391851.7652,-102
1604391851.7672,-60
1604391851.7692,-60
1604391851.7713,-58
1604391851.7732,-38
1604391851.7752,-46
1604391851.7772,-70
1604391851.7792,-65
1604391851.7812,-36
1604391851.7832,-12
1604391851.7852,-21
1604391851.7872,-21
1604391851.7892,-2
1604391851.7912,-4
1604391851.7932,-14
1604391851.7940,-12
1604391851.7962,-12
1604391851.7982,-7
1604391851.8002,-9
1604391851.8023,-14
1604391851.8041,0
1604391851.8061,17
1604391851.8081,21
1604391851.8102,29
1604391851.8121,34
1604391851.8143,29
1604391851.8161,36
1604391851.8181,48
1604391851.8202,46
1604391851.8221,31
1604391851.8242,34
1604391851.8249,43
1604391851.8261,46
1604391851.8281,51
1604391851.8301,48
1604391851.8321,36
1604391851.8342,26
1604391851.8362,31
1604391851.8382,34
1604391851.8401,24
1604391851.8421,21
1604391851.8442,34
1604391851.8461,41
1604391851.8482,36
1604391851.8502,31
1604391851.8522,24
1604391851.8542,17
1604391851.8549,9
1604391851.8571,-2
1604391851.8592,-7
1604391851.8612,-4
1604391851.8632,-7
1604391851.8651,-14
1604391851.8671,-9
1604391851.8691,-2
1604391851.8711,-82
1604391851.8732,-245
1604391851.8751,-231
1604391851.8771,279
1604391851.8791,1199
1604391851.8811,1854
1604391851.8831,1362
1604391851.8851,41
1604391851.8858,-523
1604391851.8871,-165
1604391851.8891,-58
1604391851.8913,-211
1604391852.2943,-160
1604391852.2952,-109
1604391852.2976,-155
1604391852.3003,-141
1604391852.3022,-99
1604391852.3042,-104
1604391852.3062,-104
1604391852.3082,-82
1604391852.3102,-75
1604391852.3122,-82
1604391852.3142,-75
1604391852.3162,-55
1604391852.3168,-53
1604391852.3182,-51
1604391852.3202,-34
1604391852.3222,-21
1604391852.3242,-17
1604391852.3262,-19
1604391852.3281,-19
1604391852.3301,-17
1604391852.3321,-17
1604391852.3342,-26
1604391852.3361,-31
1604391852.3381,-19
1604391852.3402,4
1604391852.3421,12
1604391852.3441,7
1604391852.3461,24
1604391852.3468,41
1604391852.3481,29
1604391852.3501,17
1604391852.3522,17
1604391852.3541,21
1604391852.3562,26
1604391852.3581,26
1604391852.3601,19
1604391852.3621,29
1604391852.3642,31
1604391852.3661,26
1604391852.3681,29
1604391852.3702,14
1604391852.3721,0
1604391852.3742,19
1604391852.3761,26
1604391852.3768,24
1604391852.3781,38
1604391852.3801,36
1604391852.3821,21
1604391852.3842,26
1604391852.3862,14
1604391852.3883,-7
1604391852.3902,-2
1604391852.3921,12
1604391852.3941,2
1604391852.3961,-4
1604391852.3981,-4
1604391852.4002,2
1604391852.4021,7
1604391852.4041,-55
1604391852.4061,-209
1604391852.4068,-223
1604391852.4082,223
1604391852.4102,1092
1604391852.4121,1768
1604391852.4141,1379
1604391852.4161,94
1604391852.4181,-545
1604391852.4201,-199
1604391852.4221,-41
1604391852.4242,-194
1604391852.4261,-153
1604391852.4281,-72
1604391852.4302,-107
1604391852.8641,-104
1604391852.8649,-60
1604391852.8673,-63
1604391852.8700,-68
1604391852.8720,-48
1604391852.8739,-48
1604391852.8760,-48
1604391852.8779,-38
1604391852.8799,-43
1604391852.8819,-31
1604391852.8840,-2
1604391852.8859,7
1604391852.8880,4
1604391852.8899,9
1604391852.8919,17
1604391852.8939,31
1604391852.8959,31
1604391852.8966,21
1604391852.8989,24
1604391852.9009,26
1604391852.9029,26
1604391852.9049,41
1604391852.9069,60
1604391852.9089,51
1604391852.9109,46
1604391852.9129,53
1604391852.9149,43
1604391852.9170,46
1604391852.9191,53
1604391852.9209,46
1604391852.9230,46
1604391852.9249,51
1604391852.9255,46
1604391852.9269,55
1604391852.9289,60
1604391852.9309,58
1604391852.9329,51
1604391852.9349,36
1604391852.9369,34
1604391852.9389,34
1604391852.9410,26
1604391852.9429,38
1604391852.9449,63
1604391852.9470,63
1604391852.9489,46
1604391852.9509,43
1604391852.9529,43
1604391852.9549,31
1604391852.9556,19
1604391852.9569,17
1604391852.9589,19
1604391852.9609,19
1604391852.9629,12
1604391852.9649,14
1604391852.9669,36
1604391852.9689,7
1604391852.9709,-136
1604391852.9730,-243
1604391852.9749,29
1604391852.9769,790
1604391852.9789,1605
1604391852.9809,1613
1604391852.9829,508
1604391852.9849,-457
1604391852.9855,-313
1604391852.9869,7
1604391852.9889,-131
1604391852.9909,-177
1604391852.9929,-51
1604391852.9949,-65
1604391852.9969,-111
1604391852.9989,-70
1604391853.0010,-53
1604391853.4342,-65
1604391853.4350,-51
1604391853.4375,-26
1604391853.4401,-21
1604391853.4407,-17
1604391853.4421,-4
1604391853.4442,0
1604391853.4463,0
1604391853.4480,7
1604391853.4501,21
1604391853.4520,29
1604391853.4541,34
1604391853.4560,38
1604391853.4580,41
1604391853.4600,38
1604391853.4621,34
1604391853.4642,36
1604391853.4660,41
1604391853.4680,46
1604391853.4700,55
1604391853.4706,51
1604391853.4720,48
1604391853.4740,51
1604391853.4760,34
1604391853.4780,24
1604391853.4800,34
1604391853.4820,29
1604391853.4840,26
1604391853.4860,29
1604391853.4880,26
1604391853.4900,34
1604391853.4920,31
1604391853.4940,17
1604391853.4960,19
1604391853.4980,14
1604391853.5000,0
1604391853.5006,2
1604391853.5020,7
1604391853.5041,17
1604391853.5060,43
1604391853.5080,48
1604391853.5100,26
1604391853.5120,17
1604391853.5140,0
1604391853.5160,-17
1604391853.5180,-2
1604391853.5200,9
1604391853.5220,2
1604391853.5241,2
1604391853.5260,9
1604391853.5280,4
1604391853.5300,-4
1604391853.5307,-51
1604391853.5320,-182
1604391853.5340,-248
1604391853.5360,75
1604391853.5380,851
1604391853.5401,1622
1604391853.5420,1535
1604391853.5440,382
1604391853.5460,-476
1604391853.5480,-265
1604391853.5500,-9
1604391853.5520,-150
1604391853.5540,-163
1604391853.5560,-82
1604391853.5580,-116
1604391853.5600,-121
1604391853.5607,-72
1604391853.5620,-70
1604391853.5641,-77
1604391853.5660,-51
1604391853.5680,-41
1604391854.0043,-53
1604391854.0052,-46
1604391854.0076,-19
1604391854.0103,-7
1604391854.0123,-7
1604391854.0142,-12
1604391854.0163,-4
1604391854.0183,26
1604391854.0202,41
1604391854.0223,14
1604391854.0242,12
1604391854.0249,31
1604391854.0262,34
1604391854.0282,31
1604391854.0302,38
1604391854.0323,48
1604391854.0343,46
1604391854.0362,21
1604391854.0382,12
1604391854.0402,36
1604391854.0423,31
1604391854.0442,2
1604391854.0463,2
1604391854.0482,4
1604391854.0502,19
1604391854.0522,41
1604391854.0542,19
1604391854.0548,-7
1604391854.0562,7
1604391854.0582,-7
1604391854.0602,-36
1604391854.0622,-14
1604391854.0642,2
1604391854.0662,-12
1604391854.0682,4
1604391854.0703,41
1604391854.0722,19
1604391854.0742,-19
1604391854.0762,-9
1604391854.0782,-4
1604391854.0802,-21
1604391854.0822,-36
1604391854.0842,-41
1604391854.0848,-38
1604391854.0862,-36
1604391854.0882,-38
1604391854.0902,-38
1604391854.0922,-38
1604391854.0942,-36
1604391854.0962,-94
1604391854.0982,-248
1604391854.1002,-255
1604391854.1022,170
1604391854.1042,970
1604391854.1062,1603
1604391854.1082,1250
1604391854.1102,68
1604391854.1122,-528
1604391854.1142,-209
1604391854.1149,-41
1604391854.1162,-175
1604391854.1182,-148
1604391854.1202,-77
1604391854.1222,-114
1604391854.1242,-124
1604391854.1262,-85
1604391854.1282,-70
1604391854.1302,-70
1604391854.1322,-55
1604391854.1342,-43
1604391854.1362,-48
1604391854.1382,-53
1604391854.1402,-36
1604391854.5740,-2
1604391854.5746,0
1604391854.5770,-19
1604391854.5796,0
1604391854.5816,38
1604391854.5836,41
1604391854.5856,34
1604391854.5876,36
1604391854.5896,38
1604391854.5916,31
1604391854.5936,19
1604391854.5956,36
1604391854.5976,63
1604391854.5998,38
1604391854.6016,19
1604391854.6023,41
1604391854.6036,34
1604391854.6055,4
1604391854.6075,0
1604391854.6097,2
1604391854.6117,-2
1604391854.6137,0
1604391854.6155,2
1604391854.6176,-4
1604391854.6196,-4
1604391854.6216,-7
1604391854.6236,-14
1604391854.6256,-14
1604391854.6276,-24
1604391854.6296,-38
1604391854.6315,-36
1604391854.6322,-21
1604391854.6336,-14
1604391854.6356,-12
1604391854.6376,-17
1604391854.6396,-21
1604391854.6416,-38
1604391854.6436,-63
1604391854.6455,-70
1604391854.6476,-63
1604391854.6495,-65
1604391854.6515,-77
1604391854.6536,-80
1604391854.6556,-70
1604391854.6576,-65
1604391854.6596,-80
1604391854.6616,-170
1604391854.6623,-291
1604391854.6646,-175
1604391854.6666,408
1604391854.6686,1243
1604391854.6707,1588
1604391854.6726,824
1604391854.6746,-296
1604391854.6766,-481
1604391854.6786,-119
1604391854.6806,-119
1604391854.6826,-221
1604391854.6846,-143
1604391854.6866,-119
1604391854.6886,-158
1604391854.6906,-133
1604391854.6913,-102
1604391854.6926,-99
1604391854.6948,-90
1604391854.6966,-72
1604391854.6986,-63
1604391854.7006,-53
1604391854.7026,-36
1604391854.7046,-21
1604391854.7066,-14
1604391854.7086,-9
1604391854.7106,7
1604391855.1439,29
1604391855.1447,34
1604391855.1472,34
1604391855.1498,48
1604391855.1518,58
1604391855.1524,63
1604391855.1537,68
1604391855.1558,60
1604391855.1577,60
1604391855.1598,72
1604391855.1617,65
1604391855.1638,38
1604391855.1657,26
1604391855.1677,19
1604391855.1697,9
1604391855.1717,7
1604391855.1738,9
1604391855.1757,-2
1604391855.1777,-14
1604391855.1797,-12
1604391855.1817,-7
1604391855.1823,-4
1604391855.1837,-7
1604391855.1857,-14
1604391855.1877,-17
1604391855.1897,-14
1604391855.1917,-7
1604391855.1937,2
1604391855.1958,0
1604391855.1977,-17
1604391855.1997,-31
1604391855.2017,-36
1604391855.2037,-36
1604391855.2057,-34
1604391855.2077,-31
1604391855.2097,-34
1604391855.2117,-38
1604391855.2123,-36
1604391855.2137,-31
1604391855.2157,-24
1604391855.2177,-24
1604391855.2197,-87
1604391855.2219,-228
1604391855.2238,-216
1604391855.2257,279
1604391855.2277,1126
1604391855.2297,1567
1604391855.2317,866
1604391855.2337,-304
1604391855.2357,-549
1604391855.2377,-177
1604391855.2397,-124
1604391855.2417,-167
1604391855.2424,-82
1604391855.2437,-63
1604391855.2457,-87
1604391855.2477,-58
1604391855.2497,-41
1604391855.2517,-43
1604391855.2537,-24
1604391855.2557,0
1604391855.2577,12
1604391855.2597,17
1604391855.2617,14
1604391855.2637,34
1604391855.2657,75
1604391855.2677,85
1604391855.2697,80
1604391855.2717,94
1604391855.2724,114
1604391855.2737,126
1604391855.2750,145
1604391855.2767,155
1604391855.6541,145
1604391855.6547,150
1604391855.6571,165
1604391855.6598,172
1604391855.6618,165
1604391855.6639,143
1604391855.6658,109
1604391855.6678,72
1604391855.6698,48
1604391855.6704,38
1604391855.6717,31
1604391855.6738,7
1604391855.6757,-9
1604391855.6777,2
1604391855.6797,12
1604391855.6818,14
1604391855.6838,26
1604391855.6858,29
1604391855.6877,19
1604391855.6897,21
1604391855.6919,26
1604391855.6938,24
1604391855.6958,29
1604391855.6977,31
1604391855.6997,21
1604391855.7003,14
1604391855.7017,9
1604391855.7038,4
1604391855.7057,7
1604391855.7077,12
1604391855.7097,7
1604391855.7117,-2
1604391855.7138,9
1604391855.7158,31
1604391855.7177,31
1604391855.7197,-2
1604391855.7217,-109
1604391855.7238,-209
1604391855.7257,26
1604391855.7277,764
1604391855.7298,1545
1604391855.7303,1445
1604391855.7317,294
1604391855.7337,-552
1604391855.7357,-338
1604391855.7377,-46
1604391855.7397,-114
1604391855.7417,-87
1604391855.7437,-7
1604391855.7457,-31
1604391855.7477,-31
1604391855.7497,12
1604391855.7517,19
1604391855.7537,14
1604391855.7557,26
1604391855.7578,46
1604391855.7597,60
1604391855.7603,63
1604391855.7617,75
1604391855.7637,99
1604391855.7657,109
1604391855.7677,111
1604391855.7697,128
1604391855.7717,145
1604391855.7737,150
1604391855.7758,153
1604391855.7777,160
1604391855.7797,165
1604391855.7817,167
1604391855.7837,170
1604391855.7857,170
1604391855.7879,170
1604391855.7899,155
1604391856.2544,128
1604391856.2553,94
1604391856.2578,63
1604391856.2604,46
1604391856.2624,36
1604391856.2644,21
1604391856.2664,17
1604391856.2684,26
1604391856.2704,31
1604391856.2724,29
1604391856.2743,19
1604391856.2763,17
1604391856.2783,24
1604391856.2803,29
1604391856.2824,26
1604391856.2829,24
1604391856.2844,24
1604391856.2863,17
1604391856.2883,12
1604391856.2904,9
1604391856.2923,-4
1604391856.2943,-21
1604391856.2963,-24
1604391856.2983,-19
1604391856.3003,-19
1604391856.3024,-19
1604391856.3043,-14
1604391856.3063,-12
1604391856.3083,-12
1604391856.3103,-46
1604391856.3123,-172
1604391856.3129,-304
1604391856.3143,-102
1604391856.3163,656
1604391856.3183,1586
1604391856.3203,1771
1604391856.3225,703
1604391856.3243,-503
1604391856.3263,-498
1604391856.3283,-63
1604391856.3303,-133
1604391856.3323,-211
1604391856.3343,-99
1604391856.3363,-97
1604391856.3383,-133
1604391856.3402,-92
1604391856.3423,-68
1604391856.3429,-75
1604391856.3443,-60
1604391856.3465,-43
1604391856.3483,-41
1604391856.3503,-29
1604391856.3522,-14
1604391856.3543,-2
1604391856.3563,7
1604391856.3583,21
1604391856.3603,31
1604391856.3623,43
1604391856.3642,53
1604391856.3663,55
1604391856.3683,53
1604391856.3702,51
1604391856.3723,48
1604391856.3729,41
1604391856.3743,34
1604391856.3762,29
1604391856.3783,29
1604391856.3803,21
1604391856.3823,9
1604391856.3843,0
1604391856.3863,-4
1604391856.3882,-9
1604391856.3903,-12
1604391856.7645,-7
1604391856.7656,-2
1604391856.7680,-2
1604391856.7706,-4
1604391856.7714,-7
1604391856.7727,-12
1604391856.7746,-14
1604391856.7767,-21
1604391856.7787,-21
1604391856.7806,-12
1604391856.7827,-21
1604391856.7847,-36
1604391856.7867,-31
1604391856.7887,-29
1604391856.7906,-43
1604391856.7927,-55
1604391856.7947,-55
1604391856.7967,-48
1604391856.7987,-51
1604391856.8007,-51
1604391856.8014,-43
1604391856.8027,-41
1604391856.8046,-53
1604391856.8066,-128
1604391856.8086,-301
1604391856.8106,-345
1604391856.8127,148
1604391856.8148,1143
1604391856.8167,1929
1604391856.8186,1593
1604391856.8206,192
1604391856.8226,-627
1604391856.8246,-250
1604391856.8266,-36
1604391856.8286,-262
1604391856.8306,-231
1604391856.8312,-119
1604391856.8326,-170
1604391856.8346,-175
1604391856.8366,-119
1604391856.8386,-121
1604391856.8407,-126
1604391856.8426,-102
1604391856.8446,-90
1604391856.8466,-90
1604391856.8486,-75
1604391856.8505,-63
1604391856.8526,-58
1604391856.8546,-46
1604391856.8566,-34
1604391856.8586,-26
1604391856.8606,-24
1604391856.8612,-21
1604391856.8626,-24
1604391856.8646,-31
1604391856.8666,-38
1604391856.8685,-46
1604391856.8705,-53
1604391856.8726,-48
1604391856.8745,-31
1604391856.8765,-12
1604391856.8785,-4
1604391856.8806,-4
1604391856.8826,-4
1604391856.8846,-4
1604391856.8865,-9
1604391856.8885,-9
1604391856.8905,-4
1604391856.8912,-2
1604391856.8926,-4
1604391856.8945,-7
1604391856.8966,-7
1604391856.8985,-12
1604391857.3640,-17
1604391857.3648,-19
1604391857.3665,-19
1604391857.3685,-17
1604391857.3704,-19
1604391857.3728,-29
1604391857.3745,-31
1604391857.3765,-26
1604391857.3784,-36
1604391857.3791,-46
1604391857.3804,-51
1604391857.3825,-51
1604391857.3845,-51
1604391857.3864,-46
1604391857.3884,-46
1604391857.3904,-48
1604391857.3924,-48
1604391857.3944,-80
1604391857.3964,-226
1604391857.3984,-386
1604391857.4004,-165
1604391857.4025,669
1604391857.4044,1647
1604391857.4064,1839
1604391857.4084,751
1604391857.4090,-479
1604391857.4104,-469
1604391857.4125,-41
1604391857.4144,-165
1604391857.4164,-262
1604391857.4184,-131
1604391857.4204,-128
1604391857.4225,-172
1604391857.4244,-126
1604391857.4264,-107
1604391857.4284,-119
1604391857.4304,-102
1604391857.4324,-82
1604391857.4344,-80
1604391857.4364,-75
1604391857.4384,-58
1604391857.4390,-43
1604391857.4403,-38
1604391857.4424,-29
1604391857.4444,-14
1604391857.4464,-4
1604391857.4484,-4
1604391857.4504,-9
1604391857.4524,-17
1604391857.4544,-21
1604391857.4564,-29
1604391857.4584,-43
1604391857.4604,-46
1604391857.4624,-29
1604391857.4644,-12
1604391857.4663,-7
1604391857.4685,-4
1604391857.4690,-4
1604391857.4704,-7
1604391857.4725,-7
1604391857.4744,-7
1604391857.4763,-4
1604391857.4783,-4
1604391857.4803,-4
1604391857.4824,-2
1604391857.4844,-2
1604391857.4863,-14
1604391857.4883,-21
1604391857.4904,-19
1604391857.4925,-19
1604391857.4944,-14
1604391857.4964,4
1604391857.4983,14
1604391857.9341,0
1604391857.9349,-12
1604391857.9374,-14
1604391857.9400,-17
1604391857.9420,-31
1604391857.9440,-41
1604391857.9461,-41
1604391857.9479,-43
1604391857.9500,-53
1604391857.9519,-60
1604391857.9540,-53
1604391857.9559,-48
1604391857.9579,-87
1604391857.9599,-236
1604391857.9606,-394
1604391857.9619,-182
1604391857.9640,632
1604391857.9659,1593
1604391857.9679,1761
1604391857.9699,652
1604391857.9719,-535
1604391857.9739,-459
1604391857.9759,-24
1604391857.9779,-158
1604391857.9799,-250
1604391857.9819,-119
1604391857.9839,-121
1604391857.9859,-165
1604391857.9879,-119
1604391857.9899,-99
1604391857.9905,-109
1604391857.9919,-92
1604391857.9939,-77
1604391857.9959,-75
1604391857.9980,-58
1604391857.9999,-41
1604391858.0019,-36
1604391858.0039,-29
1604391858.0059,-17
1604391858.0079,-12
1604391858.0099,-7
1604391858.0119,0
1604391858.0139,-2
1604391858.0159,-7
1604391858.0179,-14
1604391858.0199,-21
1604391858.0205,-24
1604391858.0219,-24
1604391858.0240,-17
1604391858.0259,-7
1604391858.0279,-4
1604391858.0299,-7
1604391858.0319,-9
1604391858.0339,-9
1604391858.0359,-9
1604391858.0379,-4
1604391858.0399,-4
1604391858.0419,0
1604391858.0439,9
1604391858.0459,2
1604391858.0479,-7
1604391858.0499,-4
1604391858.0505,-4
1604391858.0519,-17
1604391858.0539,-21
1604391858.0559,-19
1604391858.0579,-19
1604391858.0599,-7
1604391858.0619,2
1604391858.0639,-4
1604391858.0659,-14
1604391858.0678,-17
1604391858.0699,-24
1604391858.4740,-38
1604391858.4746,-43
1604391858.4770,-41
1604391858.4781,-41
1604391858.4797,-36
1604391858.4816,-31
1604391858.4837,-34
1604391858.4857,-36
1604391858.4877,-48
1604391858.4897,-163
1604391858.4917,-345
1604391858.4937,-250
1604391858.4958,425
1604391858.4977,1389
1604391858.4998,1795
1604391858.5017,936
1604391858.5037,-374
1604391858.5056,-554
1604391858.5076,-70
1604391858.5082,-102
1604391858.5096,-245
1604391858.5116,-128
1604391858.5137,-104
1604391858.5157,-155
1604391858.5176,-114
1604391858.5197,-82
1604391858.5216,-102
1604391858.5236,-90
1604391858.5256,-65
1604391858.5276,-60
1604391858.5296,-53
1604391858.5316,-41
1604391858.5336,-34
1604391858.5356,-21
1604391858.5376,-9
1604391858.5382,0
1604391858.5396,7
1604391858.5416,12
1604391858.5438,12
1604391858.5456,12
1604391858.5476,4
1604391858.5496,-2
1604391858.5516,-7
1604391858.5536,-12
1604391858.5556,-7
1604391858.5576,2
1604391858.5596,7
1604391858.5616,2
1604391858.5636,-7
1604391858.5656,-12
1604391858.5676,-12
1604391858.5682,-12
1604391858.5696,-12
1604391858.5717,-9
1604391858.5736,-4
1604391858.5756,0
1604391858.5776,0
1604391858.5796,-4
1604391858.5816,-4
1604391858.5837,-2
1604391858.5856,-12
1604391858.5876,-19
1604391858.5896,-21
1604391858.5917,-26
1604391858.5937,-26
1604391858.5957,-12
1604391858.5976,0
1604391858.5982,-7
1604391858.5996,-14
1604391858.6016,-9
1604391858.6036,-17
1604391858.6056,-29
1604391858.6076,-36
1604391859.0439,-34
1604391859.0448,-21
1604391859.0472,-14
1604391859.0498,-21
1604391859.0518,-21
1604391859.0538,-7
1604391859.0560,-48
1604391859.0578,-189
1604391859.0598,-304
1604391859.0618,-70
1604391859.0625,683
1604391859.0638,1581
1604391859.0658,1705
1604391859.0678,586
1604391859.0698,-518
1604391859.0718,-399
1604391859.0739,-12
1604391859.0758,-150
1604391859.0778,-216
1604391859.0798,-97
1604391859.0818,-114
1604391859.0837,-153
1604391859.0857,-107
1604391859.0877,-90
1604391859.0897,-104
1604391859.0918,-80
1604391859.0924,-51
1604391859.0937,-51
1604391859.0958,-46
1604391859.0977,-26
1604391859.0997,-17
1604391859.1017,-12
1604391859.1037,2
1604391859.1057,12
1604391859.1077,14
1604391859.1097,24
1604391859.1117,31
1604391859.1138,29
1604391859.1157,21
1604391859.1177,19
1604391859.1198,12
1604391859.1219,9
1604391859.1225,19
1604391859.1237,26
1604391859.1259,17
1604391859.1277,0
1604391859.1298,-4
1604391859.1317,-7
1604391859.1337,-7
1604391859.1357,0
1604391859.1377,7
1604391859.1398,14
1604391859.1417,17
1604391859.1438,7
1604391859.1458,4
1604391859.1477,9
1604391859.1497,7
1604391859.1517,0
1604391859.1524,-9
1604391859.1537,-26
1604391859.1557,-29
1604391859.1577,-17
1604391859.1597,-12
1604391859.1618,-12
1604391859.1637,0
1604391859.1657,4
1604391859.1677,-4
1604391859.1698,-9
1604391859.1717,-2
1604391859.1738,-7
1604391859.1757,-24
1604391859.1777,-26
1604391859.1797,-14
1604391859.5841,-14
1604391859.5847,-24
1604391859.5871,-17
1604391859.5898,-2
1604391859.5917,-4
1604391859.5938,-58
1604391859.5957,-194
1604391859.5977,-265
1604391859.5997,90
1604391859.6017,934
1604391859.6038,1715
1604391859.6057,1506
1604391859.6077,236
1604391859.6097,-569
1604391859.6103,-255
1604391859.6117,-12
1604391859.6137,-187
1604391859.6157,-177
1604391859.6177,-82
1604391859.6199,-124
1604391859.6218,-136
1604391859.6238,-87
1604391859.6257,-72
1604391859.6277,-82
1604391859.6297,-75
1604391859.6317,-43
1604391859.6337,-17
1604391859.6357,-19
1604391859.6377,-19
1604391859.6397,2
1604391859.6403,17
1604391859.6417,21
1604391859.6437,38
1604391859.6457,51
1604391859.6477,48
1604391859.6497,43
1604391859.6517,41
1604391859.6537,38
1604391859.6557,41
1604391859.6577,38
1604391859.6597,36
1604391859.6617,46
1604391859.6637,36
1604391859.6657,12
1604391859.6677,2
1604391859.6697,0
1604391859.6703,-4
1604391859.6717,-2
1604391859.6737,2
1604391859.6757,4
1604391859.6777,12
1604391859.6797,9
1604391859.6817,4
1604391859.6837,14
1604391859.6857,12
1604391859.6877,-2
1604391859.6897,-4
1604391859.6917,0
1604391859.6937,-2
1604391859.6957,-17
1604391859.6977,-26
1604391859.6997,-29
1604391859.7003,-24
1604391859.7017,-4
1604391859.7037,14
1604391859.7057,7
1604391859.7077,0
1604391859.7097,9
1604391859.7117,2
1604391859.7137,-14
1604391859.7158,-19
1604391859.7177,-14
1604391859.7197,-9
1604391860.1542,-17
1604391860.1550,-17
1604391860.1574,9
1604391860.1600,19
1604391860.1621,-14
1604391860.1627,-104
1604391860.1640,-233
1604391860.1661,-163
1604391860.1681,389
1604391860.1701,1265
1604391860.1720,1710
1604391860.1740,985
1604391860.1760,-245
1604391860.1780,-501
1604391860.1800,-68
1604391860.1820,-43
1604391860.1840,-175
1604391860.1860,-90
1604391860.1880,-51
1604391860.1900,-90
1604391860.1920,-65
1604391860.1926,-34
1604391860.1940,-38
1604391860.1960,-29
1604391860.1980,-12
1604391860.2000,-9
1604391860.2020,7
1604391860.2040,26
1604391860.2060,31
1604391860.2080,36
1604391860.2100,53
1604391860.2120,77
1604391860.2140,87
1604391860.2159,85
1604391860.2179,90
1604391860.2200,97
1604391860.2219,97
1604391860.2226,97
1604391860.2240,107
1604391860.2260,114
1604391860.2279,109
1604391860.2299,94
1604391860.2319,75
1604391860.2339,55
1604391860.2359,43
1604391860.2380,38
1604391860.2399,31
1604391860.2419,29
1604391860.2441,41
1604391860.2460,43
1604391860.2480,43
1604391860.2499,55
1604391860.2519,55
1604391860.2526,48
1604391860.2539,55
1604391860.2559,58
1604391860.2579,46
1604391860.2599,41
1604391860.2620,36
1604391860.2639,31
1604391860.2659,34
1604391860.2679,34
1604391860.2699,29
1604391860.2719,46
1604391860.2740,72
1604391860.2759,68
1604391860.2779,51
1604391860.2799,51
1604391860.2820,51
1604391860.2826,41
1604391860.2839,36
1604391860.2860,38
1604391860.2879,38
1604391860.7540,38
1604391860.7549,41
1604391860.7573,43
1604391860.7600,51
1604391860.7620,34
1604391860.7639,-82
1604391860.7660,-197
1604391860.7680,24
1604391860.7700,744
1604391860.7706,1562
1604391860.7719,1601
1604391860.7739,537
1604391860.7758,-420
1604391860.7780,-301
1604391860.7799,26
1604391860.7819,-70
1604391860.7839,-111
1604391860.7859,-24
1604391860.7879,-36
1604391860.7899,-55
1604391860.7919,-26
1604391860.7939,-14
1604391860.7959,-9
1604391860.7979,4
1604391860.7999,17
1604391860.8005,21
1604391860.8021,29
1604391860.8039,43
1604391860.8058,58
1604391860.8079,65
1604391860.8099,77
1604391860.8119,97
1604391860.8139,111
1604391860.8158,119
1604391860.8179,126
1604391860.8198,128
1604391860.8218,128
1604391860.8239,128
1604391860.8258,131
1604391860.8279,131
1604391860.8298,116
1604391860.8304,90
1604391860.8318,58
1604391860.8339,34
1604391860.8358,19
1604391860.8378,12
1604391860.8398,9
1604391860.8418,9
1604391860.8440,14
1604391860.8458,19
1604391860.8478,21
1604391860.8498,21
1604391860.8518,21
1604391860.8539,24
1604391860.8558,19
1604391860.8578,19
1604391860.8599,19
1604391860.8604,14
1604391860.8621,0
1604391860.8639,-9
1604391860.8658,-4
1604391860.8678,-7
1604391860.8698,-19
1604391860.8718,-4
1604391860.8739,31
1604391860.8758,26
1604391860.8779,12
1604391860.8798,29
1604391860.8818,24
1604391860.8839,0
1604391860.8858,-4
1604391860.8878,-4
1604391860.8898,-2
1604391861.3243,2
1604391861.3251,-4
1604391861.3276,-14
1604391861.3302,-7
1604391861.3324,-2
1604391861.3342,-82
1604391861.3363,-211
1604391861.3382,-107
1604391861.3402,469
1604391861.3422,1313
1604391861.3441,1664
1604391861.3461,866
1604391861.3481,-287
1604391861.3501,-459
1604391861.3522,-85
1604391861.3527,-99
1604391861.3541,-197
1604391861.3562,-111
1604391861.3582,-97
1604391861.3601,-133
1604391861.3621,-107
1604391861.3641,-82
1604391861.3661,-77
1604391861.3681,-55
1604391861.3701,-38
1604391861.3721,-41
1604391861.3741,-29
1604391861.3761,-9
1604391861.3781,7
1604391861.3801,19
1604391861.3821,26
1604391861.3827,43
1604391861.3841,63
1604391861.3861,68
1604391861.3881,77
1604391861.3901,87
1604391861.3921,82
1604391861.3941,72
1604391861.3961,70
1604391861.3981,77
1604391861.4001,80
1604391861.4021,65
1604391861.4041,29
1604391861.4061,-7
1604391861.4081,-24
1604391861.4101,-31
1604391861.4121,-36
1604391861.4127,-34
1604391861.4141,-26
1604391861.4161,-24
1604391861.4182,-24
1604391861.4201,-19
1604391861.4221,-19
1604391861.4241,-19
1604391861.4261,-14
1604391861.4282,-17
1604391861.4302,-24
1604391861.4321,-29
1604391861.4341,-34
1604391861.4361,-41
1604391861.4383,-46
1604391861.4401,-51
1604391861.4407,-51
1604391861.4421,-43
1604391861.4442,-24
1604391861.4461,-21
1604391861.4481,-36
1604391861.4500,-41
1604391861.4521,-41
1604391861.4541,-53
1604391861.4561,-63
1604391861.4581,-60
1604391861.4601,-55
1604391861.8344,-63
1604391861.8353,-68
1604391861.8377,-63
1604391861.8389,-55
1604391861.8404,-58
1604391861.8424,-119
1604391861.8443,-253
1604391861.8463,-255
1604391861.8483,180
1604391861.8503,1000
1604391861.8524,1581
1604391861.8543,1109
1604391861.8563,-97
1604391861.8583,-596
1604391861.8603,-262
1604391861.8623,-141
1604391861.8642,-260
1604391861.8663,-218
1604391861.8683,-163
1604391861.8689,-180
1604391861.8703,-165
1604391861.8724,-133
1604391861.8743,-126
1604391861.8763,-116
1604391861.8783,-102
1604391861.8803,-87
1604391861.8823,-72
1604391861.8843,-55
1604391861.8849,-34
1604391861.8862,-14
1604391861.8882,-2
1604391861.8902,7
1604391861.8923,29
1604391861.8944,48
1604391861.8950,55
1604391861.8962,63
1604391861.8982,63
1604391861.9002,58
1604391861.9023,58
1604391861.9043,65
1604391861.9062,60
1604391861.9082,51
1604391861.9102,29
1604391861.9123,-9
1604391861.9142,-38
1604391861.9162,-48
1604391861.9182,-55
1604391861.9202,-58
1604391861.9223,-51
1604391861.9242,-43
1604391861.9248,-38
1604391861.9262,-34
1604391861.9282,-29
1604391861.9302,-26
1604391861.9323,-21
1604391861.9342,-17
1604391861.9362,-21
1604391861.9382,-24
1604391861.9402,-26
1604391861.9423,-34
1604391861.9442,-41
1604391861.9463,-41
1604391861.9482,-29
1604391861.9502,-12
1604391861.9523,-7
1604391861.9542,-12
1604391861.9548,-17
1604391861.9562,-26
1604391861.9582,-43
1604391861.9602,-48
1604391861.9623,-38
1604391861.9642,-38
1604391861.9662,-48
1604391862.4042,-55
1604391862.4050,-51
1604391862.4075,-43
1604391862.4101,-48
1604391862.4121,-94
1604391862.4141,-218
1604391862.4162,-301
1604391862.4168,-4
1604391862.4181,793
1604391862.4201,1559
1604391862.4221,1340
1604391862.4242,141
1604391862.4261,-608
1604391862.4280,-369
1604391862.4300,-136
1604391862.4320,-194
1604391862.4340,-165
1604391862.4360,-114
1604391862.4380,-136
1604391862.4401,-128
1604391862.4420,-99
1604391862.4440,-94
1604391862.4460,-90
1604391862.4466,-65
1604391862.4480,-53
1604391862.4500,-51
1604391862.4520,-29
1604391862.4540,-2
1604391862.4560,2
1604391862.4580,7
1604391862.4600,31
1604391862.4620,51
1604391862.4640,65
1604391862.4660,75
1604391862.4680,77
1604391862.4700,87
1604391862.4720,97
1604391862.4740,87
1604391862.4761,85
1604391862.4766,85
1604391862.4780,70
1604391862.4800,34
1604391862.4820,-17
1604391862.4840,-65
1604391862.4860,-99
1604391862.4880,-111
1604391862.4900,-109
1604391862.4920,-104
1604391862.4941,-102
1604391862.4960,-85
1604391862.4980,-70
1604391862.5000,-70
1604391862.5020,-60
1604391862.5040,-48
1604391862.5060,-51
1604391862.5066,-51
1604391862.5080,-46
1604391862.5100,-48
1604391862.5120,-55
1604391862.5140,-68
1604391862.5160,-72
1604391862.5180,-68
1604391862.5201,-60
1604391862.5220,-51
1604391862.5240,-48
1604391862.5260,-60
1604391862.5280,-65
1604391862.5300,-63
1604391862.5320,-65
1604391862.5340,-72
1604391862.5360,-70
1604391862.5366,-70
1604391862.5380,-70
1604391862.9442,-63
1604391862.9451,-63
1604391862.9475,-60
1604391862.9501,-58
1604391862.9521,-70
1604391862.9541,-158
1604391862.9561,-291
1604391862.9581,-199
1604391862.9601,396
1604391862.9621,1309
1604391862.9641,1751
1604391862.9661,987
1604391862.9681,-267
1604391862.9687,-530
1604391862.9701,-131
1604391862.9721,-138
1604391862.9741,-262
1604391862.9760,-170
1604391862.9781,-138
1604391862.9800,-184
1604391862.9821,-153
1604391862.9840,-109
1604391862.9860,-116
1604391862.9880,-116
1604391862.9900,-94
1604391862.9920,-82
1604391862.9941,-75
1604391862.9960,-55
1604391862.9981,-36
1604391862.9987,-26
1604391863.0001,-24
1604391863.0020,-19
1604391863.0040,2
1604391863.0060,26
1604391863.0080,31
1604391863.0100,29
1604391863.0120,36
1604391863.0140,38
1604391863.0160,24
1604391863.0180,19
1604391863.0202,24
1604391863.0221,17
1604391863.0240,-2
1604391863.0260,-26
1604391863.0280,-46
1604391863.0286,-55
1604391863.0300,-58
1604391863.0320,-58
1604391863.0341,-55
1604391863.0360,-53
1604391863.0380,-51
1604391863.0400,-36
1604391863.0420,-21
1604391863.0440,-31
1604391863.0460,-38
1604391863.0480,-34
1604391863.0500,-29
1604391863.0520,-34
1604391863.0540,-43
1604391863.0560,-53
1604391863.0580,-53
1604391863.0586,-46
1604391863.0600,-46
1604391863.0620,-43
1604391863.0641,-29
1604391863.0660,-14
1604391863.0680,-12
1604391863.0700,-14
1604391863.0721,-14
1604391863.0740,-17
1604391863.0760,-31
1604391863.0780,-34
1604391863.0801,-21
1604391863.5139,-26
1604391863.5147,-31
1604391863.5164,-21
1604391863.5187,-19
1604391863.5208,-29
1604391863.5228,-41
1604391863.5248,-111
1604391863.5268,-260
1604391863.5288,-233
1604391863.5308,289
1604391863.5328,1202
1604391863.5348,1817
1604391863.5367,1275
1604391863.5387,-41
1604391863.5407,-532
1604391863.5427,-155
1604391863.5447,-82
1604391863.5467,-240
1604391863.5475,-170
1604391863.5487,-109
1604391863.5508,-153
1604391863.5527,-136
1604391863.5547,-97
1604391863.5567,-102
1604391863.5587,-99
1604391863.5607,-75
1604391863.5627,-63
1604391863.5647,-58
1604391863.5667,-43
1604391863.5687,-34
1604391863.5707,-26
1604391863.5727,2
1604391863.5747,19
1604391863.5767,24
1604391863.5773,41
1604391863.5787,53
1604391863.5807,58
1604391863.5827,63
1604391863.5847,55
1604391863.5867,41
1604391863.5887,38
1604391863.5907,46
1604391863.5927,46
1604391863.5947,17
1604391863.5967,-14
1604391863.5987,-34
1604391863.6007,-53
1604391863.6027,-65
1604391863.6047,-63
1604391863.6067,-58
1604391863.6073,-53
1604391863.6087,-51
1604391863.6107,-51
1604391863.6127,-43
1604391863.6146,-41
1604391863.6166,-41
1604391863.6187,-46
1604391863.6207,-43
1604391863.6227,-41
1604391863.6247,-46
1604391863.6267,-46
1604391863.6287,-46
1604391863.6307,-53
1604391863.6327,-55
1604391863.6347,-55
1604391863.6366,-58
1604391863.6373,-51
1604391863.6387,-29
1604391863.6407,-17
1604391863.6428,-34
1604391863.6447,-43
1604391863.6466,-48
1604391863.6487,-51
1604391864.1444,-21
1604391864.1456,-4
1604391864.1480,-26
1604391864.1496,-26
1604391864.1516,-14
1604391864.1536,-24
1604391864.1556,-34
1604391864.1576,-31
1604391864.1597,-24
1604391864.1602,-90
1604391864.1616,-233
1604391864.1638,-184
1604391864.1656,360
1604391864.1676,1272
1604391864.1697,1778
1604391864.1716,1126
1604391864.1736,-77
1604391864.1756,-437
1604391864.1776,-92
1604391864.1795,-34
1604391864.1816,-165
1604391864.1836,-119
1604391864.1855,-65
1604391864.1876,-92
1604391864.1896,-77
1604391864.1902,-43
1604391864.1915,-60
1604391864.1936,-70
1604391864.1955,-43
1604391864.1975,-41
1604391864.1996,-43
1604391864.2015,-14
1604391864.2036,-7
1604391864.2055,-14
1604391864.2075,2
1604391864.2095,21
1604391864.2115,24
1604391864.2136,29
1604391864.2155,34
1604391864.2175,55
1604391864.2195,68
1604391864.2201,43
1604391864.2215,34
1604391864.2236,41
1604391864.2256,29
1604391864.2275,-2
1604391864.2295,-21
1604391864.2317,-43
1604391864.2336,-80
1604391864.2355,-104
1604391864.2375,-97
1604391864.2395,-99
1604391864.2415,-104
1604391864.2435,-90
1604391864.2455,-82
1604391864.2475,-80
1604391864.2495,-72
1604391864.2502,-75
1604391864.2515,-75
1604391864.2535,-63
1604391864.2555,-63
1604391864.2575,-75
1604391864.2595,-87
1604391864.2615,-85
1604391864.2637,-72
1604391864.2655,-72
1604391864.2675,-77
1604391864.2695,-85
1604391864.2715,-92
1604391864.2736,-94
1604391864.2756,-82
1604391864.2775,-60
1604391864.2795,-55
1604391864.6541,-60
1604391864.6547,-58
1604391864.6571,-65
1604391864.6597,-70
1604391864.6617,-63
1604391864.6638,-60
1604391864.6657,-65
1604391864.6677,-65
1604391864.6697,-58
1604391864.6717,-75
1604391864.6737,-94
1604391864.6756,-72
1604391864.6777,-70
1604391864.6783,-148
1604391864.6797,-277
1604391864.6817,-245
1604391864.6837,253
1604391864.6857,1133
1604391864.6877,1642
1604391864.6897,1034
1604391864.6917,-119
1604391864.6937,-491
1604391864.6956,-216
1604391864.6976,-150
1604391864.6997,-214
1604391864.7018,-170
1604391864.7037,-148
1604391864.7056,-180
1604391864.7077,-177
1604391864.7082,-150
1604391864.7097,-143
1604391864.7116,-128
1604391864.7137,-111
1604391864.7157,-104
1604391864.7176,-90
1604391864.7196,-82
1604391864.7216,-80
1604391864.7237,-58
1604391864.7256,-31
1604391864.7277,-14
1604391864.7297,7
1604391864.7316,24
1604391864.7337,31
1604391864.7356,46
1604391864.7377,58
1604391864.7382,58
1604391864.7396,53
1604391864.7416,41
1604391864.7437,43
1604391864.7456,53
1604391864.7476,14
1604391864.7496,-43
1604391864.7517,-72
1604391864.7536,-97
1604391864.7556,-107
1604391864.7576,-85
1604391864.7597,-80
1604391864.7616,-90
1604391864.7636,-75
1604391864.7656,-60
1604391864.7676,-58
1604391864.7683,-65
1604391864.7696,-63
1604391864.7716,-55
1604391864.7737,-48
1604391864.7757,-34
1604391864.7776,-41
1604391864.7796,-51
1604391864.7816,-43
1604391864.7837,-58
1604391864.7856,-72
1604391864.7876,-68
1604391864.7896,-72
1604391865.2543,-75
1604391865.2551,-53
1604391865.2576,-34
1604391865.2605,-29
1604391865.2611,-31
1604391865.2622,-36
1604391865.2642,-34
1604391865.2663,-43
1604391865.2682,-70
1604391865.2702,-75
1604391865.2722,-51
1604391865.2741,-48
1604391865.2761,-70
1604391865.2781,-70
1604391865.2801,-51
1604391865.2821,-41
1604391865.2842,-48
1604391865.2861,-126
1604391865.2882,-260
1604391865.2901,-197
1604391865.2907,340
1604391865.2921,1185
1604391865.2941,1591
1604391865.2961,934
1604391865.2981,-121
1604391865.3001,-413
1604391865.3021,-163
1604391865.3041,-121
1604391865.3061,-187
1604391865.3081,-150
1604391865.3101,-124
1604391865.3122,-143
1604391865.3141,-163
1604391865.3161,-133
1604391865.3181,-75
1604391865.3201,-68
1604391865.3207,-87
1604391865.3221,-65
1604391865.3241,-34
1604391865.3262,-17
1604391865.3281,0
1604391865.3301,24
1604391865.3321,46
1604391865.3341,58
1604391865.3361,77
1604391865.3381,102
1604391865.3401,107
1604391865.3421,116
1604391865.3441,136
1604391865.3461,128
1604391865.3481,114
1604391865.3487,121
1604391865.3501,124
1604391865.3521,72
1604391865.3542,36
1604391865.3561,48
1604391865.3581,7
1604391865.3601,-46
1604391865.3621,-31
1604391865.3641,-24
1604391865.3661,-31
1604391865.3681,-14
1604391865.3701,12
1604391865.3721,21
1604391865.3741,9
1604391865.3761,7
1604391865.3781,21
1604391865.3787,24
1604391865.3801,26
1604391865.3821,34
1604391865.3841,21
1604391865.3861,12
1604391865.3881,24
1604391865.7640,29
1604391865.7647,12
1604391865.7671,9
1604391865.7697,14
1604391865.7717,7
1604391865.7737,-9
1604391865.7757,-9
1604391865.7777,34
1604391865.7783,46
1604391865.7797,26
1604391865.7817,48
1604391865.7837,48
1604391865.7856,12
1604391865.7876,17
1604391865.7896,34
1604391865.7916,-12
1604391865.7937,-46
1604391865.7956,12
1604391865.7977,58
1604391865.7997,17
1604391865.8016,2
1604391865.8037,24
1604391865.8056,9
1604391865.8076,-68
1604391865.8083,-189
1604391865.8096,-158
1604391865.8116,289
1604391865.8137,1087
1604391865.8156,1593
1604391865.8176,1102
1604391865.8196,53
1604391865.8216,-352
1604391865.8238,-138
1604391865.8257,-72
1604391865.8276,-136
1604391865.8296,-104
1604391865.8316,-85
1604391865.8337,-92
1604391865.8356,-68
1604391865.8377,-58
1604391865.8382,-63
1604391865.8396,-53
1604391865.8417,-41
1604391865.8436,-31
1604391865.8456,-17
1604391865.8477,-2
1604391865.8497,12
1604391865.8516,29
1604391865.8537,41
1604391865.8556,53
1604391865.8576,72
1604391865.8596,97
1604391865.8616,116
1604391865.8636,124
1604391865.8656,124
1604391865.8676,124
1604391865.8682,124
1604391865.8696,124
1604391865.8716,124
1604391865.8737,111
1604391865.8757,82
1604391865.8776,48
1604391865.8796,12
1604391865.8816,-12
1604391865.8836,-21
1604391865.8857,-29
1604391865.8876,-29
1604391865.8896,-19
1604391865.8916,-12
1604391865.8937,-9
1604391865.8956,-4
1604391865.8976,4
1604391865.8982,12
1604391866.3636,12
1604391866.3645,14
1604391866.3669,31
1604391866.3695,31
1604391866.3715,24
1604391866.3736,19
1604391866.3755,-19
1604391866.3775,-38
1604391866.3795,19
1604391866.3815,36
1604391866.3837,-34
1604391866.3855,-53
1604391866.3875,36
1604391866.3895,58
1604391866.3978,-2
1604391866.3995,31
1604391866.4015,77
1604391866.4035,53
1604391866.4055,9
1604391866.4075,-21
1604391866.4095,17
1604391866.4115,31
1604391866.4135,4
1604391866.4154,17
1604391866.4174,4
1604391866.4194,-9
1604391866.4214,19
1604391866.4235,21
1604391866.4254,-12
1604391866.4260,-116
1604391866.4274,-265
1604391866.4294,-180
1604391866.4315,377
1604391866.4335,1172
1604391866.4355,1530
1604391866.4375,902
1604391866.4394,-131
1604391866.4415,-440
1604391866.4435,-187
1604391866.4456,-138
1604391866.4475,-216
1604391866.4495,-182
1604391866.4515,-121
1604391866.4535,-119
1604391866.4554,-128
1604391866.4560,-114
1604391866.4574,-114
1604391866.4594,-116
1604391866.4614,-94
1604391866.4634,-87
1604391866.4654,-77
1604391866.4674,-41
1604391866.4694,-29
1604391866.4714,-31
1604391866.4735,-2
1604391866.4754,26
1604391866.4774,26
1604391866.4794,19
1604391866.4814,51
1604391866.4835,121
1604391866.4855,138
1604391866.4863,102
1604391866.4875,90
1604391866.4894,99
1604391866.4914,102
1604391866.4935,70
1604391866.4955,4
1604391866.4974,-41
1604391866.4994,-48
1604391866.5015,-75
1604391866.5035,-111
1604391866.5054,-102
1604391866.5074,-109
1604391866.8736,-163
1604391866.8743,-124
1604391866.8759,-19
1604391866.8783,-36
1604391866.8803,-82
1604391866.8823,-58
1604391866.8843,-43
1604391866.8863,-53
1604391866.8883,-68
1604391866.8903,-72
1604391866.8923,-82
1604391866.8943,-90
1604391866.8963,-90
1604391866.8983,-92
1604391866.9003,-97
1604391866.9023,-126
1604391866.9043,-131
1604391866.9063,-75
1604391866.9069,-72
1604391866.9083,-119
1604391866.9103,-104
1604391866.9123,-58
1604391866.9143,-58
1604391866.9163,-75
1604391866.9183,-72
1604391866.9203,-63
1604391866.9223,-87
1604391866.9245,-119
1604391866.9263,-94
1604391866.9282,-70
1604391866.9303,-85
1604391866.9323,-97
1604391866.9343,-109
1604391866.9362,-109
1604391866.9369,-80
1604391866.9383,-116
1604391866.9402,-240
1604391866.9423,-304
1604391866.9443,-51
1604391866.9465,656
1604391866.9483,1438
1604391866.9503,1462
1604391866.9523,513
1604391866.9542,-335
1604391866.9563,-343
1604391866.9583,-141
1604391866.9602,-187
1604391866.9623,-233
1604391866.9643,-192
1604391866.9663,-167
1604391866.9669,-165
1604391866.9682,-158
1604391866.9703,-158
1604391866.9723,-170
1604391866.9743,-143
1604391866.9763,-92
1604391866.9783,-102
1604391866.9802,-131
1604391866.9823,-114
1604391866.9843,-60
1604391866.9863,-24
1604391866.9883,-29
1604391866.9903,-26
1604391866.9924,2
1604391866.9943,21
1604391866.9963,31
1604391866.9969,48
1604391866.9983,60
1604391867.0002,55
1604391867.0023,51
1604391867.0043,46
1604391867.0062,29
1604391867.0082,-7
1604391867.4735,-48
1604391867.4743,-43
1604391867.4768,-41
1604391867.4794,-102
1604391867.4814,-138
1604391867.4835,-107
1604391867.4854,-94
1604391867.4861,-114
1604391867.4884,-104
1604391867.4904,-82
1604391867.4925,-80
1604391867.4944,-77
1604391867.4966,-75
1604391867.4984,-77
1604391867.5004,-72
1604391867.5024,-75
1604391867.5044,-90
1604391867.5066,-85
1604391867.5084,-70
1604391867.5103,-70
1604391867.5124,-82
1604391867.5144,-80
1604391867.5164,-72
1604391867.5169,-77
1604391867.5183,-90
1604391867.5204,-87
1604391867.5224,-75
1604391867.5243,-65
1604391867.5263,-46
1604391867.5283,-41
1604391867.5303,-46
1604391867.5324,-43
1604391867.5343,-43
1604391867.5363,-58
1604391867.5383,-75
1604391867.5403,-68
1604391867.5424,-55
1604391867.5443,-58
1604391867.5463,-63
1604391867.5470,-58
1604391867.5484,-53
1604391867.5504,-48
1604391867.5523,-53
1604391867.5543,-136
1604391867.5563,-267
1604391867.5583,-201
1604391867.5603,321
1604391867.5624,1167
1604391867.5643,1649
1604391867.5663,1087
1604391867.5683,2
1604391867.5703,-372
1604391867.5724,-128
1604391867.5743,-77
1604391867.5763,-163
1604391867.5770,-124
1604391867.5783,-92
1604391867.5803,-102
1604391867.5824,-82
1604391867.5843,-55
1604391867.5863,-51
1604391867.5883,-38
1604391867.5903,-26
1604391867.5923,-17
1604391867.5943,-2
1604391867.5964,17
1604391867.5983,31
1604391867.6003,46
1604391867.6025,63
1604391867.6044,82
1604391867.6063,107
1604391867.6069,128
1604391867.6083,148
1604391868.0137,163
1604391868.0145,172
1604391868.0170,170
1604391868.0196,172
1604391868.0216,175
1604391868.0236,160
1604391868.0256,136
1604391868.0276,104
1604391868.0296,75
1604391868.0316,48
1604391868.0336,12
1604391868.0356,-4
1604391868.0375,2
1604391868.0382,7
1604391868.0396,7
1604391868.0416,14
1604391868.0436,26
1604391868.0455,29
1604391868.0475,31
1604391868.0495,43
1604391868.0516,46
1604391868.0536,36
1604391868.0555,41
1604391868.0575,55
1604391868.0595,55
1604391868.0615,46
1604391868.0635,46
1604391868.0655,51
1604391868.0675,46
1604391868.0682,41
1604391868.0695,41
1604391868.0715,43
1604391868.0735,38
1604391868.0755,34
1604391868.0775,31
1604391868.0795,36
1604391868.0815,51
1604391868.0835,65
1604391868.0855,63
1604391868.0875,48
1604391868.0895,48
1604391868.0915,51
1604391868.0935,34
1604391868.0955,24
1604391868.0975,34
1604391868.0981,38
1604391868.0997,34
1604391868.1016,34
1604391868.1022,36
1604391868.1035,38
1604391868.1055,41
1604391868.1075,36
1604391868.1095,-48
1604391868.1115,-199
1604391868.1135,-165
1604391868.1155,367
1604391868.1175,1277
1604391868.1195,1815
1604391868.1215,1175
1604391868.1235,-75
1604391868.1241,-472
1604391868.1255,-128
1604391868.1275,-48
1604391868.1295,-136
1604391868.1315,-75
1604391868.1335,-41
1604391868.1355,-68
1604391868.1375,-51
1604391868.1395,-24
1604391868.1415,-24
1604391868.1435,-19
1604391868.1455,-4
1604391868.1475,9
1604391868.5840,21
1604391868.5847,38
1604391868.5870,53
1604391868.5897,72
1604391868.5917,92
1604391868.5937,107
1604391868.5957,126
1604391868.5977,143
1604391868.5997,155
1604391868.6017,170
1604391868.6037,175
1604391868.6057,167
1604391868.6077,163
1604391868.6098,158
1604391868.6117,148
1604391868.6137,121
1604391868.6156,82
1604391868.6163,41
1604391868.6176,7
1604391868.6196,-19
1604391868.6216,-34
1604391868.6237,-41
1604391868.6256,-46
1604391868.6277,-48
1604391868.6298,-38
1604391868.6317,-21
1604391868.6336,-14
1604391868.6356,-14
1604391868.6376,-4
1604391868.6396,0
1604391868.6416,-2
1604391868.6436,7
1604391868.6456,12
1604391868.6462,2
1604391868.6476,-7
1604391868.6496,-2
1604391868.6516,0
1604391868.6537,-2
1604391868.6557,-7
1604391868.6576,-17
1604391868.6596,-17
1604391868.6616,-9
1604391868.6636,0
1604391868.6656,7
1604391868.6676,2
1604391868.6697,0
1604391868.6716,2
1604391868.6737,0
1604391868.6756,-14
1604391868.6762,-19
1604391868.6776,-21
1604391868.6797,-26
1604391868.6816,-26
1604391868.6837,-19
1604391868.6856,-21
1604391868.6877,-21
1604391868.6896,-12
1604391868.6916,-19
1604391868.6936,-97
1604391868.6956,-243
1604391868.6977,-233
1604391868.6996,267
1604391868.7017,1187
1604391868.7036,1783
1604391868.7057,1206
1604391868.7062,-77
1604391868.7076,-549
1604391868.7097,-199
1604391868.7118,-90
1604391868.7137,-189
1604391868.7157,-126
1604391868.7177,-77
1604391868.7196,-111
1604391869.1241,-94
1604391869.1247,-60
1604391869.1275,-60
1604391869.1297,-55
1604391869.1316,-36
1604391869.1323,-24
1604391869.1336,-14
1604391869.1358,0
1604391869.1376,12
1604391869.1397,24
1604391869.1417,51
1604391869.1437,75
1604391869.1456,92
1604391869.1476,116
1604391869.1496,141
1604391869.1516,158
1604391869.1537,165
1604391869.1556,160
1604391869.1576,150
1604391869.1597,136
1604391869.1616,111
1604391869.1623,77
1604391869.1636,41
1604391869.1656,-4
1604391869.1676,-46
1604391869.1696,-72
1604391869.1717,-87
1604391869.1737,-92
1604391869.1756,-90
1604391869.1776,-82
1604391869.1796,-75
1604391869.1816,-68
1604391869.1837,-60
1604391869.1856,-48
1604391869.1876,-38
1604391869.1896,-38
1604391869.1916,-36
1604391869.1923,-34
1604391869.1937,-31
1604391869.1956,-34
1604391869.1976,-36
1604391869.1996,-36
1604391869.2016,-38
1604391869.2037,-46
1604391869.2056,-55
1604391869.2077,-63
1604391869.2096,-63
1604391869.2116,-63
1604391869.2137,-55
1604391869.2156,-36
1604391869.2176,-26
1604391869.2196,-36
1604391869.2216,-41
1604391869.2224,-36
1604391869.2237,-43
1604391869.2256,-58
1604391869.2276,-58
1604391869.2296,-51
1604391869.2316,-48
1604391869.2337,-51
1604391869.2356,-51
1604391869.2376,-43
1604391869.2396,-36
1604391869.2417,-34
1604391869.2436,-75
1604391869.2456,-206
1604391869.2476,-311
1604391869.2496,-31
1604391869.2516,802
1604391869.2523,1717
1604391869.2537,1795
1604391869.2557,678
1604391869.2576,-413
1604391869.6937,-377
1604391869.6944,-55
1604391869.6968,-175
1604391869.6994,-236
1604391869.7014,-133
1604391869.7034,-148
1604391869.7054,-177
1604391869.7074,-133
1604391869.7094,-114
1604391869.7100,-121
1604391869.7114,-104
1604391869.7134,-90
1604391869.7154,-85
1604391869.7174,-70
1604391869.7194,-48
1604391869.7214,-34
1604391869.7234,-21
1604391869.7254,-2
1604391869.7274,19
1604391869.7295,41
1604391869.7314,63
1604391869.7334,80
1604391869.7354,87
1604391869.7374,87
1604391869.7394,87
1604391869.7400,80
1604391869.7414,68
1604391869.7433,51
1604391869.7453,29
1604391869.7473,-2
1604391869.7494,-34
1604391869.7515,-58
1604391869.7534,-72
1604391869.7553,-77
1604391869.7573,-77
1604391869.7594,-80
1604391869.7613,-80
1604391869.7633,-75
1604391869.7653,-60
1604391869.7673,-51
1604391869.7693,-48
1604391869.7699,-46
1604391869.7713,-41
1604391869.7734,-36
1604391869.7753,-41
1604391869.7774,-41
1604391869.7793,-36
1604391869.7813,-36
1604391869.7834,-38
1604391869.7854,-38
1604391869.7875,-36
1604391869.7893,-41
1604391869.7913,-48
1604391869.7934,-58
1604391869.7953,-58
1604391869.7974,-51
1604391869.7979,-41
1604391869.7993,-29
1604391869.8013,-19
1604391869.8034,-24
1604391869.8053,-24
1604391869.8073,-17
1604391869.8093,-24
1604391869.8113,-36
1604391869.8134,-36
1604391869.8153,-31
1604391869.8173,-29
1604391869.8193,-26
1604391869.8214,-24
1604391869.8234,-17
1604391869.8254,-9
1604391869.8274,-9
1604391869.8279,-55
1604391870.2340,-189
1604391870.2346,-279
1604391870.2369,21
1604391870.2387,856
1604391870.2406,1737
1604391870.2427,1691
1604391870.2446,496
1604391870.2467,-469
1604391870.2487,-330
1604391870.2508,-53
1604391870.2528,-177
1604391870.2546,-201
1604391870.2566,-102
1604391870.2586,-114
1604391870.2606,-131
1604391870.2613,-92
1604391870.2627,-80
1604391870.2646,-82
1604391870.2666,-65
1604391870.2686,-51
1604391870.2706,-38
