Time,ECG
1604496469.5215,4734
1604496469.5219,5456
1604496469.5235,6121
1604496469.5255,6918
1604496469.5275,7411
1604496469.5295,7799
1604496469.5315,8229
1604496469.5335,8539
1604496469.5355,8769
1604496469.5375,9007
1604496469.5395,9189
1604496469.5416,9309
1604496469.5435,9430
1604496469.5455,9540
1604496469.5475,9619
1604496469.5495,9698
1604496469.5515,9790
1604496469.5535,9886
1604496469.5555,9974
1604496469.5575,10059
1604496469.5595,10143
1604496469.5615,10217
1604496469.5635,10272
1604496469.5655,10327
1604496469.5675,10390
1604496469.5695,10450
1604496469.5715,10500
1604496469.5735,10527
1604496469.5755,10560
1604496469.5775,10601
1604496469.5795,10623
1604496469.5816,10637
1604496469.5836,10671
1604496469.5855,10692
1604496469.5875,10685
1604496469.5895,10680
1604496469.5915,10692
1604496469.5935,10692
1604496469.5955,10680
1604496469.5975,10663
1604496469.5995,10654
1604496469.6015,10639
1604496469.6035,10608
1604496469.6055,10587
1604496469.6075,10594
1604496469.6095,10591
1604496469.6115,10563
1604496469.6135,10524
1604496469.6155,10493
1604496469.6175,10467
1604496469.6201,10433
1604496469.6216,10380
1604496469.6235,10323
1604496469.6255,10282
1604496469.6275,10253
1604496469.6295,10219
1604496469.6315,10169
1604496469.6335,10114
1604496469.6355,10056
1604496469.6375,9965
1604496469.6395,9835
1604496469.6415,9799
1604496469.6435,10087
1604496469.6455,10632
1604496469.6475,10949
1604496469.6495,10443
1604496469.6515,9317
1604496469.6535,8829
1604496469.6555,9223
1604496469.6575,9422
1604496469.6595,9288
1604496469.6615,9309
1604496469.6635,9345
1604496470.0617,9245
1604496470.0621,9182
1604496470.0646,9161
1604496470.0671,9098
1604496470.0692,9036
1604496470.0712,8983
1604496470.0732,8928
1604496470.0752,8873
1604496470.0772,8815
1604496470.0792,8762
1604496470.0812,8736
1604496470.0832,8704
1604496470.0852,8630
1604496470.0872,8570
1604496470.0892,8551
1604496470.0912,8515
1604496470.0932,8455
1604496470.0952,8402
1604496470.0972,8347
1604496470.0992,8268
1604496470.1012,8164
1604496470.1032,8054
1604496470.1052,7953
1604496470.1072,7835
1604496470.1092,7696
1604496470.1112,7581
1604496470.1132,7495
1604496470.1152,7394
1604496470.1173,7298
1604496470.1192,7238
1604496470.1212,7187
1604496470.1231,7115
1604496470.1251,7041
1604496470.1272,6986
1604496470.1292,6938
1604496470.1312,6882
1604496470.1332,6822
1604496470.1352,6762
1604496470.1372,6702
1604496470.1392,6645
1604496470.1412,6582
1604496470.1432,6532
1604496470.1452,6481
1604496470.1472,6419
1604496470.1492,6354
1604496470.1512,6297
1604496470.1532,6239
1604496470.1552,6179
1604496470.1573,6114
1604496470.1592,6045
1604496470.1612,5984
1604496470.1632,5929
1604496470.1652,5869
1604496470.1672,5812
1604496470.1692,5759
1604496470.1712,5711
1604496470.1732,5670
1604496470.1752,5634
1604496470.1772,5574
1604496470.1792,5502
1604496470.1812,5449
1604496470.1832,5406
1604496470.1852,5336
1604496470.1872,5255
1604496470.1892,5204
1604496470.1912,5168
1604496470.1933,5111
1604496470.1952,5058
1604496470.1972,5010
1604496470.1992,4947
1604496470.2012,4863
1604496470.2031,4736
1604496470.2052,4657
1604496470.6016,4883
1604496470.6020,5432
1604496470.6043,5860
1604496470.6069,5528
1604496470.6090,4414
1604496470.6110,3716
1604496470.6131,4035
1604496470.6150,4352
1604496470.6170,4256
1604496470.6190,4254
1604496470.6210,4304
1604496470.6230,4237
1604496470.6249,4189
1604496470.6270,4179
1604496470.6289,4138
1604496470.6310,4098
1604496470.6330,4069
1604496470.6350,4033
1604496470.6369,4004
1604496470.6390,3977
1604496470.6410,3941
1604496470.6429,3915
1604496470.6450,3896
1604496470.6470,3881
1604496470.6489,3869
1604496470.6510,3855
1604496470.6530,3848
1604496470.6550,3836
1604496470.6571,3800
1604496470.6590,3754
1604496470.6609,3706
1604496470.6629,3646
1604496470.6650,3569
1604496470.6670,3481
1604496470.6690,3389
1604496470.6710,3293
1604496470.6730,3207
1604496470.6750,3137
1604496470.6770,3084
1604496470.6790,3046
1604496470.6810,3010
1604496470.6829,2967
1604496470.6850,2924
1604496470.6870,2892
1604496470.6891,2868
1604496470.6910,2844
1604496470.6929,2820
1604496470.6951,2799
1604496470.6970,2772
1604496470.6990,2744
1604496470.7009,2720
1604496470.7030,2696
1604496470.7050,2664
1604496470.7069,2640
1604496470.7090,2623
1604496470.7110,2590
1604496470.7130,2554
1604496470.7151,2532
1604496470.7170,2513
1604496470.7190,2477
1604496470.7209,2443
1604496470.7230,2417
1604496470.7249,2388
1604496470.7270,2357
1604496470.7290,2331
1604496470.7310,2307
1604496470.7330,2283
1604496470.7350,2261
1604496470.7370,2247
1604496470.7390,2247
1604496470.7409,2235
1604496470.7430,2194
1604496470.7450,2163
1604496471.1714,2155
1604496471.1719,2131
1604496471.1737,2083
1604496471.1757,2052
1604496471.1777,2045
1604496471.1797,2023
1604496471.1817,1987
1604496471.1837,1961
1604496471.1857,1949
1604496471.1877,1918
1604496471.1897,1841
1604496471.1916,1735
1604496471.1938,1786
1604496471.1957,2189
1604496471.1977,2777
1604496471.1997,2984
1604496471.2016,2295
1604496471.2037,1241
1604496471.2057,1051
1604496471.2078,1526
1604496471.2097,1668
1604496471.2117,1589
1604496471.2137,1663
1604496471.2157,1718
1604496471.2177,1680
1604496471.2198,1668
1604496471.2217,1670
1604496471.2236,1651
1604496471.2257,1642
1604496471.2277,1637
1604496471.2297,1625
1604496471.2316,1620
1604496471.2337,1620
1604496471.2357,1613
1604496471.2377,1610
1604496471.2399,1622
1604496471.2418,1639
1604496471.2437,1654
1604496471.2457,1663
1604496471.2477,1673
1604496471.2497,1680
1604496471.2518,1670
1604496471.2536,1642
1604496471.2557,1608
1604496471.2577,1577
1604496471.2597,1534
1604496471.2617,1466
1604496471.2637,1385
1604496471.2658,1317
1604496471.2676,1269
1604496471.2697,1224
1604496471.2717,1181
1604496471.2736,1157
1604496471.2757,1152
1604496471.2777,1147
1604496471.2796,1125
1604496471.2817,1106
1604496471.2837,1111
1604496471.2857,1113
1604496471.2877,1113
1604496471.2897,1113
1604496471.2917,1104
1604496471.2937,1097
1604496471.2957,1089
1604496471.2977,1082
1604496471.2997,1080
1604496471.3017,1068
1604496471.3037,1049
1604496471.3057,1034
1604496471.3077,1032
1604496471.3097,1039
1604496471.3117,1034
1604496471.3137,1008
1604496471.7121,989
1604496471.7126,991
1604496471.7150,984
1604496471.7176,965
1604496471.7197,950
1604496471.7216,938
1604496471.7236,936
1604496471.7256,933
1604496471.7276,907
1604496471.7296,888
1604496471.7316,883
1604496471.7336,869
1604496471.7356,861
1604496471.7377,864
1604496471.7397,869
1604496471.7416,890
1604496471.7436,881
1604496471.7456,842
1604496471.7476,837
1604496471.7496,845
1604496471.7516,818
1604496471.7535,794
1604496471.7556,797
1604496471.7576,794
1604496471.7596,780
1604496471.7617,773
1604496471.7636,773
1604496471.7656,751
1604496471.7676,708
1604496471.7696,624
1604496471.7716,578
1604496471.7736,828
1604496471.7756,1416
1604496471.7776,1910
1604496471.7796,1668
1604496471.7816,614
1604496471.7836,-81
1604496471.7856,259
1604496471.7876,645
1604496471.7897,590
1604496471.7916,604
1604496471.7936,701
1604496471.7956,669
1604496471.7976,655
1604496471.7996,698
1604496471.8017,696
1604496471.8035,677
1604496471.8055,696
1604496471.8076,713
1604496471.8096,705
1604496471.8116,708
1604496471.8136,722
1604496471.8156,727
1604496471.8176,734
1604496471.8196,753
1604496471.8216,775
1604496471.8236,799
1604496471.8256,825
1604496471.8276,847
1604496471.8296,852
1604496471.8316,842
1604496471.8336,821
1604496471.8356,799
1604496471.8376,768
1604496471.8397,715
1604496471.8417,657
1604496471.8437,600
1604496471.8456,542
1604496471.8476,501
1604496471.8496,472
1604496471.8516,456
1604496471.8536,446
1604496471.8556,439
1604496472.2812,427
1604496472.2817,424
1604496472.2841,434
1604496472.2867,441
1604496472.2887,432
1604496472.2906,424
1604496472.2927,427
1604496472.2947,429
1604496472.2967,432
1604496472.2988,439
1604496472.3007,441
1604496472.3026,439
1604496472.3047,441
1604496472.3067,446
1604496472.3087,444
1604496472.3108,436
1604496472.3127,432
1604496472.3147,432
1604496472.3167,432
1604496472.3188,420
1604496472.3207,412
1604496472.3227,412
1604496472.3246,412
1604496472.3267,410
1604496472.3287,410
1604496472.3307,410
1604496472.3327,405
1604496472.3347,400
1604496472.3368,403
1604496472.3386,400
1604496472.3408,396
1604496472.3427,396
1604496472.3447,393
1604496472.3467,386
1604496472.3487,386
1604496472.3507,386
1604496472.3527,381
1604496472.3547,376
1604496472.3567,379
1604496472.3587,376
1604496472.3608,374
1604496472.3627,386
1604496472.3648,410
1604496472.3667,415
1604496472.3687,396
1604496472.3707,391
1604496472.3727,398
1604496472.3747,398
1604496472.3767,376
1604496472.3787,360
1604496472.3808,364
1604496472.3826,364
1604496472.3846,357
1604496472.3868,360
1604496472.3887,362
1604496472.3907,343
1604496472.3927,276
1604496472.3947,204
1604496472.3967,338
1604496472.3987,830
1604496472.4008,1399
1604496472.4027,1452
1604496472.4046,600
1604496472.4067,-343
1604496472.4087,-278
1604496472.4107,204
1604496472.4127,254
1604496472.4147,228
1604496472.4167,338
1604496472.4187,352
1604496472.4207,316
1604496472.4228,348
1604496472.4247,367
1604496472.8821,362
1604496472.8825,374
1604496472.8849,384
1604496472.8876,386
1604496472.8895,393
1604496472.8915,400
1604496472.8936,405
1604496472.8955,420
1604496472.8976,432
1604496472.8996,448
1604496472.9016,482
1604496472.9035,511
1604496472.9056,528
1604496472.9075,542
1604496472.9095,549
1604496472.9116,540
1604496472.9136,518
1604496472.9155,492
1604496472.9176,458
1604496472.9197,408
1604496472.9217,348
1604496472.9236,295
1604496472.9255,256
1604496472.9276,223
1604496472.9351,199
1604496472.9366,187
1604496472.9385,182
1604496472.9406,182
1604496472.9426,184
1604496472.9445,182
1604496472.9465,189
1604496472.9486,199
1604496472.9506,204
1604496472.9525,201
1604496472.9545,206
1604496472.9565,216
1604496472.9586,220
1604496472.9606,220
1604496472.9625,218
1604496472.9645,220
1604496472.9665,228
1604496472.9686,230
1604496472.9706,225
1604496472.9725,223
1604496472.9746,220
1604496472.9765,213
1604496472.9785,213
1604496472.9806,218
1604496472.9826,211
1604496472.9846,208
1604496472.9865,213
1604496472.9886,213
1604496472.9905,211
1604496472.9925,211
1604496472.9945,216
1604496472.9965,213
1604496472.9986,206
1604496473.0005,206
1604496473.0027,213
1604496473.0045,211
1604496473.0066,211
1604496473.0086,216
1604496473.0105,218
1604496473.0125,216
1604496473.0145,213
1604496473.0166,220
1604496473.0185,223
1604496473.0205,220
1604496473.0227,220
1604496473.0245,225
1604496473.0265,223
1604496473.0287,218
1604496473.0306,218
1604496473.4217,220
1604496473.4222,228
1604496473.4246,247
1604496473.4271,261
1604496473.4292,247
1604496473.4312,235
1604496473.4332,242
1604496473.4351,244
1604496473.4373,230
1604496473.4392,211
1604496473.4412,201
1604496473.4432,206
1604496473.4452,206
1604496473.4472,206
1604496473.4492,208
1604496473.4512,199
1604496473.4532,151
1604496473.4552,72
1604496473.4573,112
1604496473.4592,484
1604496473.4612,1073
1604496473.4632,1378
1604496473.4652,830
1604496473.4672,-220
1604496473.4692,-523
1604496473.4712,-55
1604496473.4732,148
1604496473.4752,88
1604496473.4772,172
1604496473.4792,237
1604496473.4812,201
1604496473.4832,213
1604496473.4852,247
1604496473.4872,247
1604496473.4892,247
1604496473.4912,261
1604496473.4932,268
1604496473.4952,273
1604496473.4971,285
1604496473.4993,297
1604496473.5012,314
1604496473.5032,333
1604496473.5052,350
1604496473.5072,372
1604496473.5092,398
1604496473.5112,422
1604496473.5132,441
1604496473.5152,451
1604496473.5172,446
1604496473.5194,432
1604496473.5212,405
1604496473.5231,376
1604496473.5252,338
1604496473.5272,280
1604496473.5291,220
1604496473.5312,175
1604496473.5332,139
1604496473.5352,105
1604496473.5371,88
1604496473.5392,88
1604496473.5412,88
1604496473.5432,86
1604496473.5451,88
1604496473.5472,91
1604496473.5492,96
1604496473.5512,103
1604496473.5532,110
1604496473.5552,117
1604496473.5571,122
1604496473.5591,124
1604496473.5613,127
1604496473.5631,132
1604496473.5652,139
1604496473.9921,139
1604496473.9925,136
1604496473.9950,144
1604496473.9975,146
1604496473.9996,141
1604496474.0016,141
1604496474.0035,141
1604496474.0056,132
1604496474.0076,124
1604496474.0095,129
1604496474.0115,132
1604496474.0135,127
1604496474.0157,129
1604496474.0176,134
1604496474.0196,139
1604496474.0216,136
1604496474.0235,136
1604496474.0255,141
1604496474.0263,144
1604496474.0286,144
1604496474.0306,144
1604496474.0325,148
1604496474.0345,148
1604496474.0367,148
1604496474.0386,151
1604496474.0405,153
1604496474.0425,153
1604496474.0447,156
1604496474.0466,156
1604496474.0485,160
1604496474.0505,160
1604496474.0526,156
1604496474.0546,156
1604496474.0566,163
1604496474.0572,163
1604496474.0585,153
1604496474.0605,151
1604496474.0626,151
1604496474.0645,156
1604496474.0665,177
1604496474.0685,206
1604496474.0706,208
1604496474.0725,180
1604496474.0745,172
1604496474.0767,184
1604496474.0786,177
1604496474.0805,153
1604496474.0825,144
1604496474.0845,153
1604496474.0866,156
1604496474.0873,151
1604496474.0885,151
1604496474.0905,151
1604496474.0926,117
1604496474.0946,31
1604496474.0966,21
1604496474.0986,326
1604496474.1006,905
1604496474.1026,1308
1604496474.1046,936
1604496474.1065,-103
1604496474.1086,-612
1604496474.1106,-223
1604496474.1125,72
1604496474.1145,21
1604496474.1165,76
1604496474.1172,156
1604496474.1186,127
1604496474.1206,122
1604496474.1226,153
1604496474.1246,153
1604496474.1266,156
1604496474.1285,172
1604496474.5616,177
1604496474.5621,180
1604496474.5635,194
1604496474.5654,208
1604496474.5674,218
1604496474.5696,232
1604496474.5715,254
1604496474.5722,278
1604496474.5735,300
1604496474.5755,319
1604496474.5775,338
1604496474.5795,355
1604496474.5814,357
1604496474.5834,343
1604496474.5855,326
1604496474.5875,302
1604496474.5894,261
1604496474.5914,208
1604496474.5934,156
1604496474.5955,110
1604496474.5975,69
1604496474.5994,38
1604496474.6014,26
1604496474.6021,21
1604496474.6035,14
1604496474.6054,9
1604496474.6075,16
1604496474.6095,21
1604496474.6114,21
1604496474.6134,24
1604496474.6156,31
1604496474.6175,40
1604496474.6194,45
1604496474.6215,48
1604496474.6234,55
1604496474.6254,62
1604496474.6274,62
1604496474.6294,64
1604496474.6314,72
1604496474.6321,72
1604496474.6335,69
1604496474.6354,72
1604496474.6375,74
1604496474.6394,67
1604496474.6415,64
1604496474.6434,69
1604496474.6455,72
1604496474.6475,67
1604496474.6495,64
1604496474.6515,67
1604496474.6534,69
1604496474.6555,72
1604496474.6575,72
1604496474.6595,69
1604496474.6615,67
1604496474.6621,62
1604496474.6635,62
1604496474.6654,67
1604496474.6676,69
1604496474.6695,64
1604496474.6715,62
1604496474.6734,64
1604496474.6754,64
1604496474.6775,64
1604496474.6795,69
1604496474.6815,67
1604496474.6834,60
1604496474.6855,55
1604496474.6874,62
1604496474.6894,79
1604496474.6901,105
1604496474.6916,117
1604496474.6935,98
1604496475.1016,81
1604496475.1023,93
1604496475.1046,96
1604496475.1073,74
1604496475.1094,57
1604496475.1113,50
1604496475.1135,43
1604496475.1153,40
1604496475.1173,45
1604496475.1193,43
1604496475.1213,12
1604496475.1233,-57
1604496475.1240,-105
1604496475.1263,62
1604496475.1283,556
1604496475.1303,1085
1604496475.1323,1063
1604496475.1343,194
1604496475.1363,-657
1604496475.1383,-530
1604496475.1403,-93
1604496475.1423,-64
1604496475.1443,-62
1604496475.1463,50
1604496475.1483,60
1604496475.1503,36
1604496475.1523,67
1604496475.1543,84
1604496475.1549,76
1604496475.1562,86
1604496475.1583,100
1604496475.1603,108
1604496475.1623,120
1604496475.1643,132
1604496475.1664,146
1604496475.1684,165
1604496475.1702,187
1604496475.1723,208
1604496475.1744,232
1604496475.1763,264
1604496475.1783,290
1604496475.1803,304
1604496475.1823,312
1604496475.1843,309
1604496475.1850,290
1604496475.1863,259
1604496475.1883,223
1604496475.1903,172
1604496475.1923,110
1604496475.1943,55
1604496475.1964,14
1604496475.1983,-12
1604496475.2003,-36
1604496475.2023,-50
1604496475.2043,-52
1604496475.2062,-48
1604496475.2082,-45
1604496475.2103,-40
1604496475.2123,-33
1604496475.2143,-28
1604496475.2150,-24
1604496475.2164,-14
1604496475.2183,-4
1604496475.2202,4
1604496475.2223,9
1604496475.2243,16
1604496475.2263,26
1604496475.2283,33
1604496475.2303,31
1604496475.2323,33
1604496475.2343,45
1604496475.2364,48
1604496475.2383,43
1604496475.6417,45
1604496475.6421,50
1604496475.6445,50
1604496475.6471,50
1604496475.6491,55
1604496475.6512,57
1604496475.6530,52
1604496475.6551,45
1604496475.6571,43
1604496475.6591,48
1604496475.6611,50
1604496475.6631,52
1604496475.6653,55
1604496475.6672,55
1604496475.6691,55
1604496475.6712,57
1604496475.6732,60
1604496475.6751,62
1604496475.6771,67
1604496475.6791,62
1604496475.6811,60
1604496475.6831,69
1604496475.6851,88
1604496475.6871,112
1604496475.6891,120
1604496475.6912,100
1604496475.6932,91
1604496475.6951,100
1604496475.6971,96
1604496475.6991,76
1604496475.7011,67
1604496475.7031,74
1604496475.7051,81
1604496475.7071,81
1604496475.7091,79
1604496475.7110,74
1604496475.7132,45
1604496475.7151,-28
1604496475.7171,-45
1604496475.7191,213
1604496475.7211,761
1604496475.7231,1185
1604496475.7251,900
1604496475.7271,-91
1604496475.7291,-674
1604496475.7311,-331
1604496475.7332,7
1604496475.7351,-26
1604496475.7371,24
1604496475.7391,112
1604496475.7411,88
1604496475.7431,84
1604496475.7451,122
1604496475.7471,129
1604496475.7491,132
1604496475.7511,148
1604496475.7531,160
1604496475.7551,165
1604496475.7571,175
1604496475.7591,192
1604496475.7610,206
1604496475.7631,220
1604496475.7651,240
1604496475.7672,264
1604496475.7692,292
1604496475.7711,321
1604496475.7730,348
1604496475.7752,362
1604496475.7771,362
1604496475.7791,350
1604496475.7812,328
1604496475.7831,300
1604496475.7851,259
1604496476.2419,206
1604496476.2424,148
1604496476.2449,93
1604496476.2474,52
1604496476.2495,21
1604496476.2514,0
1604496476.2535,-4
1604496476.2554,-4
1604496476.2574,-4
1604496476.2594,-2
1604496476.2614,4
1604496476.2634,12
1604496476.2654,19
1604496476.2674,24
1604496476.2694,28
1604496476.2715,38
1604496476.2734,50
1604496476.2754,55
1604496476.2774,55
1604496476.2794,64
1604496476.2814,72
1604496476.2834,72
1604496476.2854,74
1604496476.2874,76
1604496476.2894,76
1604496476.2915,74
1604496476.2934,76
1604496476.2954,81
1604496476.2974,79
1604496476.2994,74
1604496476.3014,79
1604496476.3034,79
1604496476.3054,76
1604496476.3074,76
1604496476.3094,74
1604496476.3114,79
1604496476.3135,81
1604496476.3154,79
1604496476.3174,84
1604496476.3194,86
1604496476.3214,76
1604496476.3236,72
1604496476.3255,72
1604496476.3274,76
1604496476.3294,86
1604496476.3314,105
1604496476.3335,127
1604496476.3354,129
1604496476.3375,108
1604496476.3394,112
1604496476.3415,127
1604496476.3434,108
1604496476.3454,74
1604496476.3474,72
1604496476.3495,88
1604496476.3514,88
1604496476.3535,79
1604496476.3554,81
1604496476.3574,79
1604496476.3595,36
1604496476.3614,-48
1604496476.3634,-21
1604496476.3653,321
1604496476.3674,897
1604496476.3694,1219
1604496476.3714,737
1604496476.3735,-271
1604496476.3755,-621
1604496476.3774,-199
1604496476.3794,28
1604496476.3814,-19
1604496476.3834,52
1604496476.3854,115
1604496476.8115,84
1604496476.8119,96
1604496476.8144,129
1604496476.8170,129
1604496476.8190,132
1604496476.8210,144
1604496476.8230,153
1604496476.8250,165
1604496476.8270,177
1604496476.8290,182
1604496476.8309,192
1604496476.8330,213
1604496476.8350,237
1604496476.8370,254
1604496476.8390,278
1604496476.8410,309
1604496476.8429,336
1604496476.8450,345
1604496476.8470,340
1604496476.8491,328
1604496476.8510,309
1604496476.8530,276
1604496476.8550,228
1604496476.8571,177
1604496476.8590,124
1604496476.8609,79
1604496476.8629,40
1604496476.8650,16
1604496476.8670,2
1604496476.8689,-2
1604496476.8710,-4
1604496476.8730,-2
1604496476.8750,2
1604496476.8770,7
1604496476.8790,14
1604496476.8810,24
1604496476.8829,36
1604496476.8850,40
1604496476.8869,40
1604496476.8889,50
1604496476.8910,57
1604496476.8930,62
1604496476.8949,69
1604496476.8970,74
1604496476.8990,74
1604496476.9009,74
1604496476.9030,79
1604496476.9050,81
1604496476.9070,79
1604496476.9090,79
1604496476.9110,79
1604496476.9129,79
1604496476.9149,81
1604496476.9170,81
1604496476.9190,79
1604496476.9210,84
1604496476.9230,86
1604496476.9250,81
1604496476.9270,84
1604496476.9290,91
1604496476.9310,88
1604496476.9329,88
1604496476.9349,91
1604496476.9369,88
1604496476.9390,84
1604496476.9410,86
1604496476.9430,93
1604496476.9450,103
1604496476.9469,127
1604496476.9490,141
1604496476.9511,127
1604496476.9531,120
1604496476.9550,129
1604496477.3514,120
1604496477.3518,91
1604496477.3542,81
1604496477.3568,91
1604496477.3588,98
1604496477.3608,96
1604496477.3629,100
1604496477.3648,96
1604496477.3668,60
1604496477.3688,-21
1604496477.3708,-55
1604496477.3728,192
1604496477.3749,746
1604496477.3768,1185
1604496477.3788,905
1604496477.3808,-79
1604496477.3828,-660
1604496477.3848,-331
1604496477.3869,-2
1604496477.3888,-38
1604496477.3908,0
1604496477.3928,91
1604496477.3948,72
1604496477.3968,67
1604496477.3989,103
1604496477.4008,110
1604496477.4028,108
1604496477.4048,124
1604496477.4068,136
1604496477.4088,146
1604496477.4108,153
1604496477.4128,165
1604496477.4148,182
1604496477.4168,201
1604496477.4188,220
1604496477.4208,247
1604496477.4228,273
1604496477.4248,300
1604496477.4268,326
1604496477.4288,338
1604496477.4308,336
1604496477.4328,326
1604496477.4348,309
1604496477.4368,278
1604496477.4388,232
1604496477.4408,177
1604496477.4428,124
1604496477.4449,79
1604496477.4471,38
1604496477.4489,7
1604496477.4508,-7
1604496477.4528,-9
1604496477.4548,-9
1604496477.4568,-9
1604496477.4588,-9
1604496477.4608,-4
1604496477.4628,2
1604496477.4648,9
1604496477.4668,16
1604496477.4688,26
1604496477.4709,36
1604496477.4728,40
1604496477.4748,48
1604496477.4768,50
1604496477.4788,50
1604496477.4808,57
1604496477.4828,62
1604496477.4849,57
1604496477.4868,57
1604496477.4889,60
1604496477.4908,62
1604496477.4928,62
1604496477.4948,62
1604496477.9215,57
1604496477.9220,57
1604496477.9244,60
1604496477.9271,67
1604496477.9290,64
1604496477.9310,62
1604496477.9330,64
1604496477.9350,57
1604496477.9370,43
1604496477.9390,48
1604496477.9409,57
1604496477.9430,50
1604496477.9450,40
1604496477.9470,43
1604496477.9490,55
1604496477.9510,79
1604496477.9530,103
1604496477.9550,93
1604496477.9571,74
1604496477.9590,86
1604496477.9610,98
1604496477.9630,76
1604496477.9650,55
1604496477.9671,57
1604496477.9690,62
1604496477.9709,62
1604496477.9731,69
1604496477.9751,72
1604496477.9770,57
1604496477.9790,-2
1604496477.9810,-84
1604496477.9830,36
1604496477.9850,516
1604496477.9870,1082
1604496477.9890,1145
1604496477.9910,348
1604496477.9930,-556
1604496477.9950,-528
1604496477.9970,-84
1604496477.9990,-14
1604496478.0010,-26
1604496478.0030,76
1604496478.0051,93
1604496478.0071,62
1604496478.0090,81
1604496478.0109,105
1604496478.0130,103
1604496478.0150,112
1604496478.0170,129
1604496478.0190,134
1604496478.0209,139
1604496478.0229,153
1604496478.0250,168
1604496478.0271,182
1604496478.0290,201
1604496478.0310,223
1604496478.0330,252
1604496478.0350,283
1604496478.0369,307
1604496478.0390,319
1604496478.0410,324
1604496478.0430,319
1604496478.0450,304
1604496478.0471,276
1604496478.0490,235
1604496478.0511,184
1604496478.0529,122
1604496478.0550,67
1604496478.0570,26
1604496478.0590,0
1604496478.0610,-19
1604496478.0630,-33
1604496478.0650,-40
1604496478.4617,-38
1604496478.4621,-33
1604496478.4646,-31
1604496478.4671,-26
1604496478.4693,-21
1604496478.4712,-21
1604496478.4732,-16
1604496478.4752,-4
1604496478.4771,4
1604496478.4793,2
1604496478.4812,2
1604496478.4832,7
1604496478.4852,12
1604496478.4872,19
1604496478.4892,24
1604496478.4912,24
1604496478.4932,26
1604496478.4952,26
1604496478.4972,24
1604496478.4992,26
1604496478.5012,28
1604496478.5031,26
1604496478.5052,28
1604496478.5071,33
1604496478.5092,33
1604496478.5112,33
1604496478.5132,33
1604496478.5152,36
1604496478.5172,36
1604496478.5192,36
1604496478.5212,40
1604496478.5232,43
1604496478.5252,48
1604496478.5271,50
1604496478.5292,48
1604496478.5311,48
1604496478.5332,50
1604496478.5352,48
1604496478.5371,43
1604496478.5392,45
1604496478.5412,64
1604496478.5431,91
1604496478.5452,108
1604496478.5472,98
1604496478.5492,79
1604496478.5512,81
1604496478.5532,88
1604496478.5551,74
1604496478.5571,55
1604496478.5592,57
1604496478.5612,69
1604496478.5632,69
1604496478.5652,69
1604496478.5671,67
1604496478.5692,45
1604496478.5713,-21
1604496478.5732,-76
1604496478.5752,100
1604496478.5772,612
1604496478.5792,1130
1604496478.5812,1068
1604496478.5833,189
1604496478.5852,-612
1604496478.5871,-460
1604496478.5892,-48
1604496478.5912,-26
1604496478.5932,-21
1604496478.5951,86
1604496478.5971,88
1604496478.5992,57
1604496478.6012,74
1604496478.6031,84
1604496478.6052,79
1604496479.0012,88
1604496479.0017,108
1604496479.0041,120
1604496479.0067,129
1604496479.0087,144
1604496479.0107,153
1604496479.0127,153
1604496479.0147,170
1604496479.0167,204
1604496479.0188,230
1604496479.0207,249
1604496479.0227,278
1604496479.0247,297
1604496479.0267,302
1604496479.0287,300
1604496479.0307,285
1604496479.0327,256
1604496479.0347,211
1604496479.0367,158
1604496479.0387,105
1604496479.0406,60
1604496479.0427,9
1604496479.0447,-26
1604496479.0467,-36
1604496479.0487,-38
1604496479.0507,-50
1604496479.0526,-50
1604496479.0547,-40
1604496479.0567,-33
1604496479.0588,-31
1604496479.0607,-28
1604496479.0627,-16
1604496479.0647,-2
1604496479.0668,2
1604496479.0687,0
1604496479.0707,9
1604496479.0727,28
1604496479.0746,31
1604496479.0767,21
1604496479.0787,31
1604496479.0806,43
1604496479.0827,38
1604496479.0847,40
1604496479.0868,48
1604496479.0887,48
1604496479.0907,45
1604496479.0927,45
1604496479.0947,45
1604496479.0967,40
1604496479.0987,38
1604496479.1007,45
1604496479.1026,50
1604496479.1047,43
1604496479.1067,38
1604496479.1087,43
1604496479.1108,48
1604496479.1127,52
1604496479.1147,57
1604496479.1166,55
1604496479.1187,52
1604496479.1207,57
1604496479.1227,62
1604496479.1247,55
1604496479.1267,50
1604496479.1286,55
1604496479.1307,57
1604496479.1327,50
1604496479.1347,60
1604496479.1367,64
1604496479.1387,48
1604496479.1406,40
1604496479.1426,57
1604496479.1447,72
1604496479.6014,86
1604496479.6018,108
1604496479.6042,108
1604496479.6068,79
1604496479.6089,74
1604496479.6108,88
1604496479.6128,76
1604496479.6147,45
1604496479.6168,43
1604496479.6188,57
1604496479.6208,60
1604496479.6230,62
1604496479.6249,67
1604496479.6268,57
1604496479.6288,14
1604496479.6308,-67
1604496479.6328,-45
1604496479.6348,295
1604496479.6368,866
1604496479.6388,1217
1604496479.6408,782
1604496479.6428,-235
1604496479.6448,-652
1604496479.6468,-247
1604496479.6488,0
1604496479.6508,-52
1604496479.6528,12
1604496479.6548,84
1604496479.6568,57
1604496479.6588,67
1604496479.6608,98
1604496479.6628,91
1604496479.6648,91
1604496479.6668,103
1604496479.6688,112
1604496479.6708,120
1604496479.6728,129
1604496479.6748,144
1604496479.6768,158
1604496479.6788,168
1604496479.6808,192
1604496479.6828,220
1604496479.6848,247
1604496479.6868,273
1604496479.6889,290
1604496479.6908,295
1604496479.6928,302
1604496479.6948,297
1604496479.6968,280
1604496479.6988,249
1604496479.7008,204
1604496479.7028,144
1604496479.7048,88
1604496479.7068,50
1604496479.7090,9
1604496479.7108,-28
1604496479.7128,-43
1604496479.7148,-40
1604496479.7168,-45
1604496479.7188,-45
1604496479.7209,-36
1604496479.7228,-31
1604496479.7250,-36
1604496479.7269,-33
1604496479.7288,-16
1604496479.7307,-9
1604496479.7328,-9
1604496479.7348,0
1604496479.7368,9
1604496479.7388,12
1604496479.7408,19
1604496479.7428,28
1604496479.7449,36
1604496480.1712,33
1604496480.1716,33
1604496480.1740,36
1604496480.1766,33
1604496480.1786,31
1604496480.1806,33
1604496480.1827,38
1604496480.1846,33
1604496480.1866,21
1604496480.1887,14
1604496480.1906,21
1604496480.1926,21
1604496480.1947,21
1604496480.1966,28
1604496480.1987,33
1604496480.2006,36
1604496480.2026,40
1604496480.2045,43
1604496480.2067,43
1604496480.2086,38
1604496480.2106,43
1604496480.2126,45
1604496480.2146,40
1604496480.2167,40
1604496480.2186,50
1604496480.2206,55
1604496480.2226,55
1604496480.2246,57
1604496480.2266,62
1604496480.2286,64
1604496480.2307,52
1604496480.2326,43
1604496480.2346,52
1604496480.2366,69
1604496480.2387,84
1604496480.2406,103
1604496480.2426,108
1604496480.2446,86
1604496480.2466,72
1604496480.2486,84
1604496480.2508,88
1604496480.2527,69
1604496480.2547,52
1604496480.2566,55
1604496480.2586,64
1604496480.2606,64
1604496480.2626,57
1604496480.2646,45
1604496480.2666,14
1604496480.2687,-52
1604496480.2706,-88
1604496480.2726,139
1604496480.2746,693
1604496480.2767,1183
1604496480.2786,996
1604496480.2806,40
1604496480.2826,-652
1604496480.2833,-405
1604496480.2846,-50
1604496480.2866,-67
1604496480.2886,-38
1604496480.2906,60
1604496480.2926,43
1604496480.2946,24
1604496480.2966,62
1604496480.2986,74
1604496480.3006,72
1604496480.3026,84
1604496480.3046,96
1604496480.3066,103
1604496480.3086,120
1604496480.3106,129
1604496480.3126,139
1604496480.7117,156
1604496480.7121,175
1604496480.7145,199
1604496480.7171,230
1604496480.7192,259
1604496480.7212,280
1604496480.7231,295
1604496480.7252,307
1604496480.7272,307
1604496480.7292,285
1604496480.7312,249
1604496480.7331,206
1604496480.7352,153
1604496480.7372,98
1604496480.7379,48
1604496480.7402,9
1604496480.7422,-24
1604496480.7442,-48
1604496480.7464,-52
1604496480.7483,-52
1604496480.7502,-50
1604496480.7522,-48
1604496480.7541,-48
1604496480.7562,-45
1604496480.7582,-40
1604496480.7601,-40
1604496480.7622,-33
1604496480.7642,-24
1604496480.7662,-19
1604496480.7669,-19
1604496480.7682,-12
1604496480.7702,4
1604496480.7721,14
1604496480.7741,7
1604496480.7762,14
1604496480.7782,31
1604496480.7802,31
1604496480.7822,19
1604496480.7841,19
1604496480.7862,26
1604496480.7882,19
1604496480.7902,9
1604496480.7922,12
1604496480.7942,21
1604496480.7962,21
1604496480.7968,19
1604496480.7982,21
1604496480.8002,16
1604496480.8022,16
1604496480.8042,26
1604496480.8061,26
1604496480.8082,26
1604496480.8102,33
1604496480.8121,36
1604496480.8142,36
1604496480.8162,38
1604496480.8181,40
1604496480.8202,40
1604496480.8221,38
1604496480.8241,33
1604496480.8262,28
1604496480.8268,36
1604496480.8282,40
1604496480.8301,36
1604496480.8322,31
1604496480.8342,31
1604496480.8362,40
1604496480.8382,60
1604496480.8402,81
1604496480.8422,91
1604496480.8442,79
1604496480.8461,62
1604496480.8482,57
1604496481.3116,64
1604496481.3120,55
1604496481.3144,38
1604496481.3154,36
1604496481.3170,45
1604496481.3191,43
1604496481.3211,36
1604496481.3231,31
1604496481.3251,4
1604496481.3270,-76
1604496481.3291,-124
1604496481.3311,93
1604496481.3330,628
1604496481.3351,1142
1604496481.3370,1039
1604496481.3391,115
1604496481.3411,-645
1604496481.3431,-441
1604496481.3451,-64
1604496481.3457,-76
1604496481.3472,-55
1604496481.3491,48
1604496481.3511,36
1604496481.3531,19
1604496481.3551,57
1604496481.3571,69
1604496481.3591,67
1604496481.3611,81
1604496481.3631,96
1604496481.3651,103
1604496481.3671,110
1604496481.3691,124
1604496481.3711,136
1604496481.3731,151
1604496481.3751,172
1604496481.3758,199
1604496481.3770,225
1604496481.3791,252
1604496481.3811,283
1604496481.3831,307
1604496481.3850,316
1604496481.3870,309
1604496481.3891,297
1604496481.3910,276
1604496481.3930,237
1604496481.3951,180
1604496481.3970,117
1604496481.3992,64
1604496481.4011,26
1604496481.4030,-4
1604496481.4050,-31
1604496481.4058,-43
1604496481.4071,-40
1604496481.4091,-38
1604496481.4111,-43
1604496481.4130,-45
1604496481.4151,-38
1604496481.4170,-33
1604496481.4190,-24
1604496481.4211,-16
1604496481.4231,-16
1604496481.4251,-12
1604496481.4270,-2
1604496481.4291,9
1604496481.4310,16
1604496481.4331,24
1604496481.4351,31
1604496481.4357,43
1604496481.4370,40
1604496481.4391,28
1604496481.4411,33
1604496481.4430,43
1604496481.4452,40
1604496481.8217,36
1604496481.8221,40
1604496481.8234,43
1604496481.8254,40
1604496481.8274,40
1604496481.8295,38
1604496481.8302,33
1604496481.8315,40
1604496481.8335,52
1604496481.8355,50
1604496481.8375,33
1604496481.8395,31
1604496481.8414,36
1604496481.8434,31
1604496481.8454,31
1604496481.8475,38
1604496481.8494,36
1604496481.8514,36
1604496481.8535,36
1604496481.8555,36
1604496481.8574,40
1604496481.8594,43
1604496481.8601,45
1604496481.8614,43
1604496481.8634,33
1604496481.8656,31
1604496481.8675,38
1604496481.8695,50
1604496481.8715,72
1604496481.8735,88
1604496481.8754,74
1604496481.8774,55
1604496481.8795,62
1604496481.8814,69
1604496481.8835,52
1604496481.8855,40
1604496481.8875,40
1604496481.8894,48
1604496481.8901,45
1604496481.8914,43
1604496481.8934,48
1604496481.8955,26
1604496481.8975,-48
1604496481.8994,-108
1604496481.9014,57
1604496481.9035,571
1604496481.9054,1152
1604496481.9074,1200
1604496481.9094,355
1604496481.9115,-573
1604496481.9134,-535
1604496481.9154,-100
1604496481.9174,-60
1604496481.9194,-67
1604496481.9214,50
1604496481.9234,67
1604496481.9254,43
1604496481.9274,74
1604496481.9294,84
1604496481.9314,76
1604496481.9334,100
1604496481.9355,122
1604496481.9374,122
1604496481.9394,124
1604496481.9415,141
1604496481.9434,158
1604496481.9454,172
1604496481.9474,189
1604496481.9494,211
1604496481.9514,244
1604496481.9534,278
1604496481.9555,307
1604496481.9574,333
1604496482.3917,348
1604496482.3922,345
1604496482.3946,333
1604496482.3974,312
1604496482.3993,266
1604496482.4012,199
1604496482.4032,132
1604496482.4052,84
1604496482.4072,38
1604496482.4092,-9
1604496482.4112,-36
1604496482.4131,-43
1604496482.4151,-50
1604496482.4172,-55
1604496482.4192,-50
1604496482.4212,-43
1604496482.4232,-45
1604496482.4252,-45
1604496482.4272,-43
1604496482.4292,-31
1604496482.4312,-21
1604496482.4332,-14
1604496482.4352,-12
1604496482.4372,0
1604496482.4392,14
1604496482.4412,24
1604496482.4432,26
1604496482.4452,28
1604496482.4472,31
1604496482.4492,36
1604496482.4512,40
1604496482.4532,45
1604496482.4552,36
1604496482.4572,26
1604496482.4592,28
1604496482.4612,24
1604496482.4632,24
1604496482.4652,31
1604496482.4672,33
1604496482.4692,26
1604496482.4711,31
1604496482.4731,33
1604496482.4752,33
1604496482.4773,40
1604496482.4792,48
1604496482.4812,40
1604496482.4832,38
1604496482.4852,43
1604496482.4872,45
1604496482.4892,45
1604496482.4912,43
1604496482.4932,40
1604496482.4952,38
1604496482.4972,36
1604496482.4993,40
1604496482.5012,60
1604496482.5032,84
1604496482.5052,93
1604496482.5072,86
1604496482.5092,74
1604496482.5112,72
1604496482.5132,76
1604496482.5152,72
1604496482.5172,55
1604496482.5192,38
1604496482.5212,38
1604496482.5232,48
1604496482.5252,50
1604496482.5272,52
1604496482.5291,45
1604496482.5311,-2
1604496482.5332,-84
1604496482.5352,7
1604496482.9911,470
1604496482.9915,1104
1604496482.9939,1334
1604496482.9965,638
1604496482.9985,-456
1604496483.0005,-657
1604496483.0025,-187
1604496483.0045,-62
1604496483.0065,-100
1604496483.0085,26
1604496483.0105,62
1604496483.0125,21
1604496483.0145,55
1604496483.0165,88
1604496483.0185,76
1604496483.0205,86
1604496483.0225,108
1604496483.0245,112
1604496483.0265,122
1604496483.0285,139
1604496483.0305,151
1604496483.0325,165
1604496483.0345,187
1604496483.0365,208
1604496483.0385,237
1604496483.0405,273
1604496483.0425,309
1604496483.0445,336
1604496483.0465,348
1604496483.0485,355
1604496483.0505,340
1604496483.0525,312
1604496483.0547,273
1604496483.0566,216
1604496483.0585,144
1604496483.0605,79
1604496483.0625,28
1604496483.0645,-16
1604496483.0665,-48
1604496483.0685,-60
1604496483.0705,-64
1604496483.0725,-60
1604496483.0745,-55
1604496483.0765,-57
1604496483.0785,-60
1604496483.0805,-57
1604496483.0825,-48
1604496483.0845,-40
1604496483.0865,-40
1604496483.0885,-40
1604496483.0905,-28
1604496483.0925,-12
1604496483.0945,-2
1604496483.0966,4
1604496483.0985,12
1604496483.1005,16
1604496483.1025,12
1604496483.1045,9
1604496483.1065,12
1604496483.1085,16
1604496483.1105,14
1604496483.1125,12
1604496483.1145,14
1604496483.1165,14
1604496483.1185,14
1604496483.1206,16
1604496483.1226,14
1604496483.1245,16
1604496483.1265,19
1604496483.1285,16
1604496483.1305,19
1604496483.1325,16
1604496483.1345,16
1604496483.5611,24
1604496483.5615,26
1604496483.5639,16
1604496483.5665,0
1604496483.5685,0
1604496483.5704,14
1604496483.5724,28
1604496483.5745,45
1604496483.5765,57
1604496483.5785,45
1604496483.5807,28
1604496483.5825,31
1604496483.5845,33
1604496483.5865,16
1604496483.5885,-7
1604496483.5905,-14
1604496483.5925,-2
1604496483.5945,9
1604496483.5965,14
1604496483.5985,9
1604496483.6005,-4
1604496483.6025,-60
1604496483.6045,-136
1604496483.6065,-48
1604496483.6085,405
1604496483.6105,1020
1604496483.6125,1233
1604496483.6145,549
1604496483.6165,-489
1604496483.6185,-650
1604496483.6205,-177
1604496483.6224,-55
1604496483.6245,-105
1604496483.6265,4
1604496483.6285,45
1604496483.6305,2
1604496483.6326,28
1604496483.6344,60
1604496483.6365,52
1604496483.6385,64
1604496483.6406,88
1604496483.6425,96
1604496483.6445,100
1604496483.6464,112
1604496483.6485,120
1604496483.6505,132
1604496483.6525,151
1604496483.6545,168
1604496483.6565,194
1604496483.6585,230
1604496483.6605,261
1604496483.6625,288
1604496483.6645,309
1604496483.6665,304
1604496483.6685,285
1604496483.6705,264
1604496483.6725,232
1604496483.6745,180
1604496483.6765,120
1604496483.6785,60
1604496483.6805,12
1604496483.6827,-24
1604496483.6846,-48
1604496483.6865,-57
1604496483.6885,-57
1604496483.6905,-52
1604496483.6925,-52
1604496483.6945,-52
1604496483.6965,-50
1604496483.6985,-50
1604496483.7005,-55
1604496483.7025,-50
1604496483.7045,-36
1604496484.0711,-28
1604496484.0715,-28
1604496484.0739,-21
1604496484.0765,-7
1604496484.0785,-2
1604496484.0805,-4
1604496484.0826,2
1604496484.0845,12
1604496484.0865,2
1604496484.0885,-12
1604496484.0905,-9
1604496484.0925,0
1604496484.0945,-4
1604496484.0965,-19
1604496484.0985,-14
1604496484.1005,-9
1604496484.1025,-12
1604496484.1045,-4
1604496484.1066,-2
1604496484.1085,-2
1604496484.1105,0
1604496484.1125,2
1604496484.1145,4
1604496484.1165,14
1604496484.1186,14
1604496484.1205,7
1604496484.1226,14
1604496484.1245,21
1604496484.1265,9
1604496484.1285,0
1604496484.1305,12
1604496484.1325,28
1604496484.1345,52
1604496484.1365,74
1604496484.1386,62
1604496484.1405,33
1604496484.1425,33
1604496484.1445,43
1604496484.1465,33
1604496484.1487,21
1604496484.1506,19
1604496484.1525,21
1604496484.1545,19
1604496484.1565,16
1604496484.1585,21
1604496484.1605,16
1604496484.1625,-50
1604496484.1645,-141
1604496484.1665,-72
1604496484.1685,340
1604496484.1705,957
1604496484.1725,1255
1604496484.1745,667
1604496484.1765,-391
1604496484.1785,-664
1604496484.1805,-216
1604496484.1825,-45
1604496484.1845,-115
1604496484.1865,-33
1604496484.1885,26
1604496484.1905,-2
1604496484.1925,12
1604496484.1945,40
1604496484.1965,36
1604496484.1985,38
1604496484.2005,52
1604496484.2025,64
1604496484.2045,74
1604496484.2065,88
1604496484.2085,96
1604496484.2105,93
1604496484.2125,108
1604496484.2145,141
1604496484.6412,168
1604496484.6416,199
1604496484.6440,232
1604496484.6466,259
1604496484.6485,280
1604496484.6506,283
1604496484.6526,259
1604496484.6546,232
1604496484.6566,204
1604496484.6586,156
1604496484.6606,103
1604496484.6625,45
1604496484.6646,-12
1604496484.6666,-45
1604496484.6687,-62
1604496484.6706,-74
1604496484.6726,-81
1604496484.6747,-79
1604496484.6766,-74
1604496484.6786,-69
1604496484.6806,-67
1604496484.6826,-67
1604496484.6846,-60
1604496484.6866,-50
1604496484.6886,-45
1604496484.6906,-43
1604496484.6926,-38
1604496484.6945,-31
1604496484.6966,-26
1604496484.6986,-24
1604496484.7006,-16
1604496484.7026,-12
1604496484.7046,-14
1604496484.7066,-12
1604496484.7086,-9
1604496484.7106,-9
1604496484.7126,-12
1604496484.7146,-7
1604496484.7165,-2
1604496484.7186,0
1604496484.7206,4
1604496484.7225,4
1604496484.7246,0
1604496484.7266,4
1604496484.7285,14
1604496484.7306,7
1604496484.7326,2
1604496484.7345,4
1604496484.7366,12
1604496484.7386,19
1604496484.7405,24
1604496484.7426,14
1604496484.7446,12
1604496484.7466,24
1604496484.7486,21
1604496484.7506,12
1604496484.7525,12
1604496484.7545,12
1604496484.7566,9
1604496484.7586,16
1604496484.7606,21
1604496484.7626,31
1604496484.7646,57
1604496484.7666,72
1604496484.7686,57
1604496484.7706,45
1604496484.7726,45
1604496484.7745,40
1604496484.7767,26
1604496484.7786,14
1604496484.7806,14
1604496484.7826,31
1604496484.7846,31
1604496485.1814,21
1604496485.1822,19
1604496485.1847,7
1604496485.1874,-55
1604496485.1893,-122
1604496485.1913,12
1604496485.1934,487
1604496485.1953,1073
1604496485.1973,1178
1604496485.1992,388
1604496485.2012,-556
1604496485.2032,-571
1604496485.2052,-132
1604496485.2072,-76
1604496485.2092,-112
1604496485.2113,-4
1604496485.2132,19
1604496485.2152,-4
1604496485.2172,24
1604496485.2192,33
1604496485.2212,38
1604496485.2232,76
1604496485.2252,76
1604496485.2272,50
1604496485.2292,52
1604496485.2312,74
1604496485.2332,96
1604496485.2352,117
1604496485.2373,134
1604496485.2392,151
1604496485.2412,177
1604496485.2432,213
1604496485.2452,249
1604496485.2472,278
1604496485.2492,288
1604496485.2512,290
1604496485.2532,290
1604496485.2552,268
1604496485.2572,223
1604496485.2592,177
1604496485.2612,122
1604496485.2632,62
1604496485.2652,14
1604496485.2673,-28
1604496485.2692,-50
1604496485.2712,-55
1604496485.2733,-57
1604496485.2752,-64
1604496485.2772,-64
1604496485.2792,-60
1604496485.2812,-48
1604496485.2832,-45
1604496485.2852,-50
1604496485.2873,-48
1604496485.2892,-40
1604496485.2912,-36
1604496485.2932,-26
1604496485.2952,-16
1604496485.2972,-14
1604496485.2992,-9
1604496485.3012,-4
1604496485.3032,-2
1604496485.3052,0
1604496485.3072,0
1604496485.3092,2
1604496485.3112,4
1604496485.3132,7
1604496485.3152,16
1604496485.3172,14
1604496485.3192,-7
1604496485.3212,-7
1604496485.3232,12
1604496485.3252,14
1604496485.7521,9
1604496485.7531,9
1604496485.7556,4
1604496485.7581,9
1604496485.7601,9
1604496485.7621,-4
1604496485.7643,-2
1604496485.7662,7
1604496485.7681,4
1604496485.7701,14
1604496485.7721,24
1604496485.7741,19
1604496485.7761,9
1604496485.7780,9
1604496485.7800,14
1604496485.7821,14
1604496485.7841,9
1604496485.7861,12
1604496485.7881,24
1604496485.7900,31
1604496485.7920,38
1604496485.7940,62
1604496485.7961,79
1604496485.7980,62
1604496485.8002,45
1604496485.8021,52
1604496485.8041,52
1604496485.8061,45
1604496485.8080,31
1604496485.8101,12
1604496485.8120,9
1604496485.8140,21
1604496485.8160,24
1604496485.8180,21
1604496485.8200,7
1604496485.8221,-52
1604496485.8240,-127
1604496485.8261,14
1604496485.8280,513
1604496485.8300,1092
1604496485.8320,1161
1604496485.8341,360
1604496485.8361,-561
1604496485.8380,-564
1604496485.8401,-141
1604496485.8420,-84
1604496485.8440,-110
1604496485.8461,-4
1604496485.8480,19
1604496485.8500,-9
1604496485.8520,19
1604496485.8540,38
1604496485.8561,28
1604496485.8580,40
1604496485.8600,67
1604496485.8621,67
1604496485.8640,67
1604496485.8662,88
1604496485.8681,103
1604496485.8700,115
1604496485.8720,136
1604496485.8741,158
1604496485.8761,184
1604496485.8780,216
1604496485.8801,242
1604496485.8820,261
1604496485.8841,280
1604496485.8862,288
1604496485.8880,268
1604496485.8900,242
1604496485.8921,218
1604496485.8940,180
1604496485.8961,120
1604496486.3515,57
1604496486.3527,7
1604496486.3554,-24
1604496486.3578,-43
1604496486.3597,-64
1604496486.3617,-84
1604496486.3638,-79
1604496486.3657,-67
1604496486.3677,-72
1604496486.3697,-76
1604496486.3717,-62
1604496486.3737,-50
1604496486.3757,-45
1604496486.3777,-40
1604496486.3797,-36
1604496486.3817,-28
1604496486.3837,-19
1604496486.3857,-12
1604496486.3877,-7
1604496486.3897,-2
1604496486.3916,-2
1604496486.3937,-7
1604496486.3957,-2
1604496486.3976,7
1604496486.3996,12
1604496486.4016,9
1604496486.4036,4
1604496486.4056,4
1604496486.4077,9
1604496486.4096,12
1604496486.4117,12
1604496486.4137,14
1604496486.4156,7
1604496486.4176,-7
1604496486.4196,-7
1604496486.4216,2
1604496486.4236,9
1604496486.4257,16
1604496486.4277,16
1604496486.4297,16
1604496486.4316,24
1604496486.4336,26
1604496486.4356,24
1604496486.4376,28
1604496486.4396,31
1604496486.4416,31
1604496486.4437,33
1604496486.4457,36
1604496486.4476,36
1604496486.4497,33
1604496486.4516,33
1604496486.4537,36
1604496486.4556,33
1604496486.4579,36
1604496486.4597,55
1604496486.4617,76
1604496486.4636,84
1604496486.4656,67
1604496486.4677,52
1604496486.4697,62
1604496486.4717,60
1604496486.4737,43
1604496486.4756,36
1604496486.4777,36
1604496486.4796,38
1604496486.4816,38
1604496486.4836,33
1604496486.4857,21
1604496486.4877,4
1604496486.4897,-57
1604496486.4916,-129
1604496486.4936,26
1604496486.4956,544
1604496486.8920,1118
1604496486.8929,1157
1604496486.8953,326
1604496486.8980,-580
1604496486.9000,-535
1604496486.9019,-103
1604496486.9040,-60
1604496486.9061,-76
1604496486.9079,31
1604496486.9099,43
1604496486.9120,9
1604496486.9139,33
1604496486.9160,55
1604496486.9179,52
1604496486.9199,62
1604496486.9219,76
1604496486.9240,88
1604496486.9260,103
1604496486.9279,112
1604496486.9298,122
1604496486.9319,139
1604496486.9339,158
1604496486.9358,182
1604496486.9378,211
1604496486.9398,240
1604496486.9418,261
1604496486.9438,278
1604496486.9458,300
1604496486.9478,307
1604496486.9498,285
1604496486.9518,256
1604496486.9541,235
1604496486.9559,189
1604496486.9578,120
1604496486.9598,62
1604496486.9618,24
1604496486.9704,-14
1604496486.9718,-43
1604496486.9744,-52
1604496486.9762,-55
1604496486.9780,-55
1604496486.9799,-55
1604496486.9819,-50
1604496486.9840,-48
1604496486.9858,-48
1604496486.9879,-36
1604496486.9899,-24
1604496486.9918,-16
1604496486.9939,-14
1604496486.9958,-7
1604496486.9979,0
1604496486.9986,9
1604496487.0008,21
1604496487.0029,24
1604496487.0049,21
1604496487.0068,26
1604496487.0089,26
1604496487.0109,14
1604496487.0129,14
1604496487.0149,31
1604496487.0168,33
1604496487.0188,21
1604496487.0209,19
1604496487.0229,24
1604496487.0248,21
1604496487.0269,21
1604496487.0289,31
1604496487.0295,31
1604496487.0309,26
1604496487.0329,26
1604496487.0349,28
1604496487.0369,33
1604496487.0390,38
1604496487.4614,40
1604496487.4619,36
1604496487.4642,33
1604496487.4670,31
1604496487.4689,28
1604496487.4709,31
1604496487.4731,40
1604496487.4749,52
1604496487.4756,64
1604496487.4781,69
1604496487.4799,57
1604496487.4819,45
1604496487.4839,45
1604496487.4859,52
1604496487.4879,48
1604496487.4899,26
1604496487.4919,7
1604496487.4940,4
1604496487.4959,4
1604496487.4979,2
1604496487.4999,2
1604496487.5019,-12
1604496487.5039,-81
1604496487.5060,-117
1604496487.5066,127
1604496487.5089,715
1604496487.5109,1231
1604496487.5129,1027
1604496487.5149,-2
1604496487.5169,-722
1604496487.5190,-429
1604496487.5209,-72
1604496487.5229,-115
1604496487.5249,-67
1604496487.5269,48
1604496487.5289,28
1604496487.5309,19
1604496487.5329,60
1604496487.5349,60
1604496487.5369,55
1604496487.5375,76
1604496487.5389,98
1604496487.5409,98
1604496487.5429,103
1604496487.5449,120
1604496487.5469,139
1604496487.5489,158
1604496487.5509,175
1604496487.5529,199
1604496487.5549,230
1604496487.5569,259
1604496487.5589,285
1604496487.5609,312
1604496487.5628,324
1604496487.5649,314
1604496487.5669,297
1604496487.5676,271
1604496487.5699,220
1604496487.5719,158
1604496487.5739,100
1604496487.5761,48
1604496487.5779,0
1604496487.5799,-36
1604496487.5820,-57
1604496487.5839,-64
1604496487.5859,-69
1604496487.5879,-69
1604496487.5899,-67
1604496487.5919,-67
1604496487.5939,-62
1604496487.5959,-62
1604496487.5979,-55
1604496487.5985,-45
1604496488.0014,-40
1604496488.0022,-36
1604496488.0041,-21
1604496488.0062,-9
1604496488.0082,-7
1604496488.0100,-7
1604496488.0120,-4
1604496488.0140,2
1604496488.0161,2
1604496488.0180,-4
1604496488.0200,-12
1604496488.0220,-16
1604496488.0226,-19
1604496488.0240,-19
1604496488.0260,-4
1604496488.0279,2
1604496488.0299,-19
1604496488.0319,-31
1604496488.0340,-12
1604496488.0360,2
1604496488.0379,-4
1604496488.0400,4
1604496488.0419,24
1604496488.0439,0
1604496488.0460,-33
1604496488.0479,-19
1604496488.0499,7
1604496488.0519,14
1604496488.0527,31
1604496488.0549,55
1604496488.0570,60
1604496488.0589,40
1604496488.0609,33
1604496488.0630,36
1604496488.0649,28
1604496488.0671,9
1604496488.0689,4
1604496488.0709,14
1604496488.0731,16
1604496488.0750,12
1604496488.0770,14
1604496488.0789,2
1604496488.0810,-45
1604496488.0829,-124
1604496488.0835,-84
1604496488.0849,278
1604496488.0870,881
1604496488.0889,1221
1604496488.0909,698
1604496488.0929,-357
1604496488.0949,-693
1604496488.0970,-254
1604496488.0989,-52
1604496488.1009,-117
1604496488.1029,-40
1604496488.1049,33
1604496488.1070,2
1604496488.1089,4
1604496488.1109,40
1604496488.1130,45
1604496488.1136,43
1604496488.1149,62
1604496488.1169,74
1604496488.1189,76
1604496488.1209,86
1604496488.1229,103
1604496488.1249,120
1604496488.1269,136
1604496488.1290,153
1604496488.1309,175
1604496488.1330,201
1604496488.1349,230
1604496488.1370,256
1604496488.5715,276
1604496488.5724,278
1604496488.5735,271
1604496488.5755,247
1604496488.5774,208
1604496488.5794,163
1604496488.5815,93
1604496488.5834,24
1604496488.5855,-16
1604496488.5875,-45
1604496488.5894,-79
1604496488.5914,-96
1604496488.5935,-96
1604496488.5954,-91
1604496488.5975,-86
1604496488.5994,-88
1604496488.6017,-81
1604496488.6035,-69
1604496488.6054,-64
1604496488.6074,-64
1604496488.6094,-55
1604496488.6114,-50
1604496488.6134,-45
1604496488.6155,-31
1604496488.6174,-21
1604496488.6194,-26
1604496488.6214,-28
1604496488.6234,-21
1604496488.6254,-16
1604496488.6274,-12
1604496488.6294,-12
1604496488.6314,-14
1604496488.6334,-12
1604496488.6354,-16
1604496488.6375,-21
1604496488.6394,-14
1604496488.6414,-14
1604496488.6434,-9
1604496488.6454,7
1604496488.6474,0
1604496488.6494,-21
1604496488.6514,-16
1604496488.6534,-7
1604496488.6554,-12
1604496488.6574,-9
1604496488.6594,2
1604496488.6614,7
1604496488.6634,24
1604496488.6654,48
1604496488.6674,36
1604496488.6694,16
1604496488.6714,31
1604496488.6734,36
1604496488.6754,4
1604496488.6774,-12
1604496488.6794,4
1604496488.6814,12
1604496488.6834,0
1604496488.6854,-2
1604496488.6874,7
1604496488.6894,-14
1604496488.6914,-91
1604496488.6934,-158
1604496488.6954,2
1604496488.6974,508
1604496488.6995,1073
1604496488.7014,1113
1604496488.7036,280
1604496488.7056,-621
1604496488.7074,-573
1604496488.7094,-136
1604496488.7114,-93
1604496488.7134,-117
1604496489.1121,-16
1604496489.1130,0
1604496489.1154,-28
1604496489.1182,0
1604496489.1200,19
1604496489.1220,16
1604496489.1241,28
1604496489.1262,33
1604496489.1282,28
1604496489.1300,43
1604496489.1319,64
1604496489.1340,74
1604496489.1361,84
1604496489.1380,103
1604496489.1400,132
1604496489.1420,165
1604496489.1440,194
1604496489.1461,218
1604496489.1480,237
1604496489.1500,252
1604496489.1520,256
1604496489.1540,240
1604496489.1560,211
1604496489.1580,180
1604496489.1600,129
1604496489.1619,62
1604496489.1640,7
1604496489.1660,-38
1604496489.1680,-69
1604496489.1700,-86
1604496489.1720,-93
1604496489.1739,-93
1604496489.1760,-88
1604496489.1779,-86
1604496489.1799,-86
1604496489.1820,-81
1604496489.1840,-72
1604496489.1860,-57
1604496489.1879,-50
1604496489.1899,-52
1604496489.1919,-48
1604496489.1939,-38
1604496489.1960,-43
1604496489.1979,-38
1604496489.1999,-24
1604496489.2021,-16
1604496489.2040,-19
1604496489.2061,-16
1604496489.2079,-14
1604496489.2099,-12
1604496489.2119,-7
1604496489.2139,-9
1604496489.2160,-21
1604496489.2179,-21
1604496489.2199,-14
1604496489.2219,-16
1604496489.2239,-19
1604496489.2260,-14
1604496489.2279,-12
1604496489.2299,-12
1604496489.2319,-9
1604496489.2339,-14
1604496489.2360,-12
1604496489.2379,-4
1604496489.2400,-9
1604496489.2420,-14
1604496489.2439,-14
1604496489.2460,-7
1604496489.2479,2
1604496489.2499,21
1604496489.2519,33
1604496489.2539,31
1604496489.2560,26
1604496489.7122,31
1604496489.7133,33
1604496489.7158,24
1604496489.7185,0
1604496489.7204,-12
1604496489.7224,-4
1604496489.7245,-2
1604496489.7264,-7
1604496489.7284,-2
1604496489.7304,-9
1604496489.7324,-69
1604496489.7344,-148
1604496489.7364,-64
1604496489.7384,364
1604496489.7404,965
1604496489.7424,1178
1604496489.7444,520
1604496489.7463,-468
1604496489.7483,-633
1604496489.7503,-199
1604496489.7523,-74
1604496489.7543,-120
1604496489.7563,-21
1604496489.7586,26
1604496489.7604,-4
1604496489.7623,14
1604496489.7643,40
1604496489.7664,24
1604496489.7683,26
1604496489.7703,57
1604496489.7723,69
1604496489.7743,64
1604496489.7763,64
1604496489.7783,81
1604496489.7803,105
1604496489.7823,122
1604496489.7843,134
1604496489.7863,160
1604496489.7883,196
1604496489.7903,228
1604496489.7923,252
1604496489.7943,266
1604496489.7963,256
1604496489.7983,232
1604496489.8003,213
1604496489.8023,192
1604496489.8043,146
1604496489.8063,88
1604496489.8083,40
1604496489.8103,-4
1604496489.8123,-43
1604496489.8143,-62
1604496489.8163,-67
1604496489.8183,-79
1604496489.8203,-93
1604496489.8223,-100
1604496489.8243,-98
1604496489.8263,-84
1604496489.8283,-69
1604496489.8303,-64
1604496489.8323,-60
1604496489.8343,-50
1604496489.8363,-43
1604496489.8383,-36
1604496489.8403,-26
1604496489.8423,-16
1604496489.8443,-16
1604496489.8463,-21
1604496489.8483,-19
1604496489.8503,-19
1604496489.8523,-16
1604496489.8543,-14
1604496489.8563,-9
1604496490.3121,-2
1604496490.3138,0
1604496490.3159,-4
1604496490.3185,-9
1604496490.3204,-4
1604496490.3224,2
1604496490.3244,0
1604496490.3265,-9
1604496490.3284,-9
1604496490.3304,-4
1604496490.3324,-7
1604496490.3344,-2
1604496490.3365,2
1604496490.3384,0
1604496490.3404,2
1604496490.3424,7
1604496490.3444,9
1604496490.3464,12
1604496490.3483,7
1604496490.3503,7
1604496490.3523,12
1604496490.3543,26
1604496490.3564,57
1604496490.3583,72
1604496490.3603,55
1604496490.3623,43
1604496490.3643,52
1604496490.3664,48
1604496490.3684,33
1604496490.3704,24
1604496490.3723,26
1604496490.3743,36
1604496490.3764,36
1604496490.3783,31
1604496490.3803,31
1604496490.3823,4
1604496490.3843,-67
1604496490.3864,-115
1604496490.3883,86
1604496490.3903,616
1604496490.3923,1135
1604496490.3943,1053
1604496490.3964,156
1604496490.3983,-626
1604496490.4003,-456
1604496490.4023,-60
1604496490.4043,-60
1604496490.4064,-57
1604496490.4083,43
1604496490.4103,38
1604496490.4123,16
1604496490.4143,52
1604496490.4165,67
1604496490.4184,55
1604496490.4204,67
1604496490.4224,84
1604496490.4245,86
1604496490.4264,93
1604496490.4285,117
1604496490.4304,136
1604496490.4324,144
1604496490.4343,163
1604496490.4364,189
1604496490.4383,204
1604496490.4403,225
1604496490.4424,259
1604496490.4443,278
1604496490.4464,276
1604496490.4483,264
1604496490.4503,254
1604496490.4524,237
1604496490.4543,201
1604496490.4564,148
1604496490.8218,88
1604496490.8225,43
1604496490.8249,12
1604496490.8275,-19
1604496490.8295,-52
1604496490.8315,-69
1604496490.8336,-74
1604496490.8355,-72
1604496490.8376,-64
1604496490.8395,-55
1604496490.8415,-52
1604496490.8435,-57
1604496490.8455,-50
1604496490.8475,-38
1604496490.8495,-40
1604496490.8515,-45
1604496490.8535,-36
1604496490.8555,-24
1604496490.8576,-21
1604496490.8595,-21
1604496490.8615,-12
1604496490.8635,-2
1604496490.8655,0
1604496490.8675,-7
1604496490.8695,-7
1604496490.8714,-4
1604496490.8735,-4
1604496490.8754,-4
1604496490.8775,9
1604496490.8795,14
1604496490.8816,2
1604496490.8836,0
1604496490.8855,9
1604496490.8875,9
1604496490.8895,7
1604496490.8915,12
1604496490.8935,14
1604496490.8955,14
1604496490.8975,19
1604496490.8995,21
1604496490.9014,14
1604496490.9035,9
1604496490.9055,14
1604496490.9075,31
1604496490.9095,57
1604496490.9116,79
1604496490.9134,64
1604496490.9155,52
1604496490.9175,62
1604496490.9194,64
1604496490.9215,48
1604496490.9235,24
1604496490.9254,24
1604496490.9275,45
1604496490.9295,50
1604496490.9315,48
1604496490.9334,52
1604496490.9355,36
1604496490.9375,-33
1604496490.9395,-98
1604496490.9415,50
1604496490.9435,547
1604496490.9455,1130
1604496490.9475,1219
1604496490.9494,403
1604496490.9514,-549
1604496490.9535,-537
1604496490.9555,-93
1604496490.9575,-43
1604496490.9595,-55
1604496490.9615,64
1604496490.9635,84
1604496490.9656,52
1604496491.3620,88
1604496491.3629,115
1604496491.3653,110
1604496491.3680,127
1604496491.3700,144
1604496491.3719,141
1604496491.3741,148
1604496491.3760,165
1604496491.3781,177
1604496491.3799,192
1604496491.3819,218
1604496491.3839,240
1604496491.3860,256
1604496491.3879,285
1604496491.3899,324
1604496491.3919,348
1604496491.3939,348
1604496491.3959,333
1604496491.3978,319
1604496491.3999,292
1604496491.4018,254
1604496491.4038,204
1604496491.4059,141
1604496491.4079,76
1604496491.4098,21
1604496491.4118,-12
1604496491.4138,-33
1604496491.4159,-48
1604496491.4178,-50
1604496491.4199,-50
1604496491.4218,-57
1604496491.4238,-57
1604496491.4259,-52
1604496491.4278,-55
1604496491.4298,-55
1604496491.4318,-50
1604496491.4338,-36
1604496491.4359,-21
1604496491.4378,-21
1604496491.4398,-14
1604496491.4419,-7
1604496491.4438,-4
1604496491.4459,0
1604496491.4478,4
1604496491.4498,4
1604496491.4518,2
1604496491.4538,0
1604496491.4559,0
1604496491.4579,-2
1604496491.4598,-4
1604496491.4618,-9
1604496491.4639,-12
1604496491.4659,-9
1604496491.4678,-4
1604496491.4698,-7
1604496491.4718,-12
1604496491.4738,-12
1604496491.4760,-7
1604496491.4779,-2
1604496491.4800,7
1604496491.4819,33
1604496491.4838,52
1604496491.4859,33
1604496491.4878,16
1604496491.4898,26
1604496491.4918,28
1604496491.4938,9
1604496491.4960,-2
1604496491.4979,7
1604496491.4999,16
1604496491.5019,9
1604496491.5038,7
1604496491.5059,9
1604496491.9321,-14
1604496491.9334,-98
1604496491.9358,-158
1604496491.9384,74
1604496491.9404,669
1604496491.9424,1214
1604496491.9444,1044
1604496491.9464,26
1604496491.9484,-734
1604496491.9504,-480
1604496491.9524,-108
1604496491.9544,-134
1604496491.9564,-88
1604496491.9583,24
1604496491.9603,9
1604496491.9623,0
1604496491.9644,38
1604496491.9664,40
1604496491.9683,38
1604496491.9703,57
1604496491.9723,72
1604496491.9743,76
1604496491.9764,86
1604496491.9783,98
1604496491.9803,115
1604496491.9823,132
1604496491.9843,146
1604496491.9863,168
1604496491.9883,196
1604496491.9903,228
1604496491.9923,261
1604496491.9944,280
1604496491.9964,278
1604496491.9984,264
1604496492.0004,244
1604496492.0024,213
1604496492.0043,163
1604496492.0065,98
1604496492.0084,36
1604496492.0103,-21
1604496492.0123,-67
1604496492.0143,-93
1604496492.0163,-105
1604496492.0184,-108
1604496492.0203,-105
1604496492.0223,-105
1604496492.0243,-108
1604496492.0264,-103
1604496492.0283,-93
1604496492.0303,-86
1604496492.0323,-76
1604496492.0343,-69
1604496492.0363,-64
1604496492.0383,-60
1604496492.0403,-50
1604496492.0423,-43
1604496492.0443,-43
1604496492.0463,-38
1604496492.0483,-28
1604496492.0503,-31
1604496492.0523,-31
1604496492.0543,-24
1604496492.0563,-21
1604496492.0583,-28
1604496492.0603,-31
1604496492.0623,-24
1604496492.0643,-21
1604496492.0664,-26
1604496492.0683,-28
1604496492.0703,-26
1604496492.0722,-24
1604496492.0743,-24
1604496492.0764,-28
1604496492.4716,-33
1604496492.4724,-28
1604496492.4749,-16
1604496492.4775,-2
1604496492.4795,21
1604496492.4815,24
1604496492.4836,-2
1604496492.4856,-9
1604496492.4876,4
1604496492.4895,2
1604496492.4915,-19
1604496492.4935,-24
1604496492.4955,-12
1604496492.4974,-7
1604496492.4995,-7
1604496492.5017,-4
1604496492.5035,-7
1604496492.5054,-50
1604496492.5074,-144
1604496492.5095,-175
1604496492.5114,103
1604496492.5134,703
1604496492.5154,1193
1604496492.5174,948
1604496492.5194,-76
1604496492.5214,-739
1604496492.5234,-424
1604496492.5254,-69
1604496492.5274,-108
1604496492.5295,-76
1604496492.5314,16
1604496492.5334,-12
1604496492.5354,-19
1604496492.5374,26
1604496492.5394,28
1604496492.5414,26
1604496492.5434,50
1604496492.5454,62
1604496492.5475,62
1604496492.5494,74
1604496492.5514,88
1604496492.5534,100
1604496492.5554,122
1604496492.5574,144
1604496492.5594,168
1604496492.5614,196
1604496492.5634,218
1604496492.5654,235
1604496492.5674,256
1604496492.5694,266
1604496492.5714,252
1604496492.5734,235
1604496492.5754,204
1604496492.5775,151
1604496492.5794,100
1604496492.5814,50
1604496492.5834,-7
1604496492.5854,-55
1604496492.5874,-76
1604496492.5895,-88
1604496492.5915,-98
1604496492.5934,-98
1604496492.5954,-91
1604496492.5974,-91
1604496492.5994,-93
1604496492.6014,-86
1604496492.6036,-76
1604496492.6054,-72
1604496492.6075,-67
1604496492.6094,-57
1604496492.6114,-48
1604496492.6134,-50
1604496492.6154,-50
1604496493.0716,-40
1604496493.0728,-31
1604496493.0752,-28
1604496493.0779,-31
1604496493.0798,-36
1604496493.0818,-38
1604496493.0839,-31
1604496493.0858,-28
1604496493.0877,-31
1604496493.0900,-40
1604496493.0917,-45
1604496493.0937,-36
1604496493.0957,-31
1604496493.0977,-33
1604496493.0997,-28
1604496493.1017,-24
1604496493.1037,-24
1604496493.1057,-21
1604496493.1077,-19
1604496493.1098,-16
1604496493.1117,-16
1604496493.1137,-12
1604496493.1157,-9
1604496493.1177,0
1604496493.1199,21
1604496493.1217,26
1604496493.1237,9
1604496493.1257,9
1604496493.1277,24
1604496493.1297,19
1604496493.1317,2
1604496493.1337,0
1604496493.1357,7
1604496493.1377,7
1604496493.1398,4
1604496493.1417,14
1604496493.1437,7
1604496493.1457,-38
1604496493.1477,-120
1604496493.1497,-136
1604496493.1517,139
1604496493.1537,717
1604496493.1557,1188
1604496493.1577,933
1604496493.1599,-74
1604496493.1618,-701
1604496493.1637,-381
1604496493.1657,-48
1604496493.1677,-91
1604496493.1697,-57
1604496493.1717,31
1604496493.1737,14
1604496493.1757,7
1604496493.1777,33
1604496493.1797,31
1604496493.1817,33
1604496493.1838,55
1604496493.1857,67
1604496493.1877,72
1604496493.1897,86
1604496493.1917,103
1604496493.1937,105
1604496493.1957,115
1604496493.1977,136
1604496493.1997,160
1604496493.2017,187
1604496493.2037,218
1604496493.2058,247
1604496493.2077,261
1604496493.2097,259
1604496493.2117,249
1604496493.2137,235
1604496493.2144,213
1604496493.6420,172
1604496493.6429,110
1604496493.6453,43
1604496493.6480,-2
1604496493.6499,-40
1604496493.6519,-74
1604496493.6540,-88
1604496493.6559,-96
1604496493.6578,-110
1604496493.6599,-115
1604496493.6619,-100
1604496493.6638,-88
1604496493.6645,-84
1604496493.6659,-81
1604496493.6678,-79
1604496493.6698,-72
1604496493.6718,-62
1604496493.6738,-55
1604496493.6759,-52
1604496493.6778,-50
1604496493.6798,-48
1604496493.6818,-40
1604496493.6840,-33
1604496493.6860,-28
1604496493.6878,-31
1604496493.6898,-31
1604496493.6918,-24
1604496493.6938,-21
1604496493.6945,-21
1604496493.6959,-24
1604496493.6978,-16
1604496493.6998,-12
1604496493.7018,-19
1604496493.7038,-19
1604496493.7059,-2
1604496493.7078,-2
1604496493.7098,-12
1604496493.7118,-12
1604496493.7138,-7
1604496493.7159,-4
1604496493.7179,2
1604496493.7199,7
1604496493.7219,12
1604496493.7238,14
1604496493.7245,12
1604496493.7259,12
1604496493.7278,14
1604496493.7298,9
1604496493.7318,4
1604496493.7338,12
1604496493.7359,16
1604496493.7378,9
1604496493.7399,19
1604496493.7418,36
1604496493.7438,40
1604496493.7459,50
1604496493.7478,50
1604496493.7498,38
1604496493.7520,43
1604496493.7538,57
1604496493.7545,43
1604496493.7558,24
1604496493.7579,24
1604496493.7598,21
1604496493.7618,19
1604496493.7638,28
1604496493.7658,33
1604496493.7678,16
1604496493.7699,-24
1604496493.7718,-100
1604496493.7739,-120
1604496493.7759,144
1604496493.7778,708
1604496494.1822,1185
1604496494.1831,957
1604496494.1838,-26
1604496494.1852,-669
1604496494.1872,-384
1604496494.1892,-55
1604496494.1912,-96
1604496494.1932,-67
1604496494.1952,21
1604496494.1973,4
1604496494.1992,-7
1604496494.2012,26
1604496494.2031,31
1604496494.2051,26
1604496494.2072,45
1604496494.2091,62
1604496494.2111,67
1604496494.2131,74
1604496494.2138,84
1604496494.2151,93
1604496494.2172,108
1604496494.2191,132
1604496494.2211,151
1604496494.2231,172
1604496494.2251,208
1604496494.2272,237
1604496494.2291,242
1604496494.2311,242
1604496494.2331,240
1604496494.2351,228
1604496494.2371,204
1604496494.2391,170
1604496494.2411,124
1604496494.2431,64
1604496494.2438,12
1604496494.2451,-28
1604496494.2472,-62
1604496494.2492,-84
1604496494.2511,-91
1604496494.2531,-88
1604496494.2551,-93
1604496494.2572,-91
1604496494.2591,-84
1604496494.2611,-81
1604496494.2631,-76
1604496494.2651,-62
1604496494.2671,-55
1604496494.2692,-48
1604496494.2711,-38
1604496494.2731,-33
1604496494.2738,-33
1604496494.2754,-31
1604496494.2772,-24
1604496494.2791,-24
1604496494.2811,-26
1604496494.2831,-19
1604496494.2852,-7
1604496494.2873,-12
1604496494.2891,-19
1604496494.2912,-19
1604496494.2931,-21
1604496494.2951,-24
1604496494.2971,-19
1604496494.2992,-9
1604496494.3012,-12
1604496494.3018,-21
1604496494.3031,-19
1604496494.3051,-7
1604496494.3072,-7
1604496494.3091,-9
1604496494.3111,-9
1604496494.3131,-14
1604496494.3151,-16
1604496494.7519,-2
1604496494.7529,14
1604496494.7553,4
1604496494.7579,-16
1604496494.7599,-7
1604496494.7619,9
1604496494.7626,-2
1604496494.7641,-14
1604496494.7659,0
1604496494.7678,4
1604496494.7699,-4
1604496494.7718,0
1604496494.7738,12
1604496494.7759,9
1604496494.7778,2
1604496494.7798,7
1604496494.7819,14
1604496494.7839,7
1604496494.7859,2
1604496494.7878,7
1604496494.7898,14
1604496494.7918,21
1604496494.7925,38
1604496494.7938,64
1604496494.7959,67
1604496494.7978,45
1604496494.7998,38
1604496494.8018,48
1604496494.8039,33
1604496494.8061,9
1604496494.8079,7
1604496494.8099,19
1604496494.8118,21
1604496494.8138,14
1604496494.8159,16
1604496494.8178,14
1604496494.8198,-33
1604496494.8218,-120
1604496494.8225,-93
1604496494.8239,266
1604496494.8259,864
1604496494.8279,1217
1604496494.8298,770
1604496494.8318,-244
1604496494.8338,-664
1604496494.8359,-280
1604496494.8379,-50
1604496494.8399,-110
1604496494.8418,-48
1604496494.8438,21
1604496494.8459,0
1604496494.8478,12
1604496494.8498,26
1604496494.8518,2
1604496494.8538,9
1604496494.8558,38
1604496494.8578,43
1604496494.8598,43
1604496494.8618,55
1604496494.8638,64
1604496494.8659,69
1604496494.8678,84
1604496494.8698,110
1604496494.8718,139
1604496494.8738,172
1604496494.8759,196
1604496494.8778,206
1604496494.8798,220
1604496494.8818,235
1604496494.8841,228
1604496494.8860,206
1604496494.8878,192
1604496494.8899,165
1604496495.2920,108
1604496495.2929,45
1604496495.2953,2
1604496495.2980,-26
1604496495.2999,-50
1604496495.3019,-74
1604496495.3039,-86
1604496495.3063,-91
1604496495.3079,-96
1604496495.3099,-96
1604496495.3119,-86
1604496495.3139,-79
1604496495.3160,-76
1604496495.3179,-62
1604496495.3199,-55
1604496495.3219,-60
1604496495.3239,-57
1604496495.3260,-40
1604496495.3279,-38
1604496495.3299,-48
1604496495.3319,-40
1604496495.3340,-26
1604496495.3359,-24
1604496495.3378,-28
1604496495.3399,-28
1604496495.3419,-24
1604496495.3439,-19
1604496495.3459,-24
1604496495.3479,-28
1604496495.3499,-16
1604496495.3519,-9
1604496495.3539,-16
1604496495.3559,-16
1604496495.3578,-12
1604496495.3598,-12
1604496495.3618,-9
1604496495.3639,-4
1604496495.3659,-2
1604496495.3678,-2
1604496495.3698,0
1604496495.3718,2
1604496495.3738,7
1604496495.3759,7
1604496495.3778,4
1604496495.3798,0
1604496495.3818,2
1604496495.3840,12
1604496495.3860,12
1604496495.3879,4
1604496495.3898,7
1604496495.3918,14
1604496495.3938,12
1604496495.3959,7
1604496495.3978,12
1604496495.3999,16
1604496495.4018,16
1604496495.4038,19
1604496495.4059,19
1604496495.4080,9
1604496495.4099,4
1604496495.4118,19
1604496495.4138,33
1604496495.4159,31
1604496495.4178,48
1604496495.4199,74
1604496495.4219,55
1604496495.4239,31
1604496495.4260,43
1604496495.4280,48
1604496495.4299,28
1604496495.4319,14
1604496495.4338,14
1604496495.4359,16
1604496495.8620,19
1604496495.8629,16
1604496495.8654,16
1604496495.8680,0
1604496495.8700,-81
1604496495.8720,-139
1604496495.8742,72
1604496495.8760,604
1604496495.8780,1118
1604496495.8800,1044
1604496495.8820,160
1604496495.8840,-621
1604496495.8860,-463
1604496495.8879,-84
1604496495.8899,-86
1604496495.8919,-81
1604496495.8939,14
1604496495.8959,7
1604496495.8979,-7
1604496495.8999,26
1604496495.9020,36
1604496495.9039,28
1604496495.9060,38
1604496495.9081,50
1604496495.9100,57
1604496495.9120,74
1604496495.9139,91
1604496495.9160,98
1604496495.9179,110
1604496495.9199,134
1604496495.9220,160
1604496495.9239,184
1604496495.9260,208
1604496495.9279,235
1604496495.9299,256
1604496495.9320,264
1604496495.9341,259
1604496495.9359,247
1604496495.9379,223
1604496495.9399,199
1604496495.9419,156
1604496495.9439,91
1604496495.9459,36
1604496495.9479,0
1604496495.9499,-33
1604496495.9519,-57
1604496495.9539,-62
1604496495.9560,-69
1604496495.9579,-84
1604496495.9599,-76
1604496495.9619,-67
1604496495.9639,-72
1604496495.9659,-67
1604496495.9679,-52
1604496495.9700,-45
1604496495.9719,-40
1604496495.9739,-31
1604496495.9759,-24
1604496495.9779,-14
1604496495.9799,-9
1604496495.9819,-12
1604496495.9839,-7
1604496495.9860,0
1604496495.9879,0
1604496495.9899,0
1604496495.9919,2
1604496495.9939,2
1604496495.9959,0
1604496495.9979,0
1604496495.9999,2
1604496496.0019,4
1604496496.0039,2
1604496496.0060,0
1604496496.4621,0
1604496496.4634,-2
1604496496.4660,-7
1604496496.4684,-7
1604496496.4704,0
1604496496.4724,0
1604496496.4745,-7
1604496496.4765,-9
1604496496.4785,0
1604496496.4804,4
1604496496.4824,-2
1604496496.4844,-7
1604496496.4865,-2
1604496496.4884,-2
1604496496.4907,-9
1604496496.4925,-7
1604496496.4944,2
1604496496.4966,7
1604496496.4984,4
1604496496.5004,2
1604496496.5023,2
1604496496.5044,7
1604496496.5064,16
1604496496.5083,31
1604496496.5104,60
1604496496.5124,79
1604496496.5144,57
1604496496.5164,38
1604496496.5185,43
1604496496.5203,43
1604496496.5223,24
1604496496.5245,16
1604496496.5264,14
1604496496.5283,12
1604496496.5304,14
1604496496.5323,24
1604496496.5343,24
1604496496.5364,2
1604496496.5383,-62
1604496496.5403,-110
1604496496.5424,74
1604496496.5443,590
1604496496.5464,1133
1604496496.5483,1128
1604496496.5503,264
1604496496.5523,-612
1604496496.5543,-516
1604496496.5563,-103
1604496496.5583,-79
1604496496.5603,-72
1604496496.5623,33
1604496496.5643,36
1604496496.5663,19
1604496496.5683,52
1604496496.5690,67
1604496496.5703,69
1604496496.5723,81
1604496496.5743,91
1604496496.5763,96
1604496496.5783,108
1604496496.5803,124
1604496496.5823,139
1604496496.5843,153
1604496496.5863,175
1604496496.5883,199
1604496496.5905,218
1604496496.5924,247
1604496496.5943,285
1604496496.5964,309
1604496496.5983,312
1604496496.5990,307
1604496496.6003,302
1604496496.6023,285
1604496497.0018,240
1604496497.0027,184
1604496497.0051,129
1604496497.0077,74
1604496497.0097,21
1604496497.0118,-14
1604496497.0138,-36
1604496497.0157,-45
1604496497.0177,-52
1604496497.0197,-60
1604496497.0204,-64
1604496497.0217,-69
1604496497.0237,-67
1604496497.0257,-57
1604496497.0277,-50
1604496497.0297,-43
1604496497.0318,-36
1604496497.0336,-28
1604496497.0356,-24
1604496497.0376,-16
1604496497.0397,-9
1604496497.0417,-2
1604496497.0436,-4
1604496497.0456,-9
1604496497.0476,-7
1604496497.0496,-2
1604496497.0503,-4
1604496497.0517,-7
1604496497.0536,-4
1604496497.0556,-4
1604496497.0576,-9
1604496497.0597,-9
1604496497.0616,-4
1604496497.0637,-2
1604496497.0656,-7
1604496497.0676,-9
1604496497.0696,-4
1604496497.0716,0
1604496497.0736,-4
1604496497.0757,-4
1604496497.0776,0
1604496497.0797,4
1604496497.0803,0
1604496497.0818,-2
1604496497.0837,4
1604496497.0856,19
1604496497.0878,38
1604496497.0897,60
1604496497.0916,60
1604496497.0936,36
1604496497.0956,36
1604496497.0976,48
1604496497.0997,38
1604496497.1016,12
1604496497.1038,9
1604496497.1056,21
1604496497.1076,16
1604496497.1097,14
1604496497.1103,21
1604496497.1117,21
1604496497.1136,-19
1604496497.1156,-98
1604496497.1176,-81
1604496497.1196,273
1604496497.1216,902
1604496497.1236,1293
1604496497.1257,818
1604496497.1277,-283
1604496497.1296,-727
1604496497.1316,-302
1604496497.1336,-72
1604496497.1356,-120
1604496497.1376,-14
1604496497.5733,60
1604496497.5742,14
1604496497.5755,28
1604496497.5775,69
1604496497.5794,60
1604496497.5815,55
1604496497.5835,79
1604496497.5854,93
1604496497.5874,91
1604496497.5894,96
1604496497.5914,120
1604496497.5934,139
1604496497.5954,148
1604496497.5973,163
1604496497.5994,192
1604496497.6000,218
1604496497.6013,254
1604496497.6034,292
1604496497.6054,312
1604496497.6073,309
1604496497.6093,300
1604496497.6116,278
1604496497.6134,235
1604496497.6153,187
1604496497.6174,134
1604496497.6193,62
1604496497.6213,7
1604496497.6234,-28
1604496497.6253,-62
1604496497.6274,-84
1604496497.6293,-81
1604496497.6300,-81
1604496497.6313,-88
1604496497.6333,-86
1604496497.6353,-74
1604496497.6373,-67
1604496497.6393,-64
1604496497.6414,-48
1604496497.6434,-36
1604496497.6453,-43
1604496497.6474,-48
1604496497.6493,-26
1604496497.6513,-12
1604496497.6533,-16
1604496497.6553,-7
1604496497.6573,2
1604496497.6593,0
1604496497.6600,2
1604496497.6613,-2
1604496497.6633,-7
1604496497.6653,-7
1604496497.6673,-4
1604496497.6693,-7
1604496497.6713,-9
1604496497.6733,-9
1604496497.6753,-9
1604496497.6774,-12
1604496497.6794,-16
1604496497.6814,-12
1604496497.6833,0
1604496497.6853,12
1604496497.6874,36
1604496497.6893,38
1604496497.6900,9
1604496497.6913,0
1604496497.6933,21
1604496497.6953,19
1604496497.6974,-12
1604496497.6993,-24
1604496497.7013,-7
1604496497.7033,-4
1604496497.7053,-4
1604496497.7075,2
1604496498.1119,-2
1604496498.1128,-55
1604496498.1153,-151
1604496498.1179,-134
1604496498.1199,242
1604496498.1205,902
1604496498.1219,1305
1604496498.1240,813
1604496498.1260,-336
1604496498.1278,-804
1604496498.1300,-360
1604496498.1318,-120
1604496498.1338,-180
1604496498.1359,-72
1604496498.1378,12
1604496498.1398,-26
1604496498.1418,-12
1604496498.1438,26
1604496498.1459,19
1604496498.1478,31
1604496498.1485,62
1604496498.1498,69
1604496498.1518,67
1604496498.1538,79
1604496498.1559,93
1604496498.1578,112
1604496498.1598,141
1604496498.1618,168
1604496498.1638,199
1604496498.1659,235
1604496498.1678,268
1604496498.1698,300
1604496498.1718,314
1604496498.1738,302
1604496498.1759,290
1604496498.1778,276
1604496498.1785,232
1604496498.1798,168
1604496498.1818,105
1604496498.1839,43
1604496498.1859,-19
1604496498.1879,-62
1604496498.1898,-88
1604496498.1918,-100
1604496498.1938,-103
1604496498.1959,-93
1604496498.1978,-93
1604496498.1998,-98
1604496498.2018,-98
1604496498.2038,-79
1604496498.2060,-64
1604496498.2080,-64
1604496498.2085,-72
1604496498.2098,-62
1604496498.2118,-43
1604496498.2138,-31
1604496498.2159,-21
1604496498.2178,-24
1604496498.2198,-24
1604496498.2218,-12
1604496498.2238,-2
1604496498.2259,-7
1604496498.2278,-12
1604496498.2298,-14
1604496498.2318,-9
1604496498.2338,-7
1604496498.2358,-16
1604496498.2378,-24
1604496498.2385,-16
1604496498.2398,-9
1604496498.2418,2
1604496498.2438,31
1604496498.2459,21
1604496498.6519,-9
1604496498.6528,-9
1604496498.6553,4
1604496498.6579,0
1604496498.6599,-21
1604496498.6619,-31
1604496498.6640,-26
1604496498.6659,-28
1604496498.6665,-31
1604496498.6678,-21
1604496498.6699,-24
1604496498.6718,-52
1604496498.6738,-129
1604496498.6759,-144
1604496498.6778,184
1604496498.6799,852
1604496498.6818,1320
1604496498.6838,902
1604496498.6859,-264
1604496498.6878,-840
1604496498.6898,-396
1604496498.6918,-88
1604496498.6938,-168
1604496498.6958,-81
1604496498.6964,33
1604496498.6979,2
1604496498.6998,-4
1604496498.7018,36
1604496498.7039,45
1604496498.7059,48
1604496498.7078,60
1604496498.7098,67
1604496498.7118,64
1604496498.7138,74
1604496498.7159,93
1604496498.7178,115
1604496498.7198,134
1604496498.7217,168
1604496498.7238,199
1604496498.7259,228
1604496498.7264,264
1604496498.7278,292
1604496498.7298,302
1604496498.7318,307
1604496498.7338,300
1604496498.7359,273
1604496498.7379,216
1604496498.7398,148
1604496498.7418,93
1604496498.7438,26
1604496498.7459,-45
1604496498.7478,-81
1604496498.7498,-98
1604496498.7518,-110
1604496498.7538,-112
1604496498.7558,-115
1604496498.7564,-117
1604496498.7578,-112
1604496498.7598,-105
1604496498.7618,-100
1604496498.7638,-96
1604496498.7659,-96
1604496498.7678,-86
1604496498.7698,-72
1604496498.7718,-67
1604496498.7738,-64
1604496498.7759,-62
1604496498.7778,-52
1604496498.7799,-40
1604496498.7818,-36
1604496498.7838,-33
1604496498.7859,-33
1604496498.7864,-31
1604496499.2219,-36
1604496499.2228,-43
1604496499.2253,-33
1604496499.2280,-24
1604496499.2299,-24
1604496499.2319,-24
1604496499.2343,-24
1604496499.2360,-21
1604496499.2379,-19
1604496499.2399,-31
1604496499.2419,-43
1604496499.2438,-36
1604496499.2459,-31
1604496499.2478,-40
1604496499.2498,-36
1604496499.2505,-21
1604496499.2518,-21
1604496499.2538,-36
1604496499.2558,-93
1604496499.2578,-194
1604496499.2598,-115
1604496499.2618,386
1604496499.2638,1068
1604496499.2659,1291
1604496499.2678,532
1604496499.2698,-607
1604496499.2718,-787
1604496499.2738,-259
1604496499.2759,-122
1604496499.2778,-172
1604496499.2798,-36
1604496499.2804,14
1604496499.2818,-28
1604496499.2838,2
1604496499.2859,38
1604496499.2879,28
1604496499.2898,33
1604496499.2918,55
1604496499.2938,64
1604496499.2959,64
1604496499.2978,76
1604496499.2999,108
1604496499.3018,124
1604496499.3038,134
1604496499.3059,165
1604496499.3078,206
1604496499.3098,240
1604496499.3105,266
1604496499.3118,290
1604496499.3138,304
1604496499.3159,297
1604496499.3178,271
1604496499.3198,237
1604496499.3218,182
1604496499.3238,108
1604496499.3258,36
1604496499.3278,-12
1604496499.3300,-60
1604496499.3319,-108
1604496499.3338,-122
1604496499.3359,-120
1604496499.3378,-134
1604496499.3398,-139
1604496499.3405,-124
1604496499.3419,-117
1604496499.3438,-115
1604496499.3459,-112
1604496499.3478,-100
1604496499.3498,-93
1604496499.3518,-88
1604496499.3538,-79
1604496499.3559,-72
1604496499.3578,-69
1604496499.8219,-67
1604496499.8228,-62
1604496499.8252,-57
1604496499.8264,-52
1604496499.8278,-52
1604496499.8298,-60
1604496499.8319,-67
1604496499.8339,-69
1604496499.8359,-64
1604496499.8378,-67
1604496499.8398,-69
1604496499.8418,-60
1604496499.8438,-40
1604496499.8458,-28
1604496499.8478,-38
1604496499.8498,-48
1604496499.8518,-40
1604496499.8538,-31
1604496499.8558,-45
1604496499.8564,-67
1604496499.8578,-60
1604496499.8598,-50
1604496499.8618,-52
1604496499.8637,-50
1604496499.8659,-43
1604496499.8677,-48
1604496499.8697,-88
1604496499.8718,-184
1604496499.8737,-208
1604496499.8758,117
1604496499.8777,797
1604496499.8797,1320
1604496499.8818,979
1604496499.8837,-199
1604496499.8858,-876
1604496499.8866,-460
1604496499.8878,-98
1604496499.8897,-177
1604496499.8918,-117
1604496499.8937,-7
1604496499.8959,-40
1604496499.8977,-45
1604496499.8997,0
1604496499.9017,0
1604496499.9037,-12
1604496499.9059,4
1604496499.9077,16
1604496499.9097,19
1604496499.9118,31
1604496499.9137,45
1604496499.9144,55
1604496499.9158,69
1604496499.9178,93
1604496499.9197,124
1604496499.9217,156
1604496499.9237,182
1604496499.9258,206
1604496499.9277,218
1604496499.9297,218
1604496499.9317,204
1604496499.9337,180
1604496499.9358,141
1604496499.9377,88
1604496499.9397,24
1604496499.9417,-40
1604496499.9437,-86
1604496499.9444,-115
1604496499.9458,-134
1604496499.9477,-146
1604496499.9498,-148
1604496499.9517,-146
1604496499.9537,-141
1604496499.9558,-136
1604496500.3619,-129
1604496500.3629,-127
1604496500.3641,-127
1604496500.3661,-120
1604496500.3680,-108
1604496500.3701,-103
1604496500.3720,-100
1604496500.3740,-96
1604496500.3747,-88
1604496500.3761,-86
1604496500.3780,-88
1604496500.3800,-96
1604496500.3820,-88
1604496500.3842,-79
1604496500.3861,-81
1604496500.3880,-86
1604496500.3900,-84
1604496500.3920,-79
1604496500.3940,-81
1604496500.3960,-84
1604496500.3980,-79
1604496500.4000,-76
1604496500.4020,-81
1604496500.4040,-81
1604496500.4047,-79
1604496500.4060,-79
1604496500.4080,-76
1604496500.4100,-74
1604496500.4121,-72
1604496500.4140,-69
1604496500.4160,-72
1604496500.4179,-69
1604496500.4201,-72
1604496500.4221,-76
1604496500.4240,-79
1604496500.4260,-79
1604496500.4280,-79
1604496500.4301,-76
1604496500.4319,-79
1604496500.4340,-79
1604496500.4346,-74
1604496500.4360,-74
1604496500.4380,-76
1604496500.4400,-76
1604496500.4420,-79
1604496500.4440,-79
1604496500.4460,-76
1604496500.4480,-74
1604496500.4500,-72
1604496500.4520,-69
1604496500.4540,-69
1604496500.4560,-72
1604496500.4580,-74
1604496500.4600,-76
1604496500.4620,-81
1604496500.4641,-81
1604496500.4647,-76
1604496500.4660,-60
1604496500.4680,-33
1604496500.4700,-28
1604496500.4720,-48
1604496500.4740,-52
1604496500.4760,-38
1604496500.4780,-36
1604496500.4801,-52
1604496500.4821,-69
1604496500.4841,-67
1604496500.4860,-60
1604496500.4880,-60
1604496500.4900,-60
1604496500.4920,-62
1604496500.4941,-91
1604496500.4947,-177
1604496500.9621,-223
1604496500.9631,31
1604496500.9655,640
1604496500.9681,1219
1604496500.9701,1130
1604496500.9721,117
1604496500.9742,-775
1604496500.9762,-571
1604496500.9781,-132
1604496500.9801,-180
1604496500.9821,-201
1604496500.9841,-74
1604496500.9861,-76
1604496500.9867,-105
1604496500.9880,-60
1604496500.9900,-45
1604496500.9920,-55
1604496500.9940,-38
1604496500.9961,-26
1604496500.9980,-26
1604496501.0000,-12
1604496501.0020,4
1604496501.0040,12
1604496501.0060,21
1604496501.0080,31
1604496501.0100,45
1604496501.0120,69
1604496501.0140,100
1604496501.0161,127
1604496501.0167,148
1604496501.0180,160
1604496501.0200,160
1604496501.0220,151
1604496501.0240,141
1604496501.0261,117
1604496501.0280,72
1604496501.0300,14
1604496501.0320,-33
1604496501.0341,-69
1604496501.0361,-103
1604496501.0380,-127
1604496501.0400,-136
1604496501.0422,-136
1604496501.0441,-139
1604496501.0461,-134
1604496501.0467,-127
1604496501.0480,-124
1604496501.0500,-124
1604496501.0520,-117
1604496501.0540,-110
1604496501.0560,-100
1604496501.0580,-93
1604496501.0600,-88
1604496501.0620,-84
1604496501.0640,-79
1604496501.0661,-79
1604496501.0683,-79
1604496501.0701,-76
1604496501.0720,-76
1604496501.0740,-74
1604496501.0760,-74
1604496501.0767,-76
1604496501.0780,-69
1604496501.0800,-64
1604496501.0821,-67
1604496501.0840,-64
1604496501.0860,-62
1604496501.0880,-60
1604496501.0900,-60
1604496501.0920,-60
1604496501.0940,-55
1604496501.0960,-50
1604496501.0980,-50
1604496501.4712,-48
1604496501.4720,-43
1604496501.4744,-43
1604496501.4761,-40
1604496501.4780,-36
1604496501.4800,-38
1604496501.4820,-40
1604496501.4840,-28
1604496501.4860,-26
1604496501.4879,-38
1604496501.4899,-43
1604496501.4919,-33
1604496501.4939,-33
1604496501.4960,-43
1604496501.4979,-40
1604496501.4999,-33
1604496501.5019,-33
1604496501.5039,-33
1604496501.5046,-28
1604496501.5059,-24
1604496501.5081,-21
1604496501.5100,-21
1604496501.5119,-21
1604496501.5139,-21
1604496501.5160,-16
1604496501.5179,-12
1604496501.5199,-7
1604496501.5219,-7
1604496501.5239,-7
1604496501.5260,-7
1604496501.5280,-7
1604496501.5299,-9
1604496501.5319,-16
1604496501.5339,-14
1604496501.5345,-4
1604496501.5360,7
1604496501.5380,26
1604496501.5399,43
1604496501.5419,31
1604496501.5439,16
1604496501.5460,28
1604496501.5479,33
1604496501.5499,19
1604496501.5519,7
1604496501.5539,4
1604496501.5560,14
1604496501.5580,19
1604496501.5599,9
1604496501.5619,4
1604496501.5639,-9
1604496501.5646,-74
1604496501.5659,-163
1604496501.5679,-38
1604496501.5699,480
1604496501.5719,1135
1604496501.5739,1339
1604496501.5760,592
1604496501.5779,-492
1604496501.5799,-645
1604496501.5819,-158
1604496501.5839,-64
1604496501.5860,-144
1604496501.5880,-33
1604496501.5899,9
1604496501.5919,-40
1604496501.5939,-9
1604496501.5945,28
1604496501.5959,16
1604496501.5979,19
1604496501.5999,36
1604496501.6019,40
1604496501.6041,43
1604496501.6060,52
1604496502.0422,64
1604496502.0432,79
1604496502.0456,91
1604496502.0472,105
1604496502.0492,132
1604496502.0512,160
1604496502.0532,177
1604496502.0538,196
1604496502.0552,216
1604496502.0572,223
1604496502.0592,216
1604496502.0613,206
1604496502.0633,187
1604496502.0652,141
1604496502.0672,84
1604496502.0692,33
1604496502.0712,-9
1604496502.0732,-50
1604496502.0752,-76
1604496502.0772,-86
1604496502.0792,-91
1604496502.0812,-98
1604496502.0832,-105
1604496502.0838,-96
1604496502.0852,-84
1604496502.0872,-81
1604496502.0892,-76
1604496502.0912,-62
1604496502.0933,-55
1604496502.0953,-57
1604496502.0972,-52
1604496502.0992,-40
1604496502.1012,-33
1604496502.1032,-36
1604496502.1052,-31
1604496502.1072,-26
1604496502.1091,-26
1604496502.1111,-26
1604496502.1131,-21
1604496502.1138,-24
1604496502.1151,-26
1604496502.1171,-24
1604496502.1191,-19
1604496502.1211,-14
1604496502.1232,-9
1604496502.1251,-9
1604496502.1272,-12
1604496502.1291,-9
1604496502.1311,-4
1604496502.1334,-4
1604496502.1352,-4
1604496502.1372,-2
1604496502.1391,-2
1604496502.1411,0
1604496502.1431,4
1604496502.1516,4
1604496502.1532,7
1604496502.1551,12
1604496502.1571,14
1604496502.1591,12
1604496502.1611,9
1604496502.1632,14
1604496502.1651,19
1604496502.1672,21
1604496502.1691,21
1604496502.1711,21
1604496502.1732,26
1604496502.1752,26
1604496502.1772,24
1604496502.1791,21
1604496502.1798,24
1604496502.1811,19
1604496502.1831,14
1604496502.5818,16
1604496502.5825,24
1604496502.5848,26
1604496502.5875,21
1604496502.5895,19
1604496502.5915,21
1604496502.5936,21
1604496502.5955,7
1604496502.5975,-7
1604496502.5995,-4
1604496502.6001,4
1604496502.6015,16
1604496502.6035,40
1604496502.6055,50
1604496502.6076,24
1604496502.6095,9
1604496502.6115,26
1604496502.6135,28
1604496502.6155,4
1604496502.6175,-7
1604496502.6195,4
1604496502.6217,14
1604496502.6235,14
1604496502.6256,12
1604496502.6275,14
1604496502.6295,-19
1604496502.6302,-112
1604496502.6317,-146
1604496502.6336,120
1604496502.6355,729
1604496502.6375,1289
1604496502.6395,1135
1604496502.6415,98
1604496502.6435,-703
1604496502.6455,-456
1604496502.6475,-62
1604496502.6495,-108
1604496502.6515,-100
1604496502.6535,12
1604496502.6555,2
1604496502.6575,-16
1604496502.6595,21
1604496502.6601,33
1604496502.6615,31
1604496502.6635,45
1604496502.6655,57
1604496502.6675,62
1604496502.6695,72
1604496502.6714,81
1604496502.6735,96
1604496502.6755,115
1604496502.6775,134
1604496502.6796,153
1604496502.6815,180
1604496502.6835,211
1604496502.6855,242
1604496502.6875,271
1604496502.6895,283
1604496502.6901,280
1604496502.6915,276
1604496502.6935,256
1604496502.6955,218
1604496502.6975,165
1604496502.6995,98
1604496502.7015,38
1604496502.7035,-4
1604496502.7055,-36
1604496502.7075,-60
1604496502.7095,-74
1604496502.7115,-79
1604496502.7135,-79
1604496502.7155,-81
1604496502.7175,-76
1604496503.1820,-67
1604496503.1828,-60
1604496503.1853,-57
1604496503.1879,-55
1604496503.1900,-55
1604496503.1922,-60
1604496503.1941,-55
1604496503.1960,-52
1604496503.1979,-57
1604496503.1999,-48
1604496503.2019,-33
1604496503.2040,-26
1604496503.2059,-26
1604496503.2078,-28
1604496503.2099,-26
1604496503.2105,-24
1604496503.2118,-24
1604496503.2138,-21
1604496503.2160,-16
1604496503.2179,-19
1604496503.2199,-24
1604496503.2219,-24
1604496503.2238,-21
1604496503.2259,-21
1604496503.2279,-24
1604496503.2298,-16
1604496503.2318,-7
1604496503.2338,-9
1604496503.2359,-12
1604496503.2378,-9
1604496503.2398,-7
1604496503.2404,-2
1604496503.2419,4
1604496503.2438,2
1604496503.2459,0
1604496503.2478,7
1604496503.2498,12
1604496503.2518,12
1604496503.2538,12
1604496503.2559,12
1604496503.2578,14
1604496503.2598,16
1604496503.2618,14
1604496503.2638,16
1604496503.2658,19
1604496503.2678,21
1604496503.2698,19
1604496503.2706,21
1604496503.2718,21
1604496503.2738,16
1604496503.2758,12
1604496503.2779,21
1604496503.2798,38
1604496503.2818,57
1604496503.2838,60
1604496503.2859,40
1604496503.2881,31
1604496503.2899,40
1604496503.2918,38
1604496503.2938,19
1604496503.2959,7
1604496503.2978,9
1604496503.2998,14
1604496503.3004,14
1604496503.3018,16
1604496503.3038,14
1604496503.3058,-24
1604496503.3078,-112
1604496503.3098,-127
1604496503.3118,177
1604496503.3138,806
1604496503.3159,1308
1604496503.3178,1017
1604496503.7517,-88
1604496503.7524,-775
1604496503.7548,-420
1604496503.7575,-69
1604496503.7581,-144
1604496503.7595,-103
1604496503.7615,14
1604496503.7635,-9
1604496503.7654,-24
1604496503.7674,4
1604496503.7694,-7
1604496503.7715,-12
1604496503.7734,9
1604496503.7754,12
1604496503.7774,12
1604496503.7794,28
1604496503.7814,48
1604496503.7834,55
1604496503.7854,72
1604496503.7874,93
1604496503.7880,112
1604496503.7894,141
1604496503.7914,177
1604496503.7934,206
1604496503.7954,225
1604496503.7974,235
1604496503.7994,232
1604496503.8014,220
1604496503.8034,199
1604496503.8054,156
1604496503.8074,93
1604496503.8094,24
1604496503.8114,-40
1604496503.8134,-84
1604496503.8156,-115
1604496503.8175,-136
1604496503.8180,-146
1604496503.8195,-146
1604496503.8214,-144
1604496503.8234,-141
1604496503.8254,-136
1604496503.8274,-129
1604496503.8294,-124
1604496503.8314,-122
1604496503.8334,-122
1604496503.8354,-117
1604496503.8374,-105
1604496503.8394,-98
1604496503.8414,-93
1604496503.8434,-84
1604496503.8454,-76
1604496503.8474,-74
1604496503.8480,-72
1604496503.8494,-57
1604496503.8515,-48
1604496503.8534,-50
1604496503.8554,-52
1604496503.8574,-50
1604496503.8594,-50
1604496503.8614,-43
1604496503.8634,-38
1604496503.8654,-45
1604496503.8674,-48
1604496503.8694,-43
1604496503.8715,-43
1604496503.8734,-48
1604496503.8754,-50
1604496503.8774,-48
1604496503.8780,-48
1604496503.8794,-48
1604496503.8814,-40
1604496503.8834,-36
1604496503.8854,-36
1604496504.2914,-28
1604496504.2924,-26
1604496504.2948,-33
1604496504.2974,-31
1604496504.2994,-26
1604496504.3015,-28
1604496504.3037,-33
1604496504.3054,-31
1604496504.3074,-21
1604496504.3093,-14
1604496504.3100,-21
1604496504.3114,-36
1604496504.3136,-33
1604496504.3154,-24
1604496504.3174,-26
1604496504.3194,-28
1604496504.3214,-21
1604496504.3234,-19
1604496504.3254,-31
1604496504.3273,-36
1604496504.3294,-24
1604496504.3313,-7
1604496504.3333,4
1604496504.3354,21
1604496504.3373,28
1604496504.3393,7
1604496504.3399,2
1604496504.3415,16
1604496504.3433,16
1604496504.3453,-2
1604496504.3473,-14
1604496504.3493,-12
1604496504.3513,2
1604496504.3533,7
1604496504.3553,-2
1604496504.3573,-21
1604496504.3593,-72
1604496504.3613,-158
1604496504.3633,-86
1604496504.3653,355
1604496504.3673,991
1604496504.3693,1262
1604496504.3699,624
1604496504.3713,-444
1604496504.3733,-677
1604496504.3753,-211
1604496504.3774,-74
1604496504.3793,-148
1604496504.3813,-48
1604496504.3834,9
1604496504.3853,-28
1604496504.3873,-12
1604496504.3893,19
1604496504.3913,14
1604496504.3933,19
1604496504.3953,38
1604496504.3974,45
1604496504.3993,45
1604496504.3999,52
1604496504.4013,64
1604496504.4033,79
1604496504.4053,100
1604496504.4074,120
1604496504.4095,139
1604496504.4114,170
1604496504.4133,206
1604496504.4154,235
1604496504.4174,252
1604496504.4193,254
1604496504.4214,247
1604496504.4233,232
1604496504.4253,206
1604496504.4274,163
1604496504.8319,105
1604496504.8328,48
1604496504.8352,2
1604496504.8378,-33
1604496504.8398,-64
1604496504.8419,-86
1604496504.8440,-88
1604496504.8458,-91
1604496504.8478,-100
1604496504.8498,-93
1604496504.8518,-79
1604496504.8538,-74
1604496504.8558,-76
1604496504.8578,-69
1604496504.8584,-52
1604496504.8598,-36
1604496504.8618,-31
1604496504.8638,-24
1604496504.8659,-2
1604496504.8678,16
1604496504.8697,31
1604496504.8717,52
1604496504.8737,86
1604496504.8758,127
1604496504.8777,163
1604496504.8797,196
1604496504.8817,223
1604496504.8837,213
1604496504.8858,201
1604496504.8877,204
1604496504.8883,189
1604496504.8897,160
1604496504.8918,144
1604496504.8937,122
1604496504.8958,93
1604496504.8977,76
1604496504.8998,72
1604496504.9017,64
1604496504.9037,55
1604496504.9058,50
1604496504.9077,50
1604496504.9099,57
1604496504.9118,64
1604496504.9137,62
1604496504.9158,62
1604496504.9177,69
1604496504.9183,72
1604496504.9197,72
1604496504.9217,74
1604496504.9237,79
1604496504.9258,72
1604496504.9277,52
1604496504.9297,45
1604496504.9317,48
1604496504.9337,45
1604496504.9358,48
1604496504.9377,52
1604496504.9397,38
1604496504.9417,16
1604496504.9437,19
1604496504.9458,36
1604496504.9477,48
1604496504.9483,62
1604496504.9498,67
1604496504.9518,60
1604496504.9537,52
1604496504.9558,50
1604496504.9577,45
1604496504.9597,31
1604496504.9617,21
1604496504.9637,26
1604496504.9657,31
1604496504.9677,31
1604496505.4019,26
1604496505.4027,7
1604496505.4051,-50
1604496505.4078,-129
1604496505.4099,-45
1604496505.4105,391
1604496505.4118,1003
1604496505.4139,1226
1604496505.4159,525
1604496505.4178,-516
1604496505.4198,-662
1604496505.4219,-201
1604496505.4238,-88
1604496505.4259,-136
1604496505.4278,-33
1604496505.4299,0
1604496505.4319,-40
1604496505.4338,-12
1604496505.4358,19
1604496505.4380,4
1604496505.4399,4
1604496505.4404,24
1604496505.4418,36
1604496505.4438,43
1604496505.4458,60
1604496505.4477,72
1604496505.4497,84
1604496505.4517,98
1604496505.4537,117
1604496505.4558,136
1604496505.4577,165
1604496505.4597,201
1604496505.4617,230
1604496505.4637,247
1604496505.4658,254
1604496505.4677,244
1604496505.4697,230
1604496505.4703,206
1604496505.4717,160
1604496505.4737,96
1604496505.4757,31
1604496505.4777,-16
1604496505.4797,-52
1604496505.4817,-93
1604496505.4837,-122
1604496505.4858,-127
1604496505.4877,-122
1604496505.4897,-122
1604496505.4919,-120
1604496505.4938,-115
1604496505.4957,-115
1604496505.4977,-105
1604496505.4997,-93
1604496505.5003,-96
1604496505.5017,-91
1604496505.5037,-81
1604496505.5058,-74
1604496505.5077,-67
1604496505.5097,-62
1604496505.5117,-64
1604496505.5137,-57
1604496505.5157,-48
1604496505.5177,-43
1604496505.5197,-40
1604496505.5217,-38
1604496505.5237,-33
1604496505.5258,-31
1604496505.5277,-31
1604496505.5297,-38
1604496505.5303,-40
1604496505.5319,-36
1604496505.5338,-28
1604496505.5357,-26
1604496505.9416,-21
1604496505.9425,-16
1604496505.9450,-16
1604496505.9476,-16
1604496505.9496,-12
1604496505.9516,-12
1604496505.9537,-14
1604496505.9556,-19
1604496505.9576,-19
1604496505.9582,-16
1604496505.9595,-19
1604496505.9615,-21
1604496505.9636,-16
1604496505.9657,-9
1604496505.9676,-9
1604496505.9696,-7
1604496505.9717,-4
1604496505.9735,-7
1604496505.9756,-7
1604496505.9775,-2
1604496505.9795,-2
1604496505.9815,-7
1604496505.9835,-7
1604496505.9855,2
1604496505.9875,19
1604496505.9882,45
1604496505.9895,55
1604496505.9915,33
1604496505.9936,19
1604496505.9955,31
1604496505.9975,36
1604496505.9995,19
1604496506.0015,4
1604496506.0035,7
1604496506.0055,12
1604496506.0075,7
1604496506.0095,4
1604496506.0115,7
1604496506.0135,-26
1604496506.0155,-108
1604496506.0161,-122
1604496506.0175,165
1604496506.0195,758
1604496506.0216,1224
1604496506.0237,921
1604496506.0255,-122
1604496506.0275,-717
1604496506.0295,-372
1604496506.0317,-64
1604496506.0336,-115
1604496506.0356,-64
1604496506.0375,24
1604496506.0395,2
1604496506.0415,2
1604496506.0435,45
1604496506.0455,60
1604496506.0461,57
1604496506.0475,62
1604496506.0495,69
1604496506.0515,84
1604496506.0535,96
1604496506.0555,108
1604496506.0575,122
1604496506.0595,139
1604496506.0615,158
1604496506.0635,182
1604496506.0655,213
1604496506.0675,247
1604496506.0695,276
1604496506.0716,300
1604496506.0736,312
1604496506.0756,309
1604496506.0761,300
1604496506.5428,280
1604496506.5435,242
1604496506.5452,189
1604496506.5470,127
1604496506.5490,74
1604496506.5511,40
1604496506.5530,19
1604496506.5550,0
1604496506.5570,-9
1604496506.5589,-12
1604496506.5609,-9
1604496506.5629,-2
1604496506.5635,7
1604496506.5649,16
1604496506.5670,26
1604496506.5689,36
1604496506.5709,40
1604496506.5729,50
1604496506.5749,60
1604496506.5769,67
1604496506.5789,64
1604496506.5809,62
1604496506.5829,64
1604496506.5849,69
1604496506.5870,67
1604496506.5889,62
1604496506.5911,55
1604496506.5929,38
1604496506.5935,24
1604496506.5949,19
1604496506.5968,19
1604496506.5989,14
1604496506.6008,9
1604496506.6028,4
1604496506.6048,2
1604496506.6069,-4
1604496506.6088,-9
1604496506.6109,-7
1604496506.6130,-7
1604496506.6149,-9
1604496506.6169,-12
1604496506.6189,-9
1604496506.6209,-9
1604496506.6230,-7
1604496506.6236,-4
1604496506.6248,-7
1604496506.6269,-9
1604496506.6289,-7
1604496506.6309,2
1604496506.6328,4
1604496506.6349,2
1604496506.6369,0
1604496506.6389,4
1604496506.6409,2
1604496506.6429,-4
1604496506.6449,7
1604496506.6469,26
1604496506.6489,45
1604496506.6509,55
1604496506.6528,40
1604496506.6535,26
1604496506.6549,33
1604496506.6569,31
1604496506.6589,14
1604496506.6609,0
1604496506.6628,0
1604496506.6649,4
1604496506.6669,7
1604496506.6689,9
1604496506.6709,12
1604496506.6729,-16
1604496506.6748,-91
1604496506.6769,-122
1604496507.1121,124
1604496507.1133,705
1604496507.1149,1221
1604496507.1173,1029
1604496507.1196,4
1604496507.1213,-734
1604496507.1233,-451
1604496507.1253,-84
1604496507.1273,-132
1604496507.1293,-100
1604496507.1313,14
1604496507.1333,0
1604496507.1353,-14
1604496507.1374,26
1604496507.1393,36
1604496507.1413,36
1604496507.1433,57
1604496507.1454,69
1604496507.1461,67
1604496507.1473,74
1604496507.1494,86
1604496507.1514,100
1604496507.1533,122
1604496507.1553,146
1604496507.1573,160
1604496507.1593,184
1604496507.1613,228
1604496507.1633,261
1604496507.1653,280
1604496507.1673,292
1604496507.1693,292
1604496507.1713,276
1604496507.1733,247
1604496507.1753,208
1604496507.1758,156
1604496507.1777,91
1604496507.1793,33
1604496507.1813,-14
1604496507.1833,-55
1604496507.1852,-84
1604496507.1872,-91
1604496507.1893,-93
1604496507.1913,-91
1604496507.1932,-91
1604496507.1952,-88
1604496507.1972,-81
1604496507.1992,-74
1604496507.2013,-69
1604496507.2033,-64
1604496507.2052,-57
1604496507.2059,-50
1604496507.2072,-48
1604496507.2092,-40
1604496507.2112,-33
1604496507.2132,-31
1604496507.2154,-31
1604496507.2173,-33
1604496507.2192,-26
1604496507.2212,-19
1604496507.2233,-21
1604496507.2252,-28
1604496507.2272,-31
1604496507.2293,-31
1604496507.2312,-31
1604496507.2332,-33
1604496507.2352,-40
1604496507.2358,-43
1604496507.2372,-38
1604496507.2392,-36
1604496507.2413,-36
1604496507.2432,-31
1604496507.2452,-26
1604496507.2473,-26
1604496507.6517,-26
1604496507.6524,-33
1604496507.6547,-36
1604496507.6565,-26
1604496507.6584,-7
1604496507.6604,14
1604496507.6610,26
1604496507.6624,16
1604496507.6644,2
1604496507.6664,7
1604496507.6684,0
1604496507.6704,-19
1604496507.6724,-31
1604496507.6744,-36
1604496507.6764,-36
1604496507.6784,-28
1604496507.6804,-24
1604496507.6824,-24
1604496507.6844,-45
1604496507.6864,-117
1604496507.6885,-177
1604496507.6905,4
1604496507.6910,552
1604496507.6924,1118
1604496507.6945,1061
1604496507.6964,112
1604496507.6984,-741
1604496507.7004,-559
1604496507.7024,-122
1604496507.7044,-122
1604496507.7064,-112
1604496507.7084,7
1604496507.7104,7
1604496507.7126,-12
1604496507.7144,24
1604496507.7164,36
1604496507.7176,31
1604496507.7182,43
1604496507.7204,52
1604496507.7224,57
1604496507.7244,72
1604496507.7264,88
1604496507.7284,103
1604496507.7304,122
1604496507.7325,136
1604496507.7344,158
1604496507.7364,187
1604496507.7384,211
1604496507.7404,237
1604496507.7424,268
1604496507.7444,280
1604496507.7464,266
1604496507.7484,247
1604496507.7490,225
1604496507.7504,184
1604496507.7524,124
1604496507.7544,62
1604496507.7564,4
1604496507.7584,-38
1604496507.7604,-72
1604496507.7624,-96
1604496507.7644,-108
1604496507.7664,-105
1604496507.7684,-103
1604496507.7704,-100
1604496507.7724,-100
1604496507.7744,-96
1604496507.7764,-91
1604496507.7784,-84
1604496507.7790,-74
1604496507.7804,-69
1604496507.7824,-64
1604496507.7844,-64
1604496508.2218,-57
1604496508.2226,-43
1604496508.2250,-40
1604496508.2277,-48
1604496508.2296,-48
1604496508.2316,-50
1604496508.2337,-57
1604496508.2357,-62
1604496508.2376,-62
1604496508.2396,-57
1604496508.2417,-55
1604496508.2439,-55
1604496508.2447,-55
1604496508.2467,-52
1604496508.2486,-50
1604496508.2506,-48
1604496508.2526,-45
1604496508.2546,-50
1604496508.2566,-57
1604496508.2586,-62
1604496508.2606,-57
1604496508.2626,-43
1604496508.2646,-21
1604496508.2666,-4
1604496508.2686,-9
1604496508.2706,-16
1604496508.2726,-9
1604496508.2746,-12
1604496508.2752,-28
1604496508.2766,-43
1604496508.2786,-45
1604496508.2806,-43
1604496508.2826,-38
1604496508.2846,-36
1604496508.2866,-38
1604496508.2885,-62
1604496508.2906,-139
1604496508.2925,-204
1604496508.2945,-21
1604496508.2966,520
1604496508.2985,1087
1604496508.3005,1034
1604496508.3025,93
1604496508.3045,-753
1604496508.3051,-576
1604496508.3066,-144
1604496508.3086,-136
1604496508.3105,-139
1604496508.3125,-31
1604496508.3145,-31
1604496508.3165,-52
1604496508.3185,-14
1604496508.3205,0
1604496508.3225,-2
1604496508.3245,12
1604496508.3265,28
1604496508.3286,33
1604496508.3305,38
1604496508.3325,48
1604496508.3345,60
1604496508.3351,76
1604496508.3366,100
1604496508.3387,127
1604496508.3406,148
1604496508.3425,175
1604496508.3445,199
1604496508.3466,220
1604496508.3486,235
1604496508.3505,230
1604496508.3525,208
1604496508.3546,172
1604496508.3566,127
1604496508.3585,72
1604496508.7617,16
1604496508.7625,-33
1604496508.7650,-72
1604496508.7666,-100
1604496508.7685,-122
1604496508.7705,-129
1604496508.7725,-132
1604496508.7745,-139
1604496508.7766,-141
1604496508.7785,-132
1604496508.7805,-122
1604496508.7825,-120
1604496508.7845,-115
1604496508.7865,-103
1604496508.7885,-91
1604496508.7905,-88
1604496508.7911,-88
1604496508.7925,-81
1604496508.7946,-72
1604496508.7965,-69
1604496508.7986,-69
1604496508.8006,-67
1604496508.8025,-62
1604496508.8046,-60
1604496508.8066,-67
1604496508.8087,-67
1604496508.8106,-60
1604496508.8127,-60
1604496508.8145,-62
1604496508.8165,-60
1604496508.8185,-57
1604496508.8205,-55
1604496508.8211,-57
1604496508.8225,-57
1604496508.8245,-57
1604496508.8265,-60
1604496508.8285,-62
1604496508.8305,-52
1604496508.8325,-28
1604496508.8345,-7
1604496508.8367,-4
1604496508.8385,-19
1604496508.8405,-19
1604496508.8425,-14
1604496508.8445,-19
1604496508.8465,-33
1604496508.8485,-43
1604496508.8505,-38
1604496508.8511,-31
1604496508.8525,-28
1604496508.8545,-24
1604496508.8565,-31
1604496508.8585,-81
1604496508.8606,-172
1604496508.8625,-144
1604496508.8645,235
1604496508.8665,857
1604496508.8685,1188
1604496508.8705,640
1604496508.8725,-424
1604496508.8745,-749
1604496508.8765,-297
1604496508.8785,-91
1604496508.8805,-156
1604496508.8811,-79
1604496508.8825,-12
1604496508.8845,-43
1604496508.8865,-36
1604496508.8886,0
1604496508.8905,-2
1604496508.8925,-2
1604496508.8945,14
1604496508.8966,14
1604496509.3320,16
1604496509.3329,38
1604496509.3354,57
1604496509.3371,64
1604496509.3390,79
1604496509.3410,96
1604496509.3416,115
1604496509.3430,146
1604496509.3450,177
1604496509.3470,199
1604496509.3490,211
1604496509.3510,211
1604496509.3530,201
1604496509.3550,180
1604496509.3570,151
1604496509.3589,110
1604496509.3609,50
1604496509.3629,-12
1604496509.3652,-57
1604496509.3670,-91
1604496509.3689,-117
1604496509.3709,-132
1604496509.3716,-136
1604496509.3729,-136
1604496509.3749,-132
1604496509.3770,-127
1604496509.3789,-117
1604496509.3809,-105
1604496509.3829,-100
1604496509.3849,-100
1604496509.3869,-88
1604496509.3889,-74
1604496509.3909,-74
1604496509.3929,-74
1604496509.3949,-69
1604496509.3969,-62
1604496509.3989,-57
1604496509.4009,-57
1604496509.4015,-52
1604496509.4029,-50
1604496509.4049,-50
1604496509.4069,-50
1604496509.4089,-52
1604496509.4108,-52
1604496509.4129,-50
1604496509.4149,-48
1604496509.4169,-48
1604496509.4189,-48
1604496509.4209,-55
1604496509.4229,-52
1604496509.4249,-40
1604496509.4269,-31
1604496509.4289,-14
1604496509.4309,-9
1604496509.4315,-19
1604496509.4329,-21
1604496509.4349,-14
1604496509.4369,-21
1604496509.4389,-40
1604496509.4409,-45
1604496509.4429,-36
1604496509.4449,-38
1604496509.4469,-33
1604496509.4490,-24
1604496509.4509,-36
1604496509.4529,-67
1604496509.4549,-141
1604496509.4569,-182
1604496509.4589,48
1604496509.4610,621
1604496509.4616,1137
1604496509.4629,938
1604496509.4649,-60
1604496509.9316,-741
1604496509.9322,-460
1604496509.9347,-105
1604496509.9369,-129
1604496509.9382,-96
1604496509.9402,2
1604496509.9422,-12
1604496509.9442,-33
1604496509.9462,-4
1604496509.9482,9
1604496509.9502,9
1604496509.9508,24
1604496509.9522,40
1604496509.9542,50
1604496509.9563,57
1604496509.9582,67
1604496509.9602,81
1604496509.9622,110
1604496509.9642,136
1604496509.9662,153
1604496509.9682,170
1604496509.9702,199
1604496509.9722,230
1604496509.9742,242
1604496509.9762,242
1604496509.9782,237
1604496509.9802,218
1604496509.9808,184
1604496509.9822,146
1604496509.9842,96
1604496509.9862,36
1604496509.9882,-16
1604496509.9902,-62
1604496509.9922,-93
1604496509.9942,-108
1604496509.9962,-115
1604496509.9982,-120
1604496510.0003,-120
1604496510.0022,-115
1604496510.0042,-108
1604496510.0062,-98
1604496510.0082,-86
1604496510.0102,-81
1604496510.0108,-79
1604496510.0122,-76
1604496510.0142,-69
1604496510.0162,-62
1604496510.0184,-57
1604496510.0202,-55
1604496510.0222,-60
1604496510.0242,-60
1604496510.0262,-52
1604496510.0282,-50
1604496510.0302,-48
1604496510.0322,-45
1604496510.0342,-45
1604496510.0362,-48
1604496510.0382,-48
1604496510.0402,-45
1604496510.0408,-43
1604496510.0422,-40
1604496510.0442,-40
1604496510.0462,-45
1604496510.0482,-45
1604496510.0502,-36
1604496510.0522,-21
1604496510.0542,-2
1604496510.0562,9
1604496510.0582,-2
1604496510.0602,-7
1604496510.0622,4
1604496510.0642,4
1604496510.0662,-14
1604496510.5019,-26
1604496510.5028,-26
1604496510.5053,-26
1604496510.5079,-24
1604496510.5099,-12
1604496510.5119,-12
1604496510.5140,-38
1604496510.5159,-110
1604496510.5179,-182
1604496510.5199,-24
1604496510.5219,499
1604496510.5239,1068
1604496510.5260,1044
1604496510.5279,156
1604496510.5299,-686
1604496510.5319,-559
1604496510.5339,-139
1604496510.5345,-110
1604496510.5358,-105
1604496510.5378,-7
1604496510.5398,-2
1604496510.5418,-14
1604496510.5438,12
1604496510.5459,16
1604496510.5478,16
1604496510.5500,36
1604496510.5518,45
1604496510.5539,52
1604496510.5559,69
1604496510.5578,84
1604496510.5598,93
1604496510.5618,105
1604496510.5638,124
1604496510.5644,151
1604496510.5658,172
1604496510.5678,196
1604496510.5698,223
1604496510.5719,242
1604496510.5738,242
1604496510.5758,230
1604496510.5778,211
1604496510.5798,180
1604496510.5818,141
1604496510.5838,96
1604496510.5858,38
1604496510.5878,-14
1604496510.5898,-55
1604496510.5918,-86
1604496510.5938,-103
1604496510.5943,-112
1604496510.5958,-117
1604496510.5978,-117
1604496510.5998,-112
1604496510.6018,-105
1604496510.6038,-98
1604496510.6058,-98
1604496510.6078,-93
1604496510.6098,-81
1604496510.6118,-74
1604496510.6138,-72
1604496510.6158,-67
1604496510.6178,-60
1604496510.6198,-60
1604496510.6218,-62
1604496510.6238,-57
1604496510.6244,-60
1604496510.6258,-64
1604496510.6278,-64
1604496510.6298,-64
1604496510.6318,-64
1604496510.6338,-67
1604496510.6358,-67
1604496510.6378,-67
1604496511.0118,-69
1604496511.0126,-69
1604496511.0150,-67
1604496511.0179,-62
1604496511.0197,-62
1604496511.0203,-60
1604496511.0216,-55
1604496511.0237,-52
1604496511.0257,-38
1604496511.0276,-21
1604496511.0296,-24
1604496511.0316,-36
1604496511.0336,-36
1604496511.0357,-33
1604496511.0376,-43
1604496511.0396,-52
1604496511.0416,-57
1604496511.0436,-48
1604496511.0456,-43
1604496511.0476,-45
1604496511.0496,-48
1604496511.0502,-50
1604496511.0516,-88
1604496511.0535,-180
1604496511.0556,-141
1604496511.0576,254
1604496511.0596,871
1604496511.0616,1171
1604496511.0636,590
1604496511.0656,-444
1604496511.0675,-701
1604496511.0695,-244
1604496511.0715,-74
1604496511.0736,-127
1604496511.0756,-31
1604496511.0775,28
1604496511.0795,-7
1604496511.0801,2
1604496511.0815,36
1604496511.0835,40
1604496511.0856,52
1604496511.0875,74
1604496511.0895,88
1604496511.0915,98
1604496511.0935,110
1604496511.0956,127
1604496511.0975,146
1604496511.0995,165
1604496511.1015,187
1604496511.1035,206
1604496511.1056,237
1604496511.1076,273
1604496511.1095,288
1604496511.1101,297
1604496511.1117,297
1604496511.1136,280
1604496511.1157,254
1604496511.1175,223
1604496511.1195,177
1604496511.1215,122
1604496511.1235,64
1604496511.1256,14
1604496511.1276,-26
1604496511.1296,-52
1604496511.1315,-64
1604496511.1335,-69
1604496511.1356,-72
1604496511.1375,-72
1604496511.1395,-69
1604496511.1402,-62
1604496511.1415,-55
1604496511.1435,-45
1604496511.1456,-38
1604496511.5817,-36
1604496511.5825,-33
1604496511.5850,-26
1604496511.5876,-24
1604496511.5896,-19
1604496511.5916,-24
1604496511.5939,-36
1604496511.5956,-36
1604496511.5976,-33
1604496511.5997,-38
1604496511.6003,-40
1604496511.6016,-33
1604496511.6036,-33
1604496511.6056,-43
1604496511.6075,-50
1604496511.6095,-50
1604496511.6115,-50
1604496511.6137,-48
1604496511.6156,-40
1604496511.6176,-16
1604496511.6195,-9
1604496511.6215,-21
1604496511.6235,-16
1604496511.6256,-9
1604496511.6275,-24
1604496511.6295,-50
1604496511.6301,-55
1604496511.6316,-43
1604496511.6335,-40
1604496511.6356,-43
1604496511.6375,-38
1604496511.6395,-33
1604496511.6417,-55
1604496511.6436,-141
1604496511.6455,-211
1604496511.6475,-7
1604496511.6495,580
1604496511.6515,1164
1604496511.6535,1053
1604496511.6556,45
1604496511.6575,-770
1604496511.6595,-540
1604496511.6601,-139
1604496511.6615,-151
1604496511.6635,-115
1604496511.6656,2
1604496511.6675,-7
1604496511.6695,-21
1604496511.6715,12
1604496511.6735,24
1604496511.6755,21
1604496511.6775,36
1604496511.6795,48
1604496511.6815,55
1604496511.6835,69
1604496511.6856,84
1604496511.6875,96
1604496511.6895,115
1604496511.6901,146
1604496511.6915,175
1604496511.6935,196
1604496511.6955,225
1604496511.6975,259
1604496511.6995,273
1604496511.7015,268
1604496511.7035,256
1604496511.7055,235
1604496511.7075,201
1604496511.7095,146
1604496511.7115,84
1604496511.7135,28
1604496511.7155,-19
1604496511.7175,-62
1604496512.1217,-91
1604496512.1225,-110
1604496512.1251,-120
1604496512.1276,-120
1604496512.1296,-115
1604496512.1316,-112
1604496512.1337,-112
1604496512.1357,-112
1604496512.1376,-105
1604496512.1396,-93
1604496512.1419,-88
1604496512.1436,-81
1604496512.1456,-69
1604496512.1476,-64
1604496512.1496,-60
1604496512.1516,-55
1604496512.1522,-50
1604496512.1535,-50
1604496512.1556,-50
1604496512.1576,-50
1604496512.1596,-52
1604496512.1616,-50
1604496512.1635,-52
1604496512.1656,-57
1604496512.1675,-57
1604496512.1696,-50
1604496512.1716,-52
1604496512.1735,-52
1604496512.1756,-52
1604496512.1776,-55
1604496512.1795,-48
1604496512.1815,-24
1604496512.1821,-14
1604496512.1836,-31
1604496512.1856,-36
1604496512.1875,-24
1604496512.1895,-19
1604496512.1915,-36
1604496512.1935,-55
1604496512.1956,-48
1604496512.1975,-38
1604496512.1995,-38
1604496512.2015,-33
1604496512.2035,-28
1604496512.2056,-40
1604496512.2075,-108
1604496512.2095,-199
1604496512.2115,-122
1604496512.2121,321
1604496512.2135,948
1604496512.2155,1169
1604496512.2175,463
1604496512.2195,-568
1604496512.2215,-693
1604496512.2235,-208
1604496512.2256,-86
1604496512.2275,-139
1604496512.2295,-33
1604496512.2315,16
1604496512.2335,-19
1604496512.2356,-2
1604496512.2377,28
1604496512.2396,24
1604496512.2415,26
1604496512.2421,43
1604496512.2435,55
1604496512.2456,60
1604496512.2477,72
1604496512.2495,88
1604496512.2515,105
1604496512.2535,124
1604496512.2556,146
1604496512.2575,170
1604496512.6921,201
1604496512.6932,230
1604496512.6955,249
1604496512.6981,252
1604496512.6989,235
1604496512.7002,211
1604496512.7021,192
1604496512.7042,158
1604496512.7061,105
1604496512.7082,48
1604496512.7102,-4
1604496512.7122,-48
1604496512.7141,-86
1604496512.7161,-105
1604496512.7182,-105
1604496512.7201,-105
1604496512.7222,-110
1604496512.7245,-108
1604496512.7261,-96
1604496512.7281,-88
1604496512.7287,-84
1604496512.7301,-72
1604496512.7321,-62
1604496512.7342,-60
1604496512.7361,-55
1604496512.7381,-48
1604496512.7401,-38
1604496512.7421,-33
1604496512.7441,-33
1604496512.7461,-28
1604496512.7481,-28
1604496512.7501,-28
1604496512.7521,-28
1604496512.7541,-24
1604496512.7561,-21
1604496512.7580,-24
1604496512.7587,-24
1604496512.7601,-24
1604496512.7621,-21
1604496512.7643,-24
1604496512.7662,-21
1604496512.7681,-21
1604496512.7700,-24
1604496512.7720,-21
1604496512.7742,-19
1604496512.7761,-14
1604496512.7780,2
1604496512.7800,19
1604496512.7820,21
1604496512.7840,7
1604496512.7861,9
1604496512.7880,14
1604496512.7886,0
1604496512.7901,-16
1604496512.7920,-16
1604496512.7940,-9
1604496512.7961,-7
1604496512.7981,-9
1604496512.8000,-7
1604496512.8020,-12
1604496512.8040,-50
1604496512.8061,-141
1604496512.8080,-168
1604496512.8101,129
1604496512.8121,749
1604496512.8140,1214
1604496512.8160,878
1604496512.8180,-187
1604496512.8186,-758
1604496512.8200,-379
1604496512.8220,-64
1604496512.8240,-124
1604496512.8260,-69
1604496513.2919,31
1604496513.2931,7
1604496513.2956,0
1604496513.2981,33
1604496513.3001,28
1604496513.3022,16
1604496513.3042,26
1604496513.3062,45
1604496513.3081,57
1604496513.3101,67
1604496513.3121,79
1604496513.3127,98
1604496513.3141,117
1604496513.3162,136
1604496513.3181,158
1604496513.3201,189
1604496513.3221,223
1604496513.3244,249
1604496513.3261,261
1604496513.3281,261
1604496513.3301,252
1604496513.3321,228
1604496513.3341,194
1604496513.3361,151
1604496513.3381,96
1604496513.3401,38
1604496513.3421,-9
1604496513.3427,-45
1604496513.3441,-69
1604496513.3461,-84
1604496513.3481,-88
1604496513.3500,-84
1604496513.3521,-81
1604496513.3541,-84
1604496513.3561,-81
1604496513.3580,-72
1604496513.3601,-64
1604496513.3620,-60
1604496513.3641,-55
1604496513.3660,-48
1604496513.3680,-38
1604496513.3700,-33
1604496513.3707,-33
1604496513.3720,-26
1604496513.3740,-21
1604496513.3760,-21
1604496513.3780,-16
1604496513.3800,-12
1604496513.3820,-19
1604496513.3841,-24
1604496513.3861,-19
1604496513.3880,-24
1604496513.3900,-26
1604496513.3920,-24
1604496513.3940,-24
1604496513.3960,-24
1604496513.3980,-26
1604496513.4000,-24
1604496513.4007,-21
1604496513.4021,-19
1604496513.4040,-16
1604496513.4061,-16
1604496513.4080,-21
1604496513.4100,-31
1604496513.4121,-33
1604496513.4140,-31
1604496513.4161,-24
1604496513.4180,-12
1604496513.4202,2
1604496513.4220,12
1604496513.4240,2
1604496513.4260,-4
1604496513.4280,0
1604496513.8319,0
1604496513.8328,-16
1604496513.8353,-31
1604496513.8369,-26
1604496513.8389,-14
1604496513.8409,-14
1604496513.8429,-16
1604496513.8449,-16
1604496513.8469,-33
1604496513.8488,-96
1604496513.8508,-165
1604496513.8528,-45
1604496513.8534,436
1604496513.8548,1034
1604496513.8568,1137
1604496513.8588,314
1604496513.8608,-677
1604496513.8628,-672
1604496513.8648,-180
1604496513.8668,-112
1604496513.8688,-139
1604496513.8708,-19
1604496513.8728,0
1604496513.8748,-33
1604496513.8768,4
1604496513.8788,26
1604496513.8808,12
1604496513.8827,28
1604496513.8834,52
1604496513.8848,52
1604496513.8868,57
1604496513.8888,74
1604496513.8908,86
1604496513.8928,105
1604496513.8948,129
1604496513.8968,146
1604496513.8988,170
1604496513.9008,201
1604496513.9028,223
1604496513.9048,244
1604496513.9068,264
1604496513.9088,252
1604496513.9108,228
1604496513.9128,208
1604496513.9134,170
1604496513.9148,108
1604496513.9170,48
1604496513.9188,-2
1604496513.9207,-48
1604496513.9228,-81
1604496513.9248,-103
1604496513.9268,-112
1604496513.9289,-117
1604496513.9308,-115
1604496513.9328,-110
1604496513.9334,-105
1604496513.9358,-103
1604496513.9378,-100
1604496513.9398,-98
1604496513.9404,-88
1604496513.9418,-79
1604496513.9438,-72
1604496513.9458,-69
1604496513.9478,-64
1604496513.9498,-62
1604496513.9518,-62
1604496513.9538,-60
1604496513.9558,-52
1604496513.9578,-48
1604496513.9598,-50
1604496513.9618,-50
1604496513.9638,-43
1604496513.9658,-40
1604496514.4018,-45
1604496514.4027,-52
1604496514.4043,-57
1604496514.4063,-64
1604496514.4082,-64
1604496514.4102,-57
1604496514.4122,-60
1604496514.4142,-62
1604496514.4162,-67
1604496514.4182,-62
1604496514.4202,-48
1604496514.4222,-48
1604496514.4242,-62
1604496514.4262,-60
1604496514.4282,-48
1604496514.4302,-48
1604496514.4322,-52
1604496514.4328,-45
1604496514.4342,-40
1604496514.4363,-38
1604496514.4381,-24
1604496514.4402,4
1604496514.4421,2
1604496514.4442,-7
1604496514.4464,-2
1604496514.4483,-4
1604496514.4501,-14
1604496514.4522,-26
1604496514.4542,-36
1604496514.4561,-26
1604496514.4582,-16
1604496514.4602,-19
1604496514.4621,-21
1604496514.4627,-24
1604496514.4642,-64
1604496514.4661,-153
1604496514.4681,-117
1604496514.4701,266
1604496514.4721,871
1604496514.4741,1183
1604496514.4761,638
1604496514.4781,-420
1604496514.4801,-739
1604496514.4821,-276
1604496514.4841,-67
1604496514.4861,-132
1604496514.4881,-50
1604496514.4901,12
1604496514.4921,-21
1604496514.4927,-4
1604496514.4941,36
1604496514.4961,31
1604496514.4981,28
1604496514.5002,55
1604496514.5021,62
1604496514.5041,52
1604496514.5061,64
1604496514.5081,84
1604496514.5101,96
1604496514.5121,110
1604496514.5141,136
1604496514.5161,163
1604496514.5182,187
1604496514.5201,213
1604496514.5221,242
1604496514.5227,259
1604496514.5241,252
1604496514.5261,235
1604496514.5281,218
1604496514.5301,187
1604496514.5321,136
1604496514.5341,81
1604496514.5362,26
1604496514.9414,-26
1604496514.9422,-67
1604496514.9449,-86
1604496514.9473,-96
1604496514.9494,-100
1604496514.9513,-103
1604496514.9519,-105
1604496514.9533,-105
1604496514.9552,-100
1604496514.9572,-105
1604496514.9592,-105
1604496514.9612,-88
1604496514.9632,-79
1604496514.9652,-74
1604496514.9672,-64
1604496514.9692,-67
1604496514.9712,-72
1604496514.9732,-67
1604496514.9752,-57
1604496514.9772,-50
1604496514.9792,-52
1604496514.9812,-57
1604496514.9818,-62
1604496514.9832,-55
1604496514.9852,-28
1604496514.9871,-28
1604496514.9892,-50
1604496514.9911,-52
1604496514.9931,-43
1604496514.9952,-45
1604496514.9971,-48
1604496514.9991,-40
1604496515.0012,-43
1604496515.0031,-43
1604496515.0051,-31
1604496515.0073,-31
1604496515.0091,-36
1604496515.0111,-36
1604496515.0118,-26
1604496515.0132,-16
1604496515.0151,-24
1604496515.0171,-31
1604496515.0191,-21
1604496515.0211,-14
1604496515.0231,-19
1604496515.0252,-28
1604496515.0271,-24
1604496515.0291,-14
1604496515.0311,-14
1604496515.0331,-9
1604496515.0351,9
1604496515.0371,16
1604496515.0391,7
1604496515.0413,7
1604496515.0418,7
1604496515.0431,-2
1604496515.0451,-14
1604496515.0472,-24
1604496515.0492,-16
1604496515.0511,-9
1604496515.0531,-12
1604496515.0551,-12
1604496515.0571,-14
1604496515.0591,-57
1604496515.0611,-139
1604496515.0631,-112
1604496515.0651,237
1604496515.0671,847
1604496515.0691,1197
1604496515.0711,698
1604496515.0717,-357
1604496515.0731,-734
1604496515.0751,-300
1604496515.5415,-67
1604496515.5427,-120
1604496515.5451,-48
1604496515.5477,26
1604496515.5497,-7
1604496515.5517,-9
1604496515.5537,16
1604496515.5557,14
1604496515.5577,16
1604496515.5597,40
1604496515.5617,48
1604496515.5637,43
1604496515.5643,52
1604496515.5658,76
1604496515.5677,96
1604496515.5697,112
1604496515.5717,129
1604496515.5737,146
1604496515.5757,165
1604496515.5777,201
1604496515.5796,235
1604496515.5816,242
1604496515.5836,244
1604496515.5857,242
1604496515.5876,223
1604496515.5896,189
1604496515.5916,148
1604496515.5936,86
1604496515.5943,21
1604496515.5957,-28
1604496515.5976,-67
1604496515.5998,-93
1604496515.6017,-115
1604496515.6036,-124
1604496515.6057,-124
1604496515.6076,-117
1604496515.6096,-108
1604496515.6116,-110
1604496515.6136,-115
1604496515.6156,-103
1604496515.6176,-88
1604496515.6196,-93
1604496515.6216,-86
1604496515.6236,-67
1604496515.6244,-67
1604496515.6257,-79
1604496515.6276,-72
1604496515.6296,-52
1604496515.6316,-45
1604496515.6336,-50
1604496515.6356,-50
1604496515.6376,-45
1604496515.6396,-40
1604496515.6416,-43
1604496515.6436,-45
1604496515.6457,-43
1604496515.6476,-40
1604496515.6496,-40
1604496515.6516,-45
1604496515.6536,-45
1604496515.6542,-43
1604496515.6556,-43
1604496515.6576,-40
1604496515.6596,-40
1604496515.6616,-38
1604496515.6636,-36
1604496515.6656,-28
1604496515.6676,-24
1604496515.6696,-21
1604496515.6716,-24
1604496515.6736,-26
1604496515.6757,-21
1604496515.6776,-21
1604496516.0517,-21
1604496516.0526,-16
1604496516.0550,-21
1604496516.0576,-26
1604496516.0596,-28
1604496516.0616,-33
1604496516.0637,-21
1604496516.0657,4
1604496516.0676,33
1604496516.0699,36
1604496516.0716,7
1604496516.0736,-16
1604496516.0756,-7
1604496516.0776,2
1604496516.0796,-14
1604496516.0816,-33
1604496516.0836,-31
1604496516.0842,-19
1604496516.0856,-16
1604496516.0876,-19
1604496516.0896,-19
1604496516.0916,-45
1604496516.0936,-117
1604496516.0956,-163
1604496516.0976,40
1604496516.0996,578
1604496516.1017,1113
1604496516.1035,1029
