Time,ECG
1604521909.7860,1286
1604521909.7864,2801
1604521909.7888,4061
1604521909.7914,4063
1604521909.7935,4017
1604521909.7954,4868
1604521909.7974,5497
1604521909.7995,5706
1604521909.8014,6149
1604521909.8034,6614
1604521909.8054,6884
1604521909.8074,7180
1604521909.8094,7518
1604521909.8114,7780
1604521909.8134,8016
1604521909.8154,8255
1604521909.8174,8471
1604521909.8194,8671
1604521909.8214,8862
1604521909.8234,9050
1604521909.8254,9235
1604521909.8274,9392
1604521909.8294,9529
1604521909.8314,9678
1604521909.8334,9828
1604521909.8354,9958
1604521909.8374,10081
1604521909.8394,10201
1604521909.8414,10300
1604521909.8434,10396
1604521909.8454,10507
1604521909.8474,10620
1604521909.8494,10719
1604521909.8514,10794
1604521909.8534,10849
1604521909.8554,10902
1604521909.8574,10941
1604521909.8594,10948
1604521909.8614,10945
1604521909.8634,10936
1604521909.8654,10907
1604521909.8674,10873
1604521909.8694,10854
1604521909.8714,10842
1604521909.8734,10835
1604521909.8754,10825
1604521909.8774,10801
1604521909.8794,10791
1604521909.8815,10798
1604521909.8834,10789
1604521909.8859,10757
1604521909.8875,10745
1604521909.8894,10733
1604521909.8914,10707
1604521909.8934,10690
1604521909.8954,10680
1604521909.8974,10654
1604521909.8994,10615
1604521909.9014,10579
1604521909.9034,10553
1604521909.9054,10517
1604521909.9074,10473
1604521909.9094,10432
1604521909.9114,10384
1604521909.9134,10326
1604521909.9154,10273
1604521909.9174,10227
1604521909.9194,10172
1604521909.9214,10114
1604521909.9234,10056
1604521909.9254,9996
1604521909.9274,9941
1604521909.9295,9881
1604521910.2968,9820
1604521910.2973,9765
1604521910.2997,9700
1604521910.3023,9625
1604521910.3042,9565
1604521910.3063,9502
1604521910.3083,9428
1604521910.3103,9358
1604521910.3124,9293
1604521910.3143,9237
1604521910.3163,9175
1604521910.3183,9074
1604521910.3203,8992
1604521910.3223,8951
1604521910.3243,8879
1604521910.3263,8773
1604521910.3283,8708
1604521910.3303,8657
1604521910.3323,8568
1604521910.3343,8483
1604521910.3363,8421
1604521910.3383,8361
1604521910.3403,8300
1604521910.3423,8247
1604521910.3442,8173
1604521910.3463,8091
1604521910.3483,8007
1604521910.3503,7925
1604521910.3525,7855
1604521910.3543,7785
1604521910.3563,7701
1604521910.3583,7624
1604521910.3603,7551
1604521910.3623,7474
1604521910.3643,7392
1604521910.3663,7320
1604521910.3683,7262
1604521910.3703,7192
1604521910.3723,7106
1604521910.3743,7021
1604521910.3762,6925
1604521910.3783,6780
1604521910.3803,6667
1604521910.3823,6845
1604521910.3844,7431
1604521910.3863,8023
1604521910.3883,7994
1604521910.3903,7125
1604521910.3924,6263
1604521910.3943,6212
1604521910.3963,6318
1604521910.3983,6094
1604521910.4003,5986
1604521910.4023,6005
1604521910.4044,5916
1604521910.4063,5829
1604521910.4083,5802
1604521910.4103,5745
1604521910.4123,5672
1604521910.4144,5629
1604521910.4163,5581
1604521910.4183,5518
1604521910.4203,5463
1604521910.4223,5412
1604521910.4243,5362
1604521910.4263,5309
1604521910.4283,5258
1604521910.4303,5212
1604521910.4323,5164
1604521910.4343,5113
1604521910.4363,5063
1604521910.4383,5027
1604521910.4403,4993
1604521910.8671,4955
1604521910.8675,4916
1604521910.8699,4889
1604521910.8725,4858
1604521910.8745,4817
1604521910.8766,4779
1604521910.8787,4740
1604521910.8806,4687
1604521910.8825,4600
1604521910.8846,4511
1604521910.8866,4427
1604521910.8885,4333
1604521910.8906,4232
1604521910.8926,4145
1604521910.8945,4066
1604521910.8965,3989
1604521910.8986,3924
1604521910.9006,3866
1604521910.9025,3815
1604521910.9045,3767
1604521910.9066,3721
1604521910.9086,3680
1604521910.9106,3642
1604521910.9126,3603
1604521910.9145,3562
1604521910.9165,3521
1604521910.9186,3488
1604521910.9205,3454
1604521910.9226,3415
1604521910.9246,3377
1604521910.9265,3345
1604521910.9285,3307
1604521910.9306,3268
1604521910.9325,3237
1604521910.9345,3196
1604521910.9366,3148
1604521910.9386,3107
1604521910.9406,3076
1604521910.9425,3037
1604521910.9446,2999
1604521910.9466,2970
1604521910.9486,2938
1604521910.9506,2902
1604521910.9526,2866
1604521910.9546,2832
1604521910.9565,2803
1604521910.9586,2772
1604521910.9606,2736
1604521910.9626,2705
1604521910.9646,2676
1604521910.9665,2642
1604521910.9685,2611
1604521910.9705,2582
1604521910.9725,2555
1604521910.9745,2529
1604521910.9765,2497
1604521910.9786,2469
1604521910.9807,2442
1604521910.9826,2416
1604521910.9846,2387
1604521910.9865,2355
1604521910.9885,2326
1604521910.9905,2298
1604521910.9925,2273
1604521910.9945,2247
1604521910.9966,2223
1604521910.9985,2199
1604521911.0005,2172
1604521911.0026,2146
1604521911.0046,2114
1604521911.0065,2093
1604521911.0086,2081
1604521911.0106,2076
1604521911.4072,2069
1604521911.4076,2045
1604521911.4093,2011
1604521911.4112,1982
1604521911.4133,1955
1604521911.4153,1927
1604521911.4172,1898
1604521911.4193,1874
1604521911.4212,1847
1604521911.4233,1809
1604521911.4253,1780
1604521911.4272,1768
1604521911.4293,1746
1604521911.4313,1719
1604521911.4333,1705
1604521911.4353,1691
1604521911.4373,1654
1604521911.4393,1589
1604521911.4412,1493
1604521911.4433,1507
1604521911.4453,1869
1604521911.4473,2524
1604521911.4493,3008
1604521911.4513,2758
1604521911.4533,1835
1604521911.4553,1279
1604521911.4573,1442
1604521911.4593,1481
1604521911.4613,1286
1604521911.4633,1293
1604521911.4653,1346
1604521911.4673,1288
1604521911.4693,1274
1604521911.4713,1293
1604521911.4733,1271
1604521911.4754,1257
1604521911.4773,1257
1604521911.4793,1245
1604521911.4813,1235
1604521911.4833,1235
1604521911.4853,1230
1604521911.4872,1221
1604521911.4892,1218
1604521911.4913,1214
1604521911.4933,1206
1604521911.4953,1204
1604521911.4973,1199
1604521911.4993,1199
1604521911.5013,1197
1604521911.5033,1197
1604521911.5053,1204
1604521911.5073,1211
1604521911.5093,1223
1604521911.5113,1233
1604521911.5133,1235
1604521911.5153,1230
1604521911.5173,1223
1604521911.5193,1209
1604521911.5213,1185
1604521911.5233,1144
1604521911.5253,1091
1604521911.5273,1035
1604521911.5293,980
1604521911.5312,934
1604521911.5333,896
1604521911.5353,862
1604521911.5373,833
1604521911.5393,819
1604521911.5413,811
1604521911.5433,802
1604521911.5453,790
1604521911.5473,782
1604521911.5493,775
1604521911.9776,773
1604521911.9780,770
1604521911.9804,770
1604521911.9830,768
1604521911.9850,758
1604521911.9870,751
1604521911.9891,744
1604521911.9910,737
1604521911.9930,727
1604521911.9951,722
1604521911.9970,715
1604521911.9990,705
1604521912.0011,708
1604521912.0032,705
1604521912.0051,688
1604521912.0070,684
1604521912.0090,686
1604521912.0111,672
1604521912.0130,660
1604521912.0150,662
1604521912.0170,652
1604521912.0190,635
1604521912.0210,635
1604521912.0230,638
1604521912.0250,628
1604521912.0270,626
1604521912.0290,628
1604521912.0310,621
1604521912.0330,609
1604521912.0350,602
1604521912.0370,602
1604521912.0390,602
1604521912.0410,597
1604521912.0430,597
1604521912.0450,594
1604521912.0470,587
1604521912.0490,580
1604521912.0510,575
1604521912.0530,573
1604521912.0550,573
1604521912.0570,566
1604521912.0590,556
1604521912.0610,551
1604521912.0630,544
1604521912.0650,539
1604521912.0671,544
1604521912.0690,556
1604521912.0710,575
1604521912.0730,575
1604521912.0750,556
1604521912.0770,539
1604521912.0790,537
1604521912.0810,534
1604521912.0830,520
1604521912.0850,510
1604521912.0870,505
1604521912.0890,493
1604521912.0911,491
1604521912.0930,493
1604521912.0950,484
1604521912.0970,474
1604521912.0990,479
1604521912.1010,479
1604521912.1030,457
1604521912.1052,404
1604521912.1071,315
1604521912.1090,337
1604521912.1111,727
1604521912.1130,1413
1604521912.1150,1876
1604521912.1170,1522
1604521912.1190,609
1604521912.1210,233
1604521912.5172,448
1604521912.5176,421
1604521912.5200,262
1604521912.5226,320
1604521912.5246,363
1604521912.5266,317
1604521912.5287,317
1604521912.5307,330
1604521912.5326,310
1604521912.5346,315
1604521912.5366,337
1604521912.5386,334
1604521912.5406,332
1604521912.5426,339
1604521912.5446,344
1604521912.5466,349
1604521912.5486,354
1604521912.5508,358
1604521912.5526,368
1604521912.5546,387
1604521912.5566,402
1604521912.5585,411
1604521912.5606,421
1604521912.5626,443
1604521912.5646,469
1604521912.5666,491
1604521912.5686,510
1604521912.5706,527
1604521912.5727,541
1604521912.5746,558
1604521912.5766,563
1604521912.5786,556
1604521912.5806,537
1604521912.5827,496
1604521912.5846,440
1604521912.5866,392
1604521912.5886,346
1604521912.5906,293
1604521912.5927,250
1604521912.5946,221
1604521912.5966,207
1604521912.5986,199
1604521912.6008,185
1604521912.6026,168
1604521912.6046,171
1604521912.6066,185
1604521912.6086,197
1604521912.6106,207
1604521912.6127,211
1604521912.6146,209
1604521912.6166,204
1604521912.6186,214
1604521912.6206,221
1604521912.6226,226
1604521912.6246,233
1604521912.6266,233
1604521912.6287,226
1604521912.6306,226
1604521912.6326,226
1604521912.6346,224
1604521912.6366,219
1604521912.6387,219
1604521912.6406,219
1604521912.6426,219
1604521912.6446,221
1604521912.6466,211
1604521912.6486,211
1604521912.6507,221
1604521912.6526,221
1604521912.6546,214
1604521912.6566,209
1604521912.6586,211
1604521912.6606,216
1604521913.1175,221
1604521913.1180,211
1604521913.1204,211
1604521913.1230,231
1604521913.1250,238
1604521913.1270,238
1604521913.1291,243
1604521913.1310,236
1604521913.1330,219
1604521913.1350,209
1604521913.1370,214
1604521913.1390,211
1604521913.1410,209
1604521913.1430,204
1604521913.1450,190
1604521913.1470,192
1604521913.1490,207
1604521913.1510,204
1604521913.1531,207
1604521913.1550,211
1604521913.1572,204
1604521913.1591,185
1604521913.1611,132
1604521913.1630,28
1604521913.1650,79
1604521913.1670,561
1604521913.1690,1305
1604521913.1710,1707
1604521913.1730,1206
1604521913.1750,257
1604521913.1770,7
1604521913.1790,255
1604521913.1811,180
1604521913.1830,50
1604521913.1850,125
1604521913.1870,144
1604521913.1890,108
1604521913.1911,120
1604521913.1930,137
1604521913.1950,146
1604521913.1970,158
1604521913.1990,171
1604521913.2010,171
1604521913.2030,168
1604521913.2050,183
1604521913.2070,197
1604521913.2090,199
1604521913.2110,207
1604521913.2130,224
1604521913.2150,228
1604521913.2170,228
1604521913.2190,248
1604521913.2210,272
1604521913.2230,286
1604521913.2250,310
1604521913.2270,342
1604521913.2290,358
1604521913.2310,378
1604521913.2329,404
1604521913.2350,416
1604521913.2370,421
1604521913.2390,416
1604521913.2410,402
1604521913.2430,370
1604521913.2450,320
1604521913.2470,257
1604521913.2490,202
1604521913.2510,149
1604521913.2530,103
1604521913.2550,69
1604521913.2570,38
1604521913.2591,19
1604521913.2611,12
1604521913.6868,7
1604521913.6872,7
1604521913.6896,16
1604521913.6922,28
1604521913.6942,38
1604521913.6961,38
1604521913.6982,48
1604521913.7002,62
1604521913.7022,74
1604521913.7041,67
1604521913.7062,55
1604521913.7082,57
1604521913.7102,74
1604521913.7122,77
1604521913.7143,72
1604521913.7162,74
1604521913.7182,69
1604521913.7202,65
1604521913.7222,67
1604521913.7242,72
1604521913.7262,74
1604521913.7282,77
1604521913.7302,77
1604521913.7322,77
1604521913.7341,84
1604521913.7362,84
1604521913.7382,74
1604521913.7402,74
1604521913.7422,91
1604521913.7442,108
1604521913.7462,130
1604521913.7482,142
1604521913.7502,130
1604521913.7522,118
1604521913.7542,120
1604521913.7562,115
1604521913.7582,108
1604521913.7602,105
1604521913.7622,110
1604521913.7643,110
1604521913.7662,101
1604521913.7682,98
1604521913.7702,108
1604521913.7722,113
1604521913.7742,108
1604521913.7762,105
1604521913.7782,103
1604521913.7802,74
1604521913.7822,-9
1604521913.7843,-86
1604521913.7862,96
1604521913.7882,725
1604521913.7902,1483
1604521913.7922,1674
1604521913.7942,900
1604521913.7962,-14
1604521913.7982,-60
1604521913.8002,171
1604521913.8022,24
1604521913.8042,-62
1604521913.8062,33
1604521913.8082,38
1604521913.8103,4
1604521913.8122,26
1604521913.8142,43
1604521913.8162,40
1604521913.8182,48
1604521913.8203,57
1604521913.8222,65
1604521913.8242,77
1604521913.8262,89
1604521913.8282,93
1604521913.8303,103
1604521914.2272,115
1604521914.2280,130
1604521914.2305,146
1604521914.2331,163
1604521914.2351,171
1604521914.2371,180
1604521914.2392,197
1604521914.2412,219
1604521914.2430,255
1604521914.2451,277
1604521914.2471,277
1604521914.2491,286
1604521914.2511,308
1604521914.2531,320
1604521914.2550,315
1604521914.2571,296
1604521914.2590,250
1604521914.2612,187
1604521914.2630,130
1604521914.2650,81
1604521914.2670,43
1604521914.2690,7
1604521914.2711,-19
1604521914.2730,-38
1604521914.2750,-50
1604521914.2770,-52
1604521914.2776,-48
1604521914.2792,-45
1604521914.2811,-43
1604521914.2830,-33
1604521914.2850,-21
1604521914.2870,-14
1604521914.2890,-7
1604521914.2911,2
1604521914.2930,12
1604521914.2950,19
1604521914.2970,26
1604521914.2990,36
1604521914.3010,36
1604521914.3030,33
1604521914.3050,40
1604521914.3070,50
1604521914.3077,48
1604521914.3090,40
1604521914.3110,40
1604521914.3130,45
1604521914.3150,45
1604521914.3170,43
1604521914.3190,45
1604521914.3211,43
1604521914.3230,45
1604521914.3250,50
1604521914.3270,50
1604521914.3290,45
1604521914.3310,50
1604521914.3330,55
1604521914.3350,57
1604521914.3370,72
1604521914.3377,96
1604521914.3390,101
1604521914.3410,86
1604521914.3430,77
1604521914.3450,77
1604521914.3470,81
1604521914.3490,81
1604521914.3510,77
1604521914.3530,67
1604521914.3550,65
1604521914.3570,69
1604521914.3590,69
1604521914.3610,62
1604521914.3630,60
1604521914.3650,67
1604521914.7673,72
1604521914.7680,67
1604521914.7704,43
1604521914.7731,-21
1604521914.7750,-103
1604521914.7772,28
1604521914.7791,607
1604521914.7810,1373
1604521914.7830,1676
1604521914.7850,1043
1604521914.7870,65
1604521914.7890,-154
1604521914.7910,89
1604521914.7930,9
1604521914.7950,-113
1604521914.7957,-33
1604521914.7970,-16
1604521914.7990,-52
1604521914.8010,-21
1604521914.8030,2
1604521914.8049,-7
1604521914.8070,7
1604521914.8090,24
1604521914.8110,26
1604521914.8130,28
1604521914.8150,38
1604521914.8170,48
1604521914.8190,60
1604521914.8211,72
1604521914.8230,81
1604521914.8250,86
1604521914.8257,101
1604521914.8270,118
1604521914.8290,132
1604521914.8310,149
1604521914.8331,173
1604521914.8350,195
1604521914.8370,221
1604521914.8390,248
1604521914.8409,264
1604521914.8430,277
1604521914.8450,284
1604521914.8470,281
1604521914.8490,264
1604521914.8510,228
1604521914.8530,185
1604521914.8549,134
1604521914.8556,86
1604521914.8570,43
1604521914.8590,12
1604521914.8610,-16
1604521914.8630,-40
1604521914.8650,-50
1604521914.8670,-50
1604521914.8690,-55
1604521914.8710,-52
1604521914.8731,-43
1604521914.8750,-36
1604521914.8770,-33
1604521914.8790,-28
1604521914.8810,-21
1604521914.8830,-16
1604521914.8850,-12
1604521914.8856,-2
1604521914.8870,9
1604521914.8889,14
1604521914.8910,14
1604521914.8930,14
1604521914.8950,21
1604521914.8970,21
1604521914.8990,19
1604521914.9010,21
1604521914.9030,26
1604521915.3377,21
1604521915.3386,19
1604521915.3411,19
1604521915.3437,24
1604521915.3457,24
1604521915.3463,14
1604521915.3477,14
1604521915.3498,28
1604521915.3516,28
1604521915.3536,14
1604521915.3556,14
1604521915.3576,24
1604521915.3596,26
1604521915.3616,28
1604521915.3636,33
1604521915.3656,38
1604521915.3675,36
1604521915.3696,36
1604521915.3716,38
1604521915.3735,48
1604521915.3756,65
1604521915.3762,84
1604521915.3776,91
1604521915.3795,89
1604521915.3816,79
1604521915.3836,69
1604521915.3856,67
1604521915.3876,69
1604521915.3895,65
1604521915.3916,60
1604521915.3936,60
1604521915.3956,57
1604521915.3976,57
1604521915.3995,60
1604521915.4017,62
1604521915.4036,60
1604521915.4056,62
1604521915.4063,67
1604521915.4075,62
1604521915.4096,38
1604521915.4116,-33
1604521915.4136,-98
1604521915.4156,79
1604521915.4175,664
1604521915.4195,1377
1604521915.4216,1601
1604521915.4236,917
1604521915.4256,-9
1604521915.4276,-142
1604521915.4296,98
1604521915.4316,-9
1604521915.4336,-113
1604521915.4342,-26
1604521915.4356,-24
1604521915.4375,-62
1604521915.4395,-33
1604521915.4416,-12
1604521915.4436,-19
1604521915.4456,-9
1604521915.4475,7
1604521915.4496,7
1604521915.4515,16
1604521915.4536,31
1604521915.4556,40
1604521915.4576,45
1604521915.4596,55
1604521915.4616,67
1604521915.4636,79
1604521915.4642,91
1604521915.4655,103
1604521915.4675,118
1604521915.4696,132
1604521915.4716,151
1604521915.8782,175
1604521915.8790,202
1604521915.8814,226
1604521915.8841,243
1604521915.8860,255
1604521915.8880,257
1604521915.8902,250
1604521915.8920,231
1604521915.8927,202
1604521915.8941,158
1604521915.8960,110
1604521915.8980,65
1604521915.9002,26
1604521915.9020,-4
1604521915.9040,-26
1604521915.9059,-38
1604521915.9080,-48
1604521915.9099,-55
1604521915.9119,-57
1604521915.9140,-52
1604521915.9160,-43
1604521915.9180,-43
1604521915.9199,-43
1604521915.9219,-31
1604521915.9240,-24
1604521915.9259,-21
1604521915.9280,-12
1604521915.9299,-4
1604521915.9319,-2
1604521915.9340,0
1604521915.9359,9
1604521915.9380,12
1604521915.9400,14
1604521915.9419,21
1604521915.9440,19
1604521915.9459,12
1604521915.9479,12
1604521915.9500,16
1604521915.9519,16
1604521915.9540,14
1604521915.9560,12
1604521915.9579,9
1604521915.9599,12
1604521915.9620,14
1604521915.9640,9
1604521915.9659,9
1604521915.9679,9
1604521915.9700,12
1604521915.9720,14
1604521915.9740,19
1604521915.9759,21
1604521915.9779,21
1604521915.9799,24
1604521915.9819,26
1604521915.9840,28
1604521915.9859,31
1604521915.9879,33
1604521915.9900,33
1604521915.9920,36
1604521915.9940,40
1604521915.9959,40
1604521915.9979,40
1604521915.9999,45
1604521916.0021,45
1604521916.0040,43
1604521916.0060,45
1604521916.0079,50
1604521916.0099,50
1604521916.0120,45
1604521916.0140,45
1604521916.0160,52
1604521916.0180,65
1604521916.0199,86
1604521916.4776,93
1604521916.4784,89
1604521916.4810,79
1604521916.4836,60
1604521916.4856,45
1604521916.4877,52
1604521916.4897,52
1604521916.4916,48
1604521916.4935,45
1604521916.4956,40
1604521916.4976,38
1604521916.4996,40
1604521916.5016,43
1604521916.5036,45
1604521916.5056,45
1604521916.5076,43
1604521916.5096,38
1604521916.5115,16
1604521916.5136,-50
1604521916.5155,-103
1604521916.5175,84
1604521916.5195,650
1604521916.5214,1322
1604521916.5234,1529
1604521916.5254,867
1604521916.5274,-16
1604521916.5294,-134
1604521916.5315,79
1604521916.5334,-40
1604521916.5354,-132
1604521916.5374,-43
1604521916.5394,-40
1604521916.5415,-74
1604521916.5435,-45
1604521916.5454,-26
1604521916.5474,-36
1604521916.5494,-24
1604521916.5514,-7
1604521916.5534,-4
1604521916.5554,2
1604521916.5574,14
1604521916.5596,21
1604521916.5616,28
1604521916.5634,40
1604521916.5654,50
1604521916.5675,60
1604521916.5694,69
1604521916.5714,84
1604521916.5734,98
1604521916.5754,115
1604521916.5774,132
1604521916.5794,149
1604521916.5815,171
1604521916.5834,195
1604521916.5854,211
1604521916.5874,228
1604521916.5895,238
1604521916.5915,236
1604521916.5935,226
1604521916.5954,204
1604521916.5974,168
1604521916.5994,125
1604521916.6014,79
1604521916.6034,38
1604521916.6054,7
1604521916.6074,-14
1604521916.6095,-36
1604521916.6115,-50
1604521916.6134,-55
1604521916.6154,-55
1604521916.6175,-57
1604521916.6194,-55
1604521916.6214,-48
1604521917.0475,-48
1604521917.0482,-50
1604521917.0507,-40
1604521917.0533,-33
1604521917.0553,-33
1604521917.0573,-31
1604521917.0594,-19
1604521917.0613,-14
1604521917.0633,-24
1604521917.0653,-28
1604521917.0673,-19
1604521917.0693,-7
1604521917.0713,-9
1604521917.0733,-9
1604521917.0753,-9
1604521917.0773,-9
1604521917.0793,-7
1604521917.0813,-2
1604521917.0833,2
1604521917.0854,4
1604521917.0873,0
1604521917.0892,-2
1604521917.0913,0
1604521917.0932,7
1604521917.0953,9
1604521917.0972,9
1604521917.0992,9
1604521917.1012,9
1604521917.1032,12
1604521917.1052,16
1604521917.1072,19
1604521917.1092,19
1604521917.1113,19
1604521917.1132,24
1604521917.1153,31
1604521917.1172,33
1604521917.1192,33
1604521917.1212,36
1604521917.1232,38
1604521917.1252,38
1604521917.1272,43
1604521917.1292,48
1604521917.1312,45
1604521917.1332,45
1604521917.1352,45
1604521917.1372,48
1604521917.1392,52
1604521917.1413,57
1604521917.1432,57
1604521917.1452,52
1604521917.1472,55
1604521917.1492,57
1604521917.1512,57
1604521917.1532,55
1604521917.1552,52
1604521917.1572,57
1604521917.1592,74
1604521917.1612,91
1604521917.1632,96
1604521917.1652,89
1604521917.1672,81
1604521917.1692,79
1604521917.1712,72
1604521917.1733,65
1604521917.1752,60
1604521917.1772,65
1604521917.1792,60
1604521917.1813,48
1604521917.1832,50
1604521917.1853,55
1604521917.1874,52
1604521917.1892,50
1604521917.1912,52
1604521917.6176,57
1604521917.6183,48
1604521917.6208,9
1604521917.6236,-69
1604521917.6254,-86
1604521917.6274,207
1604521917.6294,847
1604521917.6315,1418
1604521917.6334,1344
1604521917.6354,525
1604521917.6374,-134
1604521917.6394,-50
1604521917.6414,65
1604521917.6435,-101
1604521917.6454,-120
1604521917.6474,-40
1604521917.6494,-65
1604521917.6514,-84
1604521917.6534,-55
1604521917.6553,-45
1604521917.6574,-43
1604521917.6593,-26
1604521917.6614,-16
1604521917.6634,-14
1604521917.6653,-9
1604521917.6673,-2
1604521917.6694,4
1604521917.6714,14
1604521917.6733,28
1604521917.6753,36
1604521917.6773,50
1604521917.6793,67
1604521917.6814,79
1604521917.6833,93
1604521917.6853,115
1604521917.6873,130
1604521917.6893,146
1604521917.6913,175
1604521917.6933,204
1604521917.6953,224
1604521917.6973,236
1604521917.6993,245
1604521917.7013,248
1604521917.7033,236
1604521917.7053,209
1604521917.7073,171
1604521917.7093,130
1604521917.7113,81
1604521917.7135,31
1604521917.7154,-12
1604521917.7173,-38
1604521917.7193,-50
1604521917.7213,-60
1604521917.7234,-74
1604521917.7253,-84
1604521917.7273,-77
1604521917.7294,-62
1604521917.7313,-57
1604521917.7333,-55
1604521917.7353,-48
1604521917.7373,-40
1604521917.7393,-33
1604521917.7413,-26
1604521917.7433,-14
1604521917.7454,-7
1604521917.7473,-9
1604521917.7494,-12
1604521917.7513,-2
1604521917.7534,0
1604521917.7553,0
1604521917.7573,7
1604521917.7593,9
1604521917.7613,4
1604521918.1574,-2
1604521918.1582,2
1604521918.1607,9
1604521918.1633,12
1604521918.1652,7
1604521918.1672,7
1604521918.1693,7
1604521918.1713,9
1604521918.1732,4
1604521918.1752,0
1604521918.1772,7
1604521918.1792,7
1604521918.1812,-2
1604521918.1832,2
1604521918.1854,9
1604521918.1872,12
1604521918.1892,14
1604521918.1913,21
1604521918.1932,19
1604521918.1952,19
1604521918.1972,26
1604521918.1992,21
1604521918.2012,24
1604521918.2032,45
1604521918.2053,62
1604521918.2072,69
1604521918.2094,79
1604521918.2112,77
1604521918.2132,65
1604521918.2152,57
1604521918.2172,55
1604521918.2192,57
1604521918.2212,57
1604521918.2232,52
1604521918.2252,43
1604521918.2272,36
1604521918.2292,36
1604521918.2312,48
1604521918.2332,45
1604521918.2352,36
1604521918.2372,36
1604521918.2392,38
1604521918.2412,16
1604521918.2432,-45
1604521918.2452,-146
1604521918.2472,-65
1604521918.2492,457
1604521918.2512,1194
1604521918.2532,1510
1604521918.2552,932
1604521918.2572,21
1604521918.2592,-149
1604521918.2612,91
1604521918.2632,-7
1604521918.2652,-115
1604521918.2672,-31
1604521918.2692,-19
1604521918.2713,-60
1604521918.2732,-40
1604521918.2752,-19
1604521918.2772,-12
1604521918.2792,-7
1604521918.2812,-7
1604521918.2832,4
1604521918.2852,28
1604521918.2872,33
1604521918.2892,24
1604521918.2912,40
1604521918.2932,62
1604521918.2952,62
1604521918.2972,67
1604521918.2992,86
1604521918.3012,91
1604521918.7269,98
1604521918.7275,127
1604521918.7300,154
1604521918.7325,173
1604521918.7348,195
1604521918.7366,231
1604521918.7387,257
1604521918.7406,262
1604521918.7426,260
1604521918.7446,264
1604521918.7466,262
1604521918.7486,231
1604521918.7507,183
1604521918.7526,132
1604521918.7546,84
1604521918.7566,28
1604521918.7586,-19
1604521918.7605,-48
1604521918.7626,-72
1604521918.7646,-89
1604521918.7665,-98
1604521918.7685,-103
1604521918.7706,-101
1604521918.7726,-93
1604521918.7746,-86
1604521918.7766,-74
1604521918.7785,-60
1604521918.7806,-57
1604521918.7825,-55
1604521918.7845,-38
1604521918.7866,-26
1604521918.7885,-28
1604521918.7906,-28
1604521918.7925,-19
1604521918.7945,-19
1604521918.7966,-21
1604521918.7985,-19
1604521918.8006,-12
1604521918.8025,-12
1604521918.8045,-19
1604521918.8065,-19
1604521918.8086,-16
1604521918.8106,-19
1604521918.8125,-14
1604521918.8145,-7
1604521918.8165,-12
1604521918.8185,-16
1604521918.8205,-9
1604521918.8225,2
1604521918.8246,4
1604521918.8265,0
1604521918.8285,-9
1604521918.8306,-4
1604521918.8325,4
1604521918.8345,16
1604521918.8367,40
1604521918.8386,60
1604521918.8405,52
1604521918.8425,40
1604521918.8446,33
1604521918.8465,26
1604521918.8485,36
1604521918.8505,40
1604521918.8525,26
1604521918.8545,9
1604521918.8565,7
1604521918.8585,14
1604521918.8606,12
1604521918.8625,7
1604521918.8645,16
1604521918.8665,24
1604521918.8685,19
1604521918.8706,12
1604521919.2675,-14
1604521919.2684,-98
1604521919.2708,-156
1604521919.2735,98
1604521919.2755,775
1604521919.2775,1459
1604521919.2796,1466
1604521919.2814,599
1604521919.2834,-168
1604521919.2854,-96
1604521919.2874,62
1604521919.2894,-101
1604521919.2914,-127
1604521919.2934,-50
1604521919.2954,-77
1604521919.2974,-96
1604521919.2994,-60
1604521919.3014,-48
1604521919.3034,-55
1604521919.3054,-48
1604521919.3074,-33
1604521919.3094,-24
1604521919.3114,-19
1604521919.3134,-14
1604521919.3154,-7
1604521919.3174,9
1604521919.3194,26
1604521919.3213,33
1604521919.3234,43
1604521919.3254,55
1604521919.3274,72
1604521919.3293,96
1604521919.3315,115
1604521919.3335,139
1604521919.3354,171
1604521919.3374,195
1604521919.3395,214
1604521919.3414,236
1604521919.3433,252
1604521919.3453,257
1604521919.3474,248
1604521919.3494,224
1604521919.3514,192
1604521919.3534,144
1604521919.3554,86
1604521919.3573,38
1604521919.3593,-7
1604521919.3614,-45
1604521919.3634,-72
1604521919.3654,-86
1604521919.3673,-96
1604521919.3694,-101
1604521919.3713,-101
1604521919.3733,-101
1604521919.3753,-96
1604521919.3774,-86
1604521919.3794,-86
1604521919.3814,-84
1604521919.3833,-72
1604521919.3853,-57
1604521919.3873,-50
1604521919.3893,-40
1604521919.3914,-36
1604521919.3933,-33
1604521919.3954,-24
1604521919.3974,-16
1604521919.3994,-19
1604521919.4014,-21
1604521919.4033,-19
1604521919.4054,-19
1604521919.4074,-16
1604521919.4094,-14
1604521919.4114,-19
1604521919.8676,-16
1604521919.8685,-12
1604521919.8709,-14
1604521919.8736,-14
1604521919.8756,-7
1604521919.8776,-4
1604521919.8796,-14
1604521919.8816,-19
1604521919.8836,-12
1604521919.8856,0
1604521919.8876,-2
1604521919.8898,-14
1604521919.8916,-14
1604521919.8935,-4
1604521919.8955,14
1604521919.8976,33
1604521919.8996,43
1604521919.9016,43
1604521919.9036,38
1604521919.9056,28
1604521919.9076,26
1604521919.9095,21
1604521919.9115,19
1604521919.9135,24
1604521919.9155,19
1604521919.9175,9
1604521919.9195,7
1604521919.9215,14
1604521919.9235,19
1604521919.9255,24
1604521919.9275,21
1604521919.9295,16
1604521919.9315,-2
1604521919.9335,-62
1604521919.9355,-146
1604521919.9375,-45
1604521919.9395,484
1604521919.9415,1255
1604521919.9435,1630
1604521919.9455,1071
1604521919.9475,84
1604521919.9495,-195
1604521919.9515,52
1604521919.9535,-7
1604521919.9555,-144
1604521919.9574,-72
1604521919.9595,-43
1604521919.9615,-84
1604521919.9635,-67
1604521919.9655,-50
1604521919.9675,-60
1604521919.9695,-45
1604521919.9715,-28
1604521919.9735,-21
1604521919.9755,-14
1604521919.9775,-9
1604521919.9795,-2
1604521919.9815,9
1604521919.9835,24
1604521919.9855,33
1604521919.9875,40
1604521919.9895,52
1604521919.9917,69
1604521919.9935,86
1604521919.9955,105
1604521919.9975,127
1604521919.9995,144
1604521920.0016,166
1604521920.0036,187
1604521920.0056,209
1604521920.0076,228
1604521920.0096,238
1604521920.0115,236
1604521920.4370,219
1604521920.4380,190
1604521920.4404,149
1604521920.4432,101
1604521920.4451,50
1604521920.4471,2
1604521920.4492,-36
1604521920.4512,-65
1604521920.4531,-84
1604521920.4551,-96
1604521920.4571,-103
1604521920.4591,-110
1604521920.4611,-115
1604521920.4631,-105
1604521920.4651,-96
1604521920.4671,-93
1604521920.4691,-86
1604521920.4711,-74
1604521920.4731,-62
1604521920.4751,-57
1604521920.4771,-50
1604521920.4791,-43
1604521920.4812,-31
1604521920.4830,-21
1604521920.4851,-16
1604521920.4871,-16
1604521920.4890,-14
1604521920.4911,-12
1604521920.4931,-12
1604521920.4951,-9
1604521920.4970,-12
1604521920.4991,-14
1604521920.5010,-9
1604521920.5030,-7
1604521920.5050,-4
1604521920.5070,-4
1604521920.5091,-4
1604521920.5111,-4
1604521920.5130,-7
1604521920.5150,-4
1604521920.5172,-2
1604521920.5191,-2
1604521920.5211,-4
1604521920.5230,-4
1604521920.5250,0
1604521920.5270,2
1604521920.5290,7
1604521920.5311,14
1604521920.5330,16
1604521920.5350,12
1604521920.5370,7
1604521920.5390,16
1604521920.5410,33
1604521920.5430,55
1604521920.5450,65
1604521920.5470,57
1604521920.5490,50
1604521920.5511,48
1604521920.5530,45
1604521920.5550,43
1604521920.5570,38
1604521920.5590,33
1604521920.5611,31
1604521920.5630,28
1604521920.5636,28
1604521920.5650,33
1604521920.5670,33
1604521920.5690,31
1604521920.5710,33
1604521920.5730,31
1604521920.5750,21
1604521920.5770,-12
1604521920.5790,-91
1604521920.9475,-115
1604521920.9483,183
1604521920.9508,857
1604521920.9534,1488
1604521920.9554,1454
1604521920.9560,590
1604521920.9574,-161
1604521920.9595,-84
1604521920.9614,65
1604521920.9633,-115
1604521920.9653,-142
1604521920.9674,-48
1604521920.9693,-84
1604521920.9714,-113
1604521920.9734,-74
1604521920.9754,-62
1604521920.9774,-67
1604521920.9794,-50
1604521920.9816,-36
1604521920.9834,-33
1604521920.9854,-24
1604521920.9859,-12
1604521920.9873,0
1604521920.9894,12
1604521920.9914,21
1604521920.9934,31
1604521920.9954,45
1604521920.9973,52
1604521920.9994,62
1604521921.0013,84
1604521921.0033,105
1604521921.0053,122
1604521921.0073,146
1604521921.0093,173
1604521921.0114,192
1604521921.0133,207
1604521921.0153,214
1604521921.0160,224
1604521921.0173,221
1604521921.0193,204
1604521921.0213,171
1604521921.0233,125
1604521921.0253,79
1604521921.0273,36
1604521921.0293,-2
1604521921.0314,-33
1604521921.0333,-55
1604521921.0353,-69
1604521921.0373,-81
1604521921.0393,-84
1604521921.0414,-84
1604521921.0434,-81
1604521921.0453,-79
1604521921.0459,-77
1604521921.0473,-74
1604521921.0493,-69
1604521921.0513,-62
1604521921.0533,-52
1604521921.0553,-45
1604521921.0573,-40
1604521921.0593,-40
1604521921.0614,-33
1604521921.0633,-26
1604521921.0653,-24
1604521921.0673,-21
1604521921.0693,-14
1604521921.0714,-12
1604521921.0733,-16
1604521921.0753,-16
1604521921.0761,-12
1604521921.0773,-14
1604521921.0793,-16
1604521921.0814,-12
1604521921.5174,-9
1604521921.5182,-9
1604521921.5206,-7
1604521921.5233,-2
1604521921.5252,0
1604521921.5272,-2
1604521921.5293,-12
1604521921.5313,-14
1604521921.5332,-7
1604521921.5338,-4
1604521921.5352,-4
1604521921.5372,0
1604521921.5393,2
1604521921.5412,4
1604521921.5432,7
1604521921.5452,12
1604521921.5472,14
1604521921.5492,16
1604521921.5511,16
1604521921.5532,14
1604521921.5551,16
1604521921.5572,21
1604521921.5591,19
1604521921.5612,14
1604521921.5632,19
1604521921.5638,31
1604521921.5652,50
1604521921.5672,62
1604521921.5691,60
1604521921.5712,50
1604521921.5731,43
1604521921.5752,40
1604521921.5772,38
1604521921.5792,36
1604521921.5812,31
1604521921.5832,31
1604521921.5851,28
1604521921.5871,24
1604521921.5891,26
1604521921.5912,28
1604521921.5931,28
1604521921.5937,28
1604521921.5952,28
1604521921.5971,26
1604521921.5992,9
1604521921.6011,-43
1604521921.6032,-113
1604521921.6053,-9
1604521921.6072,467
1604521921.6091,1156
1604521921.6112,1527
1604521921.6132,1071
1604521921.6152,132
1604521921.6172,-202
1604521921.6192,31
1604521921.6212,0
1604521921.6232,-151
1604521921.6238,-86
1604521921.6251,-43
1604521921.6272,-86
1604521921.6291,-72
1604521921.6312,-43
1604521921.6331,-48
1604521921.6351,-43
1604521921.6372,-26
1604521921.6392,-24
1604521921.6412,-16
1604521921.6431,-4
1604521921.6451,2
1604521921.6471,9
1604521921.6491,21
1604521921.6511,33
1604521921.6518,40
1604521922.0572,52
1604521922.0578,67
1604521922.0603,81
1604521922.0629,96
1604521922.0649,113
1604521922.0669,132
1604521922.0689,149
1604521922.0709,161
1604521922.0729,175
1604521922.0749,195
1604521922.0769,199
1604521922.0789,199
1604521922.0809,197
1604521922.0829,180
1604521922.0835,146
1604521922.0849,105
1604521922.0869,62
1604521922.0889,16
1604521922.0909,-21
1604521922.0929,-52
1604521922.0949,-77
1604521922.0968,-93
1604521922.0989,-103
1604521922.1009,-103
1604521922.1028,-101
1604521922.1050,-96
1604521922.1069,-93
1604521922.1088,-89
1604521922.1108,-81
1604521922.1128,-74
1604521922.1135,-69
1604521922.1149,-60
1604521922.1168,-55
1604521922.1188,-48
1604521922.1208,-43
1604521922.1228,-43
1604521922.1248,-38
1604521922.1268,-33
1604521922.1288,-31
1604521922.1309,-31
1604521922.1328,-28
1604521922.1348,-28
1604521922.1368,-31
1604521922.1388,-31
1604521922.1408,-26
1604521922.1428,-24
1604521922.1435,-24
1604521922.1450,-21
1604521922.1468,-19
1604521922.1488,-16
1604521922.1508,-16
1604521922.1528,-14
1604521922.1549,-12
1604521922.1568,-9
1604521922.1588,-9
1604521922.1609,-7
1604521922.1628,-4
1604521922.1648,-2
1604521922.1668,0
1604521922.1688,2
1604521922.1709,7
1604521922.1728,9
1604521922.1748,9
1604521922.1768,9
1604521922.1788,12
1604521922.1809,14
1604521922.1828,14
1604521922.1848,14
1604521922.1868,19
1604521922.1888,21
1604521922.1908,21
1604521922.1928,21
1604521922.1948,26
1604521922.6570,26
1604521922.6577,21
1604521922.6603,19
1604521922.6630,19
1604521922.6648,21
1604521922.6668,31
1604521922.6689,52
1604521922.6709,62
1604521922.6728,48
1604521922.6748,36
1604521922.6768,31
1604521922.6788,31
1604521922.6808,26
1604521922.6828,19
1604521922.6847,14
1604521922.6867,12
1604521922.6887,7
1604521922.6908,9
1604521922.6928,12
1604521922.6948,12
1604521922.6968,14
1604521922.6988,19
1604521922.7007,14
1604521922.7027,-12
1604521922.7048,-74
1604521922.7067,-118
1604521922.7087,72
1604521922.7108,623
1604521922.7128,1257
1604521922.7147,1418
1604521922.7167,773
1604521922.7187,-38
1604521922.7208,-134
1604521922.7228,48
1604521922.7247,-67
1604521922.7267,-139
1604521922.7288,-65
1604521922.7308,-69
1604521922.7327,-96
1604521922.7347,-65
1604521922.7367,-52
1604521922.7387,-60
1604521922.7408,-45
1604521922.7428,-31
1604521922.7447,-26
1604521922.7467,-19
1604521922.7487,-12
1604521922.7507,-7
1604521922.7527,2
1604521922.7547,12
1604521922.7567,21
1604521922.7587,31
1604521922.7607,38
1604521922.7627,52
1604521922.7649,67
1604521922.7667,77
1604521922.7687,93
1604521922.7707,122
1604521922.7727,144
1604521922.7747,163
1604521922.7767,185
1604521922.7787,199
1604521922.7807,207
1604521922.7827,211
1604521922.7847,204
1604521922.7867,180
1604521922.7887,139
1604521922.7908,98
1604521922.7927,60
1604521922.7947,19
1604521922.7967,-21
1604521922.7987,-50
1604521922.8007,-67
1604521923.2274,-81
1604521923.2282,-93
1604521923.2308,-93
1604521923.2333,-86
1604521923.2353,-86
1604521923.2373,-84
1604521923.2394,-81
1604521923.2413,-72
1604521923.2433,-67
1604521923.2453,-69
1604521923.2473,-72
1604521923.2492,-60
1604521923.2513,-50
1604521923.2533,-52
1604521923.2553,-50
1604521923.2573,-43
1604521923.2593,-38
1604521923.2613,-40
1604521923.2633,-38
1604521923.2653,-33
1604521923.2673,-26
1604521923.2693,-26
1604521923.2713,-31
1604521923.2732,-31
1604521923.2752,-28
1604521923.2772,-28
1604521923.2792,-24
1604521923.2813,-19
1604521923.2832,-19
1604521923.2852,-19
1604521923.2872,-16
1604521923.2892,-14
1604521923.2914,-7
1604521923.2932,-4
1604521923.2952,-2
1604521923.2972,2
1604521923.2992,4
1604521923.3012,4
1604521923.3032,9
1604521923.3052,9
1604521923.3072,7
1604521923.3092,12
1604521923.3112,19
1604521923.3132,21
1604521923.3152,14
1604521923.3172,9
1604521923.3192,16
1604521923.3212,33
1604521923.3232,57
1604521923.3253,77
1604521923.3272,67
1604521923.3292,50
1604521923.3313,48
1604521923.3332,50
1604521923.3352,48
1604521923.3372,38
1604521923.3392,28
1604521923.3413,26
1604521923.3432,21
1604521923.3452,21
1604521923.3472,26
1604521923.3492,24
1604521923.3512,21
1604521923.3532,26
1604521923.3552,28
1604521923.3572,19
1604521923.3592,-19
1604521923.3613,-105
1604521923.3632,-110
1604521923.3652,238
1604521923.3672,922
1604521923.3692,1418
1604521923.3712,1112
1604521923.7673,224
1604521923.7679,-178
1604521923.7694,26
1604521923.7715,28
1604521923.7734,-125
1604521923.7754,-74
1604521923.7774,-28
1604521923.7794,-74
1604521923.7814,-69
1604521923.7834,-40
1604521923.7856,-50
1604521923.7874,-52
1604521923.7894,-36
1604521923.7914,-28
1604521923.7934,-26
1604521923.7954,-21
1604521923.7974,-9
1604521923.7994,2
1604521923.8014,7
1604521923.8034,14
1604521923.8054,26
1604521923.8074,40
1604521923.8094,57
1604521923.8114,74
1604521923.8134,89
1604521923.8154,105
1604521923.8174,132
1604521923.8194,163
1604521923.8215,185
1604521923.8291,202
1604521923.8305,224
1604521923.8324,236
1604521923.8344,236
1604521923.8364,233
1604521923.8384,226
1604521923.8404,192
1604521923.8423,144
1604521923.8444,93
1604521923.8464,38
1604521923.8484,-7
1604521923.8504,-40
1604521923.8524,-67
1604521923.8544,-93
1604521923.8564,-103
1604521923.8584,-101
1604521923.8603,-105
1604521923.8624,-110
1604521923.8644,-98
1604521923.8664,-86
1604521923.8684,-84
1604521923.8704,-74
1604521923.8724,-55
1604521923.8744,-52
1604521923.8764,-55
1604521923.8784,-40
1604521923.8804,-33
1604521923.8823,-40
1604521923.8844,-33
1604521923.8864,-26
1604521923.8884,-28
1604521923.8904,-31
1604521923.8926,-28
1604521923.8945,-28
1604521923.8964,-31
1604521923.8984,-36
1604521923.9004,-38
1604521923.9024,-33
1604521923.9044,-28
1604521923.9064,-26
1604521923.9084,-28
1604521923.9104,-31
1604521923.9124,-24
1604521923.9144,-16
1604521924.3374,-14
1604521924.3382,-19
1604521924.3407,-14
1604521924.3433,16
1604521924.3453,43
1604521924.3473,43
1604521924.3494,26
1604521924.3513,12
1604521924.3533,2
1604521924.3553,-2
1604521924.3572,2
1604521924.3592,9
1604521924.3613,9
1604521924.3632,-4
1604521924.3653,-16
1604521924.3672,-7
1604521924.3692,2
1604521924.3713,7
1604521924.3732,9
1604521924.3752,12
1604521924.3772,4
1604521924.3792,-19
1604521924.3812,-103
1604521924.3832,-168
1604521924.3852,67
1604521924.3872,715
1604521924.3893,1380
1604521924.3913,1409
1604521924.3932,568
1604521924.3952,-171
1604521924.3972,-62
1604521924.3992,91
1604521924.4012,-91
1604521924.4032,-105
1604521924.4052,-14
1604521924.4072,-48
1604521924.4092,-72
1604521924.4112,-31
1604521924.4132,-28
1604521924.4154,-40
1604521924.4173,-21
1604521924.4192,-4
1604521924.4212,-4
1604521924.4232,0
1604521924.4252,7
1604521924.4272,28
1604521924.4292,45
1604521924.4313,43
1604521924.4332,43
1604521924.4352,57
1604521924.4372,72
1604521924.4392,86
1604521924.4412,103
1604521924.4432,132
1604521924.4452,158
1604521924.4472,173
1604521924.4492,190
1604521924.4512,214
1604521924.4532,236
1604521924.4552,252
1604521924.4572,255
1604521924.4592,243
1604521924.4612,226
1604521924.4632,195
1604521924.4652,144
1604521924.4672,86
1604521924.4692,36
1604521924.4712,-14
1604521924.4732,-57
1604521924.4752,-86
1604521924.4772,-103
1604521924.4792,-113
1604521924.4812,-115
1604521924.8774,-118
1604521924.8782,-118
1604521924.8808,-108
1604521924.8833,-101
1604521924.8853,-93
1604521924.8873,-74
1604521924.8894,-62
1604521924.8912,-65
1604521924.8932,-60
1604521924.8952,-52
1604521924.8973,-52
1604521924.8993,-48
1604521924.9013,-45
1604521924.9033,-50
1604521924.9052,-40
1604521924.9073,-33
1604521924.9092,-43
1604521924.9114,-45
1604521924.9132,-38
1604521924.9152,-36
1604521924.9172,-36
1604521924.9192,-33
1604521924.9213,-31
1604521924.9232,-31
1604521924.9252,-36
1604521924.9272,-36
1604521924.9292,-26
1604521924.9313,-7
1604521924.9332,14
1604521924.9352,26
1604521924.9372,19
1604521924.9392,7
1604521924.9412,0
1604521924.9432,2
1604521924.9452,7
1604521924.9472,7
1604521924.9492,4
1604521924.9512,0
1604521924.9532,-9
1604521924.9552,-9
1604521924.9572,2
1604521924.9592,7
1604521924.9612,2
1604521924.9632,4
1604521924.9652,4
1604521924.9672,-4
1604521924.9692,-38
1604521924.9712,-130
1604521924.9732,-161
1604521924.9752,161
1604521924.9772,876
1604521924.9792,1507
1604521924.9812,1373
1604521924.9832,426
1604521924.9852,-226
1604521924.9872,-50
1604521924.9892,60
1604521924.9912,-127
1604521924.9932,-115
1604521924.9964,-36
1604521924.9982,-81
1604521925.0002,-96
1604521925.0022,-55
1604521925.0042,-48
1604521925.0062,-55
1604521925.0082,-40
1604521925.0102,-21
1604521925.0122,-16
1604521925.0144,-9
1604521925.0162,4
1604521925.0182,14
1604521925.0202,19
1604521925.0222,28
1604521925.4473,45
1604521925.4480,62
1604521925.4496,74
1604521925.4516,89
1604521925.4536,103
1604521925.4557,118
1604521925.4576,137
1604521925.4596,163
1604521925.4616,185
1604521925.4636,202
1604521925.4656,221
1604521925.4676,236
1604521925.4696,238
1604521925.4716,226
1604521925.4736,199
1604521925.4756,163
1604521925.4776,108
1604521925.4797,45
1604521925.4816,2
1604521925.4836,-33
1604521925.4856,-72
1604521925.4876,-101
1604521925.4896,-115
1604521925.4915,-125
1604521925.4936,-130
1604521925.4956,-130
1604521925.4975,-125
1604521925.4997,-120
1604521925.5015,-110
1604521925.5036,-105
1604521925.5056,-98
1604521925.5075,-81
1604521925.5095,-69
1604521925.5116,-62
1604521925.5135,-55
1604521925.5156,-50
1604521925.5175,-45
1604521925.5196,-43
1604521925.5216,-43
1604521925.5236,-38
1604521925.5255,-33
1604521925.5276,-38
1604521925.5296,-45
1604521925.5316,-40
1604521925.5335,-36
1604521925.5355,-43
1604521925.5377,-40
1604521925.5395,-33
1604521925.5416,-38
1604521925.5435,-40
1604521925.5455,-36
1604521925.5475,-31
1604521925.5496,-19
1604521925.5516,0
1604521925.5536,16
1604521925.5555,14
1604521925.5575,2
1604521925.5596,-2
1604521925.5616,0
1604521925.5635,0
1604521925.5655,-9
1604521925.5676,-9
1604521925.5695,-2
1604521925.5716,-2
1604521925.5736,-9
1604521925.5755,-12
1604521925.5776,-9
1604521925.5795,-4
1604521925.5816,0
1604521925.5835,4
1604521925.5855,7
1604521925.5875,-16
1604521925.5895,-91
1604521925.9875,-175
1604521925.9884,-36
1604521925.9908,541
1604521925.9935,1300
1604521925.9954,1589
1604521925.9974,937
1604521925.9995,-19
1604521926.0015,-197
1604521926.0034,33
1604521926.0054,-65
1604521926.0074,-168
1604521926.0093,-89
1604521926.0114,-77
1604521926.0134,-110
1604521926.0154,-86
1604521926.0174,-62
1604521926.0194,-69
1604521926.0214,-57
1604521926.0234,-40
1604521926.0254,-33
1604521926.0274,-24
1604521926.0294,-14
1604521926.0314,-7
1604521926.0333,4
1604521926.0356,16
1604521926.0374,28
1604521926.0393,45
1604521926.0414,57
1604521926.0434,65
1604521926.0454,81
1604521926.0474,105
1604521926.0493,130
1604521926.0513,154
1604521926.0533,178
1604521926.0553,192
1604521926.0573,204
1604521926.0593,221
1604521926.0613,233
1604521926.0633,224
1604521926.0653,204
1604521926.0673,175
1604521926.0694,130
1604521926.0714,72
1604521926.0734,21
1604521926.0754,-19
1604521926.0774,-50
1604521926.0794,-79
1604521926.0814,-101
1604521926.0834,-105
1604521926.0853,-103
1604521926.0873,-105
1604521926.0893,-108
1604521926.0914,-98
1604521926.0934,-89
1604521926.0954,-89
1604521926.0974,-81
1604521926.0994,-65
1604521926.1013,-57
1604521926.1034,-52
1604521926.1053,-45
1604521926.1074,-38
1604521926.1094,-33
1604521926.1114,-28
1604521926.1134,-26
1604521926.1154,-24
1604521926.1174,-21
1604521926.1193,-24
1604521926.1213,-21
1604521926.1234,-21
1604521926.1253,-26
1604521926.1274,-28
1604521926.1294,-26
1604521926.1313,-28
1604521926.5872,-31
1604521926.5880,-28
1604521926.5907,-36
1604521926.5932,-43
1604521926.5951,-45
1604521926.5971,-50
1604521926.5992,-52
1604521926.6011,-38
1604521926.6030,-12
1604521926.6051,2
1604521926.6071,-2
1604521926.6091,-9
1604521926.6111,-14
1604521926.6131,-16
1604521926.6151,-16
1604521926.6171,-19
1604521926.6191,-21
1604521926.6211,-24
1604521926.6230,-26
1604521926.6251,-26
1604521926.6270,-24
1604521926.6291,-19
1604521926.6311,-14
1604521926.6330,-9
1604521926.6351,-12
1604521926.6371,-16
1604521926.6391,-28
1604521926.6411,-77
1604521926.6430,-168
1604521926.6451,-130
1604521926.6471,313
1604521926.6491,1064
1604521926.6510,1558
1604521926.6530,1194
1604521926.6550,207
1604521926.6570,-260
1604521926.6591,-38
1604521926.6610,-14
1604521926.6630,-180
1604521926.6650,-134
1604521926.6670,-74
1604521926.6690,-113
1604521926.6711,-108
1604521926.6730,-74
1604521926.6750,-77
1604521926.6770,-74
1604521926.6790,-57
1604521926.6810,-50
1604521926.6831,-43
1604521926.6850,-26
1604521926.6870,-21
1604521926.6890,-16
1604521926.6911,-7
1604521926.6932,7
1604521926.6951,19
1604521926.6970,31
1604521926.6990,45
1604521926.7010,62
1604521926.7030,77
1604521926.7050,96
1604521926.7070,118
1604521926.7090,144
1604521926.7111,166
1604521926.7130,183
1604521926.7150,195
1604521926.7171,207
1604521926.7191,204
1604521926.7210,190
1604521926.7230,161
1604521926.7250,120
1604521926.7270,72
1604521926.7290,24
1604521926.7311,-16
1604521927.1274,-50
1604521927.1282,-74
1604521927.1307,-93
1604521927.1332,-103
1604521927.1352,-105
1604521927.1372,-108
1604521927.1393,-105
1604521927.1412,-103
1604521927.1432,-98
1604521927.1452,-98
1604521927.1472,-98
1604521927.1492,-93
1604521927.1513,-81
1604521927.1532,-77
1604521927.1553,-69
1604521927.1572,-60
1604521927.1593,-57
1604521927.1612,-52
1604521927.1631,-45
1604521927.1652,-40
1604521927.1672,-38
1604521927.1691,-45
1604521927.1712,-48
1604521927.1731,-43
1604521927.1752,-40
1604521927.1772,-43
1604521927.1792,-43
1604521927.1812,-40
1604521927.1832,-40
1604521927.1837,-43
1604521927.1852,-43
1604521927.1873,-40
1604521927.1892,-38
1604521927.1912,-38
1604521927.1932,-36
1604521927.1951,-31
1604521927.1971,-28
1604521927.1991,-31
1604521927.2011,-26
1604521927.2031,-24
1604521927.2051,-21
1604521927.2071,-21
1604521927.2092,-21
1604521927.2112,-26
1604521927.2132,-28
1604521927.2137,-24
1604521927.2152,-4
1604521927.2172,16
1604521927.2191,21
1604521927.2212,12
1604521927.2232,7
1604521927.2252,9
1604521927.2271,2
1604521927.2291,-2
1604521927.2312,-2
1604521927.2332,0
1604521927.2352,-9
1604521927.2372,-16
1604521927.2391,-14
1604521927.2412,-9
1604521927.2431,-9
1604521927.2437,-9
1604521927.2452,-2
1604521927.2471,0
1604521927.2491,-9
1604521927.2512,-40
1604521927.2531,-115
1604521927.2552,-156
1604521927.2572,91
1604521927.2592,725
1604521927.2612,1387
1604521927.2632,1464
1604521927.2652,676
1604521927.6965,-151
1604521927.6972,-149
1604521927.6995,43
1604521927.7022,-113
1604521927.7042,-168
1604521927.7062,-72
1604521927.7082,-91
1604521927.7103,-130
1604521927.7122,-96
1604521927.7144,-77
1604521927.7163,-86
1604521927.7182,-77
1604521927.7202,-57
1604521927.7222,-55
1604521927.7242,-52
1604521927.7262,-43
1604521927.7282,-33
1604521927.7288,-26
1604521927.7302,-19
1604521927.7322,-9
1604521927.7342,2
1604521927.7362,19
1604521927.7382,33
1604521927.7402,48
1604521927.7422,67
1604521927.7442,91
1604521927.7462,115
1604521927.7482,137
1604521927.7502,156
1604521927.7521,175
1604521927.7541,187
1604521927.7561,195
1604521927.7582,195
1604521927.7587,183
1604521927.7602,151
1604521927.7622,110
1604521927.7641,65
1604521927.7662,19
1604521927.7682,-21
1604521927.7702,-52
1604521927.7722,-74
1604521927.7742,-89
1604521927.7761,-96
1604521927.7782,-98
1604521927.7802,-96
1604521927.7821,-93
1604521927.7842,-89
1604521927.7862,-86
1604521927.7882,-81
1604521927.7887,-79
1604521927.7902,-77
1604521927.7922,-69
1604521927.7942,-62
1604521927.7962,-52
1604521927.7981,-48
1604521927.8002,-45
1604521927.8022,-40
1604521927.8042,-36
1604521927.8062,-36
1604521927.8082,-36
1604521927.8103,-36
1604521927.8122,-36
1604521927.8142,-36
1604521927.8161,-33
1604521927.8182,-31
1604521927.8188,-31
1604521927.8202,-31
1604521927.8222,-33
1604521927.8241,-36
1604521927.8262,-36
1604521927.8281,-36
1604521927.8302,-31
1604521927.8321,-31
1604521928.2373,-36
1604521928.2381,-38
1604521928.2406,-33
1604521928.2432,-28
1604521928.2452,-28
1604521928.2472,-28
1604521928.2493,-31
1604521928.2499,-40
1604521928.2511,-48
1604521928.2531,-50
1604521928.2551,-45
1604521928.2571,-40
1604521928.2592,-38
1604521928.2611,-36
1604521928.2631,-31
1604521928.2651,-26
1604521928.2671,-26
1604521928.2691,-28
1604521928.2712,-31
1604521928.2732,-26
1604521928.2751,-12
1604521928.2771,9
1604521928.2777,26
1604521928.2791,21
1604521928.2811,12
1604521928.2831,12
1604521928.2851,9
1604521928.2871,7
1604521928.2891,7
1604521928.2911,4
1604521928.2931,2
1604521928.2951,-4
1604521928.2971,-4
1604521928.2991,0
1604521928.3011,2
1604521928.3031,0
1604521928.3051,0
1604521928.3071,2
1604521928.3079,4
1604521928.3092,-4
1604521928.3111,-45
1604521928.3131,-125
1604521928.3151,-108
1604521928.3171,250
1604521928.3191,922
1604521928.3211,1452
1604521928.3231,1267
1604521928.3251,373
1604521928.3271,-216
1604521928.3291,-55
1604521928.3311,28
1604521928.3331,-146
1604521928.3351,-134
1604521928.3371,-57
1604521928.3377,-93
1604521928.3391,-101
1604521928.3412,-65
1604521928.3431,-62
1604521928.3451,-65
1604521928.3471,-50
1604521928.3491,-43
1604521928.3511,-38
1604521928.3531,-26
1604521928.3551,-16
1604521928.3571,-9
1604521928.3591,2
1604521928.3611,12
1604521928.3631,21
1604521928.3651,31
1604521928.3671,45
1604521928.3677,60
1604521928.3691,69
1604521928.3711,81
1604521928.8074,96
1604521928.8083,118
1604521928.8107,142
1604521928.8135,166
1604521928.8154,183
1604521928.8173,185
1604521928.8194,180
1604521928.8213,178
1604521928.8233,166
1604521928.8253,137
1604521928.8273,91
1604521928.8293,45
1604521928.8313,7
1604521928.8333,-31
1604521928.8353,-62
1604521928.8373,-79
1604521928.8395,-93
1604521928.8413,-110
1604521928.8433,-113
1604521928.8452,-108
1604521928.8472,-101
1604521928.8492,-103
1604521928.8513,-103
1604521928.8532,-98
1604521928.8553,-91
1604521928.8572,-91
1604521928.8593,-84
1604521928.8613,-74
1604521928.8632,-74
1604521928.8652,-72
1604521928.8672,-67
1604521928.8692,-67
1604521928.8713,-67
1604521928.8732,-57
1604521928.8752,-50
1604521928.8773,-52
1604521928.8793,-55
1604521928.8813,-50
1604521928.8833,-50
1604521928.8852,-52
1604521928.8872,-48
1604521928.8892,-45
1604521928.8912,-43
1604521928.8932,-36
1604521928.8952,-36
1604521928.8972,-38
1604521928.8992,-33
1604521928.9013,-28
1604521928.9032,-28
1604521928.9053,-28
1604521928.9072,-21
1604521928.9092,-16
1604521928.9113,-14
1604521928.9133,-12
1604521928.9152,-9
1604521928.9172,-9
1604521928.9192,-7
1604521928.9213,-4
1604521928.9232,-2
1604521928.9252,-4
1604521928.9272,0
1604521928.9292,2
1604521928.9313,0
1604521928.9332,2
1604521928.9352,0
1604521928.9372,-14
1604521928.9392,-16
1604521928.9414,0
1604521928.9433,9
1604521928.9452,19
1604521928.9472,43
1604521928.9492,50
1604521928.9513,36
1604521929.3474,28
1604521929.3482,33
1604521929.3506,28
1604521929.3532,19
1604521929.3552,14
1604521929.3572,16
1604521929.3593,9
1604521929.3613,-2
1604521929.3632,-2
1604521929.3652,2
1604521929.3672,2
1604521929.3692,4
1604521929.3712,7
1604521929.3732,4
1604521929.3752,-4
1604521929.3772,-48
1604521929.3792,-137
1604521929.3812,-120
1604521929.3832,274
1604521929.3852,975
1604521929.3872,1452
1604521929.3892,1120
1604521929.3912,209
1604521929.3932,-192
1604521929.3952,24
1604521929.3972,21
1604521929.3992,-139
1604521929.4012,-89
1604521929.4032,-33
1604521929.4051,-79
1604521929.4072,-74
1604521929.4092,-38
1604521929.4112,-40
1604521929.4132,-43
1604521929.4152,-24
1604521929.4172,-14
1604521929.4192,-14
1604521929.4212,-7
1604521929.4232,7
1604521929.4252,16
1604521929.4272,21
1604521929.4292,31
1604521929.4312,45
1604521929.4332,62
1604521929.4352,67
1604521929.4373,72
1604521929.4392,93
1604521929.4412,122
1604521929.4432,137
1604521929.4451,156
1604521929.4471,180
1604521929.4491,197
1604521929.4511,214
1604521929.4531,233
1604521929.4552,233
1604521929.4571,224
1604521929.4591,209
1604521929.4612,171
1604521929.4631,118
1604521929.4652,67
1604521929.4671,16
1604521929.4692,-26
1604521929.4712,-60
1604521929.4731,-91
1604521929.4751,-110
1604521929.4772,-122
1604521929.4792,-132
1604521929.4811,-125
1604521929.4831,-113
1604521929.4851,-118
1604521929.4871,-108
1604521929.4891,-89
1604521929.4912,-89
1604521929.9773,-96
1604521929.9781,-79
1604521929.9804,-62
1604521929.9820,-62
1604521929.9841,-69
1604521929.9861,-72
1604521929.9881,-67
1604521929.9902,-60
1604521929.9921,-62
1604521929.9941,-60
1604521929.9961,-55
1604521929.9981,-55
1604521930.0001,-55
1604521930.0020,-52
1604521930.0040,-55
1604521930.0060,-60
1604521930.0080,-60
1604521930.0101,-52
1604521930.0120,-45
1604521930.0141,-40
1604521930.0160,-40
1604521930.0181,-48
1604521930.0201,-38
1604521930.0222,-33
1604521930.0241,-38
1604521930.0260,-26
1604521930.0280,-24
1604521930.0300,-36
1604521930.0320,-21
1604521930.0340,4
1604521930.0360,19
1604521930.0380,24
1604521930.0400,21
1604521930.0420,14
1604521930.0440,9
1604521930.0460,4
1604521930.0480,-2
1604521930.0500,-2
1604521930.0520,2
1604521930.0540,-4
1604521930.0559,-16
1604521930.0580,-19
1604521930.0600,-9
1604521930.0620,0
1604521930.0640,4
1604521930.0660,-4
1604521930.0680,-9
1604521930.0701,-12
1604521930.0720,-43
1604521930.0740,-144
1604521930.0760,-207
1604521930.0780,67
1604521930.0800,744
1604521930.0820,1392
1604521930.0840,1370
1604521930.0860,508
1604521930.0880,-211
1604521930.0900,-86
1604521930.0920,72
1604521930.0940,-110
1604521930.0960,-134
1604521930.0980,-48
1604521930.1000,-72
1604521930.1020,-89
1604521930.1041,-55
1604521930.1060,-50
1604521930.1080,-52
1604521930.1100,-40
1604521930.1120,-28
1604521930.1140,-24
1604521930.1160,-14
1604521930.1180,0
1604521930.1200,12
1604521930.5173,16
1604521930.5183,24
1604521930.5206,36
1604521930.5233,48
1604521930.5252,52
1604521930.5272,60
1604521930.5293,84
1604521930.5311,108
1604521930.5331,120
1604521930.5351,144
1604521930.5371,173
1604521930.5391,190
1604521930.5411,204
1604521930.5431,216
1604521930.5451,219
1604521930.5471,214
1604521930.5491,190
1604521930.5511,149
1604521930.5531,105
1604521930.5551,52
1604521930.5573,-7
1604521930.5591,-55
1604521930.5612,-89
1604521930.5631,-115
1604521930.5652,-142
1604521930.5671,-158
1604521930.5692,-154
1604521930.5712,-144
1604521930.5731,-142
1604521930.5751,-137
1604521930.5771,-130
1604521930.5791,-125
1604521930.5811,-113
1604521930.5831,-98
1604521930.5851,-93
1604521930.5871,-81
1604521930.5891,-67
1604521930.5911,-67
1604521930.5931,-72
1604521930.5951,-62
1604521930.5971,-50
1604521930.5991,-57
1604521930.6011,-67
1604521930.6031,-69
1604521930.6052,-67
1604521930.6071,-67
1604521930.6091,-60
1604521930.6111,-55
1604521930.6131,-57
1604521930.6151,-60
1604521930.6171,-55
1604521930.6192,-52
1604521930.6214,-50
1604521930.6232,-43
1604521930.6252,-43
1604521930.6272,-52
1604521930.6292,-45
1604521930.6311,-24
1604521930.6331,2
1604521930.6351,16
1604521930.6371,9
1604521930.6391,0
1604521930.6411,0
1604521930.6431,-12
1604521930.6451,-21
1604521930.6471,-14
1604521930.6491,-7
1604521930.6511,-16
1604521930.6531,-26
1604521930.6551,-21
1604521930.6572,-16
1604521930.6591,-14
1604521930.6611,-16
1604521931.0578,-12
1604521931.0584,-7
1604521931.0609,-28
1604521931.0635,-74
1604521931.0655,-154
1604521931.0675,-146
1604521931.0695,243
1604521931.0714,997
1604521931.0734,1565
1604521931.0754,1286
1604521931.0774,293
1604521931.0795,-245
1604521931.0814,-28
1604521931.0834,16
1604521931.0854,-171
1604521931.0874,-132
1604521931.0894,-62
1604521931.0914,-101
1604521931.0934,-93
1604521931.0954,-62
1604521931.0975,-65
1604521931.0994,-60
1604521931.1014,-40
1604521931.1034,-31
1604521931.1054,-31
1604521931.1074,-21
1604521931.1094,-7
1604521931.1114,0
1604521931.1135,4
1604521931.1154,16
1604521931.1176,28
1604521931.1194,40
1604521931.1214,50
1604521931.1234,65
1604521931.1254,86
1604521931.1274,105
1604521931.1294,125
1604521931.1315,151
1604521931.1334,180
1604521931.1354,199
1604521931.1374,221
1604521931.1394,240
1604521931.1414,233
1604521931.1434,207
1604521931.1454,175
1604521931.1474,139
1604521931.1494,86
1604521931.1514,31
1604521931.1534,-19
1604521931.1554,-62
1604521931.1574,-91
1604521931.1594,-108
1604521931.1614,-125
1604521931.1634,-142
1604521931.1654,-146
1604521931.1674,-142
1604521931.1694,-127
1604521931.1714,-120
1604521931.1734,-115
1604521931.1754,-108
1604521931.1774,-103
1604521931.1794,-101
1604521931.1814,-84
1604521931.1834,-65
1604521931.1854,-65
1604521931.1874,-57
1604521931.1894,-48
1604521931.1914,-40
1604521931.1934,-33
1604521931.1954,-36
1604521931.1974,-40
1604521931.1994,-40
1604521931.2015,-38
1604521931.6574,-38
1604521931.6582,-40
1604521931.6607,-36
1604521931.6633,-31
1604521931.6652,-33
1604521931.6672,-36
1604521931.6693,-31
1604521931.6712,-31
1604521931.6734,-38
1604521931.6752,-38
1604521931.6772,-31
1604521931.6792,-36
1604521931.6812,-43
1604521931.6832,-33
1604521931.6852,-14
1604521931.6872,9
1604521931.6892,24
1604521931.6912,16
1604521931.6932,4
1604521931.6952,2
1604521931.6972,2
1604521931.6992,-2
1604521931.7012,-4
1604521931.7032,-4
1604521931.7052,-12
1604521931.7072,-14
1604521931.7092,-4
1604521931.7112,-7
1604521931.7132,-19
1604521931.7152,-16
1604521931.7172,-9
1604521931.7192,-9
1604521931.7212,-9
1604521931.7232,-31
1604521931.7252,-113
1604521931.7271,-192
1604521931.7292,-2
1604521931.7312,635
1604521931.7332,1399
1604521931.7351,1609
1604521931.7371,855
1604521931.7391,-89
1604521931.7412,-185
1604521931.7432,50
1604521931.7451,-79
1604521931.7471,-171
1604521931.7492,-77
1604521931.7512,-74
1604521931.7532,-110
1604521931.7551,-79
1604521931.7571,-65
1604521931.7593,-74
1604521931.7612,-57
1604521931.7632,-40
1604521931.7652,-43
1604521931.7671,-38
1604521931.7691,-24
1604521931.7712,-9
1604521931.7731,0
1604521931.7753,9
1604521931.7772,16
1604521931.7792,28
1604521931.7812,43
1604521931.7832,60
1604521931.7852,74
1604521931.7872,91
1604521931.7892,113
1604521931.7912,139
1604521931.7931,168
1604521931.7951,187
1604521931.7972,202
1604521931.7991,219
1604521931.8012,226
1604521932.1673,219
1604521932.1680,197
1604521932.1704,163
1604521932.1730,118
1604521932.1750,65
1604521932.1770,14
1604521932.1791,-31
1604521932.1811,-69
1604521932.1830,-96
1604521932.1850,-110
1604521932.1870,-125
1604521932.1890,-132
1604521932.1910,-134
1604521932.1930,-137
1604521932.1950,-132
1604521932.1970,-132
1604521932.1990,-132
1604521932.2010,-125
1604521932.2030,-113
1604521932.2050,-103
1604521932.2070,-96
1604521932.2090,-91
1604521932.2110,-86
1604521932.2130,-77
1604521932.2150,-69
1604521932.2170,-62
1604521932.2190,-57
1604521932.2210,-62
1604521932.2230,-65
1604521932.2249,-57
1604521932.2271,-55
1604521932.2291,-55
1604521932.2310,-55
1604521932.2330,-52
1604521932.2351,-50
1604521932.2369,-50
1604521932.2390,-50
1604521932.2412,-48
1604521932.2430,-48
1604521932.2450,-48
1604521932.2470,-43
1604521932.2490,-40
1604521932.2510,-40
1604521932.2530,-40
1604521932.2550,-38
1604521932.2569,-31
1604521932.2589,-28
1604521932.2610,-40
1604521932.2630,-43
1604521932.2649,-26
1604521932.2669,-7
1604521932.2690,12
1604521932.2710,16
1604521932.2729,9
1604521932.2750,4
1604521932.2770,2
1604521932.2789,0
1604521932.2810,0
1604521932.2830,-2
1604521932.2850,-7
1604521932.2870,-9
1604521932.2890,-9
1604521932.2910,-9
1604521932.2930,-7
1604521932.2950,-9
1604521932.2970,-7
1604521932.2990,-2
1604521932.3010,-2
1604521932.3030,-9
1604521932.3050,-33
1604521932.3070,-108
1604521932.3090,-173
1604521932.3110,21
1604521932.7071,638
1604521932.7077,1353
1604521932.7103,1548
1604521932.7128,833
1604521932.7148,-93
1604521932.7168,-207
1604521932.7188,19
1604521932.7208,-108
1604521932.7228,-195
1604521932.7248,-103
1604521932.7268,-105
1604521932.7288,-139
1604521932.7307,-101
1604521932.7328,-89
1604521932.7348,-103
1604521932.7370,-86
1604521932.7388,-67
1604521932.7408,-67
1604521932.7427,-57
1604521932.7447,-45
1604521932.7468,-40
1604521932.7488,-36
1604521932.7507,-24
1604521932.7528,-9
1604521932.7548,7
1604521932.7567,21
1604521932.7587,28
1604521932.7608,43
1604521932.7627,65
1604521932.7648,86
1604521932.7668,108
1604521932.7687,130
1604521932.7708,149
1604521932.7727,166
1604521932.7747,180
1604521932.7767,187
1604521932.7787,190
1604521932.7807,178
1604521932.7827,149
1604521932.7848,105
1604521932.7868,52
1604521932.7888,4
1604521932.7907,-31
1604521932.7927,-62
1604521932.7947,-89
1604521932.7968,-103
1604521932.7987,-110
1604521932.8007,-113
1604521932.8028,-110
1604521932.8048,-110
1604521932.8068,-105
1604521932.8088,-101
1604521932.8107,-101
1604521932.8128,-96
1604521932.8147,-84
1604521932.8168,-74
1604521932.8187,-72
1604521932.8208,-67
1604521932.8228,-57
1604521932.8247,-50
1604521932.8268,-43
1604521932.8288,-40
1604521932.8308,-38
1604521932.8328,-38
1604521932.8348,-40
1604521932.8368,-43
1604521932.8389,-48
1604521932.8408,-50
1604521932.8428,-48
1604521932.8448,-48
1604521932.8468,-48
1604521932.8488,-43
1604521932.8507,-40
1604521933.3073,-40
1604521933.3081,-38
1604521933.3105,-38
1604521933.3132,-48
1604521933.3152,-55
1604521933.3172,-50
1604521933.3192,-50
1604521933.3211,-52
1604521933.3231,-45
1604521933.3251,-40
1604521933.3271,-43
1604521933.3291,-40
1604521933.3311,-36
1604521933.3331,-31
1604521933.3351,-28
1604521933.3371,-28
1604521933.3391,-24
1604521933.3412,-24
1604521933.3432,-21
1604521933.3451,-19
1604521933.3471,-14
1604521933.3491,-14
1604521933.3511,-12
1604521933.3531,-12
1604521933.3551,-16
1604521933.3571,-12
1604521933.3591,4
1604521933.3612,21
1604521933.3631,31
1604521933.3651,31
1604521933.3671,26
1604521933.3691,19
1604521933.3712,14
1604521933.3731,12
1604521933.3751,9
1604521933.3771,9
1604521933.3791,7
1604521933.3811,2
1604521933.3831,-2
1604521933.3852,0
1604521933.3870,4
1604521933.3890,4
1604521933.3910,4
1604521933.3931,9
1604521933.3952,7
1604521933.3971,-14
1604521933.3991,-72
1604521933.4011,-142
1604521933.4031,-38
1604521933.4050,445
1604521933.4071,1149
1604521933.4077,1539
1604521933.4090,1083
1604521933.4111,118
1604521933.4130,-236
1604521933.4150,4
1604521933.4171,-28
1604521933.4190,-185
1604521933.4211,-115
1604521933.4231,-72
1604521933.4251,-118
1604521933.4271,-101
1604521933.4291,-72
1604521933.4312,-81
1604521933.4331,-74
1604521933.4351,-55
1604521933.4371,-50
1604521933.4377,-45
1604521933.4391,-36
1604521933.4411,-26
1604521933.4430,-16
1604521933.4451,-9
1604521933.4471,-4
1604521933.8774,2
1604521933.8782,14
1604521933.8807,26
1604521933.8833,38
1604521933.8853,55
1604521933.8872,74
1604521933.8894,96
1604521933.8912,115
1604521933.8919,125
1604521933.8932,139
1604521933.8952,161
1604521933.8972,173
1604521933.8992,171
1604521933.9012,163
1604521933.9032,146
1604521933.9053,110
1604521933.9072,67
1604521933.9092,26
1604521933.9112,-12
1604521933.9133,-48
1604521933.9152,-74
1604521933.9172,-91
1604521933.9194,-103
1604521933.9212,-113
1604521933.9218,-118
1604521933.9232,-118
1604521933.9252,-118
1604521933.9272,-118
1604521933.9292,-113
1604521933.9312,-103
1604521933.9332,-96
1604521933.9352,-91
1604521933.9372,-86
1604521933.9392,-81
1604521933.9412,-77
1604521933.9432,-72
1604521933.9452,-67
1604521933.9471,-60
1604521933.9492,-55
1604521933.9512,-52
1604521933.9518,-55
1604521933.9532,-52
1604521933.9552,-48
1604521933.9572,-52
1604521933.9592,-57
1604521933.9612,-50
1604521933.9632,-43
1604521933.9651,-45
1604521933.9671,-43
1604521933.9692,-40
1604521933.9712,-43
1604521933.9732,-40
1604521933.9752,-36
1604521933.9772,-36
1604521933.9792,-33
1604521933.9812,-24
1604521933.9818,-26
1604521933.9832,-33
1604521933.9852,-31
1604521933.9871,-21
1604521933.9892,-16
1604521933.9912,-14
1604521933.9932,-14
1604521933.9952,-26
1604521933.9972,-28
1604521933.9992,-21
1604521934.0012,-16
1604521934.0032,-19
1604521934.0052,-16
1604521934.0072,-12
1604521934.0092,-9
1604521934.0112,-9
1604521934.0118,-9
1604521934.4177,-14
1604521934.4183,-14
1604521934.4199,-7
1604521934.4218,-9
1604521934.4238,-7
1604521934.4258,2
1604521934.4278,16
1604521934.4299,36
1604521934.4318,40
1604521934.4338,21
1604521934.4358,2
1604521934.4379,2
1604521934.4386,2
1604521934.4398,-2
1604521934.4418,-2
1604521934.4438,-2
1604521934.4458,-12
1604521934.4478,-14
1604521934.4499,-9
1604521934.4518,-7
1604521934.4538,-4
1604521934.4558,-2
1604521934.4578,-4
1604521934.4598,-12
1604521934.4618,-43
1604521934.4638,-125
1604521934.4658,-146
1604521934.4678,168
1604521934.4684,838
1604521934.4698,1404
1604521934.4718,1279
1604521934.4738,426
1604521934.4759,-190
1604521934.4778,-67
1604521934.4799,31
1604521934.4818,-132
1604521934.4838,-130
1604521934.4858,-57
1604521934.4878,-93
1604521934.4898,-105
1604521934.4918,-69
1604521934.4938,-72
1604521934.4958,-77
1604521934.4978,-52
1604521934.4984,-40
1604521934.4998,-45
1604521934.5018,-38
1604521934.5038,-21
1604521934.5058,-14
1604521934.5078,-7
1604521934.5098,4
1604521934.5119,16
1604521934.5138,24
1604521934.5158,28
1604521934.5178,45
1604521934.5198,60
1604521934.5218,69
1604521934.5238,89
1604521934.5258,115
1604521934.5278,134
1604521934.5284,156
1604521934.5298,180
1604521934.5318,197
1604521934.5338,204
1604521934.5358,199
1604521934.5378,190
1604521934.5398,161
1604521934.5418,115
1604521934.5437,69
1604521934.5458,24
1604521934.5477,-24
1604521934.5499,-65
1604521934.5518,-93
1604521935.0168,-115
1604521935.0173,-130
1604521935.0187,-134
1604521935.0207,-139
1604521935.0227,-132
1604521935.0247,-125
1604521935.0267,-134
1604521935.0287,-137
1604521935.0308,-113
1604521935.0314,-98
1604521935.0327,-103
1604521935.0347,-103
1604521935.0367,-89
1604521935.0387,-74
1604521935.0407,-72
1604521935.0427,-72
1604521935.0447,-67
1604521935.0467,-65
1604521935.0487,-67
1604521935.0507,-65
1604521935.0527,-57
1604521935.0547,-60
1604521935.0567,-60
1604521935.0587,-57
1604521935.0607,-57
1604521935.0613,-55
1604521935.0628,-50
1604521935.0647,-45
1604521935.0667,-43
1604521935.0689,-48
1604521935.0708,-52
1604521935.0728,-45
1604521935.0747,-40
1604521935.0767,-40
1604521935.0787,-38
1604521935.0807,-38
1604521935.0828,-28
1604521935.0847,-7
1604521935.0867,14
1604521935.0887,21
1604521935.0908,16
1604521935.0927,4
1604521935.0947,0
1604521935.0967,2
1604521935.0987,0
1604521935.1008,-2
1604521935.1027,-12
1604521935.1047,-19
1604521935.1067,-21
1604521935.1087,-26
1604521935.1107,-26
1604521935.1127,-16
1604521935.1147,-12
1604521935.1167,-14
1604521935.1187,-16
1604521935.1207,-36
1604521935.1227,-101
1604521935.1247,-187
1604521935.1267,-74
1604521935.1287,467
1604521935.1307,1204
1604521935.1327,1493
1604521935.1347,852
1604521935.1367,-69
1604521935.1387,-187
1604521935.1407,55
1604521935.1427,-62
1604521935.1447,-154
1604521935.1467,-62
1604521935.1487,-62
1604521935.1507,-101
1604521935.1527,-65
1604521935.1547,-45
1604521935.5268,-65
1604521935.5274,-52
1604521935.5300,-31
1604521935.5325,-28
1604521935.5345,-21
1604521935.5365,-7
1604521935.5385,0
1604521935.5407,2
1604521935.5425,7
1604521935.5445,16
1604521935.5465,28
1604521935.5485,26
1604521935.5504,28
1604521935.5524,57
1604521935.5544,86
1604521935.5564,101
1604521935.5584,127
1604521935.5604,151
1604521935.5624,173
1604521935.5644,204
1604521935.5664,226
1604521935.5685,231
1604521935.5705,231
1604521935.5725,209
1604521935.5744,168
1604521935.5765,125
1604521935.5785,77
1604521935.5804,19
1604521935.5825,-31
1604521935.5844,-69
1604521935.5864,-98
1604521935.5884,-130
1604521935.5905,-154
1604521935.5925,-149
1604521935.5945,-139
1604521935.5965,-144
1604521935.5984,-139
1604521935.6005,-118
1604521935.6024,-113
1604521935.6044,-110
1604521935.6064,-103
1604521935.6084,-96
1604521935.6105,-91
1604521935.6124,-77
1604521935.6144,-65
1604521935.6164,-60
1604521935.6184,-57
1604521935.6205,-62
1604521935.6225,-65
1604521935.6244,-55
1604521935.6265,-50
1604521935.6285,-57
1604521935.6305,-60
1604521935.6325,-57
1604521935.6345,-57
1604521935.6364,-55
1604521935.6384,-50
1604521935.6404,-43
1604521935.6426,-43
1604521935.6445,-48
1604521935.6464,-48
1604521935.6484,-36
1604521935.6505,-31
1604521935.6524,-21
1604521935.6544,2
1604521935.6564,14
1604521935.6584,4
1604521935.6604,-2
1604521935.6624,2
1604521935.6644,2
1604521935.6664,-7
1604521935.6684,-16
1604521935.6705,-16
1604521936.0971,-16
1604521936.0979,-19
1604521936.1004,-16
1604521936.1030,-16
1604521936.1049,-21
1604521936.1069,-21
1604521936.1091,-19
1604521936.1109,-21
1604521936.1130,-40
1604521936.1149,-103
1604521936.1169,-192
1604521936.1189,-113
1604521936.1209,395
1604521936.1229,1163
1604521936.1249,1560
1604521936.1269,1028
1604521936.1289,48
1604521936.1310,-228
1604521936.1329,26
1604521936.1349,-31
1604521936.1369,-171
1604521936.1389,-101
1604521936.1409,-72
1604521936.1429,-108
1604521936.1449,-81
1604521936.1469,-62
1604521936.1488,-69
1604521936.1509,-52
1604521936.1528,-38
1604521936.1549,-40
1604521936.1569,-28
1604521936.1589,-12
1604521936.1609,-7
1604521936.1628,-4
1604521936.1648,0
1604521936.1668,9
1604521936.1690,19
1604521936.1709,31
1604521936.1728,50
1604521936.1748,67
1604521936.1769,79
1604521936.1788,98
1604521936.1808,132
1604521936.1828,156
1604521936.1848,173
1604521936.1868,195
1604521936.1888,211
1604521936.1909,216
1604521936.1928,209
1604521936.1948,192
1604521936.1968,161
1604521936.1988,118
1604521936.2008,60
1604521936.2028,12
1604521936.2048,-33
1604521936.2068,-79
1604521936.2088,-108
1604521936.2109,-118
1604521936.2128,-132
1604521936.2148,-144
1604521936.2169,-144
1604521936.2188,-137
1604521936.2209,-132
1604521936.2228,-127
1604521936.2248,-122
1604521936.2268,-108
1604521936.2288,-96
1604521936.2309,-86
1604521936.2328,-74
1604521936.2348,-67
1604521936.2368,-69
1604521936.2388,-65
1604521936.2408,-50
1604521936.6969,-43
1604521936.6977,-43
1604521936.7002,-50
1604521936.7028,-48
1604521936.7048,-40
1604521936.7068,-45
1604521936.7088,-60
1604521936.7108,-60
1604521936.7127,-50
1604521936.7147,-50
1604521936.7167,-52
1604521936.7187,-48
1604521936.7207,-43
1604521936.7229,-40
1604521936.7249,-40
1604521936.7267,-45
1604521936.7288,-43
1604521936.7308,-31
1604521936.7327,-14
1604521936.7347,4
1604521936.7367,16
1604521936.7387,9
1604521936.7408,0
1604521936.7427,0
1604521936.7433,0
1604521936.7448,-4
1604521936.7467,-14
1604521936.7487,-19
1604521936.7507,-16
1604521936.7527,-21
1604521936.7547,-24
1604521936.7567,-14
1604521936.7587,-14
1604521936.7608,-21
1604521936.7627,-19
1604521936.7647,-12
1604521936.7667,-16
1604521936.7688,-60
1604521936.7707,-151
1604521936.7714,-178
1604521936.7727,139
1604521936.7747,855
1604521936.7767,1505
1604521936.7787,1421
1604521936.7807,505
1604521936.7827,-219
1604521936.7847,-105
1604521936.7867,33
1604521936.7887,-144
1604521936.7908,-158
1604521936.7927,-69
1604521936.7947,-98
1604521936.7967,-113
1604521936.7987,-79
1604521936.8006,-72
1604521936.8013,-72
1604521936.8027,-57
1604521936.8047,-52
1604521936.8067,-45
1604521936.8087,-31
1604521936.8108,-21
1604521936.8127,-12
1604521936.8147,-2
1604521936.8167,2
1604521936.8187,9
1604521936.8209,24
1604521936.8227,38
1604521936.8247,52
1604521936.8267,69
1604521936.8287,86
1604521936.8308,110
1604521936.8313,132
1604521936.8327,156
1604521937.2379,180
1604521937.2387,197
1604521937.2411,209
1604521937.2437,211
1604521937.2458,204
1604521937.2477,183
1604521937.2498,142
1604521937.2517,91
1604521937.2537,40
1604521937.2557,-4
1604521937.2577,-45
1604521937.2598,-86
1604521937.2616,-113
1604521937.2623,-125
1604521937.2637,-132
1604521937.2657,-137
1604521937.2677,-134
1604521937.2697,-127
1604521937.2717,-125
1604521937.2737,-125
1604521937.2757,-118
1604521937.2777,-110
1604521937.2797,-105
1604521937.2817,-101
1604521937.2838,-93
1604521937.2856,-89
1604521937.2877,-84
1604521937.2898,-77
1604521937.2916,-72
1604521937.2923,-67
1604521937.2937,-65
1604521937.2957,-65
1604521937.2977,-62
1604521937.2997,-62
1604521937.3017,-62
1604521937.3037,-62
1604521937.3057,-57
1604521937.3077,-57
1604521937.3096,-62
1604521937.3116,-57
1604521937.3136,-52
1604521937.3156,-48
1604521937.3176,-45
1604521937.3198,-45
1604521937.3217,-43
1604521937.3223,-40
1604521937.3237,-36
1604521937.3256,-31
1604521937.3277,-26
1604521937.3297,-26
1604521937.3317,-33
1604521937.3337,-33
1604521937.3356,-21
1604521937.3378,-4
1604521937.3397,12
1604521937.3416,24
1604521937.3437,19
1604521937.3457,9
1604521937.3476,4
1604521937.3497,4
1604521937.3517,2
1604521937.3523,-2
1604521937.3536,-9
1604521937.3556,-9
1604521937.3577,-9
1604521937.3597,-12
1604521937.3617,-7
1604521937.3636,-4
1604521937.3657,-4
1604521937.3676,-4
1604521937.3697,0
1604521937.3717,-2
1604521937.3736,-24
1604521937.8073,-93
1604521937.8081,-163
1604521937.8098,-2
1604521937.8121,570
1604521937.8141,1279
1604521937.8161,1532
1604521937.8182,900
1604521937.8202,-36
1604521937.8221,-221
1604521937.8241,9
1604521937.8261,-86
1604521937.8281,-199
1604521937.8301,-118
1604521937.8321,-103
1604521937.8341,-139
1604521937.8361,-110
1604521937.8381,-91
1604521937.8401,-101
1604521937.8407,-86
1604521937.8420,-69
1604521937.8440,-69
1604521937.8462,-60
1604521937.8481,-45
1604521937.8501,-36
1604521937.8520,-26
1604521937.8540,-16
1604521937.8560,-2
1604521937.8581,7
1604521937.8601,16
1604521937.8621,31
1604521937.8640,48
1604521937.8660,67
1604521937.8681,86
1604521937.8700,108
1604521937.8707,134
1604521937.8720,154
1604521937.8740,171
1604521937.8760,185
1604521937.8781,195
1604521937.8801,195
1604521937.8820,183
1604521937.8840,156
1604521937.8860,113
1604521937.8880,65
1604521937.8901,19
1604521937.8921,-14
1604521937.8940,-45
1604521937.8960,-74
1604521937.8981,-93
1604521937.9000,-103
1604521937.9007,-105
1604521937.9020,-105
1604521937.9040,-105
1604521937.9060,-101
1604521937.9080,-96
1604521937.9101,-93
1604521937.9120,-89
1604521937.9140,-79
1604521937.9160,-72
1604521937.9180,-67
1604521937.9200,-65
1604521937.9221,-60
1604521937.9241,-52
1604521937.9260,-48
1604521937.9280,-48
1604521937.9300,-40
1604521937.9307,-38
1604521937.9320,-40
1604521937.9340,-40
1604521937.9360,-36
1604521937.9381,-38
1604521937.9401,-40
1604521937.9422,-38
1604521938.3473,-36
1604521938.3480,-38
1604521938.3504,-43
1604521938.3531,-45
1604521938.3551,-48
1604521938.3571,-48
1604521938.3591,-50
1604521938.3610,-48
1604521938.3618,-45
1604521938.3631,-50
1604521938.3650,-55
1604521938.3670,-52
1604521938.3691,-50
1604521938.3711,-48
1604521938.3731,-43
1604521938.3750,-43
1604521938.3771,-40
1604521938.3790,-38
1604521938.3811,-38
1604521938.3830,-43
1604521938.3850,-40
1604521938.3870,-31
1604521938.3890,-16
1604521938.3911,4
1604521938.3917,16
1604521938.3930,12
1604521938.3951,2
1604521938.3970,0
1604521938.3990,0
1604521938.4010,-4
1604521938.4030,-9
1604521938.4050,-9
1604521938.4070,-9
1604521938.4090,-16
1604521938.4111,-19
1604521938.4130,-14
1604521938.4150,-14
1604521938.4170,-14
1604521938.4190,-9
1604521938.4210,-7
1604521938.4217,-14
1604521938.4230,-33
1604521938.4250,-86
1604521938.4270,-156
1604521938.4290,-72
1604521938.4311,390
1604521938.4330,1081
1604521938.4350,1476
1604521938.4370,1057
1604521938.4390,125
1604521938.4412,-240
1604521938.4431,-14
1604521938.4450,-31
1604521938.4470,-183
1604521938.4490,-122
1604521938.4510,-79
1604521938.4517,-122
1604521938.4530,-105
1604521938.4550,-72
1604521938.4570,-79
1604521938.4590,-77
1604521938.4611,-60
1604521938.4630,-50
1604521938.4650,-45
1604521938.4671,-36
1604521938.4690,-26
1604521938.4711,-19
1604521938.4730,-7
1604521938.4750,2
1604521938.4771,7
1604521938.4790,12
1604521938.4797,21
1604521938.4810,33
1604521938.8871,48
1604521938.8878,69
1604521938.8902,89
1604521938.8929,108
1604521938.8948,130
1604521938.8969,151
1604521938.8989,161
1604521938.9008,166
1604521938.9028,168
1604521938.9048,163
1604521938.9068,142
1604521938.9152,108
1604521938.9169,67
1604521938.9188,24
1604521938.9208,-16
1604521938.9228,-52
1604521938.9249,-74
1604521938.9268,-91
1604521938.9288,-105
1604521938.9308,-115
1604521938.9328,-115
1604521938.9348,-113
1604521938.9368,-113
1604521938.9388,-110
1604521938.9408,-105
1604521938.9428,-98
1604521938.9435,-93
1604521938.9447,-89
1604521938.9470,-77
1604521938.9489,-69
1604521938.9508,-72
1604521938.9528,-77
1604521938.9548,-72
1604521938.9568,-62
1604521938.9588,-65
1604521938.9608,-65
1604521938.9628,-62
1604521938.9648,-60
1604521938.9668,-60
1604521938.9688,-60
1604521938.9708,-55
1604521938.9728,-55
1604521938.9735,-55
1604521938.9748,-50
1604521938.9768,-50
1604521938.9788,-45
1604521938.9808,-40
1604521938.9828,-45
1604521938.9848,-48
1604521938.9868,-40
1604521938.9888,-33
1604521938.9908,-31
1604521938.9928,-33
1604521938.9948,-31
1604521938.9968,-26
1604521938.9988,-21
1604521939.0008,-19
1604521939.0028,-19
1604521939.0036,-19
1604521939.0058,-16
1604521939.0078,-16
1604521939.0098,-16
1604521939.0118,-19
1604521939.0138,-21
1604521939.0158,-19
1604521939.0178,-16
1604521939.0198,-14
1604521939.0219,-9
1604521939.0238,-9
1604521939.0258,-16
1604521939.0278,-16
1604521939.0298,-2
1604521939.0318,16
1604521939.4571,31
1604521939.4577,33
1604521939.4591,31
1604521939.4611,21
1604521939.4631,4
1604521939.4652,-2
1604521939.4673,2
1604521939.4692,-2
1604521939.4711,-12
1604521939.4731,-14
1604521939.4750,-12
1604521939.4770,-12
1604521939.4790,-9
1604521939.4811,-4
1604521939.4831,0
1604521939.4837,-2
1604521939.4861,-2
1604521939.4880,-14
1604521939.4901,-50
1604521939.4922,-125
1604521939.4941,-134
1604521939.4960,171
1604521939.4980,819
1604521939.5001,1373
1604521939.5021,1242
1604521939.5040,404
1604521939.5061,-192
1604521939.5081,-69
1604521939.5101,19
1604521939.5121,-142
1604521939.5140,-132
1604521939.5147,-65
1604521939.5171,-98
1604521939.5191,-105
1604521939.5211,-69
1604521939.5231,-67
1604521939.5251,-69
1604521939.5270,-50
1604521939.5290,-40
1604521939.5311,-48
1604521939.5331,-36
1604521939.5351,-19
1604521939.5371,-14
1604521939.5391,-7
1604521939.5410,7
1604521939.5430,16
1604521939.5451,24
1604521939.5458,33
1604521939.5481,48
1604521939.5501,65
1604521939.5521,84
1604521939.5541,101
1604521939.5561,120
1604521939.5580,142
1604521939.5601,158
1604521939.5620,168
1604521939.5641,183
1604521939.5662,190
1604521939.5681,183
1604521939.5701,168
1604521939.5720,144
1604521939.5740,96
1604521939.5761,45
1604521939.5767,4
1604521939.5790,-33
1604521939.5810,-72
1604521939.5831,-101
1604521939.5851,-118
1604521939.5871,-127
1604521939.5891,-137
1604521939.5911,-139
1604521939.5931,-132
1604521939.5950,-127
1604521940.0573,-122
1604521940.0581,-110
1604521940.0606,-105
1604521940.0631,-96
1604521940.0651,-91
1604521940.0659,-98
1604521940.0682,-98
1604521940.0702,-84
1604521940.0721,-81
1604521940.0741,-81
1604521940.0761,-72
1604521940.0782,-65
1604521940.0801,-72
1604521940.0821,-74
1604521940.0841,-69
1604521940.0861,-69
1604521940.0881,-69
1604521940.0901,-67
1604521940.0921,-67
1604521940.0941,-62
1604521940.0961,-60
1604521940.0967,-62
1604521940.0981,-60
1604521940.1001,-50
1604521940.1021,-50
1604521940.1041,-55
1604521940.1060,-50
1604521940.1081,-40
1604521940.1101,-40
1604521940.1120,-43
1604521940.1141,-38
1604521940.1161,-33
1604521940.1180,-40
1604521940.1201,-40
1604521940.1221,-24
1604521940.1242,0
1604521940.1261,16
1604521940.1268,16
1604521940.1281,12
1604521940.1301,4
1604521940.1321,-4
1604521940.1340,-12
1604521940.1360,-12
1604521940.1381,-12
1604521940.1401,-16
1604521940.1420,-24
1604521940.1440,-21
1604521940.1460,-19
1604521940.1480,-33
1604521940.1501,-38
1604521940.1521,-19
1604521940.1541,-14
1604521940.1560,-26
1604521940.1567,-38
1604521940.1580,-86
1604521940.1601,-183
1604521940.1620,-130
1604521940.1641,337
1604521940.1661,1057
1604521940.1680,1454
1604521940.1701,977
1604521940.1721,45
1604521940.1741,-214
1604521940.1761,33
1604521940.1781,-26
1604521940.1801,-163
1604521940.1820,-91
1604521940.1841,-60
1604521940.1860,-103
1604521940.1867,-84
1604521940.1880,-55
1604521940.1901,-62
1604521940.1921,-55
1604521940.5970,-31
1604521940.5979,-28
1604521940.6002,-36
1604521940.6029,-26
1604521940.6049,-16
1604521940.6069,-12
1604521940.6090,-7
1604521940.6109,9
1604521940.6129,28
1604521940.6135,33
1604521940.6149,31
1604521940.6168,43
1604521940.6189,69
1604521940.6211,84
1604521940.6230,101
1604521940.6250,134
1604521940.6269,166
1604521940.6290,175
1604521940.6309,185
1604521940.6329,199
1604521940.6349,207
1604521940.6369,195
1604521940.6389,163
1604521940.6408,122
1604521940.6428,72
1604521940.6435,21
1604521940.6448,-31
1604521940.6468,-79
1604521940.6488,-110
1604521940.6508,-130
1604521940.6528,-142
1604521940.6549,-149
1604521940.6568,-156
1604521940.6588,-154
1604521940.6608,-144
1604521940.6628,-139
1604521940.6648,-137
1604521940.6668,-120
1604521940.6688,-108
1604521940.6709,-110
1604521940.6729,-105
1604521940.6735,-93
1604521940.6750,-79
1604521940.6769,-72
1604521940.6788,-74
1604521940.6808,-77
1604521940.6828,-69
1604521940.6849,-65
1604521940.6868,-60
1604521940.6889,-60
1604521940.6908,-67
1604521940.6929,-65
1604521940.6949,-52
1604521940.6969,-55
1604521940.6988,-57
1604521940.7009,-55
1604521940.7015,-57
1604521940.7028,-57
1604521940.7050,-55
1604521940.7068,-52
1604521940.7088,-45
1604521940.7109,-38
1604521940.7128,-31
1604521940.7148,-14
1604521940.7170,2
1604521940.7189,-2
1604521940.7208,-7
1604521940.7228,-9
1604521940.7248,-16
1604521940.7268,-21
1604521940.7288,-21
1604521940.7308,-28
1604521940.7315,-33
1604521941.1668,-36
1604521941.1677,-28
1604521941.1702,-19
1604521941.1727,-19
1604521941.1747,-24
1604521941.1768,-19
1604521941.1789,-12
1604521941.1808,-26
1604521941.1828,-72
1604521941.1847,-154
1604521941.1867,-195
1604521941.1887,93
1604521941.1907,787
1604521941.1927,1423
1604521941.1947,1339
1604521941.1954,450
1604521941.1967,-226
1604521941.1987,-91
1604521941.2007,36
1604521941.2026,-142
1604521941.2047,-146
1604521941.2067,-65
1604521941.2086,-98
1604521941.2107,-110
1604521941.2126,-72
1604521941.2146,-69
1604521941.2166,-72
1604521941.2186,-57
1604521941.2207,-43
1604521941.2227,-36
1604521941.2247,-31
1604521941.2253,-28
1604521941.2267,-21
1604521941.2286,-9
1604521941.2307,2
1604521941.2327,14
1604521941.2347,21
1604521941.2367,28
1604521941.2387,43
1604521941.2407,57
1604521941.2427,81
1604521941.2447,110
1604521941.2468,132
1604521941.2487,154
1604521941.2507,183
1604521941.2527,202
1604521941.2546,209
1604521941.2553,211
1604521941.2560,202
1604521941.2576,173
1604521941.2597,132
1604521941.2617,79
1604521941.2636,24
1604521941.2657,-21
1604521941.2676,-65
1604521941.2696,-101
1604521941.2716,-122
1604521941.2736,-137
1604521941.2757,-146
1604521941.2776,-151
1604521941.2797,-151
1604521941.2816,-151
1604521941.2822,-144
1604521941.2837,-130
1604521941.2856,-115
1604521941.2876,-105
1604521941.2897,-98
1604521941.2916,-91
1604521941.2936,-84
1604521941.2957,-67
1604521941.2976,-62
1604521941.2997,-65
1604521941.3016,-55
1604521941.7372,-43
1604521941.7380,-43
1604521941.7397,-48
1604521941.7421,-45
1604521941.7441,-48
1604521941.7461,-55
1604521941.7481,-45
1604521941.7501,-38
1604521941.7520,-50
1604521941.7540,-60
1604521941.7562,-52
1604521941.7580,-45
1604521941.7601,-45
1604521941.7620,-45
1604521941.7640,-45
1604521941.7660,-50
1604521941.7680,-45
1604521941.7700,-36
1604521941.7706,-33
1604521941.7720,-19
1604521941.7741,4
1604521941.7760,7
1604521941.7780,-2
1604521941.7800,-2
1604521941.7820,-7
1604521941.7840,-24
1604521941.7861,-28
1604521941.7880,-21
1604521941.7901,-21
1604521941.7919,-28
1604521941.7939,-31
1604521941.7960,-26
1604521941.7980,-21
1604521941.8000,-16
1604521941.8006,-12
1604521941.8019,-12
1604521941.8040,-19
1604521941.8060,-40
1604521941.8080,-110
1604521941.8100,-183
1604521941.8120,-14
1604521941.8140,587
1604521941.8159,1329
1604521941.8179,1541
1604521941.8200,826
1604521941.8220,-89
1604521941.8240,-190
1604521941.8259,36
1604521941.8280,-84
1604521941.8300,-171
1604521941.8306,-86
1604521941.8320,-91
1604521941.8340,-127
1604521941.8360,-91
1604521941.8379,-67
1604521941.8400,-74
1604521941.8420,-67
1604521941.8439,-52
1604521941.8460,-43
1604521941.8479,-33
1604521941.8500,-24
1604521941.8519,-16
1604521941.8539,-7
1604521941.8560,2
1604521941.8580,12
1604521941.8600,28
1604521941.8605,43
1604521941.8620,55
1604521941.8640,67
1604521941.8659,81
1604521941.8679,103
1604521941.8702,130
1604521941.8720,154
1604521942.2779,175
1604521942.2787,199
1604521942.2812,211
1604521942.2838,214
1604521942.2857,214
1604521942.2878,195
1604521942.2899,146
1604521942.2917,93
1604521942.2937,48
1604521942.2943,-9
1604521942.2957,-65
1604521942.2977,-98
1604521942.2998,-120
1604521942.3017,-137
1604521942.3037,-146
1604521942.3057,-146
1604521942.3078,-144
1604521942.3098,-144
1604521942.3116,-144
1604521942.3137,-144
1604521942.3157,-139
1604521942.3177,-130
1604521942.3197,-120
1604521942.3217,-115
1604521942.3237,-105
1604521942.3243,-91
1604521942.3257,-81
1604521942.3277,-77
1604521942.3297,-69
1604521942.3317,-62
1604521942.3336,-57
1604521942.3357,-52
1604521942.3376,-52
1604521942.3397,-50
1604521942.3416,-48
1604521942.3437,-48
1604521942.3456,-52
1604521942.3477,-52
1604521942.3497,-48
1604521942.3516,-43
1604521942.3536,-43
1604521942.3542,-48
1604521942.3557,-45
1604521942.3576,-38
1604521942.3597,-36
1604521942.3617,-36
1604521942.3637,-36
1604521942.3657,-33
1604521942.3676,-33
1604521942.3698,-33
1604521942.3717,-24
1604521942.3737,-7
1604521942.3756,12
1604521942.3776,21
1604521942.3797,19
1604521942.3817,14
1604521942.3836,9
1604521942.3842,7
1604521942.3857,4
1604521942.3877,0
1604521942.3897,-2
1604521942.3916,-2
1604521942.3937,-9
1604521942.3956,-9
1604521942.3976,-2
1604521942.3997,-2
1604521942.4016,-4
1604521942.4036,-4
1604521942.4056,-2
1604521942.4077,0
1604521942.4097,-14
1604521942.4117,-72
1604521942.4136,-154
1604521942.8472,-72
1604521942.8480,411
1604521942.8504,1144
1604521942.8530,1553
1604521942.8550,1103
1604521942.8570,125
1604521942.8591,-248
1604521942.8611,-14
1604521942.8630,-36
1604521942.8650,-190
1604521942.8670,-127
1604521942.8690,-89
1604521942.8710,-137
1604521942.8716,-118
1604521942.8730,-81
1604521942.8750,-91
1604521942.8771,-91
1604521942.8790,-72
1604521942.8810,-62
1604521942.8830,-55
1604521942.8850,-40
1604521942.8870,-31
1604521942.8890,-24
1604521942.8910,-12
1604521942.8929,-2
1604521942.8950,9
1604521942.8969,24
1604521942.8991,33
1604521942.9010,45
1604521942.9016,65
1604521942.9029,86
1604521942.9049,101
1604521942.9069,125
1604521942.9089,149
1604521942.9109,166
1604521942.9129,183
1604521942.9149,195
1604521942.9169,197
1604521942.9189,185
1604521942.9210,158
1604521942.9230,118
1604521942.9249,74
1604521942.9269,26
1604521942.9290,-16
1604521942.9309,-50
1604521942.9316,-74
1604521942.9330,-93
1604521942.9349,-103
1604521942.9369,-105
1604521942.9389,-105
1604521942.9410,-103
1604521942.9429,-98
1604521942.9449,-91
1604521942.9469,-86
1604521942.9490,-84
1604521942.9509,-77
1604521942.9530,-69
1604521942.9549,-67
1604521942.9569,-65
1604521942.9590,-55
1604521942.9610,-48
1604521942.9615,-40
1604521942.9629,-36
1604521942.9649,-31
1604521942.9669,-33
1604521942.9690,-38
1604521942.9710,-38
1604521942.9729,-36
1604521942.9749,-36
1604521942.9770,-40
1604521942.9790,-45
1604521942.9810,-43
1604521942.9829,-38
1604521943.4167,-40
1604521943.4175,-40
1604521943.4200,-38
1604521943.4210,-38
1604521943.4226,-43
1604521943.4248,-43
1604521943.4266,-36
1604521943.4286,-31
1604521943.4306,-38
1604521943.4325,-45
1604521943.4345,-38
1604521943.4365,-33
1604521943.4385,-36
1604521943.4406,-31
1604521943.4426,-24
1604521943.4446,-21
1604521943.4465,-24
1604521943.4485,-21
1604521943.4505,-16
1604521943.4511,-19
1604521943.4526,-19
1604521943.4545,-14
1604521943.4565,0
1604521943.4586,19
1604521943.4605,28
1604521943.4625,24
1604521943.4645,14
1604521943.4665,9
1604521943.4685,7
1604521943.4705,7
1604521943.4725,7
1604521943.4745,2
1604521943.4765,-2
1604521943.4785,-7
1604521943.4805,-4
1604521943.4811,-2
1604521943.4825,-2
1604521943.4845,0
1604521943.4865,2
1604521943.4885,2
1604521943.4905,-2
1604521943.4925,-19
1604521943.4945,-74
1604521943.4965,-144
1604521943.4985,-24
1604521943.5005,484
1604521943.5025,1177
1604521943.5045,1507
1604521943.5065,990
1604521943.5085,55
1604521943.5105,-219
1604521943.5111,16
1604521943.5125,-40
1604521943.5145,-173
1604521943.5165,-98
1604521943.5185,-69
1604521943.5207,-115
1604521943.5225,-96
1604521943.5245,-65
1604521943.5265,-74
1604521943.5285,-67
1604521943.5305,-48
1604521943.5325,-43
1604521943.5345,-40
1604521943.5365,-28
1604521943.5385,-14
1604521943.5406,-9
1604521943.5411,0
1604521943.5425,14
1604521943.5445,24
1604521943.5465,31
1604521943.5485,38
1604521943.5505,52
1604521943.9873,69
1604521943.9880,86
1604521943.9905,105
1604521943.9931,127
1604521943.9951,151
1604521943.9971,171
1604521943.9992,187
1604521944.0010,195
1604521944.0017,197
1604521944.0030,183
1604521944.0050,151
1604521944.0070,118
1604521944.0091,77
1604521944.0111,31
1604521944.0131,-12
1604521944.0151,-45
1604521944.0171,-72
1604521944.0191,-93
1604521944.0210,-105
1604521944.0231,-108
1604521944.0250,-108
1604521944.0271,-110
1604521944.0290,-105
1604521944.0297,-96
1604521944.0311,-91
1604521944.0330,-89
1604521944.0351,-84
1604521944.0370,-77
1604521944.0391,-69
1604521944.0410,-67
1604521944.0430,-62
1604521944.0450,-57
1604521944.0470,-57
1604521944.0490,-55
1604521944.0511,-50
1604521944.0531,-48
1604521944.0550,-45
1604521944.0570,-45
1604521944.0590,-43
1604521944.0597,-43
1604521944.0610,-43
1604521944.0630,-40
1604521944.0650,-38
1604521944.0670,-40
1604521944.0690,-43
1604521944.0710,-43
1604521944.0730,-38
1604521944.0750,-36
1604521944.0770,-36
1604521944.0790,-38
1604521944.0810,-33
1604521944.0830,-28
1604521944.0850,-26
1604521944.0870,-26
1604521944.0890,-24
1604521944.0896,-19
1604521944.0910,-19
1604521944.0930,-21
1604521944.0951,-16
1604521944.0970,-9
1604521944.0990,-9
1604521944.1010,-12
1604521944.1030,-12
1604521944.1051,-14
1604521944.1070,-16
1604521944.1090,-9
1604521944.1111,-7
1604521944.1130,-9
1604521944.1150,-9
1604521944.1170,-12
1604521944.1190,-12
1604521944.1197,-4
1604521944.1210,2
1604521944.5267,14
1604521944.5276,33
1604521944.5301,45
1604521944.5326,36
1604521944.5346,26
1604521944.5367,21
1604521944.5387,12
1604521944.5407,7
1604521944.5426,7
1604521944.5446,4
1604521944.5466,-4
1604521944.5472,-16
1604521944.5488,-14
1604521944.5507,-12
1604521944.5526,-12
1604521944.5546,-7
1604521944.5566,-4
1604521944.5586,-4
1604521944.5606,-21
1604521944.5626,-74
1604521944.5645,-146
1604521944.5665,-45
1604521944.5685,423
1604521944.5706,1096
1604521944.5725,1447
1604521944.5746,982
1604521944.5765,84
1604521944.5772,-202
1604521944.5786,19
1604521944.5806,-26
1604521944.5826,-163
1604521944.5846,-101
1604521944.5866,-69
1604521944.5885,-105
1604521944.5906,-81
1604521944.5926,-57
1604521944.5945,-65
1604521944.5966,-62
1604521944.5985,-50
1604521944.6006,-45
1604521944.6025,-33
1604521944.6045,-21
1604521944.6065,-16
1604521944.6071,-9
1604521944.6085,2
1604521944.6105,12
1604521944.6126,21
1604521944.6145,36
1604521944.6165,45
1604521944.6185,50
1604521944.6206,69
1604521944.6226,98
1604521944.6245,120
1604521944.6266,134
1604521944.6285,158
1604521944.6306,180
1604521944.6326,185
1604521944.6345,187
1604521944.6366,192
1604521944.6372,190
1604521944.6385,168
1604521944.6406,132
1604521944.6426,89
1604521944.6446,43
1604521944.6466,-2
1604521944.6485,-45
1604521944.6506,-74
1604521944.6526,-91
1604521944.6545,-108
1604521944.6565,-122
1604521944.6586,-125
1604521944.6606,-122
1604521944.6626,-118
1604521945.0668,-118
1604521945.0676,-113
1604521945.0700,-103
1604521945.0726,-93
1604521945.0747,-86
1604521945.0767,-81
1604521945.0787,-77
1604521945.0807,-77
1604521945.0826,-77
1604521945.0847,-72
1604521945.0867,-67
1604521945.0887,-67
1604521945.0906,-65
1604521945.0926,-57
1604521945.0946,-50
1604521945.0966,-55
1604521945.0986,-55
1604521945.0992,-52
1604521945.1006,-48
1604521945.1026,-48
1604521945.1046,-45
1604521945.1066,-43
1604521945.1086,-43
1604521945.1107,-48
1604521945.1125,-40
1604521945.1146,-28
1604521945.1166,-28
1604521945.1186,-31
1604521945.1206,-26
1604521945.1226,-26
1604521945.1246,-28
1604521945.1266,-24
1604521945.1286,-24
1604521945.1292,-24
1604521945.1305,-19
1604521945.1326,-12
1604521945.1345,-19
1604521945.1366,-24
1604521945.1386,-9
1604521945.1406,12
1604521945.1425,28
1604521945.1447,36
1604521945.1466,26
1604521945.1486,14
1604521945.1506,14
1604521945.1525,19
1604521945.1545,7
1604521945.1565,-4
1604521945.1585,-4
1604521945.1592,-9
1604521945.1605,-21
1604521945.1626,-19
1604521945.1645,-7
1604521945.1665,-2
1604521945.1685,-7
1604521945.1706,-12
1604521945.1726,-16
1604521945.1746,-24
1604521945.1766,-77
1604521945.1786,-175
1604521945.1806,-110
1604521945.1826,368
1604521945.1845,1083
1604521945.1866,1450
1604521945.1886,941
1604521945.1891,26
1604521945.1906,-207
1604521945.1926,31
1604521945.1945,-43
1604521945.1966,-166
1604521945.1985,-81
1604521945.2005,-60
1604521945.2026,-108
1604521945.6373,-86
1604521945.6382,-57
1604521945.6406,-65
1604521945.6432,-60
1604521945.6453,-48
1604521945.6472,-52
1604521945.6478,-45
1604521945.6493,-26
1604521945.6512,-24
1604521945.6532,-24
1604521945.6552,-7
1604521945.6572,12
1604521945.6592,24
1604521945.6612,33
1604521945.6632,45
1604521945.6652,57
1604521945.6674,72
1604521945.6692,91
1604521945.6712,115
1604521945.6734,149
1604521945.6752,175
1604521945.6771,187
1604521945.6777,197
1604521945.6791,211
1604521945.6812,216
1604521945.6831,209
1604521945.6852,185
1604521945.6873,144
1604521945.6892,93
1604521945.6912,40
1604521945.6931,-14
1604521945.6951,-57
1604521945.6972,-91
1604521945.6991,-118
1604521945.7012,-132
1604521945.7032,-144
1604521945.7052,-151
1604521945.7071,-149
1604521945.7077,-137
1604521945.7091,-127
1604521945.7111,-122
1604521945.7131,-120
1604521945.7152,-108
1604521945.7171,-96
1604521945.7192,-91
1604521945.7211,-91
1604521945.7232,-79
1604521945.7251,-67
1604521945.7272,-67
1604521945.7291,-69
1604521945.7312,-60
1604521945.7331,-55
1604521945.7351,-60
1604521945.7371,-69
1604521945.7377,-67
1604521945.7392,-62
1604521945.7411,-62
1604521945.7431,-57
1604521945.7451,-45
1604521945.7471,-48
1604521945.7491,-57
1604521945.7511,-52
1604521945.7532,-40
1604521945.7551,-43
1604521945.7572,-43
1604521945.7591,-40
1604521945.7611,-38
1604521945.7631,-33
1604521945.7651,-14
1604521945.7672,9
1604521945.7679,16
1604521945.7692,7
1604521945.7712,0
1604521946.1774,-7
1604521946.1783,-9
1604521946.1798,-4
1604521946.1818,-12
1604521946.1838,-19
1604521946.1858,-24
1604521946.1878,-36
1604521946.1898,-40
1604521946.1918,-26
1604521946.1939,-21
1604521946.1958,-28
1604521946.1964,-28
1604521946.1978,-28
1604521946.1998,-45
1604521946.2017,-93
1604521946.2037,-185
1604521946.2058,-146
1604521946.2078,298
1604521946.2098,1045
1604521946.2117,1505
1604521946.2137,1086
1604521946.2157,115
1604521946.2177,-245
1604521946.2198,7
1604521946.2217,-16
1604521946.2237,-171
1604521946.2258,-101
1604521946.2263,-60
1604521946.2277,-108
1604521946.2297,-91
1604521946.2317,-60
1604521946.2337,-67
1604521946.2357,-55
1604521946.2377,-43
1604521946.2397,-50
1604521946.2418,-45
1604521946.2438,-28
1604521946.2457,-24
1604521946.2477,-12
1604521946.2497,2
1604521946.2517,4
1604521946.2537,12
1604521946.2557,36
1604521946.2563,45
1604521946.2577,52
1604521946.2598,74
1604521946.2617,98
1604521946.2637,115
1604521946.2659,142
1604521946.2677,168
1604521946.2698,183
1604521946.2717,195
1604521946.2737,209
1604521946.2757,211
1604521946.2777,202
1604521946.2797,178
1604521946.2817,130
1604521946.2837,67
1604521946.2857,12
1604521946.2863,-36
1604521946.2877,-74
1604521946.2897,-105
1604521946.2917,-132
1604521946.2938,-149
1604521946.2957,-146
1604521946.2977,-146
1604521946.2997,-151
1604521946.3017,-146
1604521946.3037,-137
1604521946.3057,-132
1604521946.3077,-120
1604521946.3098,-101
1604521946.3117,-96
1604521946.7772,-93
1604521946.7780,-84
1604521946.7804,-79
1604521946.7831,-86
1604521946.7851,-86
1604521946.7871,-77
1604521946.7891,-74
1604521946.7910,-77
1604521946.7930,-77
1604521946.7950,-72
1604521946.7970,-69
1604521946.7990,-69
1604521946.8010,-72
1604521946.8030,-69
1604521946.8050,-62
1604521946.8057,-57
1604521946.8070,-60
1604521946.8090,-60
1604521946.8110,-52
1604521946.8130,-50
1604521946.8150,-55
1604521946.8170,-52
1604521946.8190,-48
1604521946.8210,-45
1604521946.8230,-31
1604521946.8251,-4
1604521946.8271,7
1604521946.8290,-4
1604521946.8310,-19
1604521946.8330,-14
1604521946.8350,-9
1604521946.8356,-16
1604521946.8370,-28
1604521946.8390,-31
1604521946.8410,-31
1604521946.8430,-38
1604521946.8450,-36
1604521946.8470,-26
1604521946.8490,-28
1604521946.8510,-31
1604521946.8530,-28
1604521946.8549,-24
1604521946.8569,-28
1604521946.8590,-52
1604521946.8610,-127
1604521946.8630,-192
1604521946.8650,14
1604521946.8656,655
1604521946.8670,1375
1604521946.8689,1503
1604521946.8710,717
1604521946.8730,-151
1604521946.8751,-180
1604521946.8771,31
1604521946.8790,-113
1604521946.8810,-180
1604521946.8829,-91
1604521946.8849,-98
1604521946.8870,-130
1604521946.8889,-93
1604521946.8910,-77
1604521946.8930,-84
1604521946.8950,-74
1604521946.8956,-60
1604521946.8970,-55
1604521946.8989,-45
1604521946.9010,-36
1604521946.9030,-26
1604521946.9049,-14
1604521946.9070,-7
1604521946.9090,0
1604521946.9110,14
1604521946.9130,31
1604521947.3773,48
1604521947.3781,65
1604521947.3800,79
1604521947.3817,101
1604521947.3839,125
1604521947.3858,146
1604521947.3863,166
1604521947.3877,185
1604521947.3898,192
1604521947.3919,187
1604521947.3937,185
1604521947.3957,173
1604521947.3977,134
1604521947.3996,84
1604521947.4017,38
1604521947.4037,-4
1604521947.4057,-48
1604521947.4077,-86
1604521947.4097,-115
1604521947.4117,-134
1604521947.4137,-149
1604521947.4157,-154
1604521947.4163,-151
1604521947.4177,-149
1604521947.4197,-144
1604521947.4217,-142
1604521947.4237,-134
1604521947.4257,-127
1604521947.4277,-120
1604521947.4296,-108
1604521947.4318,-93
1604521947.4336,-91
1604521947.4356,-86
1604521947.4377,-74
1604521947.4397,-65
1604521947.4418,-62
1604521947.4437,-60
1604521947.4457,-57
1604521947.4463,-52
1604521947.4477,-50
1604521947.4497,-52
1604521947.4516,-52
1604521947.4536,-48
1604521947.4556,-48
1604521947.4576,-48
1604521947.4597,-48
1604521947.4617,-45
1604521947.4636,-43
1604521947.4656,-40
1604521947.4677,-40
1604521947.4697,-40
1604521947.4716,-38
1604521947.4736,-36
1604521947.4756,-33
1604521947.4763,-28
1604521947.4778,-26
1604521947.4797,-28
1604521947.4816,-33
1604521947.4836,-36
1604521947.4856,-28
1604521947.4876,-14
1604521947.4897,4
1604521947.4917,16
1604521947.4937,14
1604521947.4956,9
1604521947.4976,4
1604521947.4997,0
1604521947.5018,-2
1604521947.5025,-7
1604521947.5046,-9
1604521947.5066,-9
1604521947.5086,-16
1604521947.5107,-16
1604521947.9172,-14
1604521947.9180,-14
1604521947.9205,-14
1604521947.9231,-12
1604521947.9252,-7
1604521947.9271,-14
1604521947.9291,-40
1604521947.9310,-108
1604521947.9317,-168
1604521947.9330,14
1604521947.9351,592
1604521947.9371,1288
1604521947.9390,1493
1604521947.9411,794
1604521947.9430,-122
1604521947.9450,-236
1604521947.9470,0
1604521947.9490,-127
1604521947.9510,-224
1604521947.9530,-130
1604521947.9550,-120
1604521947.9570,-156
1604521947.9590,-125
1604521947.9611,-101
1604521947.9616,-105
1604521947.9630,-98
1604521947.9650,-84
1604521947.9670,-77
1604521947.9690,-67
1604521947.9711,-55
1604521947.9730,-45
1604521947.9750,-36
1604521947.9770,-24
1604521947.9792,-14
1604521947.9810,0
1604521947.9830,14
1604521947.9850,26
1604521947.9870,40
1604521947.9890,57
1604521947.9910,79
1604521947.9916,103
1604521947.9930,125
1604521947.9950,144
1604521947.9970,166
1604521947.9990,180
1604521948.0010,185
1604521948.0030,185
1604521948.0050,175
1604521948.0070,144
1604521948.0090,96
1604521948.0110,52
1604521948.0130,12
1604521948.0150,-31
1604521948.0170,-65
1604521948.0189,-89
1604521948.0210,-108
1604521948.0216,-120
1604521948.0230,-125
1604521948.0250,-125
1604521948.0270,-122
1604521948.0290,-118
1604521948.0310,-113
1604521948.0330,-105
1604521948.0350,-101
1604521948.0370,-96
1604521948.0390,-89
1604521948.0410,-81
1604521948.0430,-77
1604521948.0450,-77
1604521948.0470,-69
1604521948.0490,-67
1604521948.0511,-65
1604521948.0516,-65
1604521948.4571,-60
1604521948.4580,-55
1604521948.4595,-55
1604521948.4615,-52
1604521948.4635,-55
1604521948.4655,-62
1604521948.4675,-69
1604521948.4696,-69
1604521948.4714,-65
1604521948.4736,-62
1604521948.4755,-65
1604521948.4777,-72
1604521948.4781,-72
1604521948.4795,-62
1604521948.4814,-62
1604521948.4834,-60
1604521948.4854,-55
1604521948.4875,-50
1604521948.4894,-50
1604521948.4914,-48
1604521948.4934,-43
1604521948.4953,-38
1604521948.4973,-36
1604521948.4995,-36
1604521948.5014,-33
1604521948.5034,-31
1604521948.5054,-28
1604521948.5074,-24
1604521948.5079,-21
1604521948.5094,-21
1604521948.5113,-24
1604521948.5134,-24
1604521948.5153,-12
1604521948.5174,2
1604521948.5194,16
1604521948.5214,24
1604521948.5234,21
1604521948.5254,19
1604521948.5274,16
1604521948.5294,7
1604521948.5314,2
1604521948.5334,2
1604521948.5354,-2
1604521948.5374,-9
1604521948.5379,-9
1604521948.5394,-9
1604521948.5413,-9
1604521948.5433,-9
1604521948.5454,-7
1604521948.5473,-2
1604521948.5494,0
1604521948.5514,-7
1604521948.5534,-36
1604521948.5554,-105
1604521948.5574,-144
1604521948.5594,81
1604521948.5614,672
1604521948.5634,1308
1604521948.5654,1423
1604521948.5675,703
1604521948.5679,-120
1604521948.5694,-163
1604521948.5715,36
1604521948.5733,-96
1604521948.5754,-166
1604521948.5774,-81
1604521948.5794,-86
1604521948.5813,-110
1604521948.5833,-79
1604521948.5854,-67
1604521948.5874,-69
1604521948.5894,-62
1604521948.5914,-60
1604521948.9968,-55
1604521948.9976,-40
1604521949.0000,-28
1604521949.0011,-21
1604521949.0027,-16
1604521949.0047,-4
1604521949.0068,4
1604521949.0087,14
1604521949.0107,21
1604521949.0126,28
1604521949.0146,45
1604521949.0167,62
1604521949.0186,81
1604521949.0207,105
1604521949.0227,130
1604521949.0246,151
1604521949.0266,171
1604521949.0286,183
1604521949.0307,190
1604521949.0312,195
1604521949.0327,185
1604521949.0346,158
1604521949.0366,122
1604521949.0386,74
1604521949.0407,26
1604521949.0426,-12
1604521949.0447,-38
1604521949.0467,-67
1604521949.0486,-89
1604521949.0507,-96
1604521949.0526,-105
1604521949.0546,-113
1604521949.0566,-108
1604521949.0586,-101
1604521949.0607,-101
1604521949.0612,-98
1604521949.0626,-93
1604521949.0646,-81
1604521949.0666,-77
1604521949.0686,-77
1604521949.0708,-72
1604521949.0726,-67
1604521949.0746,-60
1604521949.0766,-55
1604521949.0786,-48
1604521949.0806,-43
1604521949.0826,-40
1604521949.0846,-48
1604521949.0866,-45
1604521949.0886,-38
1604521949.0906,-40
1604521949.0912,-45
1604521949.0926,-43
1604521949.0946,-38
1604521949.0966,-33
1604521949.0986,-33
1604521949.1006,-33
1604521949.1026,-28
1604521949.1046,-21
1604521949.1067,-24
1604521949.1086,-21
1604521949.1106,-19
1604521949.1126,-28
1604521949.1146,-28
1604521949.1166,-19
1604521949.1186,-24
1604521949.1207,-28
1604521949.1212,-24
1604521949.1226,-19
1604521949.1246,-16
1604521949.1266,-19
1604521949.1286,-19
1604521949.1306,-4
1604521949.5668,16
1604521949.5675,31
1604521949.5700,36
1604521949.5726,36
1604521949.5746,26
1604521949.5766,7
1604521949.5786,-2
1604521949.5793,2
1604521949.5805,4
1604521949.5826,-7
1604521949.5845,-14
1604521949.5865,-7
1604521949.5886,-2
1604521949.5905,-9
1604521949.5926,-7
1604521949.5945,4
1604521949.5966,4
1604521949.5986,-2
1604521949.6008,-4
1604521949.6026,-38
1604521949.6046,-127
1604521949.6065,-149
1604521949.6085,173
1604521949.6091,850
1604521949.6105,1411
1604521949.6125,1221
1604521949.6145,327
1604521949.6166,-204
1604521949.6185,-26
1604521949.6206,33
1604521949.6226,-125
1604521949.6246,-98
1604521949.6265,-45
1604521949.6286,-77
1604521949.6306,-67
1604521949.6325,-40
1604521949.6345,-50
1604521949.6365,-45
1604521949.6385,-21
1604521949.6391,-19
1604521949.6405,-19
1604521949.6425,-2
1604521949.6445,14
1604521949.6465,16
1604521949.6485,16
1604521949.6505,26
1604521949.6525,43
1604521949.6545,55
1604521949.6565,65
1604521949.6585,84
1604521949.6606,98
1604521949.6625,110
1604521949.6645,132
1604521949.6665,156
1604521949.6685,178
1604521949.6691,199
1604521949.6705,221
1604521949.6726,231
1604521949.6745,228
1604521949.6765,216
1604521949.6785,197
1604521949.6805,166
1604521949.6825,122
1604521949.6845,65
1604521949.6865,14
1604521949.6885,-26
1604521949.6906,-72
1604521949.6925,-110
1604521949.6945,-125
1604521949.6966,-132
1604521949.6986,-137
1604521949.6991,-137
1604521949.7005,-132
1604521950.1969,-125
1604521950.1980,-122
1604521950.2005,-108
1604521950.2031,-96
1604521950.2051,-93
1604521950.2071,-89
1604521950.2091,-84
1604521950.2111,-79
1604521950.2131,-72
1604521950.2151,-72
1604521950.2171,-69
1604521950.2191,-57
1604521950.2211,-62
1604521950.2231,-79
1604521950.2237,-79
1604521950.2251,-67
1604521950.2271,-60
1604521950.2291,-60
1604521950.2311,-57
1604521950.2330,-52
1604521950.2350,-55
1604521950.2371,-55
1604521950.2390,-48
1604521950.2411,-45
1604521950.2431,-45
1604521950.2450,-43
1604521950.2470,-45
1604521950.2490,-28
1604521950.2510,2
1604521950.2530,19
1604521950.2536,9
1604521950.2550,2
1604521950.2571,2
1604521950.2590,-7
1604521950.2610,-12
1604521950.2630,-12
1604521950.2650,-9
1604521950.2670,-12
1604521950.2691,-14
1604521950.2710,-12
1604521950.2730,-7
1604521950.2750,-16
1604521950.2770,-28
1604521950.2790,-16
1604521950.2811,0
1604521950.2830,-9
1604521950.2836,-36
1604521950.2852,-93
1604521950.2870,-183
1604521950.2890,-69
1604521950.2910,479
1604521950.2930,1209
1604521950.2950,1471
1604521950.2970,819
1604521950.2990,-84
1604521950.3010,-180
1604521950.3030,60
1604521950.3050,-65
1604521950.3070,-149
1604521950.3090,-55
1604521950.3111,-60
1604521950.3130,-98
1604521950.3136,-67
1604521950.3150,-45
1604521950.3170,-50
1604521950.3190,-40
1604521950.3210,-28
1604521950.3230,-19
1604521950.3250,-2
1604521950.3270,4
1604521950.3290,9
1604521950.3310,14
1604521950.3330,24
1604521950.7073,40
1604521950.7081,55
1604521950.7098,62
1604521950.7122,79
1604521950.7142,98
1604521950.7162,113
1604521950.7182,134
1604521950.7202,158
1604521950.7221,180
1604521950.7242,204
1604521950.7261,224
1604521950.7282,228
1604521950.7302,226
1604521950.7322,228
1604521950.7342,211
1604521950.7362,166
1604521950.7381,110
1604521950.7401,60
1604521950.7407,7
1604521950.7421,-45
1604521950.7441,-86
1604521950.7461,-115
1604521950.7481,-144
1604521950.7501,-158
1604521950.7521,-158
1604521950.7543,-156
1604521950.7562,-156
1604521950.7581,-146
1604521950.7601,-134
1604521950.7621,-125
1604521950.7641,-115
1604521950.7661,-105
1604521950.7682,-98
1604521950.7702,-84
1604521950.7707,-77
1604521950.7721,-79
1604521950.7741,-67
1604521950.7761,-55
1604521950.7781,-65
1604521950.7801,-69
1604521950.7821,-62
1604521950.7841,-60
1604521950.7862,-60
1604521950.7881,-65
1604521950.7901,-72
1604521950.7921,-69
1604521950.7941,-62
1604521950.7961,-62
1604521950.7981,-60
1604521950.8001,-57
1604521950.8007,-60
1604521950.8021,-67
1604521950.8041,-55
1604521950.8061,-33
1604521950.8081,-21
1604521950.8101,-12
1604521950.8121,-4
1604521950.8141,-7
1604521950.8161,-14
1604521950.8181,-19
1604521950.8201,-16
1604521950.8221,-21
1604521950.8241,-24
1604521950.8261,-21
1604521950.8281,-24
1604521950.8302,-26
1604521950.8307,-21
1604521950.8321,-26
1604521950.8341,-28
1604521950.8361,-19
1604521950.8381,-16
1604521950.8401,-28
1604521950.8421,-40
1604521951.2471,-93
1604521951.2479,-192
1604521951.2504,-93
1604521951.2532,450
1604521951.2550,1214
1604521951.2570,1553
1604521951.2591,963
1604521951.2609,-4
1604521951.2615,-231
1604521951.2629,14
1604521951.2649,-62
1604521951.2669,-183
1604521951.2690,-103
1604521951.2710,-89
1604521951.2729,-127
1604521951.2749,-96
1604521951.2769,-69
1604521951.2789,-81
1604521951.2809,-74
1604521951.2829,-52
1604521951.2850,-50
1604521951.2869,-45
1604521951.2890,-24
1604521951.2909,-14
1604521951.2915,-12
1604521951.2929,7
1604521951.2949,19
1604521951.2969,16
1604521951.2989,28
1604521951.3009,50
1604521951.3029,62
1604521951.3049,79
1604521951.3069,103
1604521951.3089,127
1604521951.3109,154
1604521951.3129,180
1604521951.3149,192
1604521951.3169,197
1604521951.3190,202
1604521951.3209,209
1604521951.3216,199
1604521951.3239,161
1604521951.3259,113
1604521951.3279,60
1604521951.3299,7
1604521951.3319,-33
1604521951.3339,-67
1604521951.3359,-96
1604521951.3379,-118
1604521951.3399,-127
1604521951.3419,-127
1604521951.3439,-127
1604521951.3459,-127
1604521951.3479,-118
1604521951.3501,-110
1604521951.3506,-105
1604521951.3519,-103
1604521951.3539,-98
1604521951.3559,-98
1604521951.3579,-93
1604521951.3599,-84
1604521951.3619,-72
1604521951.3639,-60
1604521951.3659,-57
1604521951.3679,-60
1604521951.3699,-52
1604521951.3719,-48
1604521951.3739,-48
1604521951.3759,-48
1604521951.3779,-52
1604521951.3799,-52
1604521951.3805,-48
1604521951.3819,-48
1604521951.8171,-48
1604521951.8179,-48
1604521951.8203,-48
1604521951.8220,-43
1604521951.8240,-40
1604521951.8260,-40
1604521951.8280,-48
1604521951.8301,-50
1604521951.8320,-45
1604521951.8340,-45
1604521951.8360,-50
1604521951.8380,-45
1604521951.8386,-31
1604521951.8400,-14
1604521951.8420,4
1604521951.8440,12
1604521951.8459,4
1604521951.8479,-4
1604521951.8500,-7
1604521951.8519,-7
1604521951.8540,-9
1604521951.8559,-12
1604521951.8580,-14
1604521951.8600,-16
1604521951.8619,-21
1604521951.8639,-19
1604521951.8660,-16
1604521951.8680,-14
1604521951.8685,-14
1604521951.8699,-16
1604521951.8719,-21
1604521951.8739,-28
1604521951.8761,-62
1604521951.8780,-142
1604521951.8799,-173
1604521951.8819,118
1604521951.8839,794
1604521951.8859,1440
1604521951.8879,1426
1604521951.8899,563
1604521951.8919,-209
1604521951.8939,-139
1604521951.8959,24
1604521951.8979,-144
1604521951.8985,-173
1604521951.9000,-84
1604521951.9019,-105
1604521951.9039,-122
1604521951.9060,-84
1604521951.9079,-81
1604521951.9099,-89
1604521951.9119,-72
1604521951.9139,-60
1604521951.9159,-55
1604521951.9179,-45
1604521951.9200,-33
1604521951.9219,-26
1604521951.9239,-16
1604521951.9259,-2
1604521951.9279,12
1604521951.9285,21
1604521951.9299,31
1604521951.9319,43
1604521951.9339,57
1604521951.9359,77
1604521951.9379,93
1604521951.9399,115
1604521951.9419,142
1604521951.9439,161
1604521951.9459,175
1604521951.9479,190
1604521951.9499,197
1604521951.9519,190
1604521952.3572,168
1604521952.3580,134
1604521952.3597,91
1604521952.3621,48
1604521952.3641,4
1604521952.3661,-38
1604521952.3681,-72
1604521952.3701,-98
1604521952.3720,-120
1604521952.3740,-127
1604521952.3762,-127
1604521952.3780,-130
1604521952.3800,-130
1604521952.3820,-120
1604521952.3840,-115
1604521952.3861,-115
1604521952.3880,-110
1604521952.3900,-101
1604521952.3906,-93
1604521952.3920,-89
1604521952.3940,-81
1604521952.3960,-74
1604521952.3980,-72
1604521952.4000,-74
1604521952.4020,-65
1604521952.4040,-60
1604521952.4060,-62
1604521952.4080,-60
1604521952.4100,-62
1604521952.4120,-65
1604521952.4140,-65
1604521952.4159,-65
1604521952.4179,-62
1604521952.4200,-62
1604521952.4206,-60
1604521952.4220,-60
1604521952.4240,-60
1604521952.4259,-57
1604521952.4280,-55
1604521952.4300,-52
1604521952.4320,-52
1604521952.4340,-55
1604521952.4360,-55
1604521952.4380,-50
1604521952.4400,-45
1604521952.4420,-40
1604521952.4440,-40
1604521952.4460,-40
1604521952.4479,-38
1604521952.4500,-33
1604521952.4506,-31
1604521952.4520,-31
1604521952.4540,-31
1604521952.4560,-26
1604521952.4580,-26
1604521952.4600,-31
1604521952.4620,-28
1604521952.4640,-21
1604521952.4660,-9
1604521952.4680,12
1604521952.4700,24
1604521952.4721,16
1604521952.4740,9
1604521952.4760,9
1604521952.4780,4
1604521952.4800,0
1604521952.4806,-2
1604521952.4820,-4
1604521952.4840,-7
1604521952.4860,-12
1604521952.4880,-14
1604521952.4900,-14
1604521952.4920,-16
1604521952.9268,-16
1604521952.9275,-14
1604521952.9285,-14
1604521952.9306,-19
1604521952.9325,-48
1604521952.9345,-115
1604521952.9351,-175
1604521952.9365,-28
1604521952.9385,498
1604521952.9405,1185
1604521952.9425,1474
1604521952.9444,900
1604521952.9465,-26
1604521952.9484,-240
1604521952.9505,0
1604521952.9525,-86
1604521952.9544,-216
1604521952.9564,-132
1604521952.9585,-103
1604521952.9605,-144
1604521952.9624,-120
1604521952.9644,-96
1604521952.9650,-101
1604521952.9664,-89
1604521952.9684,-74
1604521952.9705,-69
1604521952.9724,-62
1604521952.9744,-50
1604521952.9764,-43
1604521952.9784,-36
1604521952.9804,-24
1604521952.9824,-16
1604521952.9844,-7
1604521952.9864,4
1604521952.9884,16
1604521952.9904,28
1604521952.9924,45
1604521952.9944,67
1604521952.9950,91
1604521952.9966,110
1604521952.9984,127
1604521953.0005,144
1604521953.0025,163
1604521953.0044,173
1604521953.0064,171
1604521953.0084,163
1604521953.0104,149
1604521953.0124,115
1604521953.0144,72
1604521953.0164,28
1604521953.0184,-4
1604521953.0204,-38
1604521953.0224,-69
1604521953.0244,-91
1604521953.0250,-96
1604521953.0264,-101
1604521953.0284,-105
1604521953.0304,-105
1604521953.0324,-105
1604521953.0344,-103
1604521953.0364,-93
1604521953.0384,-84
1604521953.0404,-79
1604521953.0424,-79
1604521953.0444,-77
1604521953.0464,-67
1604521953.0484,-60
1604521953.0504,-60
1604521953.0524,-60
1604521953.0544,-55
1604521953.0550,-57
1604521953.0564,-62
1604521953.0584,-62
1604521953.5266,-55
1604521953.5273,-50
1604521953.5298,-48
1604521953.5324,-48
1604521953.5344,-50
1604521953.5364,-57
1604521953.5385,-62
1604521953.5404,-60
1604521953.5424,-57
1604521953.5444,-57
1604521953.5464,-55
1604521953.5470,-55
1604521953.5484,-50
1604521953.5504,-48
1604521953.5525,-48
1604521953.5546,-45
1604521953.5564,-43
1604521953.5587,-36
1604521953.5604,-33
1604521953.5624,-28
1604521953.5644,-21
1604521953.5663,-24
1604521953.5684,-28
1604521953.5704,-28
1604521953.5724,-28
1604521953.5744,-28
1604521953.5764,-26
1604521953.5770,-19
1604521953.5783,-16
1604521953.5804,-19
1604521953.5823,-14
1604521953.5843,0
1604521953.5863,24
1604521953.5884,33
1604521953.5904,28
1604521953.5924,21
1604521953.5943,16
1604521953.5964,9
1604521953.5983,9
1604521953.6004,9
1604521953.6024,2
1604521953.6043,-4
1604521953.6063,-2
1604521953.6069,2
1604521953.6083,-2
1604521953.6104,-2
1604521953.6124,4
1604521953.6143,7
1604521953.6163,0
1604521953.6183,-9
1604521953.6204,-38
1604521953.6223,-113
1604521953.6243,-146
1604521953.6263,127
1604521953.6283,775
1604521953.6304,1375
1604521953.6323,1308
1604521953.6343,469
1604521953.6363,-187
1604521953.6370,-81
1604521953.6383,36
1604521953.6403,-130
1604521953.6423,-142
1604521953.6443,-62
1604521953.6463,-89
1604521953.6483,-105
1604521953.6504,-72
1604521953.6524,-65
1604521953.6545,-67
1604521953.6563,-52
1604521953.6583,-40
1604521953.6604,-38
1604521953.6623,-31
1604521954.0668,-16
1604521954.0676,-12
1604521954.0700,-9
1604521954.0727,0
1604521954.0747,12
1604521954.0767,21
1604521954.0788,33
1604521954.0807,50
1604521954.0827,65
1604521954.0847,77
1604521954.0867,89
1604521954.0887,108
1604521954.0906,132
1604521954.0926,151
1604521954.0946,161
1604521954.0966,171
1604521954.0970,183
1604521954.0974,185
1604521954.0996,168
1604521954.1016,142
1604521954.1036,110
1604521954.1056,55
1604521954.1076,-2
1604521954.1096,-43
1604521954.1116,-74
1604521954.1136,-108
1604521954.1156,-130
1604521954.1176,-142
1604521954.1196,-146
1604521954.1216,-146
1604521954.1236,-139
1604521954.1256,-134
1604521954.1276,-132
1604521954.1359,-122
1604521954.1376,-105
1604521954.1395,-98
1604521954.1416,-96
1604521954.1436,-91
1604521954.1456,-84
1604521954.1476,-81
1604521954.1496,-72
1604521954.1517,-65
1604521954.1536,-65
1604521954.1556,-65
1604521954.1575,-62
1604521954.1596,-62
1604521954.1617,-65
1604521954.1636,-60
1604521954.1642,-62
1604521954.1655,-65
1604521954.1676,-57
1604521954.1696,-50
1604521954.1715,-52
1604521954.1735,-52
1604521954.1755,-48
1604521954.1775,-52
1604521954.1796,-52
1604521954.1815,-38
1604521954.1835,-36
1604521954.1855,-38
1604521954.1875,-38
1604521954.1895,-43
1604521954.1915,-33
1604521954.1935,-14
1604521954.1942,0
1604521954.1955,9
1604521954.1976,16
1604521954.1996,9
1604521954.2015,-7
1604521954.2036,-9
1604521954.2056,-7
1604521954.2076,-9
1604521954.2096,-16
1604521954.6367,-16
1604521954.6374,-19
1604521954.6399,-24
1604521954.6425,-19
1604521954.6445,-7
1604521954.6452,-7
1604521954.6465,-16
1604521954.6485,-14
1604521954.6506,-19
1604521954.6525,-43
1604521954.6544,-98
1604521954.6565,-183
1604521954.6584,-110
1604521954.6604,383
1604521954.6624,1127
1604521954.6644,1491
1604521954.6664,944
1604521954.6685,7
1604521954.6705,-202
1604521954.6725,52
1604521954.6744,-36
1604521954.6751,-166
1604521954.6764,-74
1604521954.6784,-52
1604521954.6806,-98
1604521954.6825,-72
1604521954.6844,-43
1604521954.6864,-52
1604521954.6884,-45
1604521954.6904,-28
1604521954.6924,-26
1604521954.6944,-21
1604521954.6964,-9
1604521954.6984,2
1604521954.7004,19
1604521954.7025,26
1604521954.7044,21
1604521954.7050,28
1604521954.7064,48
1604521954.7084,57
1604521954.7104,69
1604521954.7124,91
1604521954.7144,113
1604521954.7164,130
1604521954.7184,156
1604521954.7204,185
1604521954.7224,202
1604521954.7244,211
1604521954.7264,219
1604521954.7284,214
1604521954.7304,204
1604521954.7324,175
1604521954.7344,127
1604521954.7351,74
1604521954.7365,16
1604521954.7385,-38
1604521954.7404,-77
1604521954.7424,-101
1604521954.7444,-127
1604521954.7464,-151
1604521954.7484,-161
1604521954.7504,-166
1604521954.7524,-161
1604521954.7544,-151
1604521954.7564,-142
1604521954.7584,-132
1604521954.7604,-125
1604521954.7624,-120
1604521954.7644,-110
1604521954.7650,-103
1604521954.7664,-96
1604521954.7684,-91
1604521954.7704,-84
1604521955.1772,-81
1604521955.1781,-77
1604521955.1809,-74
1604521955.1831,-72
1604521955.1851,-72
1604521955.1871,-72
1604521955.1893,-69
1604521955.1911,-60
1604521955.1931,-62
1604521955.1951,-74
1604521955.1958,-77
1604521955.1971,-65
1604521955.1991,-62
1604521955.2011,-65
1604521955.2030,-65
1604521955.2050,-67
1604521955.2070,-67
1604521955.2090,-60
1604521955.2111,-45
1604521955.2131,-26
1604521955.2150,-9
1604521955.2171,-4
1604521955.2191,-9
1604521955.2210,-19
1604521955.2230,-24
1604521955.2251,-24
1604521955.2257,-24
1604521955.2270,-24
1604521955.2291,-33
1604521955.2310,-43
1604521955.2331,-38
1604521955.2351,-28
1604521955.2371,-31
1604521955.2391,-36
1604521955.2411,-28
1604521955.2430,-21
1604521955.2450,-28
1604521955.2470,-45
1604521955.2490,-105
1604521955.2510,-190
1604521955.2530,-57
1604521955.2550,510
1604521955.2556,1250
1604521955.2570,1512
1604521955.2590,859
1604521955.2610,-60
1604521955.2630,-199
1604521955.2650,33
1604521955.2670,-77
1604521955.2691,-178
1604521955.2710,-91
1604521955.2730,-79
1604521955.2750,-113
1604521955.2771,-91
1604521955.2791,-79
1604521955.2810,-86
1604521955.2830,-69
1604521955.2850,-57
1604521955.2856,-60
1604521955.2870,-50
1604521955.2890,-31
1604521955.2910,-24
1604521955.2930,-19
1604521955.2950,-7
1604521955.2971,4
1604521955.2991,9
1604521955.3010,19
1604521955.3030,38
1604521955.3050,50
1604521955.3070,60
1604521955.3091,81
1604521955.3110,110
1604521955.3130,130
1604521955.7472,149
1604521955.7480,171
1604521955.7505,183
1604521955.7531,187
1604521955.7551,187
1604521955.7570,175
1604521955.7591,132
1604521955.7611,77
1604521955.7630,26
1604521955.7651,-19
1604521955.7670,-67
1604521955.7691,-108
1604521955.7711,-134
1604521955.7730,-149
1604521955.7736,-158
1604521955.7750,-166
1604521955.7770,-163
1604521955.7790,-158
1604521955.7810,-151
1604521955.7830,-149
1604521955.7850,-144
1604521955.7870,-132
1604521955.7890,-120
1604521955.7910,-108
1604521955.7930,-103
1604521955.7950,-96
1604521955.7970,-84
1604521955.7990,-74
1604521955.8010,-72
1604521955.8030,-69
1604521955.8036,-67
1604521955.8051,-62
1604521955.8070,-62
1604521955.8090,-65
1604521955.8110,-65
1604521955.8129,-62
1604521955.8149,-60
1604521955.8170,-60
1604521955.8190,-57
1604521955.8210,-57
1604521955.8229,-55
1604521955.8250,-57
1604521955.8269,-60
1604521955.8289,-55
1604521955.8310,-50
1604521955.8330,-50
1604521955.8336,-55
1604521955.8349,-57
1604521955.8369,-57
1604521955.8390,-52
1604521955.8411,-43
1604521955.8430,-21
1604521955.8449,-7
1604521955.8470,-12
1604521955.8490,-19
1604521955.8510,-16
1604521955.8529,-21
1604521955.8550,-26
1604521955.8570,-28
1604521955.8589,-31
1604521955.8609,-31
