Time,ECG
1607169009.9130,-72
1607169009.9139,282
1607169009.9164,1985
1607169009.9189,4806
1607169009.9209,6780
1607169009.9230,7747
1607169009.9250,8867
1607169009.9270,9914
1607169009.9290,10551
1607169009.9310,11145
1607169009.9330,11729
1607169009.9349,12139
1607169009.9370,12496
1607169009.9389,12860
1607169009.9409,13128
1607169009.9429,13341
1607169009.9449,13570
1607169009.9469,13758
1607169009.9489,13893
1607169009.9509,14028
1607169009.9529,14159
1607169009.9550,14260
1607169009.9568,14352
1607169009.9589,14441
1607169009.9609,14520
1607169009.9629,14581
1607169009.9649,14615
1607169009.9670,14627
1607169009.9688,14624
1607169009.9709,14590
1607169009.9729,14513
1607169009.9749,14407
1607169009.9769,14294
1607169009.9788,14175
1607169009.9809,14074
1607169009.9829,13987
1607169009.9849,13905
1607169009.9869,13867
1607169009.9889,13833
1607169009.9910,13758
1607169009.9929,13715
1607169009.9949,13700
1607169009.9969,13642
1607169009.9989,13584
1607169010.0009,13572
1607169010.0028,13524
1607169010.0050,13444
1607169010.0069,13406
1607169010.0089,13379
1607169010.0109,13300
1607169010.0133,13210
1607169010.0150,13148
1607169010.0168,13094
1607169010.0189,13034
1607169010.0209,12959
1607169010.0230,12887
1607169010.0249,12831
1607169010.0269,12754
1607169010.0289,12660
1607169010.0309,12590
1607169010.0329,12518
1607169010.0349,12433
1607169010.0369,12354
1607169010.0389,12274
1607169010.0409,12190
1607169010.0429,12115
1607169010.0450,12045
1607169010.0469,11977
1607169010.0490,11893
1607169010.0509,11799
1607169010.0529,11712
1607169010.0550,11627
1607169010.0569,11545
1607169010.4524,11463
1607169010.4531,11384
1607169010.4556,11304
1607169010.4583,11229
1607169010.4602,11140
1607169010.4622,11043
1607169010.4643,10964
1607169010.4663,10899
1607169010.4682,10812
1607169010.4702,10708
1607169010.4722,10655
1607169010.4742,10587
1607169010.4763,10445
1607169010.4782,10346
1607169010.4802,10310
1607169010.4823,10233
1607169010.4842,10124
1607169010.4862,10037
1607169010.4883,9962
1607169010.4902,9892
1607169010.4923,9818
1607169010.4942,9726
1607169010.4963,9642
1607169010.4982,9560
1607169010.5002,9473
1607169010.5022,9393
1607169010.5042,9313
1607169010.5062,9222
1607169010.5085,9154
1607169010.5103,9096
1607169010.5123,8990
1607169010.5142,8891
1607169010.5162,8826
1607169010.5182,8749
1607169010.5202,8664
1607169010.5222,8577
1607169010.5243,8491
1607169010.5262,8447
1607169010.5282,8387
1607169010.5302,8271
1607169010.5322,8206
1607169010.5342,8165
1607169010.5362,8056
1607169010.5383,7957
1607169010.5402,7902
1607169010.5422,7825
1607169010.5442,7735
1607169010.5462,7658
1607169010.5482,7595
1607169010.5502,7550
1607169010.5522,7487
1607169010.5542,7398
1607169010.5562,7325
1607169010.5582,7265
1607169010.5602,7178
1607169010.5622,7093
1607169010.5642,7048
1607169010.5662,7002
1607169010.5682,6927
1607169010.5701,6845
1607169010.5722,6782
1607169010.5742,6719
1607169010.5762,6640
1607169010.5782,6570
1607169010.5802,6524
1607169010.5823,6469
1607169010.5843,6399
1607169010.5862,6321
1607169010.5882,6261
1607169010.5902,6208
1607169010.5922,6143
1607169010.5942,6082
1607169010.5962,6049
1607169011.0233,5986
1607169011.0243,5894
1607169011.0268,5841
1607169011.0295,5803
1607169011.0315,5737
1607169011.0335,5672
1607169011.0359,5622
1607169011.0375,5559
1607169011.0395,5501
1607169011.0415,5441
1607169011.0434,5383
1607169011.0455,5337
1607169011.0475,5286
1607169011.0494,5221
1607169011.0514,5166
1607169011.0534,5129
1607169011.0554,5081
1607169011.0574,5011
1607169011.0594,4956
1607169011.0615,4919
1607169011.0634,4871
1607169011.0654,4808
1607169011.0674,4748
1607169011.0694,4712
1607169011.0714,4688
1607169011.0734,4644
1607169011.0753,4608
1607169011.0774,4570
1607169011.0794,4504
1607169011.0814,4444
1607169011.0834,4393
1607169011.0854,4328
1607169011.0874,4278
1607169011.0894,4249
1607169011.0914,4210
1607169011.0933,4150
1607169011.0954,4094
1607169011.0974,4058
1607169011.0994,4007
1607169011.1014,3962
1607169011.1034,4056
1607169011.1054,4461
1607169011.1075,5074
1607169011.1094,5279
1607169011.1114,4618
1607169011.1135,3510
1607169011.1154,2951
1607169011.1174,3228
1607169011.1194,3527
1607169011.1213,3484
1607169011.1234,3474
1607169011.1253,3515
1607169011.1273,3457
1607169011.1294,3407
1607169011.1314,3404
1607169011.1334,3385
1607169011.1354,3346
1607169011.1375,3325
1607169011.1394,3298
1607169011.1413,3264
1607169011.1434,3238
1607169011.1454,3218
1607169011.1474,3199
1607169011.1494,3172
1607169011.1514,3141
1607169011.1533,3122
1607169011.1554,3112
1607169011.1574,3093
1607169011.1594,3071
1607169011.1614,3054
1607169011.1634,3042
1607169011.1654,3030
1607169011.1674,3023
1607169011.5624,3028
1607169011.5627,3033
1607169011.5644,3025
1607169011.5665,3025
1607169011.5684,3042
1607169011.5705,3049
1607169011.5724,3025
1607169011.5745,2984
1607169011.5765,2941
1607169011.5784,2871
1607169011.5804,2757
1607169011.5825,2620
1607169011.5848,2490
1607169011.5865,2374
1607169011.5884,2287
1607169011.5947,2219
1607169011.5965,2166
1607169011.5986,2135
1607169011.6004,2111
1607169011.6025,2089
1607169011.6045,2079
1607169011.6066,2065
1607169011.6084,2041
1607169011.6105,2029
1607169011.6126,2022
1607169011.6145,2005
1607169011.6164,2002
1607169011.6184,2002
1607169011.6205,1976
1607169011.6224,1954
1607169011.6244,1942
1607169011.6265,1925
1607169011.6285,1906
1607169011.6305,1882
1607169011.6325,1870
1607169011.6347,1877
1607169011.6364,1860
1607169011.6385,1824
1607169011.6404,1807
1607169011.6425,1795
1607169011.6444,1768
1607169011.6465,1742
1607169011.6484,1722
1607169011.6504,1705
1607169011.6525,1689
1607169011.6545,1669
1607169011.6565,1662
1607169011.6585,1652
1607169011.6606,1621
1607169011.6625,1599
1607169011.6644,1590
1607169011.6665,1568
1607169011.6684,1549
1607169011.6705,1546
1607169011.6725,1539
1607169011.6746,1522
1607169011.6765,1508
1607169011.6786,1483
1607169011.6805,1462
1607169011.6825,1459
1607169011.6845,1457
1607169011.6865,1440
1607169011.6885,1421
1607169011.6905,1413
1607169011.6925,1404
1607169011.6945,1382
1607169011.6965,1363
1607169011.6985,1351
1607169011.7005,1356
1607169011.7025,1365
1607169011.7045,1351
1607169011.7064,1322
1607169011.7085,1312
1607169012.1024,1305
1607169012.1030,1288
1607169012.1054,1271
1607169012.1081,1259
1607169012.1101,1249
1607169012.1121,1233
1607169012.1141,1218
1607169012.1160,1206
1607169012.1181,1179
1607169012.1201,1163
1607169012.1221,1184
1607169012.1241,1191
1607169012.1260,1150
1607169012.1282,1129
1607169012.1301,1141
1607169012.1321,1136
1607169012.1340,1117
1607169012.1360,1102
1607169012.1381,1102
1607169012.1400,1100
1607169012.1420,1073
1607169012.1440,1044
1607169012.1461,1042
1607169012.1480,1049
1607169012.1501,1044
1607169012.1521,1032
1607169012.1540,1023
1607169012.1560,1020
1607169012.1581,1008
1607169012.1600,991
1607169012.1621,989
1607169012.1641,986
1607169012.1660,972
1607169012.1680,962
1607169012.1700,960
1607169012.1720,950
1607169012.1740,941
1607169012.1760,933
1607169012.1780,916
1607169012.1800,907
1607169012.1820,912
1607169012.1840,921
1607169012.1860,909
1607169012.1880,885
1607169012.1901,873
1607169012.1920,871
1607169012.1940,868
1607169012.1960,863
1607169012.1981,854
1607169012.1999,842
1607169012.2020,832
1607169012.2041,827
1607169012.2061,822
1607169012.2080,815
1607169012.2101,805
1607169012.2120,822
1607169012.2141,842
1607169012.2160,822
1607169012.2180,805
1607169012.2200,825
1607169012.2221,822
1607169012.2241,779
1607169012.2260,755
1607169012.2280,764
1607169012.2302,752
1607169012.2321,726
1607169012.2340,731
1607169012.2360,738
1607169012.2380,738
1607169012.2400,731
1607169012.2420,697
1607169012.2441,697
1607169012.2461,813
1607169012.6730,1196
1607169012.6739,1857
1607169012.6765,2190
1607169012.6790,1594
1607169012.6809,489
1607169012.6830,-79
1607169012.6851,183
1607169012.6870,513
1607169012.6891,533
1607169012.6910,547
1607169012.6930,610
1607169012.6950,627
1607169012.6970,627
1607169012.6989,615
1607169012.7010,608
1607169012.7030,622
1607169012.7050,627
1607169012.7071,629
1607169012.7090,646
1607169012.7110,651
1607169012.7130,641
1607169012.7150,634
1607169012.7170,639
1607169012.7190,656
1607169012.7211,663
1607169012.7229,663
1607169012.7250,673
1607169012.7270,690
1607169012.7290,706
1607169012.7310,719
1607169012.7329,723
1607169012.7349,738
1607169012.7369,769
1607169012.7389,808
1607169012.7409,830
1607169012.7429,851
1607169012.7449,883
1607169012.7469,921
1607169012.7489,943
1607169012.7509,921
1607169012.7529,878
1607169012.7550,832
1607169012.7571,757
1607169012.7589,639
1607169012.7609,533
1607169012.7629,460
1607169012.7649,386
1607169012.7669,330
1607169012.7689,313
1607169012.7709,296
1607169012.7729,275
1607169012.7749,282
1607169012.7769,296
1607169012.7789,299
1607169012.7809,304
1607169012.7829,316
1607169012.7849,323
1607169012.7869,325
1607169012.7889,335
1607169012.7909,342
1607169012.7929,347
1607169012.7949,361
1607169012.7969,361
1607169012.7991,349
1607169012.8009,347
1607169012.8029,357
1607169012.8049,359
1607169012.8069,357
1607169012.8089,359
1607169012.8109,364
1607169012.8129,371
1607169012.8149,366
1607169012.8169,357
1607169013.2734,357
1607169013.2746,352
1607169013.2759,345
1607169013.2781,352
1607169013.2800,342
1607169013.2819,316
1607169013.2839,330
1607169013.2860,359
1607169013.2880,337
1607169013.2899,311
1607169013.2919,325
1607169013.2939,330
1607169013.2959,325
1607169013.2979,335
1607169013.2999,342
1607169013.3019,323
1607169013.3039,320
1607169013.3059,342
1607169013.3079,337
1607169013.3099,332
1607169013.3121,342
1607169013.3139,323
1607169013.3158,308
1607169013.3179,335
1607169013.3199,354
1607169013.3218,330
1607169013.3238,318
1607169013.3259,332
1607169013.3279,340
1607169013.3299,330
1607169013.3319,328
1607169013.3339,340
1607169013.3359,337
1607169013.3379,323
1607169013.3398,320
1607169013.3418,328
1607169013.3438,335
1607169013.3458,325
1607169013.3478,316
1607169013.3498,330
1607169013.3518,340
1607169013.3538,320
1607169013.3558,306
1607169013.3580,323
1607169013.3598,345
1607169013.3618,328
1607169013.3638,308
1607169013.3658,313
1607169013.3678,308
1607169013.3698,299
1607169013.3718,318
1607169013.3738,325
1607169013.3758,304
1607169013.3779,306
1607169013.3798,318
1607169013.3818,301
1607169013.3838,304
1607169013.3859,328
1607169013.3878,311
1607169013.3899,291
1607169013.3919,308
1607169013.3939,318
1607169013.3959,304
1607169013.3979,304
1607169013.3999,311
1607169013.4019,311
1607169013.4039,299
1607169013.4059,287
1607169013.4079,277
1607169013.4099,287
1607169013.4119,304
1607169013.4141,294
1607169013.4159,282
1607169013.8425,296
1607169013.8434,304
1607169013.8460,282
1607169013.8486,270
1607169013.8505,282
1607169013.8526,275
1607169013.8546,263
1607169013.8566,287
1607169013.8585,294
1607169013.8605,275
1607169013.8626,277
1607169013.8646,294
1607169013.8665,291
1607169013.8685,267
1607169013.8705,258
1607169013.8724,275
1607169013.8744,265
1607169013.8765,243
1607169013.8784,258
1607169013.8805,272
1607169013.8824,260
1607169013.8844,250
1607169013.8865,246
1607169013.8884,236
1607169013.8905,265
1607169013.8924,472
1607169013.8944,1042
1607169013.8964,1718
1607169013.8985,1720
1607169013.9005,793
1607169013.9025,-270
1607169013.9045,-533
1607169013.9064,-135
1607169013.9084,96
1607169013.9105,106
1607169013.9124,202
1607169013.9145,248
1607169013.9164,214
1607169013.9185,224
1607169013.9205,258
1607169013.9225,260
1607169013.9245,250
1607169013.9264,258
1607169013.9284,275
1607169013.9304,287
1607169013.9324,296
1607169013.9344,296
1607169013.9364,296
1607169013.9385,313
1607169013.9406,330
1607169013.9425,332
1607169013.9445,340
1607169013.9464,361
1607169013.9484,376
1607169013.9505,388
1607169013.9525,412
1607169013.9545,436
1607169013.9564,463
1607169013.9585,497
1607169013.9604,526
1607169013.9625,554
1607169013.9645,583
1607169013.9664,617
1607169013.9685,651
1607169013.9704,665
1607169013.9724,646
1607169013.9746,593
1607169013.9765,513
1607169013.9785,412
1607169013.9805,301
1607169013.9825,197
1607169013.9845,115
1607169013.9921,45
1607169014.3833,0
1607169014.3842,-9
1607169014.3867,-4
1607169014.3893,-9
1607169014.3913,-12
1607169014.3933,0
1607169014.3953,12
1607169014.3974,21
1607169014.3993,28
1607169014.4013,33
1607169014.4032,41
1607169014.4055,60
1607169014.4073,69
1607169014.4080,65
1607169014.4102,67
1607169014.4132,72
1607169014.4152,84
1607169014.4171,108
1607169014.4193,108
1607169014.4212,91
1607169014.4232,98
1607169014.4252,110
1607169014.4272,108
1607169014.4292,110
1607169014.4312,110
1607169014.4332,101
1607169014.4352,113
1607169014.4374,130
1607169014.4378,115
1607169014.4393,106
1607169014.4412,120
1607169014.4432,130
1607169014.4452,120
1607169014.4473,115
1607169014.4492,127
1607169014.4512,144
1607169014.4532,137
1607169014.4552,130
1607169014.4572,135
1607169014.4592,132
1607169014.4612,127
1607169014.4632,139
1607169014.4652,149
1607169014.4673,137
1607169014.4680,125
1607169014.4702,135
1607169014.4722,152
1607169014.4742,164
1607169014.4762,171
1607169014.4782,156
1607169014.4802,144
1607169014.4822,156
1607169014.4842,159
1607169014.4862,147
1607169014.4882,154
1607169014.4902,166
1607169014.4922,149
1607169014.4942,125
1607169014.4962,147
1607169014.4982,185
1607169014.4989,166
1607169014.5012,137
1607169014.5032,149
1607169014.5052,171
1607169014.5072,166
1607169014.5092,154
1607169014.5112,144
1607169014.5132,144
1607169014.5153,171
1607169014.5172,178
1607169014.5192,147
1607169014.5212,144
1607169014.5232,176
1607169014.9230,173
1607169014.9239,156
1607169014.9264,156
1607169014.9290,161
1607169014.9311,164
1607169014.9333,161
1607169014.9351,149
1607169014.9371,156
1607169014.9390,166
1607169014.9409,147
1607169014.9429,125
1607169014.9449,137
1607169014.9470,154
1607169014.9490,147
1607169014.9509,137
1607169014.9529,149
1607169014.9549,159
1607169014.9557,149
1607169014.9579,139
1607169014.9599,139
1607169014.9619,139
1607169014.9639,139
1607169014.9659,147
1607169014.9680,149
1607169014.9700,152
1607169014.9719,171
1607169014.9741,197
1607169014.9759,195
1607169014.9779,164
1607169014.9799,139
1607169014.9819,144
1607169014.9840,156
1607169014.9859,149
1607169014.9867,139
1607169014.9890,149
1607169014.9909,149
1607169014.9929,147
1607169014.9949,149
1607169014.9970,137
1607169014.9989,178
1607169015.0009,472
1607169015.0029,1122
1607169015.0049,1664
1607169015.0069,1404
1607169015.0089,378
1607169015.0109,-506
1607169015.0129,-504
1607169015.0149,-69
1607169015.0169,48
1607169015.0177,26
1607169015.0201,103
1607169015.0220,123
1607169015.0238,101
1607169015.0260,135
1607169015.0279,156
1607169015.0300,139
1607169015.0321,149
1607169015.0340,176
1607169015.0359,185
1607169015.0379,178
1607169015.0399,185
1607169015.0420,197
1607169015.0440,200
1607169015.0459,212
1607169015.0465,234
1607169015.0489,248
1607169015.0509,253
1607169015.0529,253
1607169015.0549,279
1607169015.0570,316
1607169015.0589,313
1607169015.0609,323
1607169015.0629,386
1607169015.4931,427
1607169015.4941,424
1607169015.4966,448
1607169015.4993,506
1607169015.5013,547
1607169015.5032,557
1607169015.5053,538
1607169015.5060,516
1607169015.5082,484
1607169015.5102,400
1607169015.5122,275
1607169015.5142,159
1607169015.5162,77
1607169015.5183,14
1607169015.5202,-45
1607169015.5221,-74
1607169015.5242,-67
1607169015.5261,-62
1607169015.5281,-79
1607169015.5301,-89
1607169015.5322,-60
1607169015.5341,-26
1607169015.5361,-24
1607169015.5368,-21
1607169015.5391,4
1607169015.5412,12
1607169015.5432,-2
1607169015.5452,4
1607169015.5471,31
1607169015.5491,48
1607169015.5511,45
1607169015.5532,48
1607169015.5551,62
1607169015.5571,65
1607169015.5593,60
1607169015.5612,67
1607169015.5631,74
1607169015.5652,69
1607169015.5671,67
1607169015.5678,77
1607169015.5702,77
1607169015.5722,62
1607169015.5741,53
1607169015.5762,55
1607169015.5781,67
1607169015.5801,77
1607169015.5821,72
1607169015.5842,72
1607169015.5861,77
1607169015.5882,74
1607169015.5902,74
1607169015.5922,79
1607169015.5942,79
1607169015.5961,72
1607169015.5981,69
1607169015.5988,79
1607169015.6001,91
1607169015.6021,94
1607169015.6041,86
1607169015.6061,84
1607169015.6081,79
1607169015.6101,82
1607169015.6121,106
1607169015.6142,110
1607169015.6161,86
1607169015.6182,91
1607169015.6201,108
1607169015.6222,96
1607169015.6242,86
1607169015.6261,103
1607169015.6281,113
1607169015.6288,103
1607169015.6312,106
1607169016.0330,125
1607169016.0339,127
1607169016.0365,115
1607169016.0390,103
1607169016.0410,101
1607169016.0430,101
1607169016.0450,103
1607169016.0470,108
1607169016.0490,110
1607169016.0510,108
1607169016.0530,113
1607169016.0550,113
1607169016.0573,101
1607169016.0590,101
1607169016.0610,110
1607169016.0630,113
1607169016.0650,115
1607169016.0670,113
1607169016.0690,101
1607169016.0711,103
1607169016.0730,118
1607169016.0751,123
1607169016.0771,118
1607169016.0790,120
1607169016.0810,125
1607169016.0830,118
1607169016.0850,106
1607169016.0870,113
1607169016.0890,130
1607169016.0910,130
1607169016.0930,108
1607169016.0951,103
1607169016.0971,130
1607169016.0991,130
1607169016.1010,96
1607169016.1030,96
1607169016.1050,115
1607169016.1070,108
1607169016.1090,94
1607169016.1110,86
1607169016.1130,101
1607169016.1150,123
1607169016.1171,108
1607169016.1190,96
1607169016.1210,110
1607169016.1230,106
1607169016.1250,96
1607169016.1270,106
1607169016.1290,110
1607169016.1310,96
1607169016.1330,96
1607169016.1350,110
1607169016.1370,113
1607169016.1390,103
1607169016.1410,106
1607169016.1430,118
1607169016.1450,113
1607169016.1470,101
1607169016.1490,106
1607169016.1510,113
1607169016.1530,103
1607169016.1550,106
1607169016.1570,115
1607169016.1592,118
1607169016.1611,123
1607169016.1630,118
1607169016.1650,98
1607169016.1670,98
1607169016.1690,110
1607169016.1710,113
1607169016.1730,130
1607169016.1751,149
1607169016.1770,144
1607169016.6333,137
1607169016.6344,142
1607169016.6369,120
1607169016.6395,86
1607169016.6415,89
1607169016.6435,106
1607169016.6455,96
1607169016.6474,86
1607169016.6495,96
1607169016.6515,91
1607169016.6535,74
1607169016.6555,115
1607169016.6575,366
1607169016.6595,948
1607169016.6615,1549
1607169016.6635,1457
1607169016.6655,518
1607169016.6675,-458
1607169016.6695,-588
1607169016.6714,-144
1607169016.6734,16
1607169016.6754,-26
1607169016.6774,53
1607169016.6795,101
1607169016.6814,72
1607169016.6834,82
1607169016.6854,101
1607169016.6874,89
1607169016.6894,96
1607169016.6914,120
1607169016.6934,110
1607169016.6954,110
1607169016.6974,156
1607169016.6995,190
1607169016.7014,171
1607169016.7034,164
1607169016.7054,185
1607169016.7074,197
1607169016.7094,207
1607169016.7114,221
1607169016.7134,243
1607169016.7156,267
1607169016.7175,282
1607169016.7194,296
1607169016.7214,332
1607169016.7234,366
1607169016.7254,388
1607169016.7274,427
1607169016.7294,470
1607169016.7314,501
1607169016.7334,530
1607169016.7354,545
1607169016.7375,530
1607169016.7394,487
1607169016.7414,405
1607169016.7434,306
1607169016.7454,209
1607169016.7474,118
1607169016.7494,36
1607169016.7514,-33
1607169016.7535,-82
1607169016.7554,-101
1607169016.7575,-110
1607169016.7595,-115
1607169016.7615,-103
1607169016.7634,-82
1607169016.7654,-65
1607169016.7674,-48
1607169016.7694,-41
1607169016.7714,-43
1607169016.7734,-31
1607169016.7754,-16
1607169016.7774,-4
1607169017.2026,9
1607169017.2033,12
1607169017.2058,4
1607169017.2084,12
1607169017.2104,24
1607169017.2124,21
1607169017.2144,28
1607169017.2164,38
1607169017.2185,38
1607169017.2204,31
1607169017.2224,21
1607169017.2244,16
1607169017.2264,24
1607169017.2284,21
1607169017.2304,4
1607169017.2324,4
1607169017.2344,21
1607169017.2364,31
1607169017.2384,28
1607169017.2405,31
1607169017.2424,36
1607169017.2444,21
1607169017.2463,16
1607169017.2484,31
1607169017.2504,36
1607169017.2524,31
1607169017.2543,36
1607169017.2563,43
1607169017.2584,38
1607169017.2603,31
1607169017.2623,36
1607169017.2644,55
1607169017.2663,65
1607169017.2684,60
1607169017.2703,55
1607169017.2723,57
1607169017.2743,57
1607169017.2763,48
1607169017.2784,50
1607169017.2803,74
1607169017.2823,84
1607169017.2844,72
1607169017.2863,65
1607169017.2884,72
1607169017.2903,77
1607169017.2923,69
1607169017.2943,65
1607169017.2963,72
1607169017.2984,77
1607169017.3003,79
1607169017.3023,84
1607169017.3044,79
1607169017.3063,74
1607169017.3084,72
1607169017.3104,72
1607169017.3123,77
1607169017.3143,82
1607169017.3163,86
1607169017.3184,77
1607169017.3203,65
1607169017.3223,72
1607169017.3243,86
1607169017.3264,77
1607169017.3284,74
1607169017.3303,82
1607169017.3323,74
1607169017.3343,72
1607169017.3363,74
1607169017.3383,74
1607169017.3403,72
1607169017.3425,65
1607169017.3445,67
1607169017.3464,74
1607169017.7431,69
1607169017.7439,69
1607169017.7457,86
1607169017.7486,82
1607169017.7504,60
1607169017.7524,74
1607169017.7544,91
1607169017.7564,79
1607169017.7585,69
1607169017.7604,72
1607169017.7624,62
1607169017.7644,53
1607169017.7664,55
1607169017.7685,60
1607169017.7704,60
1607169017.7724,67
1607169017.7743,74
1607169017.7764,72
1607169017.7784,67
1607169017.7803,60
1607169017.7823,65
1607169017.7843,77
1607169017.7863,72
1607169017.7884,62
1607169017.7903,84
1607169017.7923,115
1607169017.7943,120
1607169017.7963,108
1607169017.7984,110
1607169017.8003,96
1607169017.8023,65
1607169017.8044,55
1607169017.8064,74
1607169017.8084,91
1607169017.8105,86
1607169017.8125,77
1607169017.8144,77
1607169017.8164,69
1607169017.8184,53
1607169017.8203,82
1607169017.8223,308
1607169017.8243,871
1607169017.8264,1496
1607169017.8284,1471
1607169017.8304,579
1607169017.8323,-439
1607169017.8343,-656
1607169017.8364,-231
1607169017.8385,-21
1607169017.8404,-50
1607169017.8423,26
1607169017.8443,77
1607169017.8463,45
1607169017.8484,53
1607169017.8503,86
1607169017.8523,86
1607169017.8544,84
1607169017.8563,103
1607169017.8584,120
1607169017.8604,125
1607169017.8623,127
1607169017.8643,125
1607169017.8663,135
1607169017.8684,159
1607169017.8704,171
1607169017.8723,168
1607169017.8743,180
1607169017.8763,207
1607169017.8783,224
1607169017.8803,231
1607169017.8823,243
1607169017.8843,277
1607169017.8865,308
1607169018.2830,323
1607169018.2840,352
1607169018.2857,395
1607169018.2874,424
1607169018.2894,451
1607169018.2914,480
1607169018.2934,489
1607169018.2954,470
1607169018.2974,412
1607169018.2993,337
1607169018.3013,250
1607169018.3034,149
1607169018.3053,38
1607169018.3074,-36
1607169018.3094,-74
1607169018.3115,-118
1607169018.3135,-149
1607169018.3155,-139
1607169018.3173,-123
1607169018.3193,-135
1607169018.3213,-137
1607169018.3233,-120
1607169018.3253,-94
1607169018.3273,-69
1607169018.3293,-72
1607169018.3313,-74
1607169018.3335,-62
1607169018.3353,-48
1607169018.3373,-36
1607169018.3393,-28
1607169018.3413,-28
1607169018.3433,-24
1607169018.3453,-9
1607169018.3473,9
1607169018.3493,16
1607169018.3513,2
1607169018.3533,-7
1607169018.3553,0
1607169018.3573,4
1607169018.3593,9
1607169018.3613,12
1607169018.3633,2
1607169018.3653,9
1607169018.3673,16
1607169018.3692,7
1607169018.3713,9
1607169018.3733,19
1607169018.3753,4
1607169018.3773,2
1607169018.3793,19
1607169018.3813,21
1607169018.3833,12
1607169018.3853,21
1607169018.3873,36
1607169018.3893,21
1607169018.3913,19
1607169018.3933,36
1607169018.3953,28
1607169018.3973,19
1607169018.3993,31
1607169018.4013,38
1607169018.4033,36
1607169018.4053,41
1607169018.4073,48
1607169018.4093,41
1607169018.4114,36
1607169018.4133,38
1607169018.4153,33
1607169018.4173,31
1607169018.4193,43
1607169018.4212,41
1607169018.4233,41
1607169018.4253,53
1607169018.8527,43
1607169018.8532,31
1607169018.8542,45
1607169018.8562,48
1607169018.8583,33
1607169018.8602,26
1607169018.8623,24
1607169018.8643,38
1607169018.8662,45
1607169018.8681,31
1607169018.8702,31
1607169018.8721,38
1607169018.8741,31
1607169018.8764,38
1607169018.8782,45
1607169018.8802,31
1607169018.8821,26
1607169018.8841,38
1607169018.8861,48
1607169018.8881,57
1607169018.8901,65
1607169018.8921,60
1607169018.8943,48
1607169018.8962,43
1607169018.8982,38
1607169018.9001,33
1607169018.9021,45
1607169018.9041,62
1607169018.9061,57
1607169018.9082,50
1607169018.9103,60
1607169018.9122,57
1607169018.9135,41
1607169018.9151,50
1607169018.9171,65
1607169018.9192,53
1607169018.9211,53
1607169018.9232,74
1607169018.9251,86
1607169018.9272,74
1607169018.9292,57
1607169018.9311,62
1607169018.9332,72
1607169018.9351,62
1607169018.9371,55
1607169018.9391,62
1607169018.9411,72
1607169018.9432,89
1607169018.9453,91
1607169018.9471,60
1607169018.9491,62
1607169018.9511,91
1607169018.9531,86
1607169018.9551,65
1607169018.9571,60
1607169018.9598,65
1607169018.9611,72
1607169018.9633,62
1607169018.9651,48
1607169018.9668,74
1607169018.9691,127
1607169018.9711,132
1607169018.9731,91
1607169018.9751,77
1607169018.9773,82
1607169018.9792,62
1607169018.9812,38
1607169018.9832,38
1607169018.9851,50
1607169018.9872,74
1607169018.9891,86
1607169018.9911,69
1607169018.9946,48
1607169019.3922,43
1607169019.3929,106
1607169019.3954,390
1607169019.3980,1023
1607169019.4000,1561
1607169019.4019,1271
1607169019.4041,219
1607169019.4059,-620
1607169019.4080,-574
1607169019.4101,-156
1607169019.4120,-38
1607169019.4139,-55
1607169019.4159,-2
1607169019.4181,19
1607169019.4199,31
1607169019.4221,69
1607169019.4239,74
1607169019.4260,57
1607169019.4281,67
1607169019.4300,89
1607169019.4319,91
1607169019.4339,84
1607169019.4359,110
1607169019.4381,152
1607169019.4400,144
1607169019.4420,125
1607169019.4443,144
1607169019.4460,171
1607169019.4480,176
1607169019.4500,178
1607169019.4520,195
1607169019.4540,217
1607169019.4560,231
1607169019.4582,243
1607169019.4601,279
1607169019.4621,335
1607169019.4640,371
1607169019.4660,390
1607169019.4680,419
1607169019.4700,446
1607169019.4720,465
1607169019.4740,470
1607169019.4760,446
1607169019.4782,395
1607169019.4800,330
1607169019.4820,248
1607169019.4840,132
1607169019.4860,19
1607169019.4880,-45
1607169019.4900,-86
1607169019.4920,-123
1607169019.4941,-142
1607169019.4961,-159
1607169019.4981,-156
1607169019.5000,-118
1607169019.5020,-98
1607169019.5040,-120
1607169019.5060,-125
1607169019.5080,-101
1607169019.5103,-77
1607169019.5123,-60
1607169019.5140,-65
1607169019.5160,-65
1607169019.5181,-36
1607169019.5201,-33
1607169019.5221,-41
1607169019.5240,-12
1607169019.5262,-2
1607169019.5281,-19
1607169019.5303,-19
1607169019.5320,-7
1607169019.5340,-16
1607169019.5361,-16
1607169019.9935,4
1607169019.9952,-4
1607169019.9977,-16
1607169020.0005,9
1607169020.0029,2
1607169020.0044,-28
1607169020.0063,-16
1607169020.0086,-2
1607169020.0103,-21
1607169020.0123,-26
1607169020.0143,-4
1607169020.0167,-2
1607169020.0187,-7
1607169020.0203,4
1607169020.0223,12
1607169020.0243,4
1607169020.0263,2
1607169020.0287,4
1607169020.0312,9
1607169020.0364,16
1607169020.0392,19
1607169020.0579,12
1607169020.0594,9
1607169020.0613,16
1607169020.0648,28
1607169020.0663,38
1607169020.0789,31
1607169020.0805,19
1607169020.0822,19
1607169020.1053,41
1607169020.1071,43
1607169020.1095,31
1607169020.1114,31
1607169020.1151,33
1607169020.1164,26
1607169020.1242,33
1607169020.1263,55
1607169020.1284,53
1607169020.1313,33
1607169020.1323,38
1607169020.1394,50
1607169020.1411,43
1607169020.1437,33
1607169020.1498,33
1607169020.1630,43
1607169020.1702,57
1607169020.1721,50
1607169020.1742,21
1607169020.1799,24
1607169020.1864,53
1607169020.1881,50
1607169020.1901,28
1607169020.1922,33
1607169020.1965,45
1607169020.2032,36
1607169020.2052,36
1607169020.2071,45
1607169020.2130,45
1607169020.2202,33
1607169020.2221,38
1607169020.2243,57
1607169020.2302,55
1607169020.2374,41
1607169020.2583,48
1607169020.2607,55
1607169020.2623,43
1607169020.2645,45
1607169020.2662,55
1607169020.2684,45
1607169020.2703,31
1607169020.2722,38
1607169020.2742,60
1607169020.2777,72
1607169020.5950,57
1607169020.5982,38
1607169020.5996,43
1607169020.6010,65
1607169020.6030,69
1607169020.6049,55
1607169020.6069,57
1607169020.6089,67
1607169020.6110,57
1607169020.6159,43
1607169020.6172,43
1607169020.6189,57
1607169020.6209,48
1607169020.6230,31
1607169020.6249,53
1607169020.6272,72
1607169020.6290,48
1607169020.6333,36
1607169020.6350,74
1607169020.6370,103
1607169020.6400,101
1607169020.6409,84
1607169020.6436,65
1607169020.6553,48
1607169020.6574,50
1607169020.6622,67
1607169020.6637,62
1607169020.6650,45
1607169020.6675,57
1607169020.6703,69
1607169020.6720,45
1607169020.6740,33
1607169020.6823,45
1607169020.6857,142
1607169020.6875,538
1607169020.6890,1235
1607169020.6910,1611
1607169020.7004,1064
1607169020.7024,-53
1607169020.7041,-704
1607169020.7064,-499
1607169020.7082,-149
1607169020.7163,-101
1607169020.7180,-38
1607169020.7192,60
1607169020.7243,38
1607169020.7251,19
1607169020.7352,57
1607169020.7370,62
1607169020.7383,53
1607169020.7402,65
1607169020.7421,79
1607169020.7515,91
1607169020.7534,108
1607169020.7553,115
1607169020.7573,127
1607169020.7689,137
1607169020.7705,142
1607169020.7712,152
1607169020.7733,159
1607169020.7753,168
1607169020.7800,193
1607169020.7813,209
1607169020.7849,212
1607169020.7870,234
1607169020.7884,272
1607169020.7903,311
1607169020.7924,352
1607169020.7972,383
1607169020.7987,410
1607169020.8009,446
1607169020.8031,489
1607169020.8044,513
1607169021.1042,513
1607169021.1075,480
1607169021.1097,417
1607169021.1125,323
1607169021.1144,200
1607169021.1165,77
1607169021.1188,-4
1607169021.1205,-65
1607169021.1297,-123
1607169021.1314,-159
1607169021.1334,-180
1607169021.1354,-193
1607169021.1375,-173
1607169021.1395,-152
1607169021.1408,-159
1607169021.1427,-159
1607169021.1445,-135
1607169021.1534,-125
1607169021.1588,-123
1607169021.1622,-106
1607169021.1664,-82
1607169021.1689,-77
1607169021.1706,-79
1607169021.1726,-57
1607169021.1745,-41
1607169021.1765,-45
1607169021.1786,-48
1607169021.1821,-38
1607169021.1835,-36
1607169021.1854,-38
1607169021.1861,-41
1607169021.1874,-45
1607169021.1894,-43
1607169021.1915,-28
1607169021.1935,-21
1607169021.1954,-31
1607169021.1975,-33
1607169021.1994,-26
1607169021.2014,-24
1607169021.2034,-24
1607169021.2055,-24
1607169021.2074,-26
1607169021.2098,-24
1607169021.2115,-19
1607169021.2134,-12
1607169021.2154,-7
1607169021.2161,-9
1607169021.2175,-14
1607169021.2194,-2
1607169021.2215,7
1607169021.2234,0
1607169021.2254,-12
1607169021.2275,-12
1607169021.2320,-2
1607169021.2335,16
1607169021.2514,14
1607169021.2528,0
1607169021.2545,7
1607169021.2565,24
1607169021.2585,21
1607169021.2605,12
1607169021.2616,14
1607169021.2635,19
1607169021.2655,24
1607169021.2675,19
1607169021.2695,16
1607169021.2721,33
1607169021.2735,45
1607169021.2755,33
1607169021.2827,26
1607169021.4720,41
1607169021.4796,45
1607169021.4803,28
1607169021.6729,26
1607169021.6733,38
1607169021.6893,33
1607169021.6898,28
1607169021.6913,41
1607169021.7008,36
1607169021.7021,21
1607169021.7032,21
1607169021.7042,19
1607169021.7050,19
1607169021.7071,31
1607169021.7083,26
1607169021.7117,14
1607169021.7132,14
1607169021.7209,16
1607169021.7392,26
1607169021.7414,33
1607169021.7433,28
1607169021.7454,21
1607169021.7473,21
1607169021.7479,21
1607169021.7492,33
1607169021.7512,45
1607169021.7532,24
1607169021.7552,2
1607169021.7577,16
1607169021.7596,33
1607169021.7613,33
1607169021.7633,53
1607169021.7652,77
1607169021.7672,65
1607169021.7692,45
1607169021.7712,41
1607169021.7732,26
1607169021.7752,16
1607169021.7773,31
1607169021.7780,45
1607169021.7793,36
1607169021.7812,33
1607169021.7832,41
1607169021.7852,31
1607169021.7872,7
1607169021.7892,19
1607169021.7912,152
1607169021.7933,586
1607169021.7952,1278
1607169021.7974,1580
1607169021.7993,962
1607169021.8012,-171
1607169021.8033,-760
1607169021.8052,-451
1607169021.8058,-82
1607169021.8071,-77
1607169021.8095,-57
1607169021.8113,28
1607169021.8133,26
1607169021.8152,9
1607169021.8172,43
1607169021.8192,69
1607169021.8212,60
1607169021.8232,62
1607169021.8252,77
1607169021.8276,84
1607169021.8293,94
1607169021.8312,98
1607169021.8334,96
1607169021.8352,98
1607169021.8459,123
1607169021.8474,154
1607169021.8492,164
1607169021.8512,161
1607169021.8534,180
1607169021.8553,207
1607169022.2144,217
1607169022.2175,231
1607169022.2196,258
1607169022.2225,287
1607169022.2237,313
1607169022.2253,354
1607169022.2273,400
1607169022.2293,434
1607169022.2313,456
1607169022.2333,463
1607169022.2353,453
1607169022.2373,419
1607169022.2396,349
1607169022.2422,248
1607169022.2456,137
1607169022.2478,33
1607169022.2495,-55
1607169022.2543,-113
1607169022.2564,-147
1607169022.2588,-166
1607169022.2610,-178
1607169022.2629,-180
1607169022.2644,-168
1607169022.2664,-152
1607169022.2690,-149
1607169022.2705,-132
1607169022.2725,-106
1607169022.2743,-103
1607169022.2766,-108
1607169022.2787,-94
1607169022.2802,-74
1607169022.2822,-65
1607169022.2843,-60
1607169022.2863,-55
1607169022.2883,-38
1607169022.2903,-36
1607169022.2914,-45
1607169022.2990,-41
1607169022.3015,-31
1607169022.3108,-24
1607169022.3122,-19
1607169022.3142,-19
1607169022.3162,-19
1607169022.3181,-14
1607169022.3203,-16
1607169022.3223,-24
1607169022.3243,-19
1607169022.3262,-14
1607169022.3324,-19
1607169022.3341,-14
1607169022.3361,-2
1607169022.3383,-12
1607169022.3404,-26
1607169022.3427,-9
1607169022.3456,12
1607169022.4338,2
1607169022.4387,-9
1607169022.4438,0
1607169022.4458,12
1607169022.4477,16
1607169022.4510,12
1607169022.4516,7
1607169022.4537,9
1607169022.4556,4
1607169022.4577,-2
1607169022.4596,9
1607169022.4618,24
1607169022.4637,19
1607169022.4657,21
1607169022.4678,21
1607169022.4696,14
1607169022.4718,24
1607169022.4736,33
1607169022.7846,26
1607169022.7873,24
1607169022.7900,24
1607169022.7933,24
1607169022.7956,28
1607169022.7977,19
1607169022.7994,12
1607169022.8013,31
1607169022.8033,43
1607169022.8053,16
1607169022.8074,2
1607169022.8099,21
1607169022.8124,31
1607169022.8145,28
1607169022.8165,24
1607169022.8186,21
1607169022.8204,24
1607169022.8225,28
1607169022.8244,31
1607169022.8263,26
1607169022.8284,36
1607169022.8304,45
1607169022.8323,36
1607169022.8344,31
1607169022.8364,38
1607169022.8384,33
1607169022.8404,31
1607169022.8425,33
1607169022.8444,28
1607169022.8463,24
1607169022.8485,43
1607169022.8510,55
1607169022.8531,38
1607169022.8552,33
1607169022.8574,50
1607169022.8594,45
1607169022.8614,21
1607169022.8634,12
1607169022.8654,36
1607169022.8674,50
1607169022.8694,38
1607169022.8713,48
1607169022.8734,79
1607169022.8754,79
1607169022.8773,60
1607169022.8793,45
1607169022.8814,26
1607169022.8834,16
1607169022.8854,28
1607169022.8874,43
1607169022.8895,38
1607169022.8919,24
1607169022.8942,21
1607169022.8965,28
1607169022.8990,26
1607169022.9003,9
1607169022.9027,21
1607169022.9044,152
1607169022.9063,574
1607169022.9084,1264
1607169022.9106,1563
1607169022.9124,928
1607169022.9144,-180
1607169022.9163,-740
1607169022.9184,-456
1607169022.9204,-110
1607169022.9224,-89
1607169022.9243,-41
1607169022.9263,45
1607169022.9285,21
1607169022.9309,-4
1607169022.9334,21
1607169022.9355,41
1607169023.3832,53
1607169023.3844,62
1607169023.3868,48
1607169023.3895,57
1607169023.3915,89
1607169023.3935,89
1607169023.3957,77
1607169023.3975,84
1607169023.3994,101
1607169023.4014,115
1607169023.4035,125
1607169023.4054,127
1607169023.4075,156
1607169023.4097,185
1607169023.4115,180
1607169023.4135,200
1607169023.4156,253
1607169023.4175,279
1607169023.4197,291
1607169023.4215,335
1607169023.4235,383
1607169023.4255,410
1607169023.4275,431
1607169023.4295,448
1607169023.4317,441
1607169023.4336,395
1607169023.4354,320
1607169023.4375,229
1607169023.4395,144
1607169023.4415,65
1607169023.4436,-24
1607169023.4456,-103
1607169023.4484,-139
1607169023.4501,-161
1607169023.4515,-178
1607169023.4535,-176
1607169023.4555,-156
1607169023.4575,-147
1607169023.4599,-152
1607169023.4616,-132
1607169023.4636,-96
1607169023.4656,-96
1607169023.4676,-106
1607169023.4700,-82
1607169023.4717,-72
1607169023.4736,-82
1607169023.4757,-60
1607169023.4990,-36
1607169023.5008,-43
1607169023.5026,-57
1607169023.5046,-38
1607169023.5068,-16
1607169023.5087,-26
1607169023.5108,-36
1607169023.5129,-21
1607169023.5147,-7
1607169023.5166,-12
1607169023.5187,-26
1607169023.5206,-21
1607169023.5227,-12
1607169023.5246,-16
1607169023.5272,-21
1607169023.5287,-14
1607169023.5307,-16
1607169023.5326,-26
1607169023.5347,-19
1607169023.5366,-4
1607169023.5388,-12
1607169023.5407,-24
1607169023.5459,-12
1607169023.5477,-4
1607169023.5497,-4
1607169023.5518,-2
1607169023.9527,-7
1607169023.9538,-7
1607169023.9562,-2
1607169023.9589,-2
1607169023.9609,-4
1607169023.9631,0
1607169023.9650,9
1607169023.9669,7
1607169023.9690,-4
1607169023.9709,7
1607169023.9733,21
1607169023.9749,2
1607169023.9769,-12
1607169023.9789,-7
1607169023.9809,2
1607169023.9829,7
1607169023.9849,7
1607169023.9869,12
1607169023.9889,16
1607169023.9909,4
1607169023.9930,9
1607169023.9949,21
1607169023.9969,21
1607169023.9989,16
1607169024.0009,19
1607169024.0029,19
1607169024.0049,21
1607169024.0069,24
1607169024.0092,21
1607169024.0111,21
1607169024.0129,28
1607169024.0149,33
1607169024.0170,36
1607169024.0189,33
1607169024.0209,24
1607169024.0229,31
1607169024.0250,45
1607169024.0269,36
1607169024.0291,24
1607169024.0319,33
1607169024.0340,33
1607169024.0378,24
1607169024.0396,33
1607169024.0410,45
1607169024.0430,41
1607169024.0450,38
1607169024.0469,38
1607169024.0490,31
1607169024.0509,38
1607169024.0529,48
1607169024.0549,36
1607169024.0569,28
1607169024.0591,45
1607169024.0616,55
1607169024.0636,50
1607169024.0661,41
1607169024.0681,26
1607169024.0699,26
1607169024.0719,48
1607169024.0739,60
1607169024.0763,45
1607169024.0783,31
1607169024.0799,26
1607169024.0819,26
1607169024.0839,41
1607169024.0859,53
1607169024.0881,38
1607169024.0899,31
1607169024.0919,45
1607169024.0939,43
1607169024.0959,33
1607169024.0981,33
1607169024.1002,26
1607169024.4646,12
1607169024.4671,16
1607169024.4695,24
1607169024.4722,19
1607169024.4742,19
1607169024.4762,36
1607169024.4783,38
1607169024.4805,33
1607169024.4825,28
1607169024.4846,9
1607169024.4869,7
1607169024.4890,21
1607169024.4903,19
1607169024.4922,4
1607169024.4942,2
1607169024.4962,7
1607169024.4982,2
1607169024.5002,14
1607169024.5022,38
1607169024.5041,45
1607169024.5062,41
1607169024.5083,43
1607169024.5109,48
1607169024.5133,41
1607169024.5171,19
1607169024.5196,14
1607169024.5212,26
1607169024.5232,21
1607169024.5252,16
1607169024.5272,31
1607169024.5292,26
1607169024.5312,2
1607169024.5332,9
1607169024.5352,101
1607169024.5372,456
1607169024.5393,1148
1607169024.5412,1602
1607169024.5432,1150
1607169024.5452,41
1607169024.5475,-723
1607169024.5496,-581
1607169024.5512,-173
1607169024.5531,-103
1607169024.5552,-91
1607169024.5571,7
1607169024.5592,16
1607169024.5612,-2
1607169024.5631,24
1607169024.5652,36
1607169024.5671,38
1607169024.5695,55
1607169024.5729,65
1607169024.5767,69
1607169024.5794,84
1607169024.5812,86
1607169024.5832,84
1607169024.5853,94
1607169024.5872,98
1607169024.5893,113
1607169024.5912,139
1607169024.5932,156
1607169024.5962,159
1607169024.5988,173
1607169024.6002,200
1607169024.6022,224
1607169024.6042,248
1607169024.6062,277
1607169024.6082,313
1607169024.6102,347
1607169024.6122,388
1607169024.6143,427
1607169024.6162,456
1607169024.6182,480
1607169025.0336,497
1607169025.0352,475
1607169025.0368,415
1607169025.0388,328
1607169025.0407,217
1607169025.0431,101
1607169025.0448,-14
1607169025.0469,-110
1607169025.0487,-159
1607169025.0509,-183
1607169025.0528,-202
1607169025.0547,-212
1607169025.0609,-212
1607169025.0640,-197
1607169025.0670,-178
1607169025.0713,-164
1607169025.0731,-144
1607169025.0756,-127
1607169025.0796,-123
1607169025.0815,-115
1607169025.0858,-98
1607169025.0869,-89
1607169025.0888,-91
1607169025.0908,-84
1607169025.0931,-69
1607169025.0947,-67
1607169025.1002,-69
1607169025.1017,-67
1607169025.1037,-62
1607169025.1141,-57
1607169025.1158,-48
1607169025.1181,-38
1607169025.1198,-41
1607169025.1219,-45
1607169025.1239,-48
1607169025.1261,-50
1607169025.1279,-48
1607169025.1299,-43
1607169025.1319,-36
1607169025.1339,-36
1607169025.1360,-43
1607169025.1382,-41
1607169025.1398,-43
1607169025.1419,-36
1607169025.1438,-14
1607169025.1458,-14
1607169025.1483,-36
1607169025.1497,-41
1607169025.1518,-28
1607169025.1538,-19
1607169025.1559,-21
1607169025.1578,-19
1607169025.1598,-12
1607169025.1618,-21
1607169025.1638,-31
1607169025.1658,-14
1607169025.1677,-2
1607169025.1699,-9
1607169025.1718,-9
1607169025.1739,-4
1607169025.1757,-12
1607169025.1780,-4
1607169025.1989,7
1607169025.2008,7
1607169025.2031,0
1607169025.2048,2
1607169025.2070,2
1607169025.2088,4
1607169025.2109,9
1607169025.2128,7
1607169025.2148,14
1607169025.2168,21
1607169025.2190,14
1607169025.5729,12
1607169025.5744,16
1607169025.5768,14
1607169025.5786,16
1607169025.5805,28
1607169025.5831,24
1607169025.5844,7
1607169025.5864,7
1607169025.5884,9
1607169025.5904,4
1607169025.5924,2
1607169025.5945,4
1607169025.5967,-2
1607169025.5984,-2
1607169025.6004,7
1607169025.6079,14
1607169025.6311,9
1607169025.6336,0
1607169025.6355,4
1607169025.6375,12
1607169025.6396,12
1607169025.6423,9
1607169025.6488,9
1607169025.6628,12
1607169025.6655,19
1607169025.6665,28
1607169025.6688,21
1607169025.6705,7
1607169025.6726,9
1607169025.6745,24
1607169025.6767,24
1607169025.6787,21
1607169025.6807,26
1607169025.6826,21
1607169025.6845,14
1607169025.6865,21
1607169025.6887,31
1607169025.6905,28
1607169025.6925,24
1607169025.6947,26
1607169025.6966,21
1607169025.6986,12
1607169025.7006,12
1607169025.7028,33
1607169025.7045,60
1607169025.7065,60
1607169025.7089,48
1607169025.7109,45
1607169025.7127,38
1607169025.7146,21
1607169025.7165,14
1607169025.7186,16
1607169025.7205,24
1607169025.7225,21
1607169025.7246,16
1607169025.7270,24
1607169025.7285,24
1607169025.7307,0
1607169025.7326,2
1607169025.7345,161
1607169025.7375,641
1607169025.7386,1310
1607169025.7406,1505
1607169025.7425,803
1607169025.7446,-282
1607169025.7467,-745
1607169025.7487,-386
1607169025.7506,-65
1607169025.7525,-82
1607169025.7545,-48
1607169025.7565,19
1607169025.7586,7
1607169025.7607,12
1607169026.1432,38
1607169026.1443,33
1607169026.1460,36
1607169026.1480,55
1607169026.1500,45
1607169026.1520,31
1607169026.1540,55
1607169026.1560,82
1607169026.1580,84
1607169026.1600,89
1607169026.1620,101
1607169026.1644,106
1607169026.1660,115
1607169026.1680,139
1607169026.1700,159
1607169026.1720,164
1607169026.1740,171
1607169026.1760,202
1607169026.1780,241
1607169026.1800,267
1607169026.1820,289
1607169026.1840,328
1607169026.1860,366
1607169026.1881,390
1607169026.1904,419
1607169026.1921,441
1607169026.1941,429
1607169026.1961,390
1607169026.1981,335
1607169026.2001,258
1607169026.2068,161
1607169026.2125,53
1607169026.2176,-41
1607169026.2193,-101
1607169026.2213,-135
1607169026.2230,-159
1607169026.2250,-178
1607169026.2270,-185
1607169026.2581,-180
1607169026.2600,-166
1607169026.2701,-149
1607169026.2725,-142
1607169026.2741,-137
1607169026.2762,-115
1607169026.2794,-98
1607169026.2812,-101
1607169026.2831,-94
1607169026.2851,-65
1607169026.2871,-55
1607169026.2890,-69
1607169026.2952,-62
1607169026.2971,-36
1607169026.2991,-33
1607169026.3014,-45
1607169026.3032,-45
1607169026.3051,-33
1607169026.3070,-26
1607169026.3090,-26
1607169026.3273,-36
1607169026.3300,-41
1607169026.3360,-31
1607169026.3380,-16
1607169026.3399,-19
1607169026.3419,-24
1607169026.3439,-24
1607169026.3461,-24
1607169026.3669,-24
1607169026.3698,-19
1607169026.3832,-16
1607169026.3851,-19
1607169026.3869,-14
1607169026.3891,-14
1607169026.3909,-14
1607169026.7452,-9
1607169026.7463,-7
1607169026.7490,-7
1607169026.7514,-7
1607169026.7533,-2
1607169026.7553,-9
1607169026.7578,-19
1607169026.7637,-7
1607169026.7646,-2
1607169026.7700,-12
1607169026.7713,-9
1607169026.7733,-2
1607169026.7753,2
1607169026.7774,4
1607169026.7795,2
1607169026.7814,-7
1607169026.7833,-2
1607169026.7853,14
1607169026.7873,14
1607169026.7894,7
1607169026.7914,7
1607169026.7935,2
1607169026.7954,-4
1607169026.7974,9
1607169026.7994,16
1607169026.8014,2
1607169026.8034,-12
1607169026.8054,-9
1607169026.8074,2
1607169026.8094,4
1607169026.8115,-4
1607169026.8135,-2
1607169026.8154,4
1607169026.8175,-2
1607169026.8194,2
1607169026.8214,19
1607169026.8234,19
1607169026.8254,7
1607169026.8275,7
1607169026.8298,12
1607169026.8315,7
1607169026.8341,14
1607169026.8354,28
1607169026.8373,24
1607169026.8394,16
1607169026.8414,28
1607169026.8441,31
1607169026.8454,24
1607169026.8474,26
1607169026.8494,24
1607169026.8514,19
1607169026.8534,28
1607169026.8554,33
1607169026.8578,33
1607169026.8594,36
1607169026.8614,31
1607169026.8634,36
1607169026.8654,45
1607169026.8674,38
1607169026.8694,24
1607169026.8714,28
1607169026.8734,36
1607169026.8754,21
1607169026.8774,16
1607169026.8794,43
1607169026.8814,53
1607169026.8834,31
1607169026.8854,28
1607169026.8874,43
1607169026.8895,38
1607169026.8915,33
1607169026.8935,48
1607169026.8955,48
1607169027.3148,38
1607169027.3175,38
1607169027.3204,43
1607169027.3239,43
1607169027.3264,38
1607169027.3287,41
1607169027.3306,41
1607169027.3325,31
1607169027.3346,38
1607169027.3365,65
1607169027.3387,65
1607169027.3412,41
1607169027.3438,36
1607169027.3460,50
1607169027.3485,41
1607169027.3505,26
1607169027.3527,26
1607169027.3545,19
1607169027.3565,4
1607169027.3587,4
1607169027.3612,7
1607169027.3635,7
1607169027.3663,19
1607169027.3685,69
1607169027.3705,345
1607169027.3726,965
1607169027.3745,1491
1607169027.3766,1240
1607169027.3786,231
1607169027.3799,-627
1607169027.3817,-605
1607169027.3839,-188
1607169027.3858,-72
1607169027.3875,-72
1607169027.3898,9
1607169027.3915,9
1607169027.3936,-12
1607169027.3955,21
1607169027.3975,38
1607169027.3995,31
1607169027.4015,45
1607169027.4035,57
1607169027.4055,60
1607169027.4076,72
1607169027.4100,84
1607169027.4123,79
1607169027.4152,84
1607169027.4175,103
1607169027.4194,125
1607169027.4206,137
1607169027.4226,139
1607169027.4247,144
1607169027.4266,164
1607169027.4287,188
1607169027.4305,202
1607169027.4325,221
1607169027.4346,253
1607169027.4365,284
1607169027.4386,323
1607169027.4406,361
1607169027.4425,388
1607169027.4439,412
1607169027.4455,441
1607169027.4475,465
1607169027.4496,458
1607169027.4515,398
1607169027.4535,318
1607169027.4555,241
1607169027.4576,142
1607169027.4600,28
1607169027.4624,-55
1607169027.4646,-106
1607169027.4672,-149
1607169027.8548,-176
1607169027.8563,-173
1607169027.8600,-166
1607169027.8620,-161
1607169027.8640,-156
1607169027.8659,-149
1607169027.8685,-135
1607169027.8703,-118
1607169027.8723,-108
1607169027.8793,-101
1607169027.8821,-101
1607169027.8831,-103
1607169027.8849,-91
1607169027.8869,-82
1607169027.8889,-86
1607169027.8909,-79
1607169027.8931,-72
1607169027.8939,-74
1607169027.8960,-60
1607169027.8979,-45
1607169027.8999,-55
1607169027.9019,-65
1607169027.9039,-55
1607169027.9059,-48
1607169027.9080,-55
1607169027.9100,-53
1607169027.9120,-48
1607169027.9140,-50
1607169027.9160,-48
1607169027.9180,-41
1607169027.9200,-38
1607169027.9220,-36
1607169027.9240,-31
1607169027.9253,-33
1607169027.9270,-38
1607169027.9290,-36
1607169027.9310,-28
1607169027.9330,-16
1607169027.9350,-14
1607169027.9370,-24
1607169027.9390,-28
1607169027.9410,-19
1607169027.9431,-14
1607169027.9450,-19
1607169027.9470,-21
1607169027.9490,-14
1607169027.9512,-7
1607169027.9530,-7
1607169027.9550,-4
1607169027.9563,-4
1607169027.9581,-9
1607169027.9600,-14
1607169027.9620,-2
1607169027.9640,14
1607169027.9660,14
1607169027.9680,2
1607169027.9701,0
1607169027.9720,4
1607169027.9740,7
1607169027.9760,4
1607169027.9785,4
1607169027.9800,9
1607169027.9820,16
1607169027.9840,21
1607169027.9860,16
1607169027.9872,9
1607169027.9891,12
1607169027.9910,24
1607169027.9933,14
1607169027.9950,4
1607169027.9970,7
1607169027.9989,2
1607169028.0010,2
1607169028.3939,12
1607169028.4041,12
1607169028.4059,7
1607169028.4076,-4
1607169028.4105,-16
1607169028.4119,-12
1607169028.4175,-2
1607169028.4193,-2
1607169028.4218,-4
1607169028.4236,-14
1607169028.4256,-26
1607169028.4283,-19
1607169028.4298,-14
1607169028.4343,-9
1607169028.4361,16
1607169028.4377,41
1607169028.4396,36
1607169028.4416,9
1607169028.4441,-12
1607169028.4457,-9
1607169028.4510,2
1607169028.4529,-2
1607169028.4546,-4
1607169028.4566,9
1607169028.4581,12
1607169028.4696,7
1607169028.4712,4
1607169028.4729,-4
1607169028.4747,33
1607169028.4801,270
1607169028.4829,863
1607169028.4847,1517
1607169028.4867,1459
1607169028.4887,477
1607169028.4907,-583
1607169028.4927,-784
1607169028.4969,-337
1607169028.4993,-118
1607169028.5016,-127
1607169028.5033,-38
1607169028.5047,4
1607169028.5067,-19
1607169028.5087,12
1607169028.5160,36
1607169028.5185,24
1607169028.5200,33
1607169028.5218,55
1607169028.5237,57
1607169028.5257,57
1607169028.5298,65
1607169028.5321,72
1607169028.5337,84
1607169028.5358,96
1607169028.5379,115
1607169028.5393,137
1607169028.5407,144
1607169028.5456,152
1607169028.5471,171
1607169028.5490,188
1607169028.5507,205
1607169028.5527,234
1607169028.5547,270
1607169028.5567,304
1607169028.5587,337
1607169028.5630,378
1607169028.5648,417
1607169028.5667,456
1607169028.5687,487
1607169028.5707,497
1607169028.5728,482
1607169028.5740,422
1607169028.5757,318
1607169028.5803,197
1607169028.9333,86
1607169028.9346,-16
1607169028.9369,-106
1607169028.9396,-161
1607169028.9418,-193
1607169028.9458,-217
1607169028.9468,-226
1607169028.9486,-229
1607169028.9506,-221
1607169028.9525,-209
1607169028.9546,-190
1607169028.9566,-166
1607169028.9586,-159
1607169028.9614,-149
1607169028.9627,-127
1607169028.9647,-115
1607169028.9669,-113
1607169028.9687,-106
1607169028.9706,-94
1607169028.9726,-89
1607169028.9745,-86
1607169028.9783,-74
1607169028.9798,-67
1607169028.9816,-74
1607169028.9835,-74
1607169028.9857,-62
1607169028.9876,-57
1607169028.9895,-60
1607169028.9915,-57
1607169028.9950,-53
1607169028.9966,-57
1607169028.9986,-62
1607169029.0006,-62
1607169029.0026,-57
1607169029.0046,-50
1607169029.0066,-50
1607169029.0086,-53
1607169029.0116,-45
1607169029.0125,-36
1607169029.0147,-31
1607169029.0166,-38
1607169029.0187,-41
1607169029.0206,-33
1607169029.0227,-26
1607169029.0246,-28
1607169029.0288,-31
1607169029.0309,-26
1607169029.0326,-24
1607169029.0345,-26
1607169029.0366,-21
1607169029.0386,-12
1607169029.0406,-7
1607169029.0426,-7
1607169029.0478,-12
1607169029.0496,-19
1607169029.0516,-9
1607169029.0536,-7
1607169029.0556,-12
1607169029.0576,-9
1607169029.0613,-7
1607169029.0627,-14
1607169029.0646,-19
1607169029.0666,-14
1607169029.0686,-4
1607169029.0706,4
1607169029.0726,9
1607169029.0746,26
1607169029.0786,33
1607169029.0798,12
1607169029.0816,-16
1607169029.0836,-9
1607169029.0857,7
1607169029.0876,0
1607169029.5349,-7
1607169029.5365,2
1607169029.5391,4
1607169029.5416,-4
1607169029.5545,-16
1607169029.5562,-26
1607169029.5578,-19
1607169029.5628,89
1607169029.5660,489
1607169029.5674,1199
1607169029.5700,1602
1607169029.5719,1071
1607169029.5737,-91
1607169029.5757,-810
1607169029.5832,-588
1607169029.5866,-190
1607169029.5881,-152
1607169029.5897,-110
1607169029.5917,-9
1607169029.5978,-19
1607169029.5997,-28
1607169029.6010,7
1607169029.6027,7
1607169029.6047,4
1607169029.6067,26
1607169029.6089,38
1607169029.6122,31
1607169029.6137,31
1607169029.6157,41
1607169029.6178,57
1607169029.6197,69
1607169029.6217,74
1607169029.6237,82
1607169029.6257,96
1607169029.6286,106
1607169029.6301,130
1607169029.6317,166
1607169029.6337,180
1607169029.6357,190
1607169029.6377,219
1607169029.6397,258
1607169029.6417,301
1607169029.6449,342
1607169029.6468,369
1607169029.6488,395
1607169029.6510,422
1607169029.6527,429
1607169029.6547,415
1607169029.6567,378
1607169029.6587,301
1607169029.6617,180
1607169029.6627,57
1607169029.6647,-38
1607169029.6667,-110
1607169029.6688,-173
1607169029.6708,-212
1607169029.6728,-219
1607169029.6748,-226
1607169029.6789,-226
1607169029.6810,-202
1607169029.6827,-185
1607169029.6848,-180
1607169029.6868,-171
1607169029.6888,-154
1607169029.6908,-147
1607169029.6928,-147
1607169029.6999,-130
1607169029.7019,-106
1607169029.7039,-91
1607169029.7058,-86
1607169029.7079,-84
1607169029.7128,-74
1607169029.7143,-67
1607169030.1028,-65
1607169030.1037,-65
1607169030.1050,-62
1607169030.1068,-55
1607169030.1088,-50
1607169030.1115,-57
1607169030.1131,-65
1607169030.1148,-65
1607169030.1168,-69
1607169030.1188,-62
1607169030.1208,-45
1607169030.1228,-50
1607169030.1247,-67
1607169030.1285,-53
1607169030.1299,-36
1607169030.1317,-48
1607169030.1337,-53
1607169030.1396,-41
1607169030.1408,-43
1607169030.1429,-45
1607169030.1456,-43
1607169030.1485,-43
1607169030.1498,-28
1607169030.1521,-14
1607169030.1538,-26
1607169030.1557,-31
1607169030.1578,-16
1607169030.1621,-16
1607169030.1638,-21
1607169030.1658,-14
1607169030.1679,-7
1607169030.1698,-12
1607169030.1718,-9
1607169030.1738,-7
1607169030.1758,-7
1607169030.1791,-2
1607169030.1809,0
1607169030.1828,-4
1607169030.1848,-9
1607169030.1868,-2
1607169030.1889,7
1607169030.1908,7
1607169030.1986,2
1607169030.1997,-2
1607169030.2008,0
1607169030.2028,7
1607169030.2048,14
1607169030.2068,4
1607169030.2088,-12
1607169030.2146,-4
1607169030.2159,12
1607169030.2188,2
1607169030.2199,-7
1607169030.2218,7
1607169030.2238,14
1607169030.2258,9
1607169030.2287,16
1607169030.2300,21
1607169030.2318,12
1607169030.2338,9
1607169030.2358,14
1607169030.2379,9
1607169030.2398,0
1607169030.2418,4
1607169030.2448,31
1607169030.2462,38
1607169030.2479,21
1607169030.2498,14
1607169030.2518,19
1607169030.2539,19
1607169030.2558,19
1607169030.2579,16
1607169030.2618,19
1607169030.6485,19
1607169030.6500,14
1607169030.6522,9
1607169030.6548,19
1607169030.6567,28
1607169030.6588,21
1607169030.6644,16
1607169030.6658,19
1607169030.6679,24
1607169030.6698,24
1607169030.6718,12
1607169030.6738,9
1607169030.6758,16
1607169030.6790,16
1607169030.6809,14
1607169030.6828,16
1607169030.6848,19
1607169030.6869,19
1607169030.6888,16
1607169030.6908,16
1607169030.6928,26
1607169030.6983,26
1607169030.6999,21
1607169030.7018,24
1607169030.7039,28
1607169030.7058,28
1607169030.7079,28
1607169030.7114,28
1607169030.7132,21
1607169030.7149,19
1607169030.7169,24
1607169030.7190,31
1607169030.7209,28
1607169030.7229,24
1607169030.7249,21
1607169030.7291,26
1607169030.7310,24
1607169030.7328,16
1607169030.7348,21
1607169030.7369,19
1607169030.7388,4
1607169030.7409,21
1607169030.7428,57
1607169030.7458,53
1607169030.7468,26
1607169030.7488,12
1607169030.7508,9
1607169030.7528,26
1607169030.7548,45
1607169030.7568,33
1607169030.7588,19
1607169030.7617,28
1607169030.7634,21
1607169030.7651,-4
1607169030.7668,28
1607169030.7688,272
1607169030.7708,846
1607169030.7728,1452
1607169030.7748,1392
1607169030.7789,460
1607169030.7799,-540
1607169030.7818,-680
1607169030.7838,-231
1607169030.7858,-67
1607169030.7879,-118
1607169030.7898,-53
1607169030.7918,-14
1607169030.7950,-33
1607169030.7969,-16
1607169030.7990,0
1607169030.8009,-7
1607169030.8029,9
1607169030.8054,28
1607169031.2138,28
1607169031.2152,31
1607169031.2177,48
1607169031.2203,62
1607169031.2222,65
1607169031.2242,69
1607169031.2286,84
1607169031.2303,89
1607169031.2322,91
1607169031.2342,108
1607169031.2362,127
1607169031.2383,144
1607169031.2403,159
1607169031.2423,178
1607169031.2460,209
1607169031.2475,238
1607169031.2495,267
1607169031.2517,301
1607169031.2533,340
1607169031.2553,374
1607169031.2573,398
1607169031.2593,402
1607169031.2636,376
1607169031.2655,332
1607169031.2673,287
1607169031.2694,217
1607169031.2713,113
1607169031.2733,12
1607169031.2753,-65
1607169031.2792,-125
1607169031.2818,-161
1607169031.2835,-173
1607169031.2853,-176
1607169031.2873,-178
1607169031.2895,-178
1607169031.2913,-168
1607169031.2956,-161
1607169031.2975,-149
1607169031.2993,-130
1607169031.3014,-110
1607169031.3033,-98
1607169031.3053,-94
1607169031.3073,-94
1607169031.3093,-94
1607169031.3136,-79
1607169031.3156,-60
1607169031.3173,-62
1607169031.3193,-65
1607169031.3213,-55
1607169031.3233,-53
1607169031.3253,-57
1607169031.3325,-55
1607169031.3344,-55
1607169031.3364,-60
1607169031.3384,-60
1607169031.3403,-57
1607169031.3425,-50
1607169031.3452,-48
1607169031.3464,-53
1607169031.3483,-55
1607169031.3503,-48
1607169031.3524,-45
1607169031.3543,-45
1607169031.3563,-33
1607169031.3584,-28
1607169031.3631,-38
1607169031.3647,-36
1607169031.3664,-24
1607169031.3684,-24
1607169031.3704,-28
1607169031.3724,-31
1607169031.3744,-26
1607169031.3788,-24
1607169031.7533,-24
1607169031.7545,-16
1607169031.7570,-7
1607169031.7596,-7
1607169031.7624,-12
1607169031.7636,-12
1607169031.7657,-7
1607169031.7676,-4
1607169031.7698,-14
1607169031.7715,-21
1607169031.7735,-14
1607169031.7755,-9
1607169031.7788,-16
1607169031.7805,-19
1607169031.7826,-14
1607169031.7846,-4
1607169031.7866,-2
1607169031.7886,-4
1607169031.7907,0
1607169031.7926,4
1607169031.7963,2
1607169031.7986,7
1607169031.7995,9
1607169031.8015,2
1607169031.8036,-2
1607169031.8055,-2
1607169031.8076,2
1607169031.8095,-2
1607169031.8122,-7
1607169031.8136,14
1607169031.8156,28
1607169031.8176,9
1607169031.8195,2
1607169031.8215,14
1607169031.8235,16
1607169031.8255,19
1607169031.8302,14
1607169031.8316,9
1607169031.8336,12
1607169031.8356,19
1607169031.8377,24
1607169031.8396,21
1607169031.8416,12
1607169031.8453,7
1607169031.8466,12
1607169031.8485,12
1607169031.8505,16
1607169031.8526,24
1607169031.8546,21
1607169031.8565,24
1607169031.8586,26
1607169031.8618,19
1607169031.8636,19
1607169031.8658,19
1607169031.8678,24
1607169031.8696,28
1607169031.8716,26
1607169031.8739,21
1607169031.8756,21
1607169031.8809,16
1607169031.8827,19
1607169031.8846,26
1607169031.8865,28
1607169031.8886,28
1607169031.8906,26
1607169031.8926,19
1607169031.8953,14
1607169031.8966,14
1607169031.8986,21
1607169031.9005,26
1607169031.9025,14
1607169031.9046,-2
1607169031.9065,-2
1607169032.3238,7
1607169032.3255,12
1607169032.3297,9
1607169032.3320,24
1607169032.3336,45
1607169032.3358,45
1607169032.3376,28
1607169032.3396,19
1607169032.3416,9
1607169032.3458,-2
1607169032.3483,-12
1607169032.3500,-12
1607169032.3516,-2
1607169032.3536,12
1607169032.3556,4
1607169032.3576,-7
1607169032.3596,-14
1607169032.3635,-14
1607169032.3657,60
1607169032.3677,410
1607169032.3696,1100
1607169032.3716,1587
1607169032.3736,1199
1607169032.3756,84
1607169032.3793,-748
1607169032.3806,-634
1607169032.3826,-209
1607169032.3845,-142
1607169032.3866,-130
1607169032.3886,-14
1607169032.3906,-4
1607169032.3926,-36
1607169032.3996,-2
1607169032.4015,21
1607169032.4029,9
1607169032.4047,16
1607169032.4066,33
1607169032.4091,43
1607169032.4146,57
1607169032.4168,57
1607169032.4191,55
1607169032.4206,77
1607169032.4225,103
1607169032.4247,110
1607169032.4288,108
1607169032.4299,115
1607169032.4316,139
1607169032.4335,168
1607169032.4356,185
1607169032.4376,197
1607169032.4396,224
1607169032.4415,267
1607169032.4455,299
1607169032.4466,325
1607169032.4486,364
1607169032.4506,405
1607169032.4526,429
1607169032.4546,448
1607169032.4565,463
1607169032.4586,448
1607169032.4619,390
1607169032.4637,296
1607169032.4656,183
1607169032.4676,74
1607169032.4696,-21
1607169032.4715,-101
1607169032.4735,-156
1607169032.4755,-190
1607169032.4789,-212
1607169032.4810,-224
1607169032.4826,-214
1607169032.4846,-197
1607169032.4866,-183
1607169032.8680,-173
1607169032.8707,-164
1607169032.8725,-154
1607169032.8737,-137
1607169032.8758,-120
1607169032.8791,-113
1607169032.8859,-110
1607169032.8878,-110
1607169032.8898,-110
1607169032.9159,-113
1607169032.9169,-103
1607169032.9193,-84
1607169032.9208,-86
1607169032.9230,-96
1607169032.9248,-79
1607169032.9309,-69
1607169032.9318,-79
1607169032.9337,-77
1607169032.9350,-72
1607169032.9368,-79
1607169032.9388,-79
1607169032.9408,-67
1607169032.9428,-65
1607169032.9459,-67
1607169032.9468,-67
1607169032.9488,-62
1607169032.9512,-60
1607169032.9528,-65
1607169032.9548,-62
1607169032.9568,-50
1607169032.9588,-48
1607169032.9615,-55
1607169032.9629,-45
1607169032.9649,-33
1607169032.9668,-36
1607169032.9689,-41
1607169032.9708,-36
1607169032.9729,-31
1607169032.9748,-31
1607169032.9785,-28
1607169032.9802,-28
1607169032.9818,-31
1607169032.9838,-24
1607169032.9858,-19
1607169032.9879,-16
1607169032.9898,-19
1607169032.9919,-21
1607169032.9946,-21
1607169032.9960,-26
1607169032.9980,-24
1607169032.9998,-14
1607169033.0026,-16
1607169033.0042,-24
1607169033.0060,-21
1607169033.0078,-16
1607169033.0120,-14
1607169033.0134,-12
1607169033.0149,-7
1607169033.0169,-16
1607169033.0189,-21
1607169033.0208,-9
1607169033.0229,-4
1607169033.0249,-9
1607169033.0284,-9
1607169033.0300,-4
1607169033.0321,-7
1607169033.0344,-9
1607169033.0359,-4
1607169033.0379,4
1607169033.0399,2
1607169033.0418,-4
1607169033.0451,4
1607169033.0472,12
1607169033.4635,4
1607169033.4659,-2
1607169033.4684,-4
1607169033.4710,-9
1607169033.4730,-14
1607169033.4750,-12
1607169033.4800,-2
1607169033.4815,-7
1607169033.4830,-14
1607169033.4850,-9
1607169033.4870,-2
1607169033.4890,0
1607169033.4911,16
1607169033.4930,36
1607169033.4972,38
1607169033.4993,28
1607169033.5010,24
1607169033.5030,19
1607169033.5050,4
1607169033.5070,-7
1607169033.5090,-7
1607169033.5127,0
1607169033.5144,12
1607169033.5160,14
1607169033.5182,4
1607169033.5200,-4
1607169033.5220,-16
1607169033.5240,12
1607169033.5260,246
1607169033.5301,815
1607169033.5323,1428
1607169033.5339,1406
1607169033.5359,518
1607169033.5380,-521
1607169033.5399,-740
1607169033.5419,-284
1607169033.5450,-65
1607169033.5470,-110
1607169033.5489,-48
1607169033.5509,9
1607169033.5529,-12
1607169033.5549,-2
1607169033.5569,24
1607169033.5589,26
1607169033.5619,26
1607169033.5632,43
1607169033.5651,57
1607169033.5669,57
1607169033.5689,57
1607169033.5709,67
1607169033.5729,74
1607169033.5749,89
1607169033.5791,108
1607169033.5812,113
1607169033.5829,118
1607169033.5849,137
1607169033.5869,154
1607169033.5889,161
1607169033.5909,178
1607169033.5929,205
1607169033.5956,236
1607169033.5971,270
1607169033.5984,306
1607169033.6000,345
1607169033.6025,369
1607169033.6040,390
1607169033.6060,410
1607169033.6080,412
1607169033.6124,388
1607169033.6141,354
1607169033.6159,301
1607169033.6180,197
1607169033.6199,79
1607169034.0337,-4
1607169034.0355,-72
1607169034.0373,-135
1607169034.0399,-166
1607169034.0416,-178
1607169034.0467,-188
1607169034.0484,-190
1607169034.0499,-183
1607169034.0516,-176
1607169034.0536,-176
1607169034.0556,-173
1607169034.0577,-154
1607169034.0624,-130
1607169034.0638,-120
1607169034.0660,-120
1607169034.0677,-113
1607169034.0696,-96
1607169034.0716,-77
1607169034.0728,-72
1607169034.0746,-69
1607169034.0791,-67
1607169034.0813,-65
1607169034.0833,-57
1607169034.0849,-53
1607169034.0866,-55
1607169034.0886,-55
1607169034.0906,-48
1607169034.0926,-48
1607169034.0966,-55
1607169034.0980,-53
1607169034.0996,-45
1607169034.1016,-45
1607169034.1036,-43
1607169034.1057,-41
1607169034.1068,-41
1607169034.1086,-36
1607169034.1124,-24
1607169034.1138,-26
1607169034.1156,-33
1607169034.1177,-33
1607169034.1196,-38
1607169034.1216,-43
1607169034.1236,-28
1607169034.1256,-21
1607169034.1292,-26
1607169034.1311,-19
1607169034.1326,-7
1607169034.1346,-16
1607169034.1366,-19
1607169034.1386,-7
1607169034.1399,-4
1607169034.1418,-9
1607169034.1505,-7
1607169034.1516,-4
1607169034.1536,-2
1607169034.1556,0
1607169034.1576,-2
1607169034.1596,-2
1607169034.1636,2
1607169034.1647,2
1607169034.1666,0
1607169034.1688,-4
1607169034.1706,-4
1607169034.1726,2
1607169034.1747,2
1607169034.1755,-4
1607169034.1784,-4
1607169034.1797,7
1607169034.1816,14
1607169034.1836,7
1607169034.1858,7
1607169034.1876,9
1607169034.1896,2
1607169034.5742,2
1607169034.5827,12
1607169034.5848,12
1607169034.5862,9
1607169034.5882,14
1607169034.5902,21
1607169034.5978,19
1607169034.5989,14
1607169034.6002,14
1607169034.6022,14
1607169034.6042,9
1607169034.6062,4
1607169034.6083,2
1607169034.6122,2
1607169034.6133,4
1607169034.6152,7
1607169034.6172,7
1607169034.6192,14
1607169034.6212,14
1607169034.6232,7
1607169034.6252,4
1607169034.6285,4
1607169034.6302,2
1607169034.6313,-2
1607169034.6332,0
1607169034.6352,4
1607169034.6372,4
1607169034.6392,7
1607169034.6412,14
1607169034.6474,9
1607169034.6487,4
1607169034.6502,4
1607169034.6522,7
1607169034.6542,9
1607169034.6563,4
1607169034.6582,9
1607169034.6617,16
1607169034.6633,9
1607169034.6652,4
1607169034.6660,16
1607169034.6672,33
1607169034.6692,41
1607169034.6712,45
1607169034.6732,50
1607169034.6752,45
1607169034.6785,31
1607169034.6804,9
1607169034.6822,4
1607169034.6842,16
1607169034.6862,19
1607169034.6883,14
1607169034.6905,19
1607169034.6923,16
1607169034.6956,0
1607169034.6972,-9
1607169034.6984,26
1607169034.7002,236
1607169034.7023,786
1607169034.7043,1421
1607169034.7063,1404
1607169034.7082,506
1607169034.7118,-506
1607169034.7133,-723
1607169034.7152,-304
1607169034.7172,-94
1607169034.7192,-118
1607169034.7212,-38
1607169034.7232,12
1607169034.7252,-21
1607169034.7286,-7
1607169034.7303,28
1607169034.7315,26
1607169034.7334,21
1607169035.1133,36
1607169035.1142,45
1607169035.1166,53
1607169035.1193,62
1607169035.1212,69
1607169035.1232,82
1607169035.1253,96
1607169035.1287,98
1607169035.1304,106
1607169035.1322,127
1607169035.1342,139
1607169035.1363,137
1607169035.1369,147
1607169035.1383,188
1607169035.1403,226
1607169035.1423,241
1607169035.1462,263
1607169035.1479,304
1607169035.1493,340
1607169035.1513,369
1607169035.1533,400
1607169035.1553,436
1607169035.1573,453
1607169035.1593,439
1607169035.1617,393
1607169035.1634,328
1607169035.1653,243
1607169035.1673,130
1607169035.1683,19
1607169035.1695,-69
1607169035.1713,-135
1607169035.1733,-171
1607169035.1753,-188
1607169035.1789,-197
1607169035.1806,-193
1607169035.1824,-185
1607169035.1843,-183
1607169035.1863,-173
1607169035.1884,-159
1607169035.1904,-144
1607169035.1923,-132
1607169035.1968,-123
1607169035.1991,-118
1607169035.2004,-106
1607169035.2030,-91
1607169035.2551,-86
1607169035.2614,-91
1607169035.3132,-84
1607169035.3156,-67
1607169035.3172,-69
1607169035.3193,-86
1607169035.3218,-72
1607169035.3232,-57
1607169035.3252,-74
1607169035.3278,-79
1607169035.3294,-65
1607169035.3313,-69
1607169035.3333,-77
1607169035.3352,-53
1607169035.3373,-38
1607169035.3392,-55
1607169035.3420,-67
1607169035.3544,-55
1607169035.3563,-50
1607169035.3583,-55
1607169035.3615,-55
1607169035.3633,-48
1607169035.3652,-38
1607169035.3673,-33
1607169035.3693,-41
1607169035.3713,-48
1607169035.3733,-36
1607169035.3794,-21
1607169035.6826,-21
1607169035.6831,-28
1607169035.6855,-24
1607169035.6881,-21
1607169035.6901,-31
1607169035.6921,-38
1607169035.6944,-28
1607169035.6962,-21
1607169035.6981,-21
1607169035.7001,-21
1607169035.7021,-24
1607169035.7041,-24
1607169035.7061,-16
1607169035.7081,-9
1607169035.7105,-7
1607169035.7121,-14
1607169035.7141,-21
1607169035.7161,-12
1607169035.7181,-4
1607169035.7201,-7
1607169035.7221,-9
1607169035.7241,-4
1607169035.7261,-2
1607169035.7282,-4
1607169035.7301,0
1607169035.7321,-2
1607169035.7341,-7
1607169035.7361,0
1607169035.7381,4
1607169035.7401,0
1607169035.7421,2
1607169035.7442,2
1607169035.7461,7
1607169035.7481,19
1607169035.7501,16
1607169035.7522,4
1607169035.7541,7
1607169035.7561,4
1607169035.7581,-4
1607169035.7606,-4
1607169035.7621,-4
1607169035.7641,-7
1607169035.7661,0
1607169035.7681,14
1607169035.7701,26
1607169035.7722,38
1607169035.7741,45
1607169035.7761,28
1607169035.7782,4
1607169035.7801,0
1607169035.7821,7
1607169035.7841,4
1607169035.7861,0
1607169035.7881,7
1607169035.7901,9
1607169035.7921,2
1607169035.7942,-9
1607169035.7961,-21
1607169035.7983,-4
1607169035.8001,139
1607169035.8022,603
1607169035.8041,1315
1607169035.8061,1590
1607169035.8082,892
1607169035.8101,-282
1607169035.8122,-834
1607169035.8141,-504
1607169035.8161,-166
1607169035.8182,-159
1607169035.8201,-91
1607169035.8221,2
1607169035.8241,-16
1607169035.8261,-26
1607169036.2235,7
1607169036.2276,14
1607169036.2300,9
1607169036.2326,26
1607169036.2352,33
1607169036.2366,28
1607169036.2388,31
1607169036.2406,45
1607169036.2426,57
1607169036.2446,72
1607169036.2646,82
1607169036.2656,79
1607169036.2676,98
1607169036.2696,132
1607169036.2718,144
1607169036.2737,144
1607169036.2764,171
1607169036.2787,207
1607169036.2807,226
1607169036.2826,258
1607169036.2846,304
1607169036.2866,330
1607169036.2886,364
1607169036.2906,412
1607169036.2925,443
1607169036.2946,453
1607169036.2966,443
1607169036.2986,407
1607169036.3006,337
1607169036.3026,226
1607169036.3046,94
1607169036.3066,-19
1607169036.3086,-101
1607169036.3106,-164
1607169036.3126,-200
1607169036.3146,-214
1607169036.3170,-226
1607169036.3186,-231
1607169036.3205,-214
1607169036.3225,-195
1607169036.3246,-190
1607169036.3266,-183
1607169036.3286,-164
1607169036.3306,-152
1607169036.3326,-147
1607169036.3346,-132
1607169036.3367,-110
1607169036.3386,-101
1607169036.3406,-94
1607169036.3426,-89
1607169036.3446,-86
1607169036.3467,-79
1607169036.3487,-74
1607169036.3506,-72
1607169036.3527,-65
1607169036.3547,-62
1607169036.3566,-65
1607169036.3586,-69
1607169036.3607,-65
1607169036.3627,-53
1607169036.3646,-55
1607169036.3666,-62
1607169036.3686,-60
1607169036.3706,-57
1607169036.3728,-62
1607169036.3746,-60
1607169036.3767,-50
1607169036.3786,-48
1607169036.3806,-53
1607169036.3827,-53
1607169036.3847,-41
1607169036.3866,-36
1607169036.3886,-41
1607169036.8230,-38
1607169036.8239,-31
1607169036.8471,-36
1607169036.8709,-48
1607169036.8754,-48
1607169036.8811,-36
1607169036.8821,-26
1607169036.8843,-26
1607169036.8860,-28
1607169036.8922,-28
1607169036.8941,-26
1607169036.8964,-24
1607169036.8980,-19
1607169036.9001,-14
1607169036.9023,-9
1607169036.9042,-9
1607169036.9060,-14
1607169036.9081,-21
1607169036.9104,-12
1607169036.9121,2
1607169036.9264,-4
1607169036.9310,-9
1607169036.9392,4
1607169036.9412,4
1607169036.9431,-4
1607169036.9456,-9
1607169036.9471,-12
1607169036.9492,-12
1607169036.9512,-14
1607169036.9531,-7
1607169036.9551,12
1607169036.9571,28
1607169036.9593,38
1607169036.9610,33
1607169036.9624,2
1607169036.9644,-21
1607169036.9663,-4
1607169036.9681,16
1607169036.9705,4
1607169036.9722,-14
1607169036.9741,-9
1607169036.9762,7
1607169036.9783,7
1607169036.9806,-12
1607169036.9822,-28
1607169036.9841,4
1607169036.9861,217
1607169036.9882,784
1607169036.9901,1447
1607169036.9908,1464
1607169036.9921,559
1607169036.9943,-528
1607169036.9964,-781
1607169036.9982,-325
1607169037.0002,-94
1607169037.0023,-125
1607169037.0041,-45
1607169037.0061,0
1607169037.0082,-36
1607169037.0106,-14
1607169037.0123,21
1607169037.0144,9
1607169037.0161,4
1607169037.0182,26
1607169037.0202,38
1607169037.0215,33
1607169037.0232,33
1607169037.0251,50
1607169037.0273,69
1607169037.0294,69
1607169037.0311,69
1607169037.0331,89
1607169037.0352,103
1607169037.3946,110
1607169037.3973,125
1607169037.3999,152
1607169037.4025,173
1607169037.4054,190
1607169037.4080,214
1607169037.4096,253
1607169037.4113,291
1607169037.4133,313
1607169037.4153,337
1607169037.4173,374
1607169037.4195,400
1607169037.4227,393
1607169037.4253,361
1607169037.4288,308
1607169037.4303,221
1607169037.4323,115
1607169037.4343,14
1607169037.4363,-72
1607169037.4383,-142
1607169037.4403,-183
1607169037.4415,-202
1607169037.4436,-214
1607169037.4453,-221
1607169037.4473,-214
1607169037.4493,-205
1607169037.4513,-195
1607169037.4533,-183
1607169037.4553,-171
1607169037.4572,-152
1607169037.4595,-137
1607169037.4618,-132
1607169037.4644,-123
1607169037.4671,-103
1607169037.4689,-98
1607169037.4702,-98
1607169037.4723,-94
1607169037.4735,-82
1607169037.4753,-69
1607169037.4773,-60
1607169037.4793,-57
1607169037.4812,-60
1607169037.4833,-60
1607169037.4857,-60
1607169037.4873,-60
1607169037.4893,-55
1607169037.4912,-57
1607169037.4933,-53
1607169037.4953,-41
1607169037.4973,-50
1607169037.4994,-65
1607169037.5016,-53
1607169037.5043,-38
1607169037.5068,-48
1607169037.5092,-53
1607169037.5104,-41
1607169037.5123,-41
1607169037.5143,-41
1607169037.5163,-33
1607169037.5184,-28
1607169037.5203,-26
1607169037.5223,-24
1607169037.5243,-31
1607169037.5263,-33
1607169037.5283,-26
1607169037.5303,-16
1607169037.5323,-19
1607169037.5343,-26
1607169037.5362,-21
1607169037.5378,-9
1607169037.5410,-7
1607169037.5436,-9
1607169037.5462,-4
1607169037.9336,-2
1607169037.9352,-12
1607169037.9377,-14
1607169037.9404,-2
1607169037.9423,4
1607169037.9443,0
1607169037.9465,-4
1607169037.9483,-12
1607169037.9503,-14
1607169037.9526,-14
1607169037.9539,-16
1607169037.9553,-21
1607169037.9576,-19
1607169037.9599,-14
1607169037.9622,-12
1607169037.9644,-12
1607169037.9681,-9
1607169037.9694,-7
1607169037.9713,-4
1607169037.9734,0
1607169037.9753,0
1607169037.9777,-2
1607169037.9794,-4
1607169037.9813,2
1607169037.9834,7
1607169037.9853,4
1607169037.9866,2
1607169037.9883,7
1607169037.9904,4
1607169037.9923,2
1607169037.9944,9
1607169037.9964,14
1607169037.9984,14
1607169038.0003,14
1607169038.0025,19
1607169038.0043,16
1607169038.0065,12
1607169038.0084,4
1607169038.0104,9
1607169038.0123,24
1607169038.0143,28
1607169038.0163,16
1607169038.0176,12
1607169038.0193,19
1607169038.0214,21
1607169038.0238,24
1607169038.0254,26
1607169038.0276,19
1607169038.0293,7
1607169038.0314,12
1607169038.0335,26
1607169038.0353,31
1607169038.0373,21
1607169038.0393,24
1607169038.0413,36
1607169038.0434,33
1607169038.0453,21
1607169038.0465,16
1607169038.0483,19
1607169038.0503,28
1607169038.0525,38
1607169038.0543,28
1607169038.0564,19
1607169038.0586,21
1607169038.0609,26
1607169038.0631,28
1607169038.0652,21
1607169038.0678,14
1607169038.0691,12
1607169038.0703,16
1607169038.0724,38
1607169038.0743,55
1607169038.0768,48
1607169038.5043,33
1607169038.5071,31
1607169038.5097,28
1607169038.5124,9
1607169038.5146,-2
1607169038.5167,4
1607169038.5187,0
1607169038.5201,-9
1607169038.5221,-4
1607169038.5241,2
1607169038.5261,-19
1607169038.5283,-36
1607169038.5307,31
1607169038.5333,325
1607169038.5354,933
1607169038.5376,1452
1607169038.5392,1216
1607169038.5411,221
1607169038.5431,-656
1607169038.5451,-649
1607169038.5471,-202
1607169038.5491,-82
1607169038.5511,-123
1607169038.5531,-45
1607169038.5551,-14
1607169038.5571,-41
1607169038.5591,-28
1607169038.5611,-12
1607169038.5631,-4
1607169038.5651,7
1607169038.5672,9
1607169038.5699,12
1607169038.5724,33
1607169038.5746,45
1607169038.5767,43
1607169038.5790,48
1607169038.5803,60
1607169038.5821,67
1607169038.5841,84
1607169038.5861,101
1607169038.5881,113
1607169038.5902,125
1607169038.5921,139
1607169038.5941,164
1607169038.5961,195
1607169038.5981,221
1607169038.6002,243
1607169038.6021,279
1607169038.6033,320
1607169038.6051,337
1607169038.6075,361
1607169038.6102,395
1607169038.6128,405
1607169038.6153,386
1607169038.6175,347
1607169038.6194,279
1607169038.6211,180
1607169038.6232,84
1607169038.6251,7
1607169038.6272,-69
1607169038.6291,-135
1607169038.6311,-164
1607169038.6332,-178
1607169038.6351,-185
1607169038.6365,-183
1607169038.6382,-183
1607169038.6401,-176
1607169038.6421,-159
1607169038.6442,-147
1607169038.6461,-142
1607169038.6481,-130
1607169038.6501,-115
1607169038.6521,-110
1607169039.0429,-106
1607169039.0436,-96
1607169039.0457,-84
1607169039.0477,-67
1607169039.0496,-62
1607169039.0516,-72
1607169039.0536,-72
1607169039.0556,-69
1607169039.0576,-82
1607169039.0596,-91
1607169039.0616,-79
1607169039.0636,-72
1607169039.0656,-74
1607169039.0677,-72
1607169039.0696,-65
1607169039.0716,-67
1607169039.0736,-69
1607169039.0756,-67
1607169039.0763,-57
1607169039.0777,-50
1607169039.0796,-50
1607169039.0816,-53
1607169039.0836,-53
1607169039.0856,-55
1607169039.0877,-57
1607169039.0896,-50
1607169039.0916,-38
1607169039.0935,-38
1607169039.0958,-50
1607169039.0978,-41
1607169039.0996,-24
1607169039.1016,-24
1607169039.1036,-31
1607169039.1056,-33
1607169039.1139,-26
1607169039.1157,-16
1607169039.1177,-19
1607169039.1196,-31
1607169039.1216,-28
1607169039.1236,-12
1607169039.1256,-7
1607169039.1277,-14
1607169039.1296,-19
1607169039.1316,-14
1607169039.1336,-7
1607169039.1357,-4
1607169039.1377,-9
1607169039.1396,-12
1607169039.1416,-7
1607169039.1423,-2
1607169039.1436,-2
1607169039.1456,-7
1607169039.1477,-4
1607169039.1496,0
1607169039.1516,-4
1607169039.1536,-2
1607169039.1556,9
1607169039.1577,4
1607169039.1596,-9
1607169039.1621,-9
1607169039.1636,-2
1607169039.1656,-7
1607169039.1680,-9
1607169039.1696,0
1607169039.1716,12
1607169039.1723,9
1607169039.1736,2
1607169039.1756,2
1607169039.1777,9
1607169039.1796,12
1607169039.1816,9
1607169039.1836,7
1607169039.1856,4
1607169039.6453,7
1607169039.6485,16
1607169039.6509,12
1607169039.6536,4
1607169039.6556,12
1607169039.6578,9
1607169039.6613,0
1607169039.6637,0
1607169039.6661,12
1607169039.6686,9
1607169039.6698,2
1607169039.6716,7
1607169039.6738,16
1607169039.6756,12
1607169039.6776,4
1607169039.6796,0
1607169039.6816,-4
1607169039.6836,4
1607169039.6856,12
1607169039.6877,4
1607169039.6896,7
1607169039.6916,31
1607169039.6937,53
1607169039.6956,45
1607169039.6968,36
1607169039.6991,24
1607169039.7015,4
1607169039.7037,-14
1607169039.7059,-12
1607169039.7084,2
1607169039.7096,2
1607169039.7116,-9
1607169039.7136,-4
1607169039.7156,4
1607169039.7178,-14
1607169039.7212,-26
1607169039.7234,21
1607169039.7256,250
1607169039.7279,827
1607169039.7296,1481
1607169039.7308,1435
1607169039.7326,477
1607169039.7349,-562
1607169039.7366,-767
1607169039.7386,-347
1607169039.7406,-139
1607169039.7426,-144
1607169039.7446,-53
1607169039.7466,-4
1607169039.7486,-33
1607169039.7506,-24
1607169039.7526,-2
1607169039.7547,2
1607169039.7566,19
1607169039.7589,36
1607169039.7616,33
1607169039.7638,36
1607169039.7665,48
1607169039.7684,53
1607169039.7697,55
1607169039.7716,77
1607169039.7736,96
1607169039.7756,101
1607169039.7776,108
1607169039.7799,130
1607169039.7816,144
1607169039.7836,154
1607169039.7857,178
1607169039.7878,219
1607169039.7900,253
1607169039.7922,272
1607169039.7946,304
1607169039.7974,337
1607169040.2135,366
1607169040.2144,405
1607169040.2169,436
1607169040.2196,446
1607169040.2215,431
1607169040.2236,386
1607169040.2257,301
1607169040.2275,197
1607169040.2300,91
1607169040.2315,-2
1607169040.2342,-84
1607169040.2357,-159
1607169040.2376,-200
1607169040.2384,-209
1607169040.2408,-221
1607169040.2425,-229
1607169040.2445,-219
1607169040.2490,-200
1607169040.2505,-178
1607169040.2525,-159
1607169040.2545,-149
1607169040.2565,-142
1607169040.2586,-132
1607169040.2605,-118
1607169040.2625,-108
1607169040.2647,-103
1607169040.2666,-96
1607169040.2687,-86
1607169040.2705,-79
1607169040.2712,-79
1607169040.2735,-84
1607169040.2755,-77
1607169040.2775,-65
1607169040.2795,-60
1607169040.2816,-62
1607169040.2837,-69
1607169040.2854,-72
1607169040.2875,-72
1607169040.2895,-69
1607169040.2915,-65
1607169040.2936,-62
1607169040.2958,-65
1607169040.2975,-60
1607169040.2995,-60
1607169040.3016,-67
1607169040.3022,-62
1607169040.3034,-57
1607169040.3055,-57
1607169040.3075,-53
1607169040.3095,-48
1607169040.3115,-50
1607169040.3135,-43
1607169040.3155,-36
1607169040.3175,-36
1607169040.3195,-33
1607169040.3218,-33
1607169040.3235,-36
1607169040.3256,-31
1607169040.3298,-28
1607169040.3321,-31
1607169040.3335,-24
1607169040.3341,-19
1607169040.3416,-21
1607169040.3463,-21
1607169040.3477,-16
1607169040.3494,-14
1607169040.3513,-14
1607169040.3533,-9
1607169040.3553,-4
1607169040.3573,-9
1607169040.3593,-12
1607169040.3615,-2
1607169040.3636,-2
1607169040.7530,-12
1607169040.7539,-12
1607169040.7562,-2
1607169040.7590,0
1607169040.7610,-7
1607169040.7630,0
1607169040.7652,7
1607169040.7671,-2
1607169040.7733,-9
1607169040.7750,-7
1607169040.7774,-12
1607169040.7790,-19
1607169040.7811,-24
1607169040.7833,-14
1607169040.7850,9
1607169040.7869,24
1607169040.7890,26
1607169040.7899,16
1607169040.7910,-7
1607169040.7930,-24
1607169040.7951,-24
1607169040.7971,-14
1607169040.7990,-7
1607169040.8010,-7
1607169040.8030,-14
1607169040.8050,-14
1607169040.8070,-14
1607169040.8090,-24
1607169040.8110,-36
1607169040.8130,-19
1607169040.8150,130
1607169040.8170,612
1607169040.8190,1327
1607169040.8198,1541
1607169040.8210,789
1607169040.8232,-354
1607169040.8250,-822
1607169040.8313,-451
1607169040.8326,-130
1607169040.8340,-135
1607169040.8360,-86
1607169040.8380,-14
1607169040.8553,-33
1607169040.8560,-36
1607169040.8571,-2
1607169040.8591,7
1607169040.8614,7
1607169040.8634,16
1607169040.8642,28
1607169040.8660,41
1607169040.8682,45
1607169040.8701,48
1607169040.8721,57
1607169040.8728,74
1607169040.8751,86
1607169040.8776,94
1607169040.8787,103
1607169040.8805,118
1607169040.8812,137
1607169040.8831,159
1607169040.8852,176
1607169040.8882,195
1607169040.8901,221
1607169040.8909,246
1607169040.8934,284
1607169040.8958,330
1607169040.8971,357
1607169040.8991,381
1607169040.9011,412
1607169040.9031,422
1607169040.9051,405
1607169040.9071,366
1607169040.9091,287
1607169041.2933,173
1607169041.2951,67
1607169041.2969,-21
1607169041.2986,-103
1607169041.3036,-156
1607169041.3041,-161
1607169041.3055,-173
1607169041.3145,-205
1607169041.3245,-209
1607169041.3270,-195
1607169041.3316,-190
1607169041.3336,-185
1607169041.3445,-168
1607169041.3461,-156
1607169041.3467,-147
1607169041.3485,-135
1607169041.3505,-120
1607169041.3525,-108
1607169041.3545,-106
1607169041.3566,-106
1607169041.3585,-101
1607169041.3606,-94
1607169041.3626,-89
1607169041.3645,-77
1607169041.3665,-65
1607169041.3685,-62
1607169041.3705,-67
1607169041.3725,-62
1607169041.3745,-62
1607169041.3765,-72
1607169041.3772,-77
1607169041.3785,-74
1607169041.3805,-62
1607169041.3825,-57
1607169041.3845,-57
1607169041.3865,-55
1607169041.3886,-53
1607169041.3906,-50
1607169041.3925,-45
1607169041.3945,-45
1607169041.3965,-48
1607169041.3985,-45
1607169041.4007,-45
1607169041.4025,-41
1607169041.4045,-28
1607169041.4065,-28
1607169041.4072,-36
1607169041.4085,-33
1607169041.4105,-26
1607169041.4125,-21
1607169041.4145,-16
1607169041.4166,-16
1607169041.4185,-14
1607169041.4205,-19
1607169041.4225,-21
1607169041.4245,-16
1607169041.4265,-12
1607169041.4285,-7
1607169041.4305,-2
1607169041.4325,-7
1607169041.4345,-12
1607169041.4365,-7
1607169041.4372,-9
1607169041.4385,-7
1607169041.4405,-2
1607169041.4425,2
1607169041.4446,-2
1607169041.4466,-2
1607169041.4486,2
1607169041.4493,2
1607169041.4516,0
1607169041.4535,2
1607169041.4556,9
1607169041.8633,4
1607169041.8647,0
1607169041.8660,0
1607169041.8680,0
1607169041.8702,9
1607169041.8720,12
1607169041.8742,-9
1607169041.8760,-21
1607169041.8780,-2
1607169041.8800,12
1607169041.8814,4
1607169041.8830,-2
1607169041.8852,-2
1607169041.8955,2
1607169041.8968,4
1607169041.8980,0
1607169041.9000,0
1607169041.9023,12
1607169041.9031,9
1607169041.9050,4
1607169041.9072,9
1607169041.9092,12
1607169041.9112,4
1607169041.9124,-2
1607169041.9141,7
1607169041.9160,16
1607169041.9181,7
1607169041.9201,0
1607169041.9221,2
1607169041.9241,12
1607169041.9261,16
1607169041.9281,12
1607169041.9301,7
1607169041.9320,12
1607169041.9341,19
1607169041.9361,43
1607169041.9381,60
1607169041.9401,50
1607169041.9420,33
1607169041.9432,19
1607169041.9450,4
1607169041.9471,4
1607169041.9491,14
1607169041.9511,16
1607169041.9531,12
1607169041.9550,7
1607169041.9570,4
1607169041.9591,-2
1607169041.9611,-21
1607169041.9630,-14
1607169041.9651,106
1607169041.9670,511
1607169041.9691,1187
1607169041.9710,1532
1607169041.9730,957
1607169041.9745,-178
1607169041.9760,-786
1607169041.9781,-489
1607169041.9800,-125
1607169041.9821,-123
1607169041.9841,-101
1607169041.9861,-19
1607169041.9881,-31
1607169041.9901,-41
1607169041.9920,-2
1607169041.9940,7
1607169041.9961,2
1607169041.9981,12
1607169042.0000,21
1607169042.0020,31
1607169042.0040,45
1607169042.0051,53
1607169042.0059,57
1607169042.4033,65
1607169042.4049,72
1607169042.4074,77
1607169042.4104,94
1607169042.4126,115
1607169042.4147,125
1607169042.4170,135
1607169042.4192,144
1607169042.4210,166
1607169042.4230,202
1607169042.4250,234
1607169042.4271,255
1607169042.4297,282
1607169042.4320,323
1607169042.4341,359
1607169042.4363,383
1607169042.4387,393
1607169042.4402,390
1607169042.4420,361
1607169042.4440,304
1607169042.4460,217
1607169042.4481,110
1607169042.4500,4
1607169042.4521,-72
1607169042.4540,-118
1607169042.4560,-152
1607169042.4586,-180
1607169042.4609,-193
1607169042.4631,-190
1607169042.4653,-185
1607169042.4674,-178
1607169042.4694,-168
1607169042.4711,-154
1607169042.4730,-144
1607169042.4750,-137
1607169042.4771,-125
1607169042.4794,-113
1607169042.4810,-103
1607169042.4830,-91
1607169042.4850,-89
1607169042.4870,-86
1607169042.4891,-72
1607169042.4910,-69
1607169042.4932,-74
1607169042.4978,-69
1607169042.5033,-60
1607169042.5244,-57
1607169042.5266,-60
1607169042.5295,-57
1607169042.5322,-60
1607169042.5345,-62
1607169042.5369,-57
1607169042.5390,-53
1607169042.5402,-50
1607169042.5421,-43
1607169042.5433,-50
1607169042.5451,-57
1607169042.5471,-53
1607169042.5492,-43
1607169042.5511,-41
1607169042.5531,-41
1607169042.5551,-33
1607169042.5571,-38
1607169042.5594,-41
1607169042.5618,-33
1607169042.5639,-31
1607169042.5662,-36
1607169042.5684,-28
1607169042.5702,-24
1607169042.5722,-26
1607169042.5741,-28
1607169042.5753,-28
1607169042.5773,-24
1607169042.9738,-16
1607169042.9756,-14
1607169042.9782,-21
1607169042.9885,-21
1607169042.9897,-24
1607169042.9917,-31
1607169042.9983,-24
1607169043.0005,-19
1607169043.0018,-28
1607169043.0037,-33
1607169043.0057,-26
1607169043.0065,-19
1607169043.0078,-16
1607169043.0097,-19
1607169043.0133,-19
1607169043.0150,-12
1607169043.0167,-7
1607169043.0189,-12
1607169043.0207,-9
1607169043.0227,0
1607169043.0247,0
1607169043.0269,-9
1607169043.0311,-9
1607169043.0331,4
1607169043.0348,7
1607169043.0368,-4
1607169043.0388,-7
1607169043.0405,0
1607169043.0422,-4
1607169043.0465,-2
1607169043.0486,4
1607169043.0501,2
1607169043.0519,4
1607169043.0538,12
1607169043.0559,7
1607169043.0579,2
1607169043.0599,7
1607169043.0677,9
1607169043.0692,7
1607169043.0709,0
1607169043.0729,0
1607169043.0749,14
1607169043.0769,19
1607169043.0806,12
1607169043.0822,12
1607169043.0842,12
1607169043.0859,12
1607169043.0879,14
1607169043.0899,14
1607169043.0919,12
1607169043.0968,14
1607169043.0985,14
1607169043.1001,7
1607169043.1026,7
1607169043.1039,16
1607169043.1059,21
1607169043.1079,16
1607169043.1099,12
1607169043.1137,7
1607169043.1152,12
1607169043.1169,16
1607169043.1189,12
1607169043.1209,7
1607169043.1230,7
1607169043.1249,4
1607169043.1302,2
1607169043.1318,7
1607169043.1333,16
1607169043.1349,16
1607169043.1370,16
1607169043.1389,19
1607169043.1409,12
1607169043.1433,7
1607169043.5734,2
1607169043.5746,4
1607169043.5764,7
1607169043.5790,0
1607169043.5808,-7
1607169043.5830,-16
1607169043.5847,-24
1607169043.5867,-16
1607169043.5887,-9
1607169043.5907,-24
1607169043.5927,-38
1607169043.5960,-24
1607169043.5980,98
1607169043.5997,506
1607169043.6017,1199
1607169043.6037,1537
1607169043.6057,936
1607169043.6077,-195
1607169043.6085,-796
1607169043.6097,-521
1607169043.6124,-171
1607169043.6140,-149
1607169043.6157,-106
1607169043.6177,-16
1607169043.6197,-28
1607169043.6217,-38
1607169043.6237,-4
1607169043.6257,4
1607169043.6291,0
1607169043.6308,14
1607169043.6327,31
1607169043.6347,36
1607169043.6367,38
1607169043.6387,45
1607169043.6395,60
1607169043.6407,65
1607169043.6427,72
1607169043.6473,91
1607169043.6489,108
1607169043.6507,120
1607169043.6527,132
1607169043.6547,149
1607169043.6567,166
1607169043.6587,185
1607169043.6623,209
1607169043.6638,238
1607169043.6658,272
1607169043.6714,306
1607169043.6754,337
1607169043.6766,366
1607169043.6799,395
1607169043.6818,412
1607169043.6837,410
1607169043.6857,393
1607169043.6878,345
1607169043.6897,246
1607169043.6920,130
1607169043.6958,28
1607169043.6971,-55
1607169043.6987,-123
1607169043.7007,-164
1607169043.7027,-190
1607169043.7047,-207
1607169043.7068,-205
1607169043.7088,-193
1607169043.7100,-190
1607169043.7145,-193
1607169043.7163,-180
1607169043.7178,-164
1607169043.7200,-154
1607169043.7217,-139
1607169043.7238,-123
1607169043.7257,-110
1607169044.1141,-101
1607169044.1163,-96
1607169044.1187,-91
1607169044.1204,-89
1607169044.1224,-84
1607169044.1232,-77
1607169044.1244,-74
1607169044.1263,-77
1607169044.1302,-74
1607169044.1314,-74
1607169044.1334,-79
1607169044.1356,-77
1607169044.1374,-74
1607169044.1393,-77
1607169044.1414,-79
1607169044.1434,-74
1607169044.1598,-69
1607169044.1636,-67
1607169044.1646,-67
1607169044.1665,-67
1607169044.1685,-65
1607169044.1695,-57
1607169044.1704,-55
1607169044.1725,-55
1607169044.1745,-53
1607169044.1765,-50
1607169044.1785,-48
1607169044.1806,-38
1607169044.1825,-31
1607169044.1845,-33
1607169044.1865,-33
1607169044.1886,-31
1607169044.1906,-33
1607169044.1926,-33
1607169044.1950,-31
1607169044.1966,-28
1607169044.1987,-21
1607169044.2008,-16
1607169044.2026,-21
1607169044.2046,-21
1607169044.2066,-16
1607169044.2086,-21
1607169044.2120,-19
1607169044.2140,-14
1607169044.2189,-16
1607169044.2206,-19
1607169044.2226,-16
1607169044.2246,-9
1607169044.2266,-7
1607169044.2303,-16
1607169044.2360,-14
1607169044.2378,-7
1607169044.2395,-7
1607169044.2404,-9
1607169044.2415,-14
1607169044.2435,-4
1607169044.2458,14
1607169044.2489,14
1607169044.2512,-4
1607169044.2525,-9
1607169044.2545,-4
1607169044.2566,-7
1607169044.2585,-9
1607169044.2618,-4
1607169044.2636,-4
1607169044.2667,-9
1607169044.2687,-7
1607169044.2709,4
1607169044.2726,9
1607169044.2739,2
1607169044.2756,-9
1607169044.2792,-14
1607169044.2886,-16
1607169044.6841,-14
1607169044.6860,-7
1607169044.6885,-4
1607169044.6911,-14
1607169044.6931,-19
1607169044.6980,-7
1607169044.6998,-2
1607169044.7011,-9
1607169044.7031,-14
1607169044.7051,-16
1607169044.7071,-14
1607169044.7084,-12
1607169044.7166,-12
1607169044.7202,-14
1607169044.7217,-14
1607169044.7232,-9
1607169044.7252,-4
1607169044.7320,0
1607169044.7341,-2
1607169044.7354,-7
1607169044.7371,-4
1607169044.7392,0
1607169044.7412,4
1607169044.7433,4
1607169044.7453,0
1607169044.7471,0
1607169044.7491,4
1607169044.7499,2
1607169044.7511,4
1607169044.7531,21
1607169044.7551,19
1607169044.7571,0
1607169044.7591,-2
1607169044.7623,12
1607169044.7643,12
1607169044.7661,4
1607169044.7681,9
1607169044.7701,12
1607169044.7721,12
1607169044.7741,16
1607169044.7761,19
1607169044.7794,14
1607169044.7813,7
1607169044.7824,2
1607169044.7841,7
1607169044.7861,24
1607169044.7881,41
1607169044.7903,57
1607169044.7921,48
1607169044.7992,16
1607169044.8011,7
1607169044.8029,9
1607169044.8042,4
1607169044.8062,9
1607169044.8081,16
1607169044.8102,9
1607169044.8174,9
1607169044.8197,7
1607169044.8206,-7
1607169044.8222,-9
1607169044.8241,89
1607169044.8261,465
1607169044.8299,1119
1607169044.8317,1508
1607169044.8332,1044
1607169044.8351,-38
1607169044.8372,-740
1607169044.8391,-533
1607169044.8411,-132
1607169044.8431,-94
1607169044.8459,-89
1607169044.8473,-9
1607169044.8491,-12
1607169045.2238,-24
1607169045.2254,9
1607169045.2298,19
1607169045.2317,12
1607169045.2335,24
1607169045.2359,38
1607169045.2377,43
1607169045.2395,55
1607169045.2415,62
1607169045.2435,57
1607169045.2475,62
1607169045.2491,74
1607169045.2506,86
1607169045.2525,98
1607169045.2545,115
1607169045.2557,127
1607169045.2581,144
1607169045.2595,164
1607169045.2638,178
1607169045.2657,202
1607169045.2675,231
1607169045.2694,260
1607169045.2714,291
1607169045.2735,325
1607169045.2754,354
1607169045.2796,381
1607169045.2815,398
1607169045.2835,395
1607169045.2856,378
1607169045.2875,342
1607169045.2894,272
1607169045.2902,176
1607169045.2914,74
1607169045.2934,-21
1607169045.2967,-94
1607169045.2987,-149
1607169045.3004,-183
1607169045.3025,-193
1607169045.3044,-190
1607169045.3064,-190
1607169045.3084,-183
1607169045.3126,-173
1607169045.3136,-164
1607169045.3155,-154
1607169045.3175,-147
1607169045.3195,-135
1607169045.3215,-120
1607169045.3227,-110
1607169045.3245,-110
1607169045.3265,-101
1607169045.3309,-84
1607169045.3326,-77
1607169045.3344,-77
1607169045.3364,-79
1607169045.3384,-82
1607169045.3404,-77
1607169045.3424,-77
1607169045.3463,-82
1607169045.3599,-69
1607169045.3655,-48
1607169045.3666,-50
1607169045.3686,-65
1607169045.3706,-67
1607169045.3715,-60
1607169045.3726,-57
1607169045.3746,-60
1607169045.3766,-55
1607169045.3786,-53
1607169045.3806,-55
1607169045.3830,-50
1607169045.3846,-43
1607169045.3868,-48
1607169045.3887,-50
1607169045.7992,-45
1607169045.8006,-38
1607169045.8018,-36
1607169045.8037,-33
1607169045.8057,-31
1607169045.8065,-31
1607169045.8077,-38
1607169045.8096,-45
1607169045.8126,-38
1607169045.8138,-36
1607169045.8156,-38
1607169045.8177,-41
1607169045.8197,-41
1607169045.8216,-38
1607169045.8237,-31
1607169045.8256,-31
1607169045.8294,-36
1607169045.8308,-36
1607169045.8327,-33
1607169045.8352,-33
1607169045.8367,-36
1607169045.8375,-33
1607169045.8386,-26
1607169045.8406,-26
1607169045.8426,-24
1607169045.8458,-21
1607169045.8480,-28
1607169045.8496,-26
1607169045.8516,-16
1607169045.8536,-14
1607169045.8556,-16
1607169045.8577,-19
1607169045.8598,-16
1607169045.8647,-12
1607169045.8669,-9
1607169045.8689,-12
1607169045.8711,-19
1607169045.8724,-19
1607169045.8738,-12
1607169045.8758,-12
1607169045.8798,-16
1607169045.8830,-14
1607169045.8843,-4
1607169045.8858,-2
1607169045.8878,-9
1607169045.8898,-12
1607169045.8918,-12
1607169045.8965,-9
1607169045.8982,-4
1607169045.8998,0
1607169045.9024,2
1607169045.9038,-2
1607169045.9059,-2
1607169045.9072,-2
1607169045.9088,-2
1607169045.9131,2
1607169045.9148,7
1607169045.9167,2
1607169045.9187,2
1607169045.9208,9
1607169045.9228,7
1607169045.9389,14
1607169045.9399,21
1607169045.9418,12
1607169045.9455,4
1607169045.9469,7
1607169045.9489,12
1607169045.9508,14
1607169045.9528,12
1607169045.9536,12
1607169045.9551,9
1607169045.9568,14
1607169045.9588,24
1607169046.3336,26
1607169046.3348,16
1607169046.3372,12
1607169046.3398,14
1607169046.3418,14
1607169046.3462,9
1607169046.3480,7
1607169046.3499,7
1607169046.3519,0
1607169046.3539,-4
1607169046.3551,4
1607169046.3569,19
1607169046.3589,31
1607169046.3635,41
1607169046.3658,41
1607169046.3670,24
1607169046.3688,2
1607169046.3708,4
1607169046.3728,9
1607169046.3748,0
1607169046.3768,0
1607169046.3796,16
1607169046.3809,9
1607169046.3828,-9
1607169046.3848,-16
1607169046.3868,-4
1607169046.3877,94
1607169046.3888,460
1607169046.3908,1107
1607169046.3928,1493
1607169046.3960,1015
1607169046.3981,-67
1607169046.3998,-745
1607169046.4018,-535
1607169046.4038,-156
1607169046.4059,-115
1607169046.4079,-96
1607169046.4098,-9
1607169046.4125,-9
1607169046.4140,-28
1607169046.4158,-4
1607169046.4178,12
1607169046.4190,4
1607169046.4198,19
1607169046.4218,45
1607169046.4238,50
1607169046.4258,43
1607169046.4293,55
1607169046.4316,69
1607169046.4330,67
1607169046.4348,77
1607169046.4368,96
1607169046.4388,108
1607169046.4408,118
1607169046.4428,127
1607169046.4461,147
1607169046.4481,166
1607169046.4498,178
1607169046.4506,202
1607169046.4518,236
1607169046.4541,260
1607169046.4558,289
1607169046.4578,335
1607169046.4598,366
1607169046.4626,386
1607169046.4644,402
1607169046.4660,405
1607169046.4680,388
1607169046.4699,352
1607169046.4719,277
1607169046.4739,173
1607169046.4759,74
1607169046.4807,-7
1607169046.9336,-89
1607169046.9350,-154
1607169046.9374,-180
1607169046.9400,-188
1607169046.9420,-202
1607169046.9570,-217
1607169046.9592,-209
1607169046.9654,-190
1607169046.9777,-183
1607169046.9791,-176
1607169046.9799,-152
1607169046.9808,-130
1607169046.9837,-125
1607169046.9871,-118
1607169046.9892,-110
1607169046.9912,-108
1607169046.9932,-101
1607169046.9952,-86
1607169046.9972,-84
1607169046.9999,-82
1607169047.0064,-79
1607169047.0083,-84
1607169047.0102,-91
1607169047.0130,-86
1607169047.0179,-79
1607169047.0201,-79
1607169047.0217,-84
1607169047.0228,-82
1607169047.0243,-74
1607169047.0263,-74
1607169047.0348,-79
1607169047.0366,-72
1607169047.0385,-60
1607169047.0402,-62
1607169047.0422,-72
1607169047.0508,-69
1607169047.0523,-65
1607169047.0543,-62
1607169047.0563,-48
1607169047.0584,-38
1607169047.0603,-50
1607169047.0626,-57
1607169047.0669,-50
1607169047.0678,-48
1607169047.0695,-48
1607169047.0712,-41
1607169047.0731,-33
1607169047.0752,-36
1607169047.0780,-36
1607169047.0827,-36
1607169047.0835,-38
1607169047.0855,-36
1607169047.0872,-31
1607169047.0892,-38
1607169047.0912,-48
1607169047.0932,-41
1607169047.0953,-36
1607169047.0972,-36
1607169047.0992,-31
1607169047.0998,-31
1607169047.1012,-31
1607169047.1032,-28
1607169047.1052,-33
1607169047.1072,-43
1607169047.1093,-38
1607169047.1121,-21
1607169047.1134,-12
1607169047.1152,-19
1607169047.1172,-28
1607169047.1192,-26
1607169047.1212,-16
1607169047.1233,-21
1607169047.1252,-21
1607169047.5024,-14
1607169047.5032,-12
1607169047.5046,-14
1607169047.5066,-9
1607169047.5088,-4
1607169047.5119,-7
1607169047.5137,-4
1607169047.5156,-7
1607169047.5176,-9
1607169047.5196,-12
1607169047.5216,-16
1607169047.5236,-19
1607169047.5256,-16
1607169047.5262,-16
1607169047.5284,-16
1607169047.5305,-19
1607169047.5317,-19
1607169047.5379,-12
1607169047.5385,-9
1607169047.5396,-16
1607169047.5416,-19
1607169047.5436,-14
1607169047.5457,-12
1607169047.5477,-9
1607169047.5496,-4
1607169047.5518,-4
1607169047.5537,-2
1607169047.5556,7
1607169047.5578,2
1607169047.5584,-7
1607169047.5597,-12
1607169047.5621,0
1607169047.5640,14
1607169047.5657,9
1607169047.5677,-2
1607169047.5699,2
1607169047.5717,4
1607169047.5737,-7
1607169047.5757,0
1607169047.5790,26
1607169047.5807,19
1607169047.5827,-2
1607169047.5847,2
1607169047.5868,14
1607169047.5887,19
1607169047.5894,38
1607169047.5907,57
1607169047.5927,43
1607169047.5965,14
1607169047.5980,4
1607169047.5996,9
1607169047.6022,4
1607169047.6036,-7
1607169047.6057,-4
1607169047.6077,9
1607169047.6099,9
1607169047.6127,-9
1607169047.6147,-24
1607169047.6167,2
1607169047.6188,132
1607169047.6209,530
1607169047.6216,1196
1607169047.6227,1529
1607169047.6247,948
1607169047.6267,-173
1607169047.6295,-781
1607169047.6309,-509
1607169047.6327,-149
1607169047.6347,-132
1607169047.6367,-96
1607169047.6387,4
1607169047.6407,0
1607169047.6426,-19
1607169048.0427,7
1607169048.0438,21
1607169048.0463,21
1607169048.0480,26
1607169048.0498,36
1607169048.0518,43
1607169048.0528,53
1607169048.0538,53
1607169048.0558,48
1607169048.0578,62
1607169048.0598,79
1607169048.0623,77
1607169048.0638,82
1607169048.0658,106
1607169048.0679,120
1607169048.0699,130
1607169048.0719,154
1607169048.0740,176
1607169048.0759,193
1607169048.0802,217
1607169048.0821,246
1607169048.0839,284
1607169048.0851,328
1607169048.0869,369
1607169048.0889,386
1607169048.0909,390
1607169048.0929,395
1607169048.0963,386
1607169048.0991,340
1607169048.1003,255
1607169048.1021,156
1607169048.1033,57
1607169048.1045,-36
1607169048.1063,-108
1607169048.1079,-164
1607169048.1099,-200
1607169048.1134,-209
1607169048.1152,-207
1607169048.1166,-195
1607169048.1180,-180
1607169048.1199,-176
1607169048.1219,-173
1607169048.1239,-164
1607169048.1259,-154
1607169048.1297,-142
1607169048.1310,-132
1607169048.1329,-130
1607169048.1349,-113
1607169048.1369,-98
1607169048.1389,-94
1607169048.1409,-77
1607169048.1430,-69
1607169048.1471,-84
1607169048.1494,-89
1607169048.1508,-79
1607169048.1532,-77
1607169048.1551,-72
1607169048.1570,-69
1607169048.1590,-72
1607169048.1633,-67
1607169048.1652,-62
1607169048.1669,-65
1607169048.1691,-69
1607169048.1709,-65
1607169048.1729,-53
1607169048.1749,-53
1607169048.1770,-62
1607169048.1916,-62
1607169048.1930,-55
1607169048.1956,-53
1607169048.1965,-45
1607169048.1982,-53
1607169048.1999,-57
1607169048.5841,-50
1607169048.5864,-48
1607169048.5888,-50
1607169048.5905,-50
1607169048.5926,-50
1607169048.5966,-50
1607169048.5989,-45
1607169048.6006,-41
1607169048.6024,-43
1607169048.6046,-48
1607169048.6064,-43
1607169048.6088,-38
1607169048.6133,-41
1607169048.6148,-38
1607169048.6171,-41
1607169048.6185,-41
1607169048.6205,-28
1607169048.6225,-16
1607169048.6247,-16
1607169048.6265,-24
1607169048.6303,-28
1607169048.6316,-24
1607169048.6336,-21
1607169048.6358,-26
1607169048.6375,-26
1607169048.6395,-14
1607169048.6414,-12
1607169048.6436,-28
1607169048.6481,-33
1607169048.6496,-24
1607169048.6515,-24
1607169048.6535,-26
1607169048.6555,-21
1607169048.6575,-16
1607169048.6595,-16
1607169048.6670,-21
1607169048.6687,-26
1607169048.6708,-21
1607169048.6725,-16
1607169048.6745,-19
1607169048.6765,-19
1607169048.6833,-19
1607169048.6845,-14
1607169048.6865,-7
1607169048.6885,-4
1607169048.6892,-12
1607169048.6906,-9
1607169048.6926,-4
1607169048.6952,-9
1607169048.6965,-9
1607169048.6986,4
1607169048.7004,7
1607169048.7025,-4
1607169048.7044,-7
1607169048.7064,-2
1607169048.7085,2
1607169048.7104,4
1607169048.7131,2
1607169048.7146,4
1607169048.7164,7
1607169048.7184,0
1607169048.7199,-4
1607169048.7218,2
1607169048.7235,16
1607169048.7254,16
1607169048.7294,2
1607169048.7305,-7
1607169048.7325,-12
1607169048.7344,-2
1607169048.7364,7
1607169048.7385,4
1607169048.7404,4
1607169048.7424,9
1607169049.1533,2
1607169049.1546,-4
1607169049.1570,0
1607169049.1596,9
1607169049.1625,14
1607169049.1638,0
1607169049.1657,-12
1607169049.1677,0
1607169049.1696,7
1607169049.1716,-2
1607169049.1736,-2
1607169049.1756,4
1607169049.1793,4
1607169049.1807,2
1607169049.1826,2
1607169049.1846,7
1607169049.1866,19
1607169049.1874,36
1607169049.1886,45
1607169049.1906,38
1607169049.1927,24
1607169049.1959,12
1607169049.1978,4
1607169049.1997,0
1607169049.2021,-2
1607169049.2037,-2
1607169049.2057,9
1607169049.2078,19
1607169049.2097,2
1607169049.2141,-26
1607169049.2159,-26
1607169049.2177,14
1607169049.2196,168
1607169049.2204,632
1607169049.2216,1288
1607169049.2237,1440
1607169049.2256,690
1607169049.2292,-371
1607169049.2308,-760
1607169049.2326,-386
1607169049.2349,-101
1607169049.2368,-118
1607169049.2386,-69
1607169049.2406,-2
1607169049.2426,-19
1607169049.2464,-19
1607169049.2478,4
1607169049.2496,16
1607169049.2516,24
1607169049.2527,26
1607169049.2536,31
1607169049.2557,41
1607169049.2577,45
1607169049.2596,50
1607169049.2626,67
1607169049.2637,82
1607169049.2656,86
1607169049.2677,89
1607169049.2696,89
1607169049.2716,101
1607169049.2736,120
1607169049.2756,137
1607169049.2793,161
1607169049.2808,185
1607169049.2826,197
1607169049.2835,217
1607169049.2846,258
1607169049.2866,296
1607169049.2886,316
1607169049.2906,345
1607169049.2926,386
1607169049.2960,398
1607169049.2978,378
1607169049.7234,361
1607169049.7246,328
1607169049.7270,241
1607169049.7302,137
1607169049.7317,55
1607169049.7336,-26
1607169049.7357,-123
1607169049.7377,-178
1607169049.7386,-183
1607169049.7396,-195
1607169049.7416,-209
1607169049.7436,-205
1607169049.7496,-197
1607169049.7507,-193
1607169049.7532,-183
1607169049.7549,-176
1607169049.7567,-166
1607169049.7590,-139
1607169049.7655,-118
1607169049.7674,-118
1607169049.7689,-108
1607169049.7708,-91
1607169049.7726,-89
1607169049.7746,-96
1607169049.7754,-94
1607169049.7766,-84
1607169049.7798,-79
1607169049.7818,-77
1607169049.7837,-69
1607169049.7858,-65
1607169049.7878,-67
1607169049.7897,-67
1607169049.7973,-65
1607169049.7987,-65
1607169049.8007,-72
1607169049.8027,-69
1607169049.8047,-55
1607169049.8067,-48
1607169049.8087,-55
1607169049.8127,-55
1607169049.8138,-50
1607169049.8149,-53
1607169049.8167,-55
1607169049.8189,-50
1607169049.8207,-48
1607169049.8227,-45
1607169049.8247,-38
1607169049.8267,-33
1607169049.8297,-36
1607169049.8309,-41
1607169049.8327,-43
1607169049.8347,-43
1607169049.8368,-41
1607169049.8387,-41
1607169049.8407,-45
1607169049.8427,-48
1607169049.8435,-28
1607169049.8496,-9
1607169049.8508,-14
1607169049.8528,-33
1607169049.8547,-31
1607169049.8567,-24
1607169049.8587,-28
1607169049.8625,-28
1607169049.8639,-21
1607169049.8657,-21
1607169049.8678,-26
1607169049.8697,-24
1607169049.8717,-24
1607169049.8741,-28
1607169049.8757,-21
1607169049.8797,-12
1607169049.8812,-21
1607169050.2936,-41
1607169050.2993,-38
1607169050.3004,-7
1607169050.3028,0
1607169050.3043,-12
1607169050.3064,-12
1607169050.3084,-7
1607169050.3104,-19
1607169050.3143,-36
1607169050.3154,-41
1607169050.3174,-24
1607169050.3192,-7
1607169050.3199,-12
1607169050.3212,-21
1607169050.3232,-14
1607169050.3252,-7
1607169050.3289,-12
1607169050.3296,-14
1607169050.3313,-7
1607169050.3332,-2
1607169050.3353,-9
1607169050.3372,-9
1607169050.3392,-7
1607169050.3412,-9
1607169050.3432,-2
1607169050.3454,2
1607169050.3475,2
1607169050.3492,4
1607169050.3498,4
1607169050.3512,4
1607169050.3532,4
1607169050.3552,4
1607169050.3572,2
1607169050.3592,-2
1607169050.3623,0
1607169050.3635,9
1607169050.3652,14
1607169050.3674,9
1607169050.3692,2
1607169050.3712,9
1607169050.3733,7
1607169050.3752,0
1607169050.3791,7
1607169050.3807,9
1607169050.3817,-7
1607169050.3833,-7
1607169050.3853,12
1607169050.3877,14
1607169050.3893,0
1607169050.3913,4
1607169050.3933,19
1607169050.3963,19
1607169050.3976,4
1607169050.3993,-4
1607169050.4013,7
1607169050.4033,21
1607169050.4054,16
1607169050.4075,9
1607169050.4093,21
1607169050.4132,45
1607169050.4145,55
1607169050.4163,45
1607169050.4183,38
1607169050.4203,28
1607169050.4223,12
1607169050.4243,4
1607169050.4263,7
1607169050.4293,7
1607169050.4304,7
1607169050.4323,16
1607169050.4344,19
1607169050.4363,7
1607169050.4383,-9
1607169050.8637,2
1607169050.8688,127
1607169050.8702,545
1607169050.8722,1206
1607169050.8742,1481
1607169050.8763,863
1607169050.8790,-212
1607169050.8802,-748
1607169050.8825,-468
1607169050.8844,-144
1607169050.8862,-125
1607169050.8882,-79
1607169050.8902,-4
1607169050.8922,-21
1607169050.8959,-26
1607169050.8973,2
1607169050.8993,7
1607169050.9037,9
1607169050.9052,24
1607169050.9072,33
1607169050.9092,41
1607169050.9121,60
1607169050.9135,72
1607169050.9170,67
1607169050.9183,72
1607169050.9206,86
1607169050.9222,94
1607169050.9242,103
1607169050.9262,113
1607169050.9289,123
1607169050.9302,147
1607169050.9370,171
1607169050.9380,190
1607169050.9393,212
1607169050.9412,236
1607169050.9432,267
1607169050.9494,304
1607169050.9513,330
1607169050.9533,354
1607169050.9552,381
1607169050.9572,400
1607169050.9592,415
1607169050.9632,405
1607169050.9646,347
1607169050.9662,260
1607169050.9683,176
1607169050.9702,82
1607169050.9722,-14
1607169050.9730,-89
1607169050.9743,-137
1607169050.9763,-180
1607169050.9825,-209
1607169050.9844,-207
1607169050.9868,-190
1607169050.9883,-188
1607169050.9903,-188
1607169050.9923,-168
1607169050.9964,-154
1607169050.9981,-142
1607169050.9993,-127
1607169051.0013,-123
1607169051.0033,-123
1607169051.0053,-115
1607169051.0073,-98
1607169051.0081,-91
1607169051.0093,-84
1607169051.0131,-74
1607169051.0144,-72
1607169051.0163,-72
1607169051.0185,-72
1607169051.0203,-72
1607169051.0223,-72
1607169051.0243,-69
1607169051.4034,-74
1607169051.4050,-69
1607169051.4075,-60
1607169051.4103,-62
1607169051.4199,-62
1607169051.4214,-53
1607169051.4232,-57
1607169051.4244,-69
1607169051.4262,-69
1607169051.4304,-57
1607169051.4324,-57
1607169051.4342,-67
1607169051.4362,-65
1607169051.4382,-55
1607169051.4405,-43
1607169051.4422,-41
1607169051.4466,-48
1607169051.4482,-50
1607169051.4502,-48
1607169051.4522,-50
1607169051.4542,-48
1607169051.4562,-48
1607169051.4582,-53
1607169051.4594,-45
1607169051.4636,-33
1607169051.4654,-38
1607169051.4672,-41
1607169051.4692,-28
1607169051.4713,-28
1607169051.4732,-41
1607169051.4752,-45
1607169051.4772,-45
1607169051.4822,-50
1607169051.4839,-45
1607169051.4852,-33
1607169051.4872,-26
1607169051.4892,-33
1607169051.4912,-41
1607169051.4933,-31
1607169051.4976,-16
1607169051.4994,-12
1607169051.5013,-24
1607169051.5032,-31
1607169051.5052,-19
1607169051.5073,-14
1607169051.5092,-19
1607169051.5136,-14
1607169051.5160,-12
1607169051.5176,-14
1607169051.5191,-7
1607169051.5211,2
1607169051.5231,-2
1607169051.5252,-21
1607169051.5271,-21
1607169051.5305,0
1607169051.5316,0
1607169051.5331,-14
1607169051.5351,-12
1607169051.5371,-9
1607169051.5391,-4
1607169051.5412,0
1607169051.5431,2
1607169051.5460,4
1607169051.5472,9
1607169051.5492,7
1607169051.5511,7
1607169051.5531,12
1607169051.5551,16
1607169051.5573,9
1607169051.5591,-4
1607169051.5633,-2
1607169051.5646,2
1607169051.5661,4
1607169051.9733,7
1607169051.9745,16
1607169051.9769,21
1607169051.9797,16
1607169051.9818,9
1607169051.9836,9
1607169051.9857,12
1607169051.9877,9
1607169051.9896,0
1607169051.9916,-2
1607169051.9936,2
1607169051.9964,4
1607169051.9977,0
1607169051.9996,-4
1607169052.0016,-7
1607169052.0037,2
1607169052.0056,24
1607169052.0076,36
1607169052.0096,41
1607169052.0127,36
1607169052.0147,31
1607169052.0166,21
1607169052.0188,-2
1607169052.0206,-14
1607169052.0226,-7
1607169052.0245,0
1607169052.0266,4
1607169052.0296,2
1607169052.0307,0
1607169052.0327,-7
1607169052.0347,-12
1607169052.0368,33
1607169052.0391,299
1607169052.0407,921
1607169052.0427,1508
1607169052.0706,1302
1607169052.0718,275
1607169052.0739,-646
1607169052.0758,-699
1607169052.0781,-299
1607169052.0798,-147
1607169052.0818,-110
1607169052.0838,-7
1607169052.0847,0
1607169052.0858,-36
1607169052.0878,-7
1607169052.0898,16
1607169052.0918,7
1607169052.0938,16
1607169052.0958,48
1607169052.0979,53
1607169052.0999,43
1607169052.1018,48
1607169052.1038,62
1607169052.1059,77
1607169052.1079,89
1607169052.1098,101
1607169052.1118,113
1607169052.1138,113
1607169052.1147,123
1607169052.1163,149
1607169052.1179,173
1607169052.1198,183
1607169052.1218,200
1607169052.1238,229
1607169052.1258,258
1607169052.1279,287
1607169052.1299,323
1607169052.1322,361
1607169052.1343,390
1607169052.1359,412
1607169052.1385,424
1607169052.1399,417
1607169052.5437,381
1607169052.5485,308
1607169052.5506,202
1607169052.5526,96
1607169052.5546,2
1607169052.5566,-77
1607169052.5586,-132
1607169052.5606,-176
1607169052.5643,-217
1607169052.5658,-229
1607169052.5683,-212
1607169052.5696,-207
1607169052.5717,-209
1607169052.5736,-188
1607169052.5756,-171
1607169052.5802,-166
1607169052.5816,-156
1607169052.5836,-147
1607169052.5844,-142
1607169052.5856,-137
1607169052.5876,-120
1607169052.5895,-96
1607169052.5915,-91
1607169052.5935,-98
1607169052.5963,-94
1607169052.5978,-86
1607169052.5995,-84
1607169052.6015,-84
1607169052.6035,-77
1607169052.6055,-72
1607169052.6075,-77
1607169052.6095,-67
1607169052.6129,-57
1607169052.6150,-67
1607169052.6161,-74
1607169052.6176,-74
1607169052.6195,-72
1607169052.6215,-62
1607169052.6235,-55
1607169052.6255,-55
1607169052.6299,-55
1607169052.6317,-55
1607169052.6335,-55
1607169052.6355,-43
1607169052.6376,-38
1607169052.6395,-48
1607169052.6415,-50
1607169052.6435,-43
1607169052.6465,-33
1607169052.6478,-33
1607169052.6490,-43
1607169052.6505,-38
1607169052.6525,-24
1607169052.6545,-21
1607169052.6565,-26
1607169052.6585,-24
1607169052.6605,-19
1607169052.6634,-14
1607169052.6646,-12
1607169052.6666,-12
1607169052.6695,-19
1607169052.6711,-26
1607169052.6726,-31
1607169052.6746,-21
1607169052.6766,7
1607169052.6841,7
1607169052.6850,-26
1607169052.6866,-24
1607169052.6886,-9
1607169052.6906,-21
1607169052.6925,-26
1607169052.6968,-4
1607169052.6987,4
1607169053.0537,-12
1607169053.0553,-24
1607169053.0566,-19
1607169053.0583,-16
1607169053.0604,-16
1607169053.0642,-26
1607169053.0657,-41
1607169053.0674,-36
1607169053.0699,-19
1607169053.0714,-16
1607169053.0734,-41
1607169053.0753,-48
1607169053.0774,-28
1607169053.0808,-24
1607169053.0825,-36
1607169053.0843,-31
1607169053.0863,-16
1607169053.0871,-21
1607169053.0883,-36
1607169053.0903,-19
1607169053.0923,2
1607169053.0966,-12
1607169053.0985,-21
1607169053.1003,-7
1607169053.1023,-7
1607169053.1043,-24
1607169053.1063,-12
1607169053.1083,2
1607169053.1103,-14
1607169053.1135,-21
1607169053.1157,-14
1607169053.1174,-14
1607169053.1193,9
1607169053.1201,45
1607169053.1213,38
1607169053.1233,24
1607169053.1253,31
1607169053.1273,16
1607169053.1303,-12
1607169053.1319,-14
1607169053.1334,0
1607169053.1366,4
1607169053.1391,12
1607169053.1404,16
1607169053.1426,4
1607169053.1470,-12
1607169053.1487,-21
1607169053.1503,2
1607169053.1524,180
1607169053.1534,680
1607169053.1553,1327
1607169053.1574,1435
1607169053.1593,646
1607169053.1632,-412
1607169053.1643,-755
1607169053.1663,-364
1607169053.1683,-96
1607169053.1703,-115
1607169053.1725,-62
1607169053.1743,-7
1607169053.1763,-31
1607169053.1883,-16
1607169053.1894,12
1607169053.1914,14
1607169053.1934,33
1607169053.1963,43
1607169053.1974,33
1607169053.1995,48
1607169053.2014,62
1607169053.2034,55
1607169053.2054,57
1607169053.2074,79
1607169053.2094,89
1607169053.6527,89
1607169053.6531,103
1607169053.7160,115
1607169053.7179,118
1607169053.7198,132
1607169053.7218,159
1607169053.7238,173
1607169053.7245,188
1607169053.7259,229
1607169053.7288,282
1607169053.7829,308
1607169053.7848,320
1607169053.7868,352
1607169053.7889,388
1607169053.7908,400
1607169053.7928,383
1607169053.7952,349
1607169053.7972,296
1607169053.7988,224
1607169053.8008,127
1607169053.8028,26
1607169053.8048,-57
1607169053.8068,-125
1607169053.8075,-173
1607169053.8088,-190
1607169053.8120,-193
1607169053.8141,-205
1607169053.8159,-200
1607169053.8180,-183
1607169053.8199,-178
1607169053.8219,-173
1607169053.8239,-154
1607169053.8259,-130
1607169053.8322,-118
1607169053.8340,-115
1607169053.8360,-108
1607169053.8380,-96
1607169053.8401,-94
1607169053.8421,-89
1607169053.8505,-77
1607169053.8522,-74
1607169053.8540,-69
1607169053.8560,-67
1607169053.8583,-74
1607169053.8599,-72
1607169053.8631,-60
1607169053.8651,-60
1607169053.8669,-57
1607169053.8690,-50
1607169053.8709,-53
1607169053.8729,-62
1607169053.8749,-67
1607169053.8773,-65
1607169053.8802,-60
1607169053.8814,-55
1607169053.8829,-50
1607169053.8849,-50
1607169053.8869,-55
1607169053.8889,-48
1607169053.8909,-41
1607169053.8929,-41
1607169053.8963,-43
1607169053.8988,-43
1607169053.8999,-33
1607169053.9020,-31
1607169053.9039,-48
1607169053.9059,-50
1607169053.9079,-31
1607169053.9102,-26
1607169053.9141,-33
1607169053.9151,-31
1607169053.9169,-24
1607169053.9190,-24
1607169054.2233,-24
1607169054.2245,-24
1607169054.2270,-24
1607169054.2297,-19
1607169054.2317,-12
1607169054.2336,-16
1607169054.2357,-26
1607169054.2376,-21
1607169054.2396,-24
1607169054.2416,-26
1607169054.2436,-24
1607169054.2464,-19
1607169054.2478,-19
1607169054.2496,-16
1607169054.2516,-16
1607169054.2536,-12
1607169054.2556,-19
1607169054.2576,-16
1607169054.2598,-2
1607169054.2631,-7
1607169054.2648,-28
1607169054.2666,-14
1607169054.2686,14
1607169054.2706,4
1607169054.2726,-4
1607169054.2746,7
1607169054.2766,4
1607169054.2775,-9
1607169054.2807,-7
1607169054.2819,2
1607169054.2838,9
1607169054.2857,2
1607169054.2878,-7
1607169054.2897,-4
1607169054.2917,0
1607169054.2937,-4
1607169054.3077,0
1607169054.3087,14
1607169054.3140,7
1607169054.3164,-12
1607169054.3179,-9
1607169054.3197,-4
1607169054.3217,-9
1607169054.3225,-16
1607169054.3237,-14
1607169054.3257,-7
1607169054.3284,-4
1607169054.3297,-9
1607169054.3317,-9
1607169054.3338,-2
1607169054.3357,0
1607169054.3378,-7
1607169054.3398,-7
1607169054.3419,0
1607169054.3438,-2
1607169054.3458,-12
1607169054.3479,-2
1607169054.3498,9
1607169054.3519,0
1607169054.3532,-12
1607169054.3549,-4
1607169054.3569,-4
1607169054.3589,-4
1607169054.3601,4
1607169054.3619,-2
1607169054.3638,-16
1607169054.3659,-4
1607169054.3686,7
1607169054.3699,7
1607169054.3718,7
1607169054.3739,-2
1607169054.3758,-16
1607169054.3780,-9
1607169054.7650,4
1607169054.7665,14
1607169054.7689,31
1607169054.7715,45
1607169054.7735,26
1607169054.7755,0
1607169054.7795,-2
1607169054.7805,2
1607169054.7825,7
1607169054.7845,-2
1607169054.7865,-16
1607169054.7885,-4
1607169054.7906,9
1607169054.7925,-12
1607169054.7962,-28
1607169054.7978,2
1607169054.7996,205
1607169054.8008,745
1607169054.8027,1401
1607169054.8046,1435
1607169054.8066,554
1607169054.8086,-497
1607169054.8106,-755
1607169054.8145,-345
1607169054.8165,-120
1607169054.8176,-137
1607169054.8196,-53
1607169054.8215,0
1607169054.8236,-43
1607169054.8255,-24
1607169054.8295,26
1607169054.8306,12
1607169054.8326,-9
1607169054.8334,19
1607169054.8346,45
1607169054.8365,38
1607169054.8385,43
1607169054.8406,62
1607169054.8426,69
1607169054.8462,74
1607169054.8478,86
1607169054.8495,94
1607169054.8515,96
1607169054.8535,113
1607169054.8555,144
1607169054.8575,164
1607169054.8595,168
1607169054.8633,193
1607169054.8650,224
1607169054.8660,243
1607169054.8676,263
1607169054.8695,291
1607169054.8715,328
1607169054.8735,369
1607169054.8755,400
1607169054.8796,415
1607169054.8805,402
1607169054.8826,374
1607169054.8846,330
1607169054.8865,253
1607169054.8885,135
1607169054.8906,19
1607169054.8925,-62
1607169054.8964,-123
1607169054.8978,-173
1607169054.8993,-212
1607169054.9006,-224
1607169054.9027,-212
1607169054.9052,-200
1607169054.9066,-207
1607169054.9086,-200
1607169054.9106,-168
1607169054.9146,-152
1607169055.3340,-156
1607169055.3353,-144
1607169055.3381,-120
1607169055.3404,-118
1607169055.3423,-130
1607169055.3431,-118
1607169055.3483,-94
1607169055.3499,-96
1607169055.3514,-106
1607169055.3534,-98
1607169055.3554,-86
1607169055.3574,-82
1607169055.3594,-86
1607169055.3622,-86
1607169055.3635,-84
1607169055.3664,-89
1607169055.3767,-91
1607169055.3795,-82
1607169055.3818,-74
1607169055.3835,-79
1607169055.3855,-82
1607169055.3863,-82
1607169055.3878,-86
1607169055.3896,-84
1607169055.3915,-72
1607169055.3935,-67
1607169055.3956,-77
1607169055.3978,-72
1607169055.3995,-53
1607169055.4015,-48
1607169055.4035,-55
1607169055.4055,-53
1607169055.4078,-48
1607169055.4096,-50
1607169055.4115,-55
1607169055.4135,-50
1607169055.4158,-45
1607169055.4181,-41
1607169055.4195,-38
1607169055.4215,-36
1607169055.4235,-28
1607169055.4255,-21
1607169055.4283,-24
1607169055.4296,-33
1607169055.4320,-28
1607169055.4345,-26
1607169055.4360,-28
1607169055.4376,-28
1607169055.4395,-28
1607169055.4415,-31
1607169055.4435,-28
1607169055.4457,-14
1607169055.4476,-9
1607169055.4512,-14
1607169055.4542,-12
1607169055.4556,-16
1607169055.4576,-26
1607169055.4595,-16
1607169055.4615,-4
1607169055.4635,-12
1607169055.4658,-12
1607169055.4695,-2
1607169055.4709,0
1607169055.4725,-7
1607169055.4745,-7
1607169055.4765,-7
1607169055.4792,-7
1607169055.4808,-9
1607169055.4862,-12
1607169055.4884,-14
1607169055.4895,-12
1607169055.4915,-2
1607169055.4935,2
1607169055.9029,-9
1607169055.9041,-21
1607169055.9065,-19
1607169055.9092,-12
1607169055.9206,-12
1607169055.9224,-9
1607169055.9243,-4
1607169055.9263,-12
1607169055.9303,-26
1607169055.9329,-26
1607169055.9341,-21
1607169055.9353,-21
1607169055.9373,-19
1607169055.9392,-14
1607169055.9412,-14
1607169055.9432,-12
1607169055.9462,-9
1607169055.9472,-7
1607169055.9492,-7
1607169055.9512,-4
1607169055.9532,-7
1607169055.9552,-9
1607169055.9574,-2
1607169055.9592,4
1607169055.9629,-2
1607169055.9644,-12
1607169055.9653,-12
1607169055.9673,0
1607169055.9693,7
1607169055.9712,2
1607169055.9732,7
1607169055.9755,12
1607169055.9773,2
1607169055.9800,0
1607169055.9813,12
1607169055.9832,9
1607169055.9852,-4
1607169055.9873,-4
1607169055.9892,16
1607169055.9913,36
1607169055.9937,36
1607169055.9990,31
1607169056.0001,28
1607169056.0012,9
1607169056.0032,-9
1607169056.0052,-2
1607169056.0073,4
1607169056.0092,-4
1607169056.0127,-7
1607169056.0148,12
1607169056.0163,14
1607169056.0182,-4
1607169056.0202,-19
1607169056.0222,14
1607169056.0243,226
1607169056.0263,776
1607169056.0298,1387
1607169056.0313,1353
1607169056.0328,477
1607169056.0343,-513
1607169056.0364,-716
1607169056.0383,-287
1607169056.0403,-82
1607169056.0423,-120
1607169056.0459,-53
1607169056.0473,-4
1607169056.0488,-33
1607169056.0502,-24
1607169056.0524,16
1607169056.0542,33
1607169056.0562,28
1607169056.0582,26
1607169056.0602,31
1607169056.4447,45
1607169056.4473,53
1607169056.4500,50
1607169056.4526,62
1607169056.4550,79
1607169056.4574,72
1607169056.4598,67
1607169056.4622,94
1607169056.4646,120
1607169056.4673,115
1607169056.4693,118
1607169056.4704,149
1607169056.4724,173
1607169056.4743,193
1607169056.4763,226
1607169056.4783,258
1607169056.4795,287
1607169056.4814,318
1607169056.4836,347
1607169056.4855,371
1607169056.4875,383
1607169056.4897,383
1607169056.4920,364
1607169056.4940,311
1607169056.4968,219
1607169056.4987,113
1607169056.5003,19
1607169056.5023,-62
1607169056.5043,-125
1607169056.5082,-164
1607169056.5097,-195
1607169056.5113,-212
1607169056.5127,-205
1607169056.5145,-200
1607169056.5163,-197
1607169056.5183,-183
1607169056.5204,-168
1607169056.5224,-164
