Time,ECG
1604521038.9972,2014
1604521038.9999,3769
1604521039.0025,4759
1604521039.0051,5442
1604521039.0070,6270
1604521039.0088,6912
1604521039.0110,7376
1604521039.0128,7868
1604521039.0149,8306
1604521039.0170,8650
1604521039.0189,8979
1604521039.0209,9294
1604521039.0229,9553
1604521039.0249,9790
1604521039.0269,10030
1604521039.0289,10238
1604521039.0310,10408
1604521039.0329,10577
1604521039.0349,10744
1604521039.0368,10882
1604521039.0389,11001
1604521039.0409,11124
1604521039.0429,11240
1604521039.0449,11337
1604521039.0469,11427
1604521039.0489,11516
1604521039.0509,11604
1604521039.0529,11671
1604521039.0549,11725
1604521039.0569,11783
1604521039.0588,11841
1604521039.0608,11882
1604521039.0628,11918
1604521039.0648,11960
1604521039.0668,11998
1604521039.0688,12022
1604521039.0708,12035
1604521039.0728,12061
1604521039.0748,12095
1604521039.0768,12095
1604521039.0788,12081
1604521039.0808,12064
1604521039.0828,12042
1604521039.0848,12022
1604521039.0869,12003
1604521039.0888,11986
1604521039.0908,11969
1604521039.0928,11943
1604521039.0948,11911
1604521039.0968,11892
1604521039.0995,11870
1604521039.1008,11841
1604521039.1027,11855
1604521039.1047,11945
1604521039.1068,11950
1604521039.1087,11732
1604521039.1107,11562
1604521039.1127,11584
1604521039.1147,11538
1604521039.1168,11420
1604521039.1187,11381
1604521039.1207,11349
1604521039.1227,11277
1604521039.1247,11207
1604521039.1268,11151
1604521039.1287,11088
1604521039.1307,11032
1604521039.1327,10969
1604521039.1347,10894
1604521039.1368,10822
1604521039.1387,10756
1604521039.1407,10679
1604521039.1427,10606
1604521039.5345,10541
1604521039.5353,10468
1604521039.5378,10386
1604521039.5404,10311
1604521039.5424,10243
1604521039.5444,10163
1604521039.5460,10076
1604521039.5474,10006
1604521039.5493,9936
1604521039.5513,9839
1604521039.5534,9742
1604521039.5553,9672
1604521039.5574,9606
1604521039.5594,9507
1604521039.5613,9393
1604521039.5634,9318
1604521039.5653,9258
1604521039.5675,9170
1604521039.5693,9091
1604521039.5714,9028
1604521039.5733,8953
1604521039.5753,8868
1604521039.5774,8795
1604521039.5793,8718
1604521039.5813,8640
1604521039.5833,8568
1604521039.5853,8485
1604521039.5874,8393
1604521039.5895,8316
1604521039.5914,8241
1604521039.5934,8161
1604521039.5953,8088
1604521039.5974,8018
1604521039.5993,7928
1604521039.6013,7834
1604521039.6033,7764
1604521039.6053,7689
1604521039.6073,7599
1604521039.6093,7522
1604521039.6113,7447
1604521039.6133,7367
1604521039.6153,7287
1604521039.6175,7214
1604521039.6193,7142
1604521039.6213,7067
1604521039.6233,6987
1604521039.6253,6914
1604521039.6274,6846
1604521039.6293,6769
1604521039.6313,6696
1604521039.6333,6628
1604521039.6353,6556
1604521039.6373,6488
1604521039.6393,6420
1604521039.6413,6355
1604521039.6433,6289
1604521039.6453,6226
1604521039.6474,6176
1604521039.6493,6115
1604521039.6513,6026
1604521039.6533,5946
1604521039.6553,5880
1604521039.6573,5808
1604521039.6593,5728
1604521039.6613,5662
1604521039.6633,5602
1604521039.6653,5541
1604521039.6674,5478
1604521039.6693,5415
1604521039.6713,5355
1604521039.6733,5302
1604521039.6753,5268
1604521039.6773,5299
1604521040.0746,5372
1604521040.0752,5280
1604521040.0776,4992
1604521040.0802,4871
1604521040.0822,4924
1604521040.0842,4851
1604521040.0865,4740
1604521040.0882,4711
1604521040.0902,4667
1604521040.0922,4604
1604521040.0942,4551
1604521040.0962,4481
1604521040.0982,4432
1604521040.1002,4396
1604521040.1022,4336
1604521040.1042,4280
1604521040.1062,4239
1604521040.1082,4193
1604521040.1102,4142
1604521040.1122,4086
1604521040.1142,4031
1604521040.1162,3980
1604521040.1182,3936
1604521040.1202,3905
1604521040.1222,3864
1604521040.1243,3798
1604521040.1262,3740
1604521040.1281,3689
1604521040.1302,3634
1604521040.1322,3575
1604521040.1342,3522
1604521040.1362,3479
1604521040.1381,3435
1604521040.1401,3384
1604521040.1421,3341
1604521040.1441,3304
1604521040.1462,3270
1604521040.1481,3234
1604521040.1502,3195
1604521040.1522,3161
1604521040.1541,3130
1604521040.1561,3101
1604521040.1582,3065
1604521040.1601,3026
1604521040.1622,2990
1604521040.1642,2960
1604521040.1663,2931
1604521040.1682,2898
1604521040.1702,2866
1604521040.1722,2837
1604521040.1741,2803
1604521040.1762,2762
1604521040.1782,2723
1604521040.1802,2701
1604521040.1822,2675
1604521040.1842,2638
1604521040.1862,2595
1604521040.1883,2556
1604521040.1902,2537
1604521040.1922,2510
1604521040.1942,2474
1604521040.1962,2440
1604521040.1982,2416
1604521040.2001,2389
1604521040.2022,2360
1604521040.2042,2329
1604521040.2062,2287
1604521040.2082,2258
1604521040.2102,2251
1604521040.2122,2229
1604521040.2142,2191
1604521040.2162,2178
1604521040.2182,2181
1604521040.6445,2142
1604521040.6453,2089
1604521040.6478,2065
1604521040.6504,2040
1604521040.6524,1999
1604521040.6544,1963
1604521040.6565,1944
1604521040.6584,1919
1604521040.6604,1878
1604521040.6624,1837
1604521040.6644,1825
1604521040.6664,1820
1604521040.6683,1808
1604521040.6703,1844
1604521040.6723,1985
1604521040.6743,2084
1604521040.6764,1854
1604521040.6783,1518
1604521040.6803,1551
1604521040.6823,1687
1604521040.6843,1617
1604521040.6864,1571
1604521040.6883,1600
1604521040.6903,1566
1604521040.6923,1525
1604521040.6943,1527
1604521040.6964,1520
1604521040.6983,1493
1604521040.7003,1476
1604521040.7023,1462
1604521040.7043,1445
1604521040.7064,1433
1604521040.7083,1421
1604521040.7103,1416
1604521040.7123,1411
1604521040.7145,1380
1604521040.7164,1348
1604521040.7183,1346
1604521040.7203,1341
1604521040.7223,1321
1604521040.7243,1304
1604521040.7263,1290
1604521040.7283,1268
1604521040.7303,1249
1604521040.7323,1232
1604521040.7343,1212
1604521040.7364,1188
1604521040.7383,1162
1604521040.7403,1145
1604521040.7423,1135
1604521040.7443,1123
1604521040.7464,1118
1604521040.7483,1108
1604521040.7503,1096
1604521040.7523,1079
1604521040.7543,1065
1604521040.7564,1060
1604521040.7583,1058
1604521040.7603,1043
1604521040.7623,1041
1604521040.7643,1043
1604521040.7663,1028
1604521040.7683,1019
1604521040.7703,1024
1604521040.7723,1016
1604521040.7743,1002
1604521040.7764,990
1604521040.7783,980
1604521040.7803,970
1604521040.7823,961
1604521040.7843,946
1604521040.7864,927
1604521040.7883,917
1604521041.1846,907
1604521041.1853,890
1604521041.1877,881
1604521041.1903,876
1604521041.1923,864
1604521041.1943,852
1604521041.1964,852
1604521041.1983,854
1604521041.2003,837
1604521041.2023,830
1604521041.2043,837
1604521041.2063,823
1604521041.2083,796
1604521041.2105,786
1604521041.2123,777
1604521041.2144,757
1604521041.2163,736
1604521041.2183,728
1604521041.2203,723
1604521041.2223,719
1604521041.2243,711
1604521041.2263,711
1604521041.2283,711
1604521041.2304,711
1604521041.2323,745
1604521041.2343,876
1604521041.2363,1024
1604521041.2383,915
1604521041.2402,595
1604521041.2423,549
1604521041.2443,706
1604521041.2463,673
1604521041.2483,602
1604521041.2503,644
1604521041.2523,648
1604521041.2543,619
1604521041.2564,622
1604521041.2583,629
1604521041.2603,619
1604521041.2623,614
1604521041.2643,612
1604521041.2663,610
1604521041.2683,612
1604521041.2703,607
1604521041.2723,598
1604521041.2743,598
1604521041.2763,595
1604521041.2783,585
1604521041.2803,581
1604521041.2823,585
1604521041.2843,578
1604521041.2863,568
1604521041.2883,564
1604521041.2903,556
1604521041.2923,542
1604521041.2943,530
1604521041.2963,520
1604521041.2983,510
1604521041.3003,496
1604521041.3023,484
1604521041.3043,484
1604521041.3063,489
1604521041.3083,491
1604521041.3103,489
1604521041.3124,486
1604521041.3143,486
1604521041.3163,486
1604521041.3183,484
1604521041.3203,481
1604521041.3223,484
1604521041.3243,486
1604521041.3263,484
1604521041.3283,484
1604521041.7257,489
1604521041.7264,486
1604521041.7279,481
1604521041.7299,476
1604521041.7319,464
1604521041.7339,452
1604521041.7359,440
1604521041.7378,435
1604521041.7398,430
1604521041.7418,426
1604521041.7438,421
1604521041.7459,418
1604521041.7478,416
1604521041.7498,409
1604521041.7518,406
1604521041.7538,404
1604521041.7558,399
1604521041.7578,397
1604521041.7598,404
1604521041.7618,406
1604521041.7638,401
1604521041.7658,404
1604521041.7678,418
1604521041.7699,418
1604521041.7718,404
1604521041.7738,389
1604521041.7758,384
1604521041.7779,375
1604521041.7799,363
1604521041.7818,353
1604521041.7839,355
1604521041.7858,358
1604521041.7878,355
1604521041.7898,353
1604521041.7918,351
1604521041.7939,351
1604521041.7958,365
1604521041.7979,433
1604521041.7998,568
1604521041.8018,610
1604521041.8038,411
1604521041.8059,254
1604521041.8081,338
1604521041.8098,377
1604521041.8119,309
1604521041.8139,314
1604521041.8159,336
1604521041.8179,317
1604521041.8199,312
1604521041.8218,322
1604521041.8238,319
1604521041.8258,314
1604521041.8278,317
1604521041.8298,317
1604521041.8318,314
1604521041.8338,309
1604521041.8358,307
1604521041.8379,307
1604521041.8398,305
1604521041.8419,305
1604521041.8439,302
1604521041.8458,300
1604521041.8478,300
1604521041.8499,302
1604521041.8518,295
1604521041.8539,288
1604521041.8558,285
1604521041.8579,280
1604521041.8598,271
1604521041.8618,256
1604521041.8639,244
1604521041.8658,242
1604521041.8678,239
1604521042.3247,237
1604521042.3256,242
1604521042.3280,242
1604521042.3307,227
1604521042.3327,225
1604521042.3347,237
1604521042.3367,239
1604521042.3386,237
1604521042.3406,242
1604521042.3426,244
1604521042.3446,244
1604521042.3466,246
1604521042.3486,246
1604521042.3505,242
1604521042.3526,237
1604521042.3545,237
1604521042.3566,239
1604521042.3586,239
1604521042.3607,239
1604521042.3626,239
1604521042.3647,239
1604521042.3666,239
1604521042.3685,234
1604521042.3705,227
1604521042.3727,225
1604521042.3745,225
1604521042.3766,220
1604521042.3786,215
1604521042.3806,215
1604521042.3825,215
1604521042.3846,213
1604521042.3866,213
1604521042.3886,210
1604521042.3906,208
1604521042.3925,208
1604521042.3946,208
1604521042.3966,213
1604521042.3986,215
1604521042.4006,213
1604521042.4025,215
1604521042.4046,230
1604521042.4066,244
1604521042.4086,234
1604521042.4105,222
1604521042.4125,220
1604521042.4145,210
1604521042.4166,193
1604521042.4186,184
1604521042.4206,188
1604521042.4225,191
1604521042.4246,188
1604521042.4266,186
1604521042.4286,191
1604521042.4306,191
1604521042.4326,198
1604521042.4346,249
1604521042.4366,372
1604521042.4385,457
1604521042.4406,329
1604521042.4425,147
1604521042.4446,181
1604521042.4466,232
1604521042.4486,164
1604521042.4505,150
1604521042.4525,181
1604521042.4545,171
1604521042.4566,162
1604521042.4586,174
1604521042.4605,174
1604521042.4625,169
1604521042.4646,174
1604521042.4667,179
1604521042.4686,176
1604521042.9244,174
1604521042.9253,171
1604521042.9277,174
1604521042.9303,174
1604521042.9323,174
1604521042.9343,169
1604521042.9364,169
1604521042.9383,169
1604521042.9403,157
1604521042.9423,150
1604521042.9443,154
1604521042.9463,154
1604521042.9482,147
1604521042.9502,142
1604521042.9523,142
1604521042.9542,138
1604521042.9563,133
1604521042.9582,130
1604521042.9602,130
1604521042.9623,135
1604521042.9642,135
1604521042.9663,138
1604521042.9682,140
1604521042.9702,145
1604521042.9722,147
1604521042.9743,152
1604521042.9763,152
1604521042.9782,154
1604521042.9802,157
1604521042.9822,159
1604521042.9843,164
1604521042.9863,162
1604521042.9882,162
1604521042.9902,162
1604521042.9922,159
1604521042.9942,159
1604521042.9963,159
1604521042.9982,154
1604521043.0003,154
1604521043.0023,152
1604521043.0043,152
1604521043.0063,154
1604521043.0083,152
1604521043.0102,150
1604521043.0122,145
1604521043.0142,145
1604521043.0163,142
1604521043.0182,138
1604521043.0202,135
1604521043.0224,138
1604521043.0243,138
1604521043.0263,133
1604521043.0283,135
1604521043.0302,135
1604521043.0322,128
1604521043.0342,121
1604521043.0363,123
1604521043.0383,123
1604521043.0402,121
1604521043.0422,121
1604521043.0442,125
1604521043.0463,130
1604521043.0483,133
1604521043.0503,133
1604521043.0523,138
1604521043.0542,152
1604521043.0563,164
1604521043.0582,157
1604521043.0602,145
1604521043.0623,140
1604521043.0642,133
1604521043.0663,118
1604521043.0683,113
1604521043.4341,111
1604521043.4347,111
1604521043.4373,113
1604521043.4398,118
1604521043.4418,118
1604521043.4438,118
1604521043.4458,128
1604521043.4477,181
1604521043.4497,302
1604521043.4518,377
1604521043.4537,239
1604521043.4557,67
1604521043.4577,104
1604521043.4599,130
1604521043.4617,67
1604521043.4637,75
1604521043.4657,104
1604521043.4677,82
1604521043.4697,79
1604521043.4717,96
1604521043.4737,94
1604521043.4744,92
1604521043.4768,99
1604521043.4787,104
1604521043.4808,99
1604521043.4827,99
1604521043.4847,104
1604521043.4869,104
1604521043.4888,101
1604521043.4907,99
1604521043.4927,99
1604521043.4947,99
1604521043.4968,99
1604521043.4987,101
1604521043.5007,104
1604521043.5027,106
1604521043.5047,101
1604521043.5054,96
1604521043.5078,94
1604521043.5097,89
1604521043.5117,82
1604521043.5137,79
1604521043.5157,79
1604521043.5178,77
1604521043.5197,77
1604521043.5217,82
1604521043.5237,87
1604521043.5257,79
1604521043.5277,77
1604521043.5297,87
1604521043.5317,94
1604521043.5337,96
1604521043.5357,99
1604521043.5365,99
1604521043.5387,104
1604521043.5407,106
1604521043.5427,106
1604521043.5447,108
1604521043.5468,111
1604521043.5487,111
1604521043.5507,106
1604521043.5527,108
1604521043.5547,111
1604521043.5568,108
1604521043.5587,106
1604521043.5607,104
1604521043.5627,99
1604521043.5647,94
1604521043.5668,99
1604521043.5674,104
1604521043.5697,99
1604521043.5717,96
1604521043.5737,94
1604521044.0045,92
1604521044.0054,92
1604521044.0079,92
1604521044.0105,94
1604521044.0125,96
1604521044.0148,94
1604521044.0166,84
1604521044.0185,75
1604521044.0204,79
1604521044.0212,84
1604521044.0234,89
1604521044.0255,92
1604521044.0274,92
1604521044.0294,99
1604521044.0314,118
1604521044.0334,128
1604521044.0354,116
1604521044.0374,101
1604521044.0394,96
1604521044.0414,92
1604521044.0434,79
1604521044.0454,75
1604521044.0474,77
1604521044.0494,79
1604521044.0514,79
1604521044.0521,82
1604521044.0544,87
1604521044.0564,89
1604521044.0584,106
1604521044.0604,184
1604521044.0624,336
1604521044.0644,380
1604521044.0664,157
1604521044.0684,0
1604521044.0704,104
1604521044.0724,138
1604521044.0744,67
1604521044.0764,84
1604521044.0784,111
1604521044.0804,89
1604521044.0824,84
1604521044.0831,92
1604521044.0854,87
1604521044.0874,92
1604521044.0894,99
1604521044.0914,96
1604521044.0934,96
1604521044.0954,101
1604521044.0975,101
1604521044.0994,99
1604521044.1014,99
1604521044.1034,99
1604521044.1054,101
1604521044.1074,99
1604521044.1094,99
1604521044.1114,101
1604521044.1122,101
1604521044.1145,99
1604521044.1164,96
1604521044.1184,96
1604521044.1204,92
1604521044.1224,84
1604521044.1244,79
1604521044.1264,79
1604521044.1284,77
1604521044.1304,77
1604521044.1324,79
1604521044.1344,84
1604521044.1364,84
1604521044.1384,87
1604521044.1404,92
1604521044.1424,94
1604521044.1431,94
1604521044.5440,94
1604521044.5447,101
1604521044.5472,106
1604521044.5497,108
1604521044.5518,111
1604521044.5537,108
1604521044.5557,108
1604521044.5578,106
1604521044.5597,96
1604521044.5617,96
1604521044.5637,99
1604521044.5657,92
1604521044.5677,89
1604521044.5697,94
1604521044.5704,94
1604521044.5727,94
1604521044.5747,94
1604521044.5767,92
1604521044.5787,89
1604521044.5807,89
1604521044.5827,92
1604521044.5847,94
1604521044.5867,94
1604521044.5887,92
1604521044.5908,92
1604521044.5927,94
1604521044.5947,96
1604521044.5967,94
1604521044.5987,96
1604521044.6007,96
1604521044.6014,94
1604521044.6037,94
1604521044.6057,96
1604521044.6077,96
1604521044.6098,96
1604521044.6117,96
1604521044.6137,108
1604521044.6157,128
1604521044.6177,130
1604521044.6197,116
1604521044.6217,106
1604521044.6237,104
1604521044.6257,92
1604521044.6277,77
1604521044.6297,77
1604521044.6317,82
1604521044.6324,82
1604521044.6347,82
1604521044.6367,87
1604521044.6387,89
1604521044.6407,89
1604521044.6427,116
1604521044.6447,205
1604521044.6467,334
1604521044.6487,319
1604521044.6507,121
1604521044.6527,50
1604521044.6547,130
1604521044.6567,106
1604521044.6587,55
1604521044.6607,84
1604521044.6627,96
1604521044.6634,77
1604521044.6657,79
1604521044.6677,89
1604521044.6697,87
1604521044.6717,84
1604521044.6737,92
1604521044.6757,92
1604521044.6777,92
1604521044.6797,89
1604521044.6817,89
1604521044.6837,92
1604521045.1144,92
1604521045.1153,92
1604521045.1177,89
1604521045.1189,89
1604521045.1204,84
1604521045.1224,75
1604521045.1245,70
1604521045.1264,70
1604521045.1282,70
1604521045.1303,62
1604521045.1322,58
1604521045.1343,55
1604521045.1365,53
1604521045.1383,48
1604521045.1402,48
1604521045.1422,50
1604521045.1442,50
1604521045.1462,48
1604521045.1482,53
1604521045.1502,55
1604521045.1522,55
1604521045.1542,60
1604521045.1563,62
1604521045.1582,65
1604521045.1602,67
1604521045.1622,67
1604521045.1642,65
1604521045.1662,65
1604521045.1682,67
1604521045.1703,70
1604521045.1722,72
1604521045.1742,77
1604521045.1763,79
1604521045.1782,77
1604521045.1802,79
1604521045.1822,82
1604521045.1842,82
1604521045.1863,79
1604521045.1882,82
1604521045.1902,84
1604521045.1923,82
1604521045.1942,82
1604521045.1962,84
1604521045.1983,84
1604521045.2002,82
1604521045.2022,82
1604521045.2042,82
1604521045.2063,82
1604521045.2082,82
1604521045.2103,84
1604521045.2122,84
1604521045.2143,79
1604521045.2163,82
1604521045.2184,84
1604521045.2202,84
1604521045.2222,84
1604521045.2242,84
1604521045.2263,84
1604521045.2283,84
1604521045.2302,84
1604521045.2322,87
1604521045.2342,92
1604521045.2363,94
1604521045.2384,94
1604521045.2402,106
1604521045.2422,118
1604521045.2442,108
1604521045.2463,96
1604521045.2482,92
1604521045.2502,84
1604521045.2522,72
1604521045.2543,65
1604521045.2563,65
1604521045.7740,72
1604521045.7752,72
1604521045.7777,67
1604521045.7802,70
1604521045.7822,72
1604521045.7843,79
1604521045.7864,135
1604521045.7882,266
1604521045.7902,336
1604521045.7922,164
1604521045.7942,-2
1604521045.7963,65
1604521045.7982,96
1604521045.8002,29
1604521045.8022,36
1604521045.8042,62
1604521045.8062,43
1604521045.8082,41
1604521045.8102,50
1604521045.8122,41
1604521045.8142,38
1604521045.8162,43
1604521045.8182,43
1604521045.8202,41
1604521045.8222,43
1604521045.8242,41
1604521045.8262,38
1604521045.8281,41
1604521045.8301,43
1604521045.8321,38
1604521045.8341,31
1604521045.8362,33
1604521045.8381,38
1604521045.8401,38
1604521045.8421,36
1604521045.8441,31
1604521045.8462,29
1604521045.8481,29
1604521045.8501,24
1604521045.8521,16
1604521045.8541,12
1604521045.8564,12
1604521045.8582,9
1604521045.8601,12
1604521045.8621,16
1604521045.8641,21
1604521045.8662,26
1604521045.8681,29
1604521045.8701,31
1604521045.8721,33
1604521045.8742,36
1604521045.8761,41
1604521045.8781,46
1604521045.8801,48
1604521045.8821,53
1604521045.8842,58
1604521045.8862,58
1604521045.8881,58
1604521045.8901,60
1604521045.8921,65
1604521045.8941,67
1604521045.8962,67
1604521045.8981,67
1604521045.9001,67
1604521045.9021,70
1604521045.9041,70
1604521045.9062,70
1604521045.9081,70
1604521045.9102,67
1604521045.9122,62
1604521045.9141,65
1604521045.9163,67
1604521045.9181,65
1604521046.2542,65
1604521046.2548,65
1604521046.2564,65
1604521046.2584,62
1604521046.2604,65
1604521046.2624,67
1604521046.2644,67
1604521046.2664,65
1604521046.2684,65
1604521046.2704,67
1604521046.2723,70
1604521046.2744,70
1604521046.2764,70
1604521046.2783,77
1604521046.2803,94
1604521046.2823,101
1604521046.2843,92
1604521046.2864,82
1604521046.2883,75
1604521046.2905,55
1604521046.2924,38
1604521046.2943,36
1604521046.2964,43
1604521046.2983,43
1604521046.3003,48
1604521046.3023,53
1604521046.3043,53
1604521046.3064,53
1604521046.3083,67
1604521046.3103,128
1604521046.3123,268
1604521046.3143,343
1604521046.3164,169
1604521046.3183,-14
1604521046.3203,53
1604521046.3223,106
1604521046.3243,38
1604521046.3264,41
1604521046.3283,67
1604521046.3304,50
1604521046.3323,46
1604521046.3343,60
1604521046.3364,60
1604521046.3383,55
1604521046.3403,62
1604521046.3423,65
1604521046.3443,62
1604521046.3463,60
1604521046.3483,58
1604521046.3503,55
1604521046.3523,50
1604521046.3543,50
1604521046.3563,55
1604521046.3583,58
1604521046.3603,55
1604521046.3623,55
1604521046.3643,55
1604521046.3664,55
1604521046.3683,53
1604521046.3703,50
1604521046.3723,50
1604521046.3743,46
1604521046.3764,38
1604521046.3783,36
1604521046.3803,36
1604521046.3823,36
1604521046.3843,38
1604521046.3864,43
1604521046.3883,43
1604521046.3903,46
1604521046.3924,50
1604521046.3944,53
1604521046.3964,53
1604521046.8541,55
1604521046.8553,58
1604521046.8580,62
1604521046.8604,62
1604521046.8624,58
1604521046.8645,60
1604521046.8664,62
1604521046.8685,58
1604521046.8704,53
1604521046.8724,53
1604521046.8745,58
1604521046.8764,62
1604521046.8783,60
1604521046.8803,60
1604521046.8823,62
1604521046.8843,65
1604521046.8864,65
1604521046.8882,65
1604521046.8903,67
1604521046.8923,67
1604521046.8943,62
1604521046.8963,62
1604521046.8982,67
1604521046.9002,67
1604521046.9022,65
1604521046.9042,65
1604521046.9063,67
1604521046.9082,67
1604521046.9102,67
1604521046.9122,67
1604521046.9142,67
1604521046.9163,67
1604521046.9182,67
1604521046.9202,70
1604521046.9222,72
1604521046.9242,72
1604521046.9263,72
1604521046.9282,70
1604521046.9302,70
1604521046.9323,70
1604521046.9342,75
1604521046.9363,77
1604521046.9382,84
1604521046.9402,99
1604521046.9422,106
1604521046.9442,96
1604521046.9462,89
1604521046.9482,84
1604521046.9505,75
1604521046.9523,62
1604521046.9542,58
1604521046.9563,60
1604521046.9582,62
1604521046.9602,65
1604521046.9622,67
1604521046.9642,62
1604521046.9664,65
1604521046.9682,94
1604521046.9702,184
1604521046.9722,314
1604521046.9742,305
1604521046.9763,96
1604521046.9782,9
1604521046.9802,89
1604521046.9822,75
1604521046.9842,26
1604521046.9863,50
1604521046.9882,53
1604521046.9902,31
1604521046.9922,36
1604521046.9942,41
1604521046.9962,33
1604521046.9983,33
1604521047.3944,36
1604521047.3952,33
1604521047.3976,31
1604521047.4003,31
1604521047.4023,33
1604521047.4043,33
1604521047.4063,31
1604521047.4082,31
1604521047.4102,31
1604521047.4123,29
1604521047.4142,29
1604521047.4162,31
1604521047.4182,33
1604521047.4202,21
1604521047.4222,12
1604521047.4242,9
1604521047.4263,7
1604521047.4282,0
1604521047.4302,-2
1604521047.4322,-2
1604521047.4342,0
1604521047.4362,-2
1604521047.4382,-2
1604521047.4402,-2
1604521047.4422,0
1604521047.4442,7
1604521047.4463,16
1604521047.4482,21
1604521047.4502,21
1604521047.4522,21
1604521047.4542,26
1604521047.4563,33
1604521047.4582,36
1604521047.4602,36
1604521047.4622,38
1604521047.4642,46
1604521047.4662,48
1604521047.4682,46
1604521047.4702,50
1604521047.4722,55
1604521047.4742,55
1604521047.4763,55
1604521047.4782,55
1604521047.4802,55
1604521047.4822,55
1604521047.4842,58
1604521047.4862,53
1604521047.4882,50
1604521047.4902,53
1604521047.4922,55
1604521047.4942,58
1604521047.4962,55
1604521047.4982,53
1604521047.5002,53
1604521047.5022,53
1604521047.5042,53
1604521047.5063,53
1604521047.5082,55
1604521047.5102,58
1604521047.5122,58
1604521047.5142,53
1604521047.5162,53
1604521047.5182,53
1604521047.5202,58
1604521047.5223,58
1604521047.5242,62
1604521047.5262,79
1604521047.5282,87
1604521047.5302,72
1604521047.5322,62
1604521047.5342,62
1604521047.5362,55
1604521047.5382,41
1604521047.9044,38
1604521047.9050,43
1604521047.9075,46
1604521047.9101,46
1604521047.9122,50
1604521047.9141,48
1604521047.9160,46
1604521047.9180,60
1604521047.9200,142
1604521047.9220,297
1604521047.9240,314
1604521047.9260,70
1604521047.9280,-67
1604521047.9300,46
1604521047.9320,65
1604521047.9340,-2
1604521047.9360,21
1604521047.9380,46
1604521047.9400,24
1604521047.9420,26
1604521047.9440,38
1604521047.9460,29
1604521047.9480,26
1604521047.9500,31
1604521047.9520,31
1604521047.9540,31
1604521047.9560,33
1604521047.9580,36
1604521047.9600,38
1604521047.9620,38
1604521047.9640,38
1604521047.9660,41
1604521047.9680,46
1604521047.9700,48
1604521047.9720,48
1604521047.9740,48
1604521047.9760,53
1604521047.9780,50
1604521047.9800,46
1604521047.9820,43
1604521047.9840,41
1604521047.9860,36
1604521047.9880,31
1604521047.9900,29
1604521047.9920,31
1604521047.9940,33
1604521047.9960,33
1604521047.9980,36
1604521048.0000,38
1604521048.0020,41
1604521048.0040,41
1604521048.0060,46
1604521048.0080,46
1604521048.0100,41
1604521048.0120,38
1604521048.0141,46
1604521048.0160,53
1604521048.0180,53
1604521048.0200,55
1604521048.0220,60
1604521048.0240,65
1604521048.0260,67
1604521048.0280,67
1604521048.0300,70
1604521048.0320,75
1604521048.0340,70
1604521048.0360,70
1604521048.0380,75
1604521048.0400,75
1604521048.0420,72
1604521048.0440,72
1604521048.0460,72
1604521048.0481,70
1604521048.4744,70
1604521048.4752,70
1604521048.4777,70
1604521048.4802,65
1604521048.4823,55
1604521048.4842,50
1604521048.4863,55
1604521048.4881,58
1604521048.4902,55
1604521048.4921,53
1604521048.4941,55
1604521048.4962,55
1604521048.4981,55
1604521048.5002,62
1604521048.5021,65
1604521048.5041,65
1604521048.5062,70
1604521048.5081,87
1604521048.5102,99
1604521048.5121,87
1604521048.5142,77
1604521048.5162,72
1604521048.5181,65
1604521048.5201,53
1604521048.5221,46
1604521048.5241,48
1604521048.5262,53
1604521048.5281,50
1604521048.5302,50
1604521048.5322,55
1604521048.5341,58
1604521048.5362,75
1604521048.5382,157
1604521048.5403,290
1604521048.5422,302
1604521048.5441,99
1604521048.5462,-14
1604521048.5482,67
1604521048.5502,70
1604521048.5521,12
1604521048.5542,33
1604521048.5562,50
1604521048.5581,33
1604521048.5601,29
1604521048.5621,36
1604521048.5641,31
1604521048.5661,26
1604521048.5681,21
1604521048.5702,21
1604521048.5721,21
1604521048.5741,21
1604521048.5762,19
1604521048.5781,21
1604521048.5802,24
1604521048.5822,26
1604521048.5841,26
1604521048.5863,26
1604521048.5881,29
1604521048.5901,26
1604521048.5922,26
1604521048.5942,31
1604521048.5962,29
1604521048.5981,24
1604521048.6001,19
1604521048.6021,14
1604521048.6041,9
1604521048.6062,7
1604521048.6082,2
1604521048.6101,4
1604521048.6122,7
1604521048.6141,7
1604521048.6162,7
1604521048.6182,14
1604521049.0745,16
1604521049.0754,19
1604521049.0780,16
1604521049.0805,16
1604521049.0825,16
1604521049.0845,14
1604521049.0864,12
1604521049.0884,16
1604521049.0904,24
1604521049.0924,26
1604521049.0944,29
1604521049.0966,33
1604521049.0984,36
1604521049.1005,38
1604521049.1024,41
1604521049.1044,46
1604521049.1064,46
1604521049.1084,46
1604521049.1104,48
1604521049.1123,48
1604521049.1144,46
1604521049.1164,48
1604521049.1184,48
1604521049.1204,46
1604521049.1224,46
1604521049.1244,46
1604521049.1264,46
1604521049.1284,41
1604521049.1304,41
1604521049.1324,41
1604521049.1344,43
1604521049.1364,46
1604521049.1385,46
1604521049.1404,41
1604521049.1424,41
1604521049.1444,46
1604521049.1464,50
1604521049.1484,50
1604521049.1505,53
1604521049.1524,62
1604521049.1544,70
1604521049.1564,65
1604521049.1584,55
1604521049.1604,50
1604521049.1624,46
1604521049.1644,33
1604521049.1664,29
1604521049.1684,29
1604521049.1704,31
1604521049.1724,33
1604521049.1744,38
1604521049.1764,38
1604521049.1784,36
1604521049.1804,46
1604521049.1824,99
1604521049.1844,227
1604521049.1863,331
1604521049.1884,193
1604521049.1904,-19
1604521049.1924,12
1604521049.1944,87
1604521049.1964,26
1604521049.1985,12
1604521049.2005,43
1604521049.2024,31
1604521049.2044,24
1604521049.2064,36
1604521049.2084,36
1604521049.2104,29
1604521049.2124,33
1604521049.2144,38
1604521049.2164,36
1604521049.2184,33
1604521049.6142,31
1604521049.6149,31
1604521049.6173,29
1604521049.6200,31
1604521049.6220,33
1604521049.6240,33
1604521049.6261,36
1604521049.6280,36
1604521049.6299,36
1604521049.6319,33
1604521049.6339,26
1604521049.6359,16
1604521049.6379,16
1604521049.6399,14
1604521049.6419,7
1604521049.6439,4
1604521049.6460,7
1604521049.6479,7
1604521049.6500,7
1604521049.6520,9
1604521049.6539,12
1604521049.6559,14
1604521049.6579,16
1604521049.6599,21
1604521049.6619,26
1604521049.6639,29
1604521049.6659,26
1604521049.6679,29
1604521049.6699,36
1604521049.6719,38
1604521049.6740,41
1604521049.6759,43
1604521049.6779,43
1604521049.6800,38
1604521049.6819,38
1604521049.6839,43
1604521049.6859,48
1604521049.6879,48
1604521049.6899,48
1604521049.6919,50
1604521049.6941,53
1604521049.6959,53
1604521049.6979,53
1604521049.6999,53
1604521049.7020,53
1604521049.7039,53
1604521049.7059,53
1604521049.7079,53
1604521049.7100,53
1604521049.7119,53
1604521049.7139,50
1604521049.7159,53
1604521049.7179,53
1604521049.7199,53
1604521049.7219,53
1604521049.7239,53
1604521049.7260,53
1604521049.7279,53
1604521049.7299,53
1604521049.7319,50
1604521049.7339,53
1604521049.7359,50
1604521049.7379,48
1604521049.7399,53
1604521049.7419,58
1604521049.7439,60
1604521049.7459,62
1604521049.7479,72
1604521049.7499,87
1604521049.7520,89
1604521049.7539,77
1604521049.7559,70
1604521049.7579,70
1604521050.1845,58
1604521050.1854,46
1604521050.1878,43
1604521050.1904,46
1604521050.1925,46
1604521050.1945,48
1604521050.1965,48
1604521050.1983,43
1604521050.2004,38
1604521050.2023,70
1604521050.2043,169
1604521050.2064,290
1604521050.2083,254
1604521050.2103,50
1604521050.2124,-7
1604521050.2144,70
1604521050.2150,38
1604521050.2174,-2
1604521050.2195,26
1604521050.2214,26
1604521050.2233,9
1604521050.2253,16
1604521050.2274,24
1604521050.2293,14
1604521050.2313,12
1604521050.2333,9
1604521050.2353,7
1604521050.2373,9
1604521050.2393,14
1604521050.2413,14
1604521050.2433,14
1604521050.2453,14
1604521050.2461,14
1604521050.2483,19
1604521050.2504,21
1604521050.2523,21
1604521050.2544,21
1604521050.2565,21
1604521050.2583,24
1604521050.2603,21
1604521050.2624,19
1604521050.2643,19
1604521050.2663,14
1604521050.2683,7
1604521050.2703,7
1604521050.2723,9
1604521050.2743,9
1604521050.2750,9
1604521050.2764,12
1604521050.2783,9
1604521050.2803,9
1604521050.2823,14
1604521050.2843,21
1604521050.2863,24
1604521050.2883,26
1604521050.2903,29
1604521050.2923,33
1604521050.2943,36
1604521050.2964,38
1604521050.2983,41
1604521050.3004,43
1604521050.3023,46
1604521050.3043,43
1604521050.3050,50
1604521050.3064,55
1604521050.3083,55
1604521050.3103,55
1604521050.3124,55
1604521050.3143,55
1604521050.3165,58
1604521050.3184,55
1604521050.3203,55
1604521050.3223,58
1604521050.7250,53
1604521050.7256,53
1604521050.7269,55
1604521050.7277,55
1604521050.7298,55
1604521050.7318,53
1604521050.7339,50
1604521050.7359,50
1604521050.7378,43
1604521050.7398,33
1604521050.7418,31
1604521050.7438,36
1604521050.7458,33
1604521050.7478,31
1604521050.7498,36
1604521050.7518,38
1604521050.7538,36
1604521050.7558,33
1604521050.7578,31
1604521050.7585,36
1604521050.7598,36
1604521050.7618,36
1604521050.7638,43
1604521050.7658,48
1604521050.7678,46
1604521050.7698,58
1604521050.7718,77
1604521050.7738,75
1604521050.7758,58
1604521050.7778,53
1604521050.7798,48
1604521050.7818,38
1604521050.7838,29
1604521050.7858,26
1604521050.7878,29
1604521050.7885,31
1604521050.7898,31
1604521050.7918,31
1604521050.7938,31
1604521050.7958,43
1604521050.7978,92
1604521050.7998,213
1604521050.8018,300
1604521050.8038,167
1604521050.8058,-19
1604521050.8078,16
1604521050.8098,65
1604521050.8119,4
1604521050.8138,0
1604521050.8158,26
1604521050.8178,12
1604521050.8185,4
1604521050.8198,12
1604521050.8218,9
1604521050.8238,7
1604521050.8258,12
1604521050.8278,9
1604521050.8298,7
1604521050.8318,12
1604521050.8338,14
1604521050.8358,14
1604521050.8378,16
1604521050.8398,19
1604521050.8418,19
1604521050.8438,19
1604521050.8458,19
1604521050.8478,19
1604521050.8485,19
1604521050.8498,19
1604521050.8518,19
1604521050.8538,19
1604521050.8558,14
1604521050.8578,2
1604521051.2950,-4
1604521051.2959,-2
1604521051.2984,-7
1604521051.3010,-9
1604521051.3030,-9
1604521051.3050,-9
1604521051.3069,-19
1604521051.3089,-19
1604521051.3109,-12
1604521051.3129,-2
1604521051.3136,-4
1604521051.3160,-12
1604521051.3179,-4
1604521051.3199,4
1604521051.3219,7
1604521051.3239,14
1604521051.3259,19
1604521051.3280,19
1604521051.3299,19
1604521051.3319,24
1604521051.3339,26
1604521051.3359,26
1604521051.3379,29
1604521051.3399,31
1604521051.3419,33
1604521051.3427,31
1604521051.3439,31
1604521051.3459,36
1604521051.3479,36
1604521051.3499,31
1604521051.3519,29
1604521051.3539,29
1604521051.3559,26
1604521051.3579,26
1604521051.3599,29
1604521051.3619,26
1604521051.3639,26
1604521051.3659,29
1604521051.3679,29
1604521051.3699,31
1604521051.3719,31
1604521051.3726,29
1604521051.3739,31
1604521051.3759,36
1604521051.3779,36
1604521051.3799,36
1604521051.3819,41
1604521051.3839,46
1604521051.3859,46
1604521051.3879,50
1604521051.3899,67
1604521051.3919,77
1604521051.3939,65
1604521051.3959,55
1604521051.3979,53
1604521051.3999,46
1604521051.4019,36
1604521051.4026,26
1604521051.4039,26
1604521051.4059,33
1604521051.4079,33
1604521051.4099,33
1604521051.4119,33
1604521051.4139,31
1604521051.4159,43
1604521051.4179,116
1604521051.4200,266
1604521051.4219,312
1604521051.4239,99
1604521051.4259,-62
1604521051.4279,31
1604521051.4299,67
1604521051.4318,-4
1604521051.8342,7
1604521051.8348,31
1604521051.8372,7
1604521051.8400,-2
1604521051.8419,9
1604521051.8438,9
1604521051.8458,7
1604521051.8478,2
1604521051.8498,-2
1604521051.8518,2
1604521051.8538,7
1604521051.8558,4
1604521051.8578,9
1604521051.8599,12
1604521051.8674,14
1604521051.8688,14
1604521051.8709,14
1604521051.8728,19
1604521051.8748,24
1604521051.8769,24
1604521051.8788,24
1604521051.8808,26
1604521051.8828,21
1604521051.8849,14
1604521051.8868,14
1604521051.8888,12
1604521051.8908,7
1604521051.8928,4
1604521051.8948,4
1604521051.8969,7
1604521051.8987,9
1604521051.9008,12
1604521051.9028,16
1604521051.9048,19
1604521051.9068,21
1604521051.9088,21
1604521051.9109,26
1604521051.9128,33
1604521051.9148,33
1604521051.9168,36
1604521051.9188,41
1604521051.9208,46
1604521051.9228,46
1604521051.9248,48
1604521051.9268,53
1604521051.9288,55
1604521051.9308,53
1604521051.9328,55
1604521051.9348,58
1604521051.9369,55
1604521051.9388,58
1604521051.9408,55
1604521051.9428,55
1604521051.9448,55
1604521051.9470,53
1604521051.9488,50
1604521051.9508,53
1604521051.9528,50
1604521051.9548,48
1604521051.9569,48
1604521051.9588,48
1604521051.9608,48
1604521051.9628,46
1604521051.9648,46
1604521051.9668,46
1604521051.9688,46
1604521051.9708,43
1604521051.9728,46
1604521051.9748,46
1604521051.9769,38
1604521051.9788,33
1604521051.9809,38
1604521051.9828,43
1604521052.4338,38
1604521052.4346,41
1604521052.4371,48
1604521052.4396,50
1604521052.4416,43
1604521052.4436,48
1604521052.4457,65
1604521052.4476,67
1604521052.4496,50
1604521052.4516,46
1604521052.4536,46
1604521052.4556,36
1604521052.4576,24
1604521052.4596,14
1604521052.4616,14
1604521052.4636,16
1604521052.4656,16
1604521052.4676,19
1604521052.4696,24
1604521052.4716,29
1604521052.4736,70
1604521052.4756,179
1604521052.4776,292
1604521052.4796,213
1604521052.4816,2
1604521052.4836,-12
1604521052.4856,58
1604521052.4876,9
1604521052.4896,-14
1604521052.4916,16
1604521052.4936,12
1604521052.4956,-2
1604521052.4977,4
1604521052.4996,9
1604521052.5015,7
1604521052.5035,12
1604521052.5055,14
1604521052.5076,16
1604521052.5096,16
1604521052.5115,14
1604521052.5135,14
1604521052.5156,19
1604521052.5176,24
1604521052.5195,24
1604521052.5215,21
1604521052.5236,16
1604521052.5255,14
1604521052.5276,19
1604521052.5295,21
1604521052.5315,19
1604521052.5336,16
1604521052.5355,14
1604521052.5376,9
1604521052.5395,9
1604521052.5415,4
1604521052.5435,0
1604521052.5455,0
1604521052.5476,0
1604521052.5496,0
1604521052.5515,0
1604521052.5535,0
1604521052.5555,0
1604521052.5576,0
1604521052.5595,4
1604521052.5615,12
1604521052.5635,16
1604521052.5655,16
1604521052.5675,21
1604521052.5695,24
1604521052.5715,26
1604521052.5735,29
1604521052.5755,29
1604521052.5775,31
1604521052.9742,36
1604521052.9749,38
1604521052.9774,36
1604521052.9799,38
1604521052.9819,41
1604521052.9839,41
1604521052.9861,38
1604521052.9879,33
1604521052.9899,31
1604521052.9919,29
1604521052.9941,24
1604521052.9959,21
1604521052.9979,21
1604521052.9999,21
1604521053.0019,16
1604521053.0039,21
1604521053.0059,21
1604521053.0079,16
1604521053.0099,16
1604521053.0119,24
1604521053.0139,26
1604521053.0159,24
1604521053.0179,19
1604521053.0199,21
1604521053.0219,24
1604521053.0239,24
1604521053.0259,24
1604521053.0279,31
1604521053.0299,36
1604521053.0319,36
1604521053.0339,43
1604521053.0359,62
1604521053.0379,65
1604521053.0399,48
1604521053.0419,41
1604521053.0439,38
1604521053.0459,21
1604521053.0479,4
1604521053.0499,2
1604521053.0519,9
1604521053.0539,12
1604521053.0559,9
1604521053.0579,14
1604521053.0598,16
1604521053.0619,16
1604521053.0639,43
1604521053.0659,150
1604521053.0679,300
1604521053.0699,256
1604521053.0719,-7
1604521053.0739,-79
1604521053.0759,41
1604521053.0779,16
1604521053.0799,-36
1604521053.0819,-2
1604521053.0839,0
1604521053.0859,-24
1604521053.0879,-12
1604521053.0899,-2
1604521053.0919,-4
1604521053.0939,0
1604521053.0960,4
1604521053.0979,4
1604521053.0999,7
1604521053.1020,9
1604521053.1039,12
1604521053.1059,14
1604521053.1079,14
1604521053.1099,12
1604521053.1119,14
1604521053.1139,16
1604521053.1159,19
1604521053.1179,19
1604521053.5441,21
1604521053.5448,21
1604521053.5473,21
1604521053.5488,19
1604521053.5509,16
1604521053.5528,12
1604521053.5549,4
1604521053.5568,-7
1604521053.5588,-9
1604521053.5608,-4
1604521053.5628,-2
1604521053.5648,-4
1604521053.5668,0
1604521053.5688,2
1604521053.5708,4
1604521053.5728,9
1604521053.5748,14
1604521053.5768,16
1604521053.5788,21
1604521053.5808,24
1604521053.5828,29
1604521053.5848,36
1604521053.5868,38
1604521053.5889,41
1604521053.5908,46
1604521053.5928,48
1604521053.5948,48
1604521053.5968,50
1604521053.5988,50
1604521053.6008,50
1604521053.6028,50
1604521053.6048,50
1604521053.6069,50
1604521053.6088,50
1604521053.6108,50
1604521053.6128,48
1604521053.6148,50
1604521053.6168,48
1604521053.6188,46
1604521053.6210,46
1604521053.6229,50
1604521053.6248,50
1604521053.6269,48
1604521053.6288,46
1604521053.6308,48
1604521053.6328,48
1604521053.6348,43
1604521053.6369,41
1604521053.6388,38
1604521053.6408,38
1604521053.6428,41
1604521053.6448,48
1604521053.6468,50
1604521053.6488,50
1604521053.6508,60
1604521053.6528,75
1604521053.6548,77
1604521053.6568,65
1604521053.6588,58
1604521053.6608,50
1604521053.6628,36
1604521053.6648,24
1604521053.6668,24
1604521053.6688,26
1604521053.6708,24
1604521053.6728,24
1604521053.6748,26
1604521053.6768,29
1604521053.6788,31
1604521053.6808,60
1604521053.6828,162
1604521053.6848,295
1604521053.6868,254
1604521054.0843,31
1604521054.0851,-29
1604521054.0868,58
1604521054.0887,29
1604521054.0907,-16
1604521054.0927,12
1604521054.0947,14
1604521054.0967,-4
1604521054.0987,-7
1604521054.1007,-2
1604521054.1027,-4
1604521054.1047,-2
1604521054.1067,0
1604521054.1087,2
1604521054.1107,4
1604521054.1127,7
1604521054.1147,7
1604521054.1168,12
1604521054.1187,12
1604521054.1207,4
1604521054.1227,4
1604521054.1247,9
1604521054.1268,14
1604521054.1287,12
1604521054.1307,12
1604521054.1327,14
1604521054.1347,16
1604521054.1367,14
1604521054.1387,9
1604521054.1407,4
1604521054.1427,2
1604521054.1447,-2
1604521054.1467,-4
1604521054.1487,-2
1604521054.1507,-4
1604521054.1527,-4
1604521054.1547,-2
1604521054.1567,2
1604521054.1587,4
1604521054.1607,4
1604521054.1627,2
1604521054.1647,7
1604521054.1667,12
1604521054.1687,14
1604521054.1707,14
1604521054.1727,19
1604521054.1747,21
1604521054.1767,24
1604521054.1787,24
1604521054.1807,29
1604521054.1827,31
1604521054.1847,31
1604521054.1867,33
1604521054.1887,36
1604521054.1907,36
1604521054.1927,33
1604521054.1947,36
1604521054.1967,38
1604521054.1987,38
1604521054.2007,36
1604521054.2027,36
1604521054.2047,36
1604521054.2067,33
1604521054.2087,33
1604521054.2107,33
1604521054.2127,33
1604521054.2148,31
1604521054.2167,31
1604521054.2188,33
1604521054.2207,33
1604521054.2227,33
1604521054.2247,33
1604521054.2267,36
1604521054.6542,43
1604521054.6550,48
1604521054.6575,46
1604521054.6601,50
1604521054.6621,65
1604521054.6641,65
1604521054.6663,46
1604521054.6681,38
1604521054.6701,38
1604521054.6721,29
1604521054.6741,14
1604521054.6762,7
1604521054.6780,12
1604521054.6800,14
1604521054.6820,16
1604521054.6840,21
1604521054.6861,24
1604521054.6880,21
1604521054.6900,36
1604521054.6920,106
1604521054.6940,244
1604521054.6960,300
1604521054.6980,111
1604521054.7000,-58
1604521054.7020,19
1604521054.7040,60
1604521054.7061,-4
1604521054.7080,4
1604521054.7100,29
1604521054.7121,9
1604521054.7141,9
1604521054.7161,21
1604521054.7180,9
1604521054.7200,2
1604521054.7220,4
1604521054.7240,4
1604521054.7261,0
1604521054.7280,4
1604521054.7300,7
1604521054.7320,7
1604521054.7340,4
1604521054.7361,2
1604521054.7380,4
1604521054.7400,7
1604521054.7420,4
1604521054.7441,4
1604521054.7462,7
1604521054.7480,7
1604521054.7500,7
1604521054.7521,4
1604521054.7540,2
1604521054.7561,-2
1604521054.7580,-4
1604521054.7600,-12
1604521054.7620,-14
1604521054.7640,-12
1604521054.7662,-14
1604521054.7680,-12
1604521054.7700,-7
1604521054.7720,-4
1604521054.7740,-4
1604521054.7761,0
1604521054.7781,2
1604521054.7800,2
1604521054.7820,2
1604521054.7841,2
1604521054.7861,9
1604521054.7880,16
1604521054.7900,19
1604521054.7920,21
1604521054.7940,26
1604521054.7960,26
1604521054.7981,26
1604521055.1941,24
1604521055.1948,26
1604521055.1972,26
1604521055.1998,26
1604521055.2018,29
1604521055.2039,26
1604521055.2060,16
1604521055.2078,9
1604521055.2098,12
1604521055.2118,14
1604521055.2138,12
1604521055.2158,9
1604521055.2178,9
1604521055.2198,9
1604521055.2218,14
1604521055.2238,12
1604521055.2258,9
1604521055.2278,9
1604521055.2298,12
1604521055.2318,12
1604521055.2337,12
1604521055.2358,14
1604521055.2378,16
1604521055.2398,24
1604521055.2420,26
1604521055.2438,24
1604521055.2458,29
1604521055.2478,46
1604521055.2498,46
1604521055.2518,31
1604521055.2538,24
1604521055.2558,24
1604521055.2578,14
1604521055.2598,0
1604521055.2618,-7
1604521055.2638,-2
1604521055.2658,4
1604521055.2678,4
1604521055.2698,4
1604521055.2718,7
1604521055.2738,12
1604521055.2758,43
1604521055.2778,150
1604521055.2798,292
1604521055.2818,246
1604521055.2837,0
1604521055.2858,-65
1604521055.2878,46
1604521055.2898,21
1604521055.2918,-29
1604521055.2938,7
1604521055.2958,14
1604521055.2978,-7
1604521055.2998,2
1604521055.3018,12
1604521055.3038,7
1604521055.3058,7
1604521055.3078,9
1604521055.3098,7
1604521055.3117,4
1604521055.3139,7
1604521055.3158,7
1604521055.3178,7
1604521055.3198,9
1604521055.3218,7
1604521055.3238,7
1604521055.3258,9
1604521055.3278,12
1604521055.3298,14
1604521055.3317,12
1604521055.3338,12
1604521055.3358,12
1604521055.3378,7
1604521055.7942,4
1604521055.7950,2
1604521055.7977,-2
1604521055.8002,-12
1604521055.8021,-21
1604521055.8041,-21
1604521055.8061,-14
1604521055.8080,-14
1604521055.8100,-16
1604521055.8120,-12
1604521055.8140,-7
1604521055.8161,-4
1604521055.8180,-2
1604521055.8200,2
1604521055.8220,7
1604521055.8240,7
1604521055.8261,9
1604521055.8281,16
1604521055.8301,14
1604521055.8320,9
1604521055.8340,12
1604521055.8361,16
1604521055.8380,21
1604521055.8400,24
1604521055.8420,24
1604521055.8440,26
1604521055.8460,26
1604521055.8480,26
1604521055.8500,24
1604521055.8520,29
1604521055.8540,29
1604521055.8561,24
1604521055.8580,24
1604521055.8600,24
1604521055.8620,26
1604521055.8640,24
1604521055.8661,24
1604521055.8680,26
1604521055.8700,24
1604521055.8720,21
1604521055.8740,24
1604521055.8761,26
1604521055.8780,26
1604521055.8800,26
1604521055.8820,29
1604521055.8840,29
1604521055.8861,26
1604521055.8881,26
1604521055.8900,31
1604521055.8920,36
1604521055.8940,36
1604521055.8960,36
1604521055.8980,41
1604521055.9001,58
1604521055.9020,70
1604521055.9040,58
1604521055.9061,43
1604521055.9080,38
1604521055.9100,33
1604521055.9120,21
1604521055.9140,14
1604521055.9161,14
1604521055.9180,16
1604521055.9200,16
1604521055.9220,19
1604521055.9240,24
1604521055.9260,21
1604521055.9280,33
1604521055.9300,94
1604521055.9320,215
1604521055.9340,285
1604521055.9361,145
1604521055.9380,-21
1604521056.3650,16
1604521056.3666,53
1604521056.3691,-4
1604521056.3717,-4
1604521056.3737,19
1604521056.3757,4
1604521056.3776,0
1604521056.3796,12
1604521056.3816,4
1604521056.3836,-7
1604521056.3856,-2
1604521056.3875,0
1604521056.3895,-12
1604521056.3915,-14
1604521056.3935,-12
1604521056.3955,-16
1604521056.3975,-21
1604521056.3995,-19
1604521056.4015,-14
1604521056.4035,-14
1604521056.4055,-12
1604521056.4075,-12
1604521056.4094,-9
1604521056.4115,-4
1604521056.4134,-7
1604521056.4154,-9
1604521056.4175,-12
1604521056.4194,-14
1604521056.4214,-16
1604521056.4234,-19
1604521056.4254,-19
1604521056.4277,-16
1604521056.4295,-19
1604521056.4314,-21
1604521056.4334,-16
1604521056.4355,-9
1604521056.4375,-4
1604521056.4395,-2
1604521056.4414,0
1604521056.4435,2
1604521056.4454,4
1604521056.4474,9
1604521056.4495,14
1604521056.4515,16
1604521056.4535,14
1604521056.4554,19
1604521056.4575,24
1604521056.4595,24
1604521056.4615,21
1604521056.4635,24
1604521056.4654,29
1604521056.4675,29
1604521056.4695,31
1604521056.4715,36
1604521056.4734,36
1604521056.4755,31
1604521056.4775,31
1604521056.4794,36
1604521056.4814,36
1604521056.4837,33
1604521056.4854,31
1604521056.4874,33
1604521056.4894,33
1604521056.4902,31
1604521056.4924,29
1604521056.4944,31
1604521056.4964,33
1604521056.4985,33
1604521056.5005,29
1604521056.5024,29
1604521056.5044,31
1604521056.5065,31
1604521056.5084,31
1604521056.9037,33
1604521056.9045,31
1604521056.9070,29
1604521056.9080,31
1604521056.9095,29
1604521056.9115,24
1604521056.9135,21
1604521056.9155,21
1604521056.9175,29
1604521056.9197,29
1604521056.9215,19
1604521056.9235,21
1604521056.9255,41
1604521056.9275,43
1604521056.9294,31
1604521056.9315,26
1604521056.9335,26
1604521056.9355,16
1604521056.9362,4
1604521056.9384,0
1604521056.9405,2
1604521056.9425,4
1604521056.9444,4
1604521056.9465,9
1604521056.9485,14
1604521056.9505,14
1604521056.9524,46
1604521056.9544,145
1604521056.9565,271
1604521056.9584,222
1604521056.9604,9
1604521056.9624,-36
1604521056.9644,41
1604521056.9665,4
1604521056.9672,-29
1604521056.9685,4
1604521056.9705,2
1604521056.9725,-19
1604521056.9744,-14
1604521056.9765,-12
1604521056.9785,-14
1604521056.9804,-14
1604521056.9825,-12
1604521056.9844,-16
1604521056.9865,-16
1604521056.9885,-12
1604521056.9905,-9
1604521056.9925,-9
1604521056.9945,-9
1604521056.9964,-9
1604521056.9972,-7
1604521056.9984,-2
1604521057.0005,-2
1604521057.0025,-2
1604521057.0044,-2
1604521057.0065,0
1604521057.0085,-4
1604521057.0104,-7
1604521057.0124,-7
1604521057.0145,-9
1604521057.0166,-16
1604521057.0185,-24
1604521057.0204,-24
1604521057.0224,-21
1604521057.0244,-19
1604521057.0265,-21
1604521057.0271,-21
1604521057.0284,-16
1604521057.0304,-9
1604521057.0324,-7
1604521057.0345,-12
1604521057.0365,-12
1604521057.0385,-4
1604521057.5040,0
1604521057.5049,2
1604521057.5073,7
1604521057.5099,9
1604521057.5119,16
1604521057.5139,19
1604521057.5160,16
1604521057.5178,7
1604521057.5198,4
1604521057.5206,12
1604521057.5228,16
1604521057.5248,14
1604521057.5268,12
1604521057.5288,16
1604521057.5308,21
1604521057.5329,21
1604521057.5348,19
1604521057.5370,21
1604521057.5388,21
1604521057.5408,19
1604521057.5428,19
1604521057.5448,19
1604521057.5468,19
1604521057.5488,16
1604521057.5509,16
1604521057.5515,21
1604521057.5528,26
1604521057.5548,24
1604521057.5569,19
1604521057.5588,21
1604521057.5608,16
1604521057.5628,16
1604521057.5648,26
1604521057.5668,33
1604521057.5688,33
1604521057.5708,36
1604521057.5728,50
1604521057.5748,60
1604521057.5770,50
1604521057.5789,41
1604521057.5808,38
1604521057.5815,29
1604521057.5828,14
1604521057.5848,7
1604521057.5868,14
1604521057.5888,16
1604521057.5908,16
1604521057.5928,19
1604521057.5948,24
1604521057.5968,26
1604521057.5988,43
1604521057.6008,123
1604521057.6028,278
1604521057.6048,319
1604521057.6069,82
1604521057.6088,-89
1604521057.6108,19
1604521057.6115,58
1604521057.6138,-14
1604521057.6158,2
1604521057.6178,29
1604521057.6198,2
1604521057.6219,-4
1604521057.6239,2
1604521057.6258,0
1604521057.6278,-2
1604521057.6298,2
1604521057.6318,7
1604521057.6338,7
1604521057.6358,7
1604521057.6378,9
1604521057.6398,12
1604521057.6405,12
1604521058.0142,12
1604521058.0148,14
1604521058.0172,19
1604521058.0199,21
1604521058.0218,21
1604521058.0239,19
1604521058.0259,19
1604521058.0278,19
1604521058.0298,12
1604521058.0318,0
1604521058.0338,0
1604521058.0358,-4
1604521058.0365,-16
1604521058.0388,-26
1604521058.0408,-19
1604521058.0428,-14
1604521058.0450,-14
1604521058.0468,-12
1604521058.0488,-4
1604521058.0508,-2
1604521058.0528,0
1604521058.0548,2
1604521058.0568,4
1604521058.0588,9
1604521058.0608,12
1604521058.0628,19
1604521058.0648,24
1604521058.0668,29
1604521058.0675,31
1604521058.0688,33
1604521058.0708,38
1604521058.0728,43
1604521058.0748,43
1604521058.0768,48
1604521058.0788,53
1604521058.0808,48
1604521058.0828,48
1604521058.0848,53
1604521058.0868,50
1604521058.0888,48
1604521058.0908,48
1604521058.0928,48
1604521058.0948,46
1604521058.0968,46
1604521058.0975,43
1604521058.0988,43
1604521058.1008,46
1604521058.1028,43
1604521058.1048,41
1604521058.1068,43
1604521058.1088,48
1604521058.1108,43
1604521058.1128,41
1604521058.1148,41
1604521058.1168,41
1604521058.1188,38
1604521058.1191,33
1604521058.1208,36
1604521058.1228,41
1604521058.1248,43
1604521058.1268,46
1604521058.1288,53
1604521058.1308,70
1604521058.1328,77
1604521058.1348,67
1604521058.1369,58
1604521058.1388,53
1604521058.1409,48
1604521058.1429,36
1604521058.1448,31
1604521058.1468,29
1604521058.1488,31
1604521058.1508,33
1604521058.6143,36
1604521058.6150,33
1604521058.6175,31
1604521058.6201,46
1604521058.6221,108
1604521058.6241,237
1604521058.6262,295
1604521058.6281,128
1604521058.6301,-36
1604521058.6321,21
1604521058.6341,55
1604521058.6361,-12
1604521058.6381,-9
1604521058.6401,14
1604521058.6421,-2
1604521058.6441,-4
1604521058.6461,7
1604521058.6481,7
1604521058.6502,4
1604521058.6521,12
1604521058.6541,14
1604521058.6562,12
1604521058.6580,12
1604521058.6600,14
1604521058.6620,16
1604521058.6640,16
1604521058.6661,16
1604521058.6680,19
1604521058.6700,19
1604521058.6720,19
1604521058.6740,24
1604521058.6761,26
1604521058.6781,26
1604521058.6800,24
1604521058.6820,21
1604521058.6840,16
1604521058.6861,7
1604521058.6880,9
1604521058.6900,16
1604521058.6920,14
1604521058.6940,4
1604521058.6960,2
1604521058.6980,2
1604521058.7000,7
1604521058.7020,9
1604521058.7042,9
1604521058.7061,12
1604521058.7080,19
1604521058.7100,21
1604521058.7120,29
1604521058.7140,43
1604521058.7161,38
1604521058.7180,16
1604521058.7200,19
1604521058.7220,31
1604521058.7240,31
1604521058.7261,31
1604521058.7280,36
1604521058.7300,36
1604521058.7321,36
1604521058.7340,36
1604521058.7361,38
1604521058.7381,41
1604521058.7400,43
1604521058.7420,41
1604521058.7440,38
1604521058.7461,38
1604521058.7480,43
1604521058.7500,43
1604521058.7520,41
1604521058.7540,41
1604521058.7561,41
1604521058.7580,38
1604521059.1543,36
1604521059.1552,38
1604521059.1577,38
1604521059.1602,33
1604521059.1622,33
1604521059.1642,38
1604521059.1662,33
1604521059.1682,24
1604521059.1702,21
1604521059.1722,24
1604521059.1742,19
1604521059.1762,9
1604521059.1782,9
1604521059.1802,14
1604521059.1822,16
1604521059.1842,19
1604521059.1863,29
1604521059.1883,31
1604521059.1902,31
1604521059.1922,48
1604521059.1942,55
1604521059.1963,41
1604521059.1982,31
1604521059.2004,31
1604521059.2022,24
1604521059.2041,12
1604521059.2062,4
1604521059.2081,4
1604521059.2102,12
1604521059.2122,16
1604521059.2142,16
1604521059.2162,12
1604521059.2181,16
1604521059.2201,48
1604521059.2221,145
1604521059.2241,278
1604521059.2262,239
1604521059.2281,2
1604521059.2301,-67
1604521059.2321,33
1604521059.2341,7
1604521059.2362,-48
1604521059.2381,-21
1604521059.2402,-12
1604521059.2421,-26
1604521059.2441,-16
1604521059.2461,-7
1604521059.2481,-12
1604521059.2502,-12
1604521059.2521,-7
1604521059.2541,-7
1604521059.2562,-9
1604521059.2581,-4
1604521059.2601,0
1604521059.2621,0
1604521059.2641,2
1604521059.2662,2
1604521059.2682,4
1604521059.2701,9
1604521059.2721,9
1604521059.2741,7
1604521059.2762,4
1604521059.2781,4
1604521059.2801,4
1604521059.2821,0
1604521059.2842,-4
1604521059.2862,-7
1604521059.2881,-9
1604521059.2901,-14
1604521059.2922,-21
1604521059.2941,-21
1604521059.2962,-16
1604521059.2981,-14
1604521059.7543,-16
1604521059.7553,-19
1604521059.7564,-16
1604521059.7584,-9
1604521059.7604,-7
1604521059.7624,-4
1604521059.7644,4
1604521059.7664,12
1604521059.7683,-2
1604521059.7703,-12
1604521059.7723,0
1604521059.7743,4
1604521059.7764,0
1604521059.7783,2
1604521059.7803,12
1604521059.7823,14
1604521059.7843,14
1604521059.7863,19
1604521059.7883,24
1604521059.7903,21
1604521059.7923,16
1604521059.7943,19
1604521059.7963,21
1604521059.7983,16
1604521059.8002,12
1604521059.8023,12
1604521059.8043,2
1604521059.8063,-9
1604521059.8083,-4
1604521059.8103,7
1604521059.8123,7
1604521059.8143,2
1604521059.8163,0
1604521059.8183,-9
1604521059.8203,-16
1604521059.8223,-9
1604521059.8243,-2
1604521059.8263,0
1604521059.8283,7
1604521059.8303,9
1604521059.8323,7
1604521059.8343,26
1604521059.8363,41
1604521059.8383,21
1604521059.8403,2
1604521059.8423,4
1604521059.8443,0
1604521059.8463,-16
1604521059.8483,-24
1604521059.8503,-19
1604521059.8523,-19
1604521059.8543,-16
1604521059.8564,-12
1604521059.8584,-9
1604521059.8603,-2
1604521059.8623,26
1604521059.8643,121
1604521059.8663,276
1604521059.8683,290
1604521059.8703,31
1604521059.8723,-130
1604521059.8743,-16
1604521059.8763,14
1604521059.8783,-60
1604521059.8803,-33
1604521059.8823,-2
1604521059.8843,-24
1604521059.8863,-19
1604521059.8883,2
1604521059.8903,0
1604521059.8923,4
1604521059.8943,14
1604521059.8963,16
1604521060.2636,31
1604521060.2642,41
1604521060.2666,36
1604521060.2692,41
1604521060.2712,55
1604521060.2732,62
1604521060.2753,65
1604521060.2773,67
1604521060.2792,77
1604521060.2812,72
1604521060.2832,43
1604521060.2852,36
1604521060.2873,53
1604521060.2892,50
1604521060.2912,31
1604521060.2932,31
1604521060.2952,33
1604521060.2972,16
1604521060.2992,9
1604521060.3012,14
1604521060.3032,21
1604521060.3052,21
1604521060.3072,21
1604521060.3092,21
1604521060.3112,21
1604521060.3132,21
1604521060.3152,24
1604521060.3172,26
1604521060.3192,24
1604521060.3212,26
1604521060.3233,31
1604521060.3252,33
1604521060.3272,38
1604521060.3292,50
1604521060.3312,58
1604521060.3332,55
1604521060.3352,53
1604521060.3372,58
1604521060.3392,62
1604521060.3412,58
1604521060.3432,50
1604521060.3452,55
1604521060.3472,62
1604521060.3492,58
1604521060.3512,48
1604521060.3532,53
1604521060.3552,55
1604521060.3572,53
1604521060.3592,48
1604521060.3612,48
1604521060.3632,53
1604521060.3652,48
1604521060.3672,46
1604521060.3692,55
1604521060.3712,62
1604521060.3732,58
1604521060.3752,60
1604521060.3772,65
1604521060.3792,75
1604521060.3812,79
1604521060.3832,67
1604521060.3852,60
1604521060.3873,60
1604521060.3892,50
1604521060.3912,36
1604521060.3932,33
1604521060.3952,41
1604521060.3972,43
1604521060.3992,41
1604521060.4012,46
1604521060.4032,50
1604521060.4052,55
1604521060.4072,77
1604521060.8343,147
1604521060.8350,266
1604521060.8376,292
1604521060.8401,123
1604521060.8421,-2
1604521060.8441,58
1604521060.8461,70
1604521060.8481,9
1604521060.8503,16
1604521060.8521,41
1604521060.8540,31
1604521060.8561,33
1604521060.8580,41
1604521060.8600,36
1604521060.8620,36
1604521060.8640,50
1604521060.8660,60
1604521060.8680,55
1604521060.8700,53
1604521060.8720,48
1604521060.8740,46
1604521060.8760,46
1604521060.8780,48
1604521060.8800,48
1604521060.8820,50
1604521060.8841,53
1604521060.8861,53
1604521060.8880,53
1604521060.8900,53
1604521060.8920,53
1604521060.8940,50
1604521060.8960,53
1604521060.8980,58
1604521060.9001,50
1604521060.9020,46
1604521060.9041,50
1604521060.9060,55
1604521060.9080,58
1604521060.9100,60
1604521060.9120,62
1604521060.9140,62
1604521060.9161,65
1604521060.9180,65
1604521060.9200,67
1604521060.9220,77
1604521060.9240,87
1604521060.9261,89
1604521060.9280,92
1604521060.9300,101
1604521060.9320,104
1604521060.9340,101
1604521060.9360,108
1604521060.9380,113
1604521060.9400,118
1604521060.9420,123
1604521060.9440,125
1604521060.9460,128
1604521060.9480,130
1604521060.9501,133
1604521060.9521,135
1604521060.9540,138
1604521060.9561,140
1604521060.9580,138
1604521060.9600,133
1604521060.9620,133
1604521060.9640,130
1604521060.9660,130
1604521060.9680,135
1604521060.9700,121
1604521060.9720,113
1604521060.9740,133
1604521060.9760,147
1604521060.9780,130
1604521061.4039,118
1604521061.4047,128
1604521061.4073,142
1604521061.4098,145
1604521061.4118,130
1604521061.4138,121
1604521061.4159,121
1604521061.4178,111
1604521061.4198,89
1604521061.4218,79
1604521061.4238,84
1604521061.4258,77
1604521061.4277,72
1604521061.4297,82
1604521061.4317,84
1604521061.4337,77
1604521061.4357,94
1604521061.4377,154
1604521061.4397,249
1604521061.4417,292
1604521061.4437,169
1604521061.4457,16
1604521061.4477,41
1604521061.4497,79
1604521061.4517,36
1604521061.4537,31
1604521061.4557,46
1604521061.4577,31
1604521061.4597,24
1604521061.4617,29
1604521061.4637,26
1604521061.4657,19
1604521061.4677,14
1604521061.4697,14
1604521061.4717,14
1604521061.4737,7
1604521061.4757,4
1604521061.4779,7
1604521061.4797,14
1604521061.4817,12
1604521061.4837,7
1604521061.4857,12
1604521061.4877,9
1604521061.4897,4
1604521061.4917,-2
1604521061.4937,-12
1604521061.4957,-9
1604521061.4978,-2
1604521061.4997,-4
1604521061.5017,-14
1604521061.5038,-29
1604521061.5059,-29
1604521061.5077,-24
1604521061.5097,-29
1604521061.5117,-36
1604521061.5138,-29
1604521061.5157,-24
1604521061.5177,-24
1604521061.5197,-24
1604521061.5218,-24
1604521061.5237,-21
1604521061.5258,-19
1604521061.5277,-16
1604521061.5297,-19
1604521061.5318,-21
1604521061.5337,-21
1604521061.5359,-19
1604521061.5378,-16
1604521061.5398,-16
1604521061.5417,-16
1604521061.5437,-4
1604521061.5458,4
1604521061.5477,-7
1604521061.9440,-12
1604521061.9447,-4
1604521061.9470,0
1604521061.9497,0
1604521061.9517,-7
1604521061.9537,-9
1604521061.9558,4
1604521061.9577,4
1604521061.9596,-12
1604521061.9617,-14
1604521061.9636,-9
1604521061.9656,-9
1604521061.9677,-7
1604521061.9696,-2
1604521061.9716,12
1604521061.9738,19
1604521061.9757,14
1604521061.9776,19
1604521061.9797,38
1604521061.9816,53
1604521061.9836,50
1604521061.9856,33
1604521061.9876,24
1604521061.9896,21
1604521061.9916,14
1604521061.9936,16
1604521061.9956,31
1604521061.9977,41
1604521061.9996,33
1604521062.0017,36
1604521062.0036,53
1604521062.0056,58
1604521062.0077,67
1604521062.0096,113
1604521062.0116,193
1604521062.0136,295
1604521062.0156,268
1604521062.0176,84
1604521062.0196,36
1604521062.0216,135
1604521062.0236,113
1604521062.0257,53
1604521062.0276,87
1604521062.0296,99
1604521062.0316,75
1604521062.0336,89
1604521062.0357,106
1604521062.0376,92
1604521062.0396,84
1604521062.0417,94
1604521062.0436,94
1604521062.0457,92
1604521062.0476,94
1604521062.0497,89
1604521062.0516,75
1604521062.0537,62
1604521062.0557,67
1604521062.0576,77
1604521062.0596,75
1604521062.0617,62
1604521062.0636,58
1604521062.0656,55
1604521062.0676,48
1604521062.0697,41
1604521062.0716,36
1604521062.0737,31
1604521062.0758,21
1604521062.0777,9
1604521062.0796,4
1604521062.0817,-4
1604521062.0836,-14
1604521062.0857,-19
1604521062.0876,-24
1604521062.5442,-21
1604521062.5451,-4
1604521062.5475,-2
1604521062.5502,-12
1604521062.5521,2
1604521062.5541,16
1604521062.5561,0
1604521062.5580,4
1604521062.5600,29
1604521062.5620,29
1604521062.5640,26
1604521062.5661,41
1604521062.5680,38
1604521062.5700,31
1604521062.5720,41
1604521062.5740,50
1604521062.5760,50
1604521062.5780,48
1604521062.5800,46
1604521062.5820,53
1604521062.5840,50
1604521062.5860,43
1604521062.5880,50
1604521062.5900,58
1604521062.5920,53
1604521062.5940,50
1604521062.5960,50
1604521062.5980,48
1604521062.6001,43
1604521062.6020,41
1604521062.6040,58
1604521062.6060,79
1604521062.6080,77
1604521062.6100,72
1604521062.6120,77
1604521062.6140,82
1604521062.6160,84
1604521062.6180,82
1604521062.6200,70
1604521062.6220,65
1604521062.6240,65
1604521062.6260,43
1604521062.6280,43
1604521062.6300,75
1604521062.6321,77
1604521062.6340,60
1604521062.6360,65
1604521062.6380,82
1604521062.6400,99
1604521062.6420,171
1604521062.6440,312
1604521062.6460,334
1604521062.6480,130
1604521062.6500,4
1604521062.6520,94
1604521062.6540,118
1604521062.6560,55
1604521062.6580,67
1604521062.6600,92
1604521062.6620,77
1604521062.6640,67
1604521062.6660,77
1604521062.6680,87
1604521062.6700,87
1604521062.6720,77
1604521062.6740,67
1604521062.6760,77
1604521062.6780,94
1604521062.6800,82
1604521062.6820,72
1604521062.6841,99
1604521062.6860,106
1604521062.6880,89
1604521063.1142,101
1604521063.1151,111
1604521063.1175,96
1604521063.1201,106
1604521063.1221,128
1604521063.1241,113
1604521063.1262,101
1604521063.1281,101
1604521063.1301,96
1604521063.1321,92
1604521063.1341,96
1604521063.1361,94
1604521063.1381,92
1604521063.1401,104
1604521063.1421,111
1604521063.1440,113
1604521063.1461,116
1604521063.1481,121
1604521063.1501,128
1604521063.1521,140
1604521063.1541,145
1604521063.1561,147
1604521063.1582,147
1604521063.1601,164
1604521063.1621,184
1604521063.1641,162
1604521063.1660,130
1604521063.1681,150
1604521063.1700,188
1604521063.1721,184
1604521063.1741,169
1604521063.1761,191
1604521063.1781,198
1604521063.1801,184
1604521063.1821,179
1604521063.1841,184
1604521063.1862,176
1604521063.1880,167
1604521063.1901,167
1604521063.1921,167
1604521063.1941,164
1604521063.1947,164
1604521063.1961,164
1604521063.1981,164
1604521063.2001,169
1604521063.2021,181
1604521063.2040,188
1604521063.2061,179
1604521063.2081,176
1604521063.2101,184
1604521063.2121,162
1604521063.2141,145
1604521063.2161,162
1604521063.2181,152
1604521063.2200,111
1604521063.2221,92
1604521063.2240,125
1604521063.2247,167
1604521063.2261,150
1604521063.2281,121
1604521063.2301,133
1604521063.2320,145
1604521063.2341,188
1604521063.2361,280
1604521063.2381,355
1604521063.2401,305
1604521063.2421,142
1604521063.2440,89
1604521063.2461,142
1604521063.2481,118
1604521063.2501,82
1604521063.2521,104
1604521063.2541,106
1604521063.6843,92
1604521063.6852,87
1604521063.6876,82
1604521063.6902,87
1604521063.6922,89
1604521063.6942,75
1604521063.6962,67
1604521063.6982,77
1604521063.7002,82
1604521063.7022,70
1604521063.7042,53
1604521063.7062,46
1604521063.7081,48
1604521063.7101,55
1604521063.7122,55
1604521063.7129,60
1604521063.7152,65
1604521063.7171,60
1604521063.7192,55
1604521063.7211,55
1604521063.7231,46
1604521063.7251,48
1604521063.7272,55
1604521063.7291,55
1604521063.7311,53
1604521063.7332,55
1604521063.7351,55
1604521063.7372,50
1604521063.7391,65
1604521063.7411,89
1604521063.7431,65
1604521063.7438,46
1604521063.7451,89
1604521063.7471,118
1604521063.7491,84
1604521063.7512,75
1604521063.7531,87
1604521063.7551,84
1604521063.7572,77
1604521063.7591,84
1604521063.7611,92
1604521063.7631,92
1604521063.7651,89
1604521063.7671,92
1604521063.7691,89
1604521063.7711,89
1604521063.7731,89
1604521063.7738,75
1604521063.7751,58
1604521063.7772,65
1604521063.7793,75
1604521063.7813,58
1604521063.7832,38
1604521063.7851,53
1604521063.7871,62
1604521063.7891,48
1604521063.7911,55
1604521063.7931,60
1604521063.7951,53
1604521063.7971,65
1604521063.7991,72
1604521063.8011,60
1604521063.8018,72
1604521063.8031,72
1604521063.8051,46
1604521063.8072,31
1604521063.8091,24
1604521063.8111,12
1604521063.8131,16
1604521063.8151,24
1604521063.8171,16
1604521063.8191,14
1604521063.8211,19
1604521064.1943,26
1604521064.1952,50
1604521064.1975,113
1604521064.1987,217
1604521064.2002,249
1604521064.2022,101
1604521064.2042,-24
1604521064.2062,14
1604521064.2081,16
1604521064.2101,-31
1604521064.2121,-4
1604521064.2141,14
1604521064.2162,-12
1604521064.2182,-16
1604521064.2201,-19
1604521064.2221,-46
1604521064.2241,-50
1604521064.2261,-31
1604521064.2281,-24
1604521064.2288,-12
1604521064.2301,4
1604521064.2321,-2
1604521064.2341,-19
1604521064.2362,-14
1604521064.2381,-2
1604521064.2401,0
1604521064.2421,-2
1604521064.2441,2
1604521064.2461,12
1604521064.2483,12
1604521064.2502,9
1604521064.2521,7
1604521064.2541,7
1604521064.2562,7
1604521064.2581,7
1604521064.2588,14
1604521064.2611,16
1604521064.2631,7
1604521064.2652,12
1604521064.2671,29
1604521064.2691,38
1604521064.2711,41
1604521064.2731,38
1604521064.2751,36
1604521064.2771,50
1604521064.2791,58
1604521064.2811,53
1604521064.2831,55
1604521064.2851,60
1604521064.2871,65
1604521064.2891,67
1604521064.2898,67
1604521064.2911,72
1604521064.2931,77
1604521064.2951,79
1604521064.2971,79
1604521064.2991,84
1604521064.3011,89
1604521064.3031,84
1604521064.3051,75
1604521064.3071,77
1604521064.3091,84
1604521064.3111,84
1604521064.3131,79
1604521064.3152,75
1604521064.3171,75
1604521064.3191,82
1604521064.3198,79
1604521064.3211,75
1604521064.3231,82
1604521064.3251,94
1604521064.3271,99
1604521064.3291,89
1604521064.7344,72
1604521064.7350,65
1604521064.7368,58
1604521064.7387,48
1604521064.7407,43
1604521064.7415,36
1604521064.7428,29
1604521064.7449,26
1604521064.7467,29
1604521064.7487,33
1604521064.7507,31
1604521064.7527,46
1604521064.7547,104
1604521064.7567,208
1604521064.7587,273
1604521064.7607,174
1604521064.7627,36
1604521064.7647,58
1604521064.7667,87
1604521064.7687,33
1604521064.7707,31
1604521064.7714,55
1604521064.7727,43
1604521064.7747,36
1604521064.7767,50
1604521064.7787,50
1604521064.7807,46
1604521064.7827,50
1604521064.7848,55
1604521064.7869,55
1604521064.7887,53
1604521064.7907,50
1604521064.7927,46
1604521064.7947,46
1604521064.7967,43
1604521064.7988,36
1604521064.8001,26
1604521064.8018,29
1604521064.8037,24
1604521064.8057,14
1604521064.8077,7
1604521064.8097,2
1604521064.8117,-4
1604521064.8137,-7
1604521064.8158,-9
1604521064.8177,-14
1604521064.8197,-19
1604521064.8217,-24
1604521064.8237,-14
1604521064.8257,-4
1604521064.8277,-7
1604521064.8297,-2
1604521064.8317,16
1604521064.8337,31
1604521064.8358,26
1604521064.8377,21
1604521064.8397,19
1604521064.8417,21
1604521064.8438,26
1604521064.8458,16
1604521064.8477,12
1604521064.8497,29
1604521064.8517,36
1604521064.8537,24
1604521064.8557,19
1604521064.8577,16
1604521064.8597,9
1604521064.8617,14
1604521064.8637,19
1604521064.8657,16
1604521064.8677,16
1604521064.8697,19
1604521064.8717,21
1604521065.3042,29
1604521065.3050,36
1604521065.3075,38
1604521065.3101,43
1604521065.3121,38
1604521065.3141,36
1604521065.3162,53
1604521065.3181,70
1604521065.3200,62
1604521065.3220,53
1604521065.3241,48
1604521065.3261,33
1604521065.3281,21
1604521065.3300,19
1604521065.3320,24
1604521065.3341,26
1604521065.3361,26
1604521065.3380,31
1604521065.3400,38
1604521065.3420,33
1604521065.3440,36
1604521065.3460,101
1604521065.3480,227
1604521065.3500,288
1604521065.3520,162
1604521065.3541,19
1604521065.3561,50
1604521065.3580,72
1604521065.3600,14
1604521065.3620,21
1604521065.3640,65
1604521065.3660,58
1604521065.3680,53
1604521065.3700,67
1604521065.3720,65
1604521065.3740,62
1604521065.3762,67
1604521065.3780,70
1604521065.3800,65
1604521065.3820,62
1604521065.3840,60
1604521065.3861,62
1604521065.3880,62
1604521065.3900,53
1604521065.3920,55
1604521065.3940,60
1604521065.3960,53
1604521065.3980,46
1604521065.4000,46
1604521065.4020,46
1604521065.4040,50
1604521065.4060,50
1604521065.4080,43
1604521065.4100,48
1604521065.4120,43
1604521065.4140,29
1604521065.4160,41
1604521065.4180,60
1604521065.4200,70
1604521065.4220,79
1604521065.4240,89
1604521065.4261,96
1604521065.4280,101
1604521065.4300,104
1604521065.4320,106
1604521065.4340,106
1604521065.4361,104
1604521065.4380,108
1604521065.4400,116
1604521065.4420,121
1604521065.4440,121
1604521065.4460,116
1604521065.4480,123
1604521065.9042,142
1604521065.9049,140
1604521065.9075,125
1604521065.9100,125
1604521065.9120,135
1604521065.9140,135
1604521065.9161,125
1604521065.9180,130
1604521065.9200,135
1604521065.9220,128
1604521065.9240,125
1604521065.9260,135
1604521065.9280,147
1604521065.9300,164
1604521065.9322,164
1604521065.9340,138
1604521065.9360,125
1604521065.9379,130
1604521065.9399,118
1604521065.9419,101
1604521065.9439,94
1604521065.9459,89
1604521065.9480,94
1604521065.9500,106
1604521065.9519,106
1604521065.9539,101
1604521065.9560,118
1604521065.9579,162
1604521065.9599,242
1604521065.9619,334
1604521065.9639,285
1604521065.9659,121
1604521065.9679,99
1604521065.9699,159
1604521065.9719,116
1604521065.9739,82
1604521065.9760,108
1604521065.9779,106
1604521065.9799,94
1604521065.9819,104
1604521065.9839,111
1604521065.9860,108
1604521065.9879,111
1604521065.9899,123
1604521065.9919,130
1604521065.9939,142
1604521065.9959,157
1604521065.9979,157
1604521066.0001,142
1604521066.0019,140
1604521066.0039,147
1604521066.0059,157
1604521066.0079,169
1604521066.0099,171
1604521066.0119,157
1604521066.0139,152
1604521066.0159,162
1604521066.0179,154
1604521066.0199,135
1604521066.0219,128
1604521066.0239,135
1604521066.0259,147
1604521066.0279,150
1604521066.0299,152
1604521066.0319,162
1604521066.0341,169
1604521066.0360,176
1604521066.0379,186
1604521066.0399,196
1604521066.0419,193
1604521066.0439,193
1604521066.0459,198
1604521066.0479,196
1604521066.4443,193
1604521066.4450,193
1604521066.4475,186
1604521066.4502,179
1604521066.4521,181
1604521066.4541,181
1604521066.4560,174
1604521066.4580,184
1604521066.4600,193
1604521066.4622,181
1604521066.4640,169
1604521066.4660,167
1604521066.4681,169
1604521066.4700,179
1604521066.4720,171
1604521066.4740,159
1604521066.4761,171
1604521066.4780,198
1604521066.4800,196
1604521066.4820,174
1604521066.4840,152
1604521066.4861,145
1604521066.4880,147
1604521066.4900,133
1604521066.4920,121
1604521066.4940,133
1604521066.4961,125
1604521066.4980,99
1604521066.5001,96
1604521066.5020,108
1604521066.5040,121
1604521066.5061,169
1604521066.5080,278
1604521066.5100,363
1604521066.5120,276
1604521066.5140,96
1604521066.5147,82
1604521066.5160,130
1604521066.5180,84
1604521066.5200,65
1604521066.5220,82
1604521066.5240,70
1604521066.5260,70
1604521066.5281,87
1604521066.5300,70
1604521066.5320,55
1604521066.5340,72
1604521066.5360,82
1604521066.5380,70
1604521066.5400,70
1604521066.5420,79
1604521066.5427,79
1604521066.5440,77
1604521066.5460,75
1604521066.5480,79
1604521066.5501,84
1604521066.5520,84
1604521066.5540,84
1604521066.5561,82
1604521066.5580,84
1604521066.5600,82
1604521066.5621,70
1604521066.5640,62
1604521066.5660,70
1604521066.5680,70
1604521066.5700,60
1604521066.5720,65
1604521066.5726,79
1604521066.5740,92
1604521066.5760,104
1604521066.5780,118
1604521066.5800,128
1604521066.5820,130
1604521067.0142,133
1604521067.0150,142
1604521067.0174,145
1604521067.0200,142
1604521067.0221,138
1604521067.0241,135
1604521067.0260,130
1604521067.0280,116
1604521067.0364,104
1604521067.0380,111
1604521067.0400,113
1604521067.0420,106
1604521067.0441,106
1604521067.0460,104
1604521067.0480,99
1604521067.0500,99
1604521067.0520,106
1604521067.0539,116
1604521067.0560,116
1604521067.0579,113
1604521067.0599,128
1604521067.0621,152
1604521067.0640,150
1604521067.0646,123
1604521067.0659,111
1604521067.0679,116
1604521067.0699,113
1604521067.0720,101
1604521067.0739,99
1604521067.0760,106
1604521067.0779,108
1604521067.0799,108
1604521067.0820,113
1604521067.0840,121
1604521067.0860,133
1604521067.0879,186
1604521067.0899,309
1604521067.0919,375
1604521067.0939,210
1604521067.0946,41
1604521067.0959,113
1604521067.0979,169
1604521067.1000,106
1604521067.1019,99
1604521067.1039,125
1604521067.1060,113
1604521067.1080,106
1604521067.1099,111
1604521067.1119,106
1604521067.1139,101
1604521067.1159,101
1604521067.1179,101
1604521067.1199,104
1604521067.1219,113
1604521067.1240,111
1604521067.1247,101
1604521067.1270,96
1604521067.1290,94
1604521067.1309,89
1604521067.1331,87
1604521067.1349,94
1604521067.1370,96
1604521067.1390,94
1604521067.1409,94
1604521067.1429,104
1604521067.1449,108
1604521067.1470,101
1604521067.1489,92
1604521067.1509,87
1604521067.1529,87
1604521067.1550,87
1604521067.1558,94
1604521067.1581,99
1604521067.5542,99
1604521067.5550,108
1604521067.5575,121
1604521067.5600,125
1604521067.5620,133
1604521067.5640,135
1604521067.5661,128
1604521067.5680,123
1604521067.5700,125
1604521067.5720,121
1604521067.5741,118
1604521067.5760,121
1604521067.5780,118
1604521067.5788,108
1604521067.5810,116
1604521067.5830,121
1604521067.5850,113
1604521067.5870,104
1604521067.5890,101
1604521067.5910,104
1604521067.5930,108
1604521067.5950,106
1604521067.5970,106
1604521067.5990,118
1604521067.6010,123
1604521067.6030,111
1604521067.6050,111
1604521067.6070,118
1604521067.6090,104
1604521067.6097,75
1604521067.6120,67
1604521067.6140,75
1604521067.6159,70
1604521067.6180,60
1604521067.6200,62
1604521067.6221,67
1604521067.6240,62
1604521067.6261,75
1604521067.6280,154
1604521067.6300,295
1604521067.6320,290
1604521067.6340,38
1604521067.6360,-82
1604521067.6380,43
1604521067.6400,67
1604521067.6407,0
1604521067.6430,21
1604521067.6450,41
1604521067.6470,21
1604521067.6491,26
1604521067.6511,48
1604521067.6530,53
1604521067.6550,58
1604521067.6570,62
1604521067.6590,65
1604521067.6610,67
1604521067.6630,67
1604521067.6650,65
1604521067.6670,70
1604521067.6690,70
1604521067.6710,67
1604521067.6717,67
1604521067.6740,67
1604521067.6760,67
1604521067.6780,67
1604521067.6800,50
1604521067.6820,33
1604521067.6840,31
1604521067.6861,29
1604521067.6880,19
1604521067.6900,12
1604521067.6920,4
1604521067.6940,4
1604521068.1243,14
1604521068.1251,29
1604521068.1269,41
1604521068.1292,46
1604521068.1312,53
1604521068.1332,62
1604521068.1352,62
1604521068.1372,58
1604521068.1391,62
1604521068.1411,77
1604521068.1431,87
1604521068.1451,89
1604521068.1471,94
1604521068.1491,104
1604521068.1511,108
1604521068.1531,116
1604521068.1551,121
1604521068.1571,118
1604521068.1578,111
1604521068.1591,111
1604521068.1611,116
1604521068.1631,113
1604521068.1651,108
1604521068.1671,111
1604521068.1691,121
1604521068.1711,123
1604521068.1731,106
1604521068.1751,96
1604521068.1773,92
1604521068.1791,79
1604521068.1811,70
1604521068.1831,62
1604521068.1851,70
1604521068.1871,79
1604521068.1877,84
1604521068.1891,84
1604521068.1912,94
1604521068.1931,96
1604521068.1951,104
1604521068.1971,162
1604521068.1991,312
1604521068.2011,433
1604521068.2031,261
1604521068.2051,-24
1604521068.2071,21
1604521068.2091,162
1604521068.2111,101
1604521068.2131,70
1604521068.2151,118
1604521068.2171,111
1604521068.2177,101
1604521068.2191,125
1604521068.2211,140
1604521068.2231,140
1604521068.2251,152
1604521068.2271,162
1604521068.2291,167
1604521068.2311,174
1604521068.2331,179
1604521068.2351,179
1604521068.2371,181
1604521068.2392,188
1604521068.2411,198
1604521068.2431,198
1604521068.2451,198
1604521068.2471,203
1604521068.2477,203
1604521068.2492,200
1604521068.2511,198
1604521068.2531,193
1604521068.2551,191
1604521068.2571,186
1604521068.2591,186
1604521068.6638,188
1604521068.6646,188
1604521068.6670,196
1604521068.6697,203
1604521068.6717,200
1604521068.6737,200
1604521068.6759,208
1604521068.6776,208
1604521068.6783,208
1604521068.6796,213
1604521068.6816,220
1604521068.6836,222
1604521068.6857,234
1604521068.6876,242
1604521068.6896,242
1604521068.6916,246
1604521068.6936,249
1604521068.6957,246
1604521068.6976,242
1604521068.6996,242
1604521068.7016,237
1604521068.7035,232
1604521068.7056,234
1604521068.7076,244
1604521068.7082,249
1604521068.7096,242
1604521068.7116,242
1604521068.7136,254
1604521068.7157,261
1604521068.7176,251
1604521068.7196,242
1604521068.7216,234
1604521068.7236,232
1604521068.7256,234
1604521068.7276,234
1604521068.7295,239
1604521068.7316,251
1604521068.7335,263
1604521068.7356,271
1604521068.7376,268
1604521068.7382,266
1604521068.7397,302
1604521068.7417,428
1604521068.7436,568
1604521068.7457,481
1604521068.7476,227
1604521068.7496,198
1604521068.7516,305
1604521068.7536,266
1604521068.7556,225
1604521068.7575,261
1604521068.7596,259
1604521068.7615,234
1604521068.7635,244
1604521068.7655,259
1604521068.7662,256
1604521068.7676,259
1604521068.7697,256
1604521068.7716,249
1604521068.7736,249
1604521068.7756,256
1604521068.7775,254
1604521068.7796,251
1604521068.7815,251
1604521068.7836,251
1604521068.7856,249
1604521068.7875,251
1604521068.7896,254
1604521068.7915,259
1604521068.7936,256
1604521068.7956,251
1604521068.7963,249
1604521068.7976,249
1604521069.2638,242
1604521069.2646,232
1604521069.2670,225
1604521069.2696,222
1604521069.2716,220
1604521069.2736,220
1604521069.2758,225
1604521069.2776,227
1604521069.2796,230
1604521069.2817,234
1604521069.2836,244
1604521069.2844,246
1604521069.2857,246
1604521069.2876,254
1604521069.2896,266
1604521069.2916,268
1604521069.2936,266
1604521069.2957,268
1604521069.2975,271
1604521069.2996,271
1604521069.3016,271
1604521069.3036,271
1604521069.3056,271
1604521069.3075,276
1604521069.3096,273
1604521069.3115,273
1604521069.3135,276
1604521069.3142,276
1604521069.3156,280
1604521069.3176,285
1604521069.3195,283
1604521069.3215,280
1604521069.3235,290
1604521069.3255,307
1604521069.3275,300
1604521069.3297,283
1604521069.3316,280
1604521069.3335,283
1604521069.3355,273
1604521069.3375,261
1604521069.3395,259
1604521069.3415,263
1604521069.3435,266
1604521069.3442,266
1604521069.3455,263
1604521069.3476,263
1604521069.3495,283
1604521069.3515,346
1604521069.3535,479
1604521069.3555,549
1604521069.3576,372
1604521069.3595,186
1604521069.3615,268
1604521069.3635,334
1604521069.3656,268
1604521069.3675,271
1604521069.3696,302
1604521069.3715,280
1604521069.3735,268
1604521069.3742,278
1604521069.3755,280
1604521069.3775,278
1604521069.3795,276
1604521069.3815,268
1604521069.3836,263
1604521069.3855,273
1604521069.3876,276
1604521069.3895,263
1604521069.3915,256
1604521069.3935,259
1604521069.3956,259
1604521069.3975,254
1604521069.3995,249
1604521069.8342,246
1604521069.8350,239
1604521069.8375,237
1604521069.8401,239
1604521069.8421,237
1604521069.8441,222
1604521069.8462,213
1604521069.8481,200
1604521069.8500,184
1604521069.8520,169
1604521069.8540,164
1604521069.8561,169
1604521069.8580,174
1604521069.8602,179
1604521069.8621,181
1604521069.8640,181
1604521069.8647,188
1604521069.8661,203
1604521069.8680,210
1604521069.8700,213
1604521069.8720,220
1604521069.8740,222
1604521069.8761,220
1604521069.8780,225
1604521069.8800,232
1604521069.8820,230
1604521069.8840,225
1604521069.8860,230
1604521069.8880,237
1604521069.8900,242
1604521069.8920,246
1604521069.8940,246
1604521069.8947,239
1604521069.8960,239
1604521069.8980,239
1604521069.9000,232
1604521069.9020,225
1604521069.9040,225
1604521069.9060,230
1604521069.9080,239
1604521069.9100,239
1604521069.9120,239
1604521069.9140,254
1604521069.9160,268
1604521069.9180,259
1604521069.9200,246
1604521069.9220,242
1604521069.9240,237
1604521069.9246,225
1604521069.9260,213
1604521069.9280,208
1604521069.9300,208
1604521069.9320,210
1604521069.9340,215
1604521069.9360,213
1604521069.9380,205
1604521069.9400,215
1604521069.9420,271
1604521069.9440,411
1604521069.9460,518
1604521069.9480,331
1604521069.9500,65
1604521069.9520,128
1604521069.9540,251
1604521069.9547,184
1604521069.9561,157
1604521069.9579,198
1604521069.9600,186
1604521069.9620,169
1604521069.9640,186
1604521069.9660,188
1604521069.9680,181
1604521069.9700,186
1604521070.4042,184
1604521070.4050,176
1604521070.4075,179
1604521070.4101,174
1604521070.4121,169
1604521070.4141,169
1604521070.4148,169
1604521070.4160,159
1604521070.4180,154
1604521070.4201,157
1604521070.4220,154
1604521070.4240,140
1604521070.4261,130
1604521070.4280,130
1604521070.4300,123
1604521070.4320,108
1604521070.4340,101
1604521070.4360,94
1604521070.4380,87
1604521070.4400,79
1604521070.4420,77
1604521070.4440,77
1604521070.4446,75
1604521070.4460,70
1604521070.4480,65
1604521070.4500,65
1604521070.4520,62
1604521070.4540,60
1604521070.4560,60
1604521070.4580,55
1604521070.4600,43
1604521070.4620,48
1604521070.4640,60
1604521070.4660,62
1604521070.4680,62
1604521070.4700,65
1604521070.4720,65
1604521070.4740,62
1604521070.4747,65
1604521070.4761,60
1604521070.4780,55
1604521070.4800,55
1604521070.4821,58
1604521070.4841,53
1604521070.4860,48
1604521070.4880,46
1604521070.4900,43
1604521070.4920,43
1604521070.4940,46
1604521070.4960,46
1604521070.4980,43
1604521070.5000,53
1604521070.5020,60
1604521070.5040,55
1604521070.5046,48
1604521070.5060,48
1604521070.5080,50
1604521070.5100,53
1604521070.5120,53
1604521070.5141,50
1604521070.5160,55
1604521070.5180,58
1604521070.5200,55
1604521070.5220,58
1604521070.5240,58
1604521070.5261,50
1604521070.5280,48
1604521070.5300,55
1604521070.5320,62
1604521070.5340,60
1604521070.5346,58
1604521070.5362,70
1604521070.5380,79
1604521070.9140,70
1604521070.9146,58
1604521070.9170,53
1604521070.9197,50
1604521070.9217,46
1604521070.9237,36
1604521070.9257,29
1604521070.9277,31
1604521070.9296,29
1604521070.9304,24
1604521070.9317,26
1604521070.9336,29
1604521070.9357,53
1604521070.9377,154
1604521070.9397,292
1604521070.9416,227
1604521070.9437,-12
1604521070.9457,-46
1604521070.9476,46
1604521070.9496,2
1604521070.9518,-38
1604521070.9536,0
1604521070.9557,-4
1604521070.9577,-31
1604521070.9596,-16
1604521070.9602,-14
1604521070.9617,-41
1604521070.9637,-41
1604521070.9657,-31
1604521070.9676,-36
1604521070.9696,-36
1604521070.9717,-31
1604521070.9736,-33
1604521070.9757,-36
1604521070.9776,-33
1604521070.9797,-33
1604521070.9816,-33
1604521070.9836,-26
1604521070.9857,-21
1604521070.9876,-24
1604521070.9896,-26
1604521070.9903,-31
1604521070.9916,-33
1604521070.9936,-31
1604521070.9956,-31
1604521070.9977,-26
1604521070.9996,-24
1604521071.0016,-26
1604521071.0036,-26
1604521071.0057,-21
1604521071.0076,-21
1604521071.0097,-21
1604521071.0116,-19
1604521071.0137,-14
1604521071.0158,-7
1604521071.0176,-2
1604521071.0196,2
1604521071.0203,4
1604521071.0216,12
1604521071.0237,16
1604521071.0257,14
1604521071.0277,14
1604521071.0296,19
1604521071.0316,19
1604521071.0337,26
1604521071.0357,31
1604521071.0376,29
1604521071.0397,31
1604521071.0403,41
1604521071.0426,53
1604521071.0447,55
1604521071.0468,50
1604521071.0472,48
1604521071.5140,46
1604521071.5148,41
1604521071.5173,38
1604521071.5199,46
1604521071.5219,55
1604521071.5239,46
1604521071.5260,31
1604521071.5279,36
1604521071.5299,43
1604521071.5319,46
1604521071.5339,46
1604521071.5359,46
1604521071.5379,48
1604521071.5398,48
1604521071.5418,36
1604521071.5424,29
1604521071.5439,38
1604521071.5459,43
1604521071.5478,43
1604521071.5499,48
1604521071.5518,53
1604521071.5538,53
1604521071.5558,48
1604521071.5578,46
1604521071.5598,48
1604521071.5619,50
1604521071.5638,55
1604521071.5658,58
1604521071.5678,55
1604521071.5698,60
1604521071.5718,70
1604521071.5724,75
1604521071.5738,60
1604521071.5758,50
1604521071.5778,60
1604521071.5799,60
1604521071.5818,48
1604521071.5838,38
1604521071.5858,38
1604521071.5878,46
1604521071.5898,46
1604521071.5918,48
1604521071.5938,60
1604521071.5958,75
1604521071.5978,116
1604521071.5998,225
1604521071.6018,322
1604521071.6024,217
1604521071.6038,41
1604521071.6060,65
1604521071.6078,121
1604521071.6098,65
1604521071.6118,55
1604521071.6138,92
1604521071.6158,87
1604521071.6178,75
1604521071.6198,87
1604521071.6218,89
1604521071.6238,87
1604521071.6258,87
1604521071.6278,84
1604521071.6298,84
1604521071.6318,87
1604521071.6324,84
1604521071.6338,84
1604521071.6358,84
1604521071.6378,84
1604521071.6398,87
1604521071.6418,89
1604521071.6438,94
1604521071.6458,106
1604521071.6478,108
1604521071.6498,106
1604521072.0240,111
1604521072.0246,113
1604521072.0271,111
1604521072.0281,108
1604521072.0296,108
1604521072.0318,106
1604521072.0337,101
1604521072.0361,96
1604521072.0378,101
1604521072.0397,106
1604521072.0416,101
1604521072.0436,92
1604521072.0457,96
1604521072.0477,106
1604521072.0496,108
1604521072.0517,108
1604521072.0536,116
1604521072.0557,121
1604521072.0577,125
1604521072.0582,130
1604521072.0596,135
1604521072.0617,138
1604521072.0636,138
1604521072.0657,140
1604521072.0676,142
1604521072.0696,145
1604521072.0716,147
1604521072.0738,145
1604521072.0757,145
1604521072.0776,150
1604521072.0796,157
1604521072.0816,159
1604521072.0836,154
1604521072.0857,152
1604521072.0876,150
1604521072.0882,150
1604521072.0896,157
1604521072.0916,162
1604521072.0936,159
1604521072.0956,157
1604521072.0976,157
1604521072.0996,157
1604521072.1016,154
1604521072.1036,157
1604521072.1057,159
1604521072.1076,154
1604521072.1096,152
1604521072.1116,154
1604521072.1136,159
1604521072.1157,154
1604521072.1176,150
1604521072.1182,147
1604521072.1196,145
1604521072.1216,142
1604521072.1236,142
1604521072.1257,142
1604521072.1276,142
1604521072.1296,142
1604521072.1317,138
1604521072.1336,135
1604521072.1357,135
1604521072.1376,130
1604521072.1396,128
1604521072.1416,133
1604521072.1436,133
1604521072.1457,133
1604521072.1476,147
1604521072.1482,157
1604521072.1496,145
1604521072.1516,133
1604521072.1536,125
1604521072.1557,116
1604521072.1576,101
1604521072.6542,87
1604521072.6550,87
1604521072.6575,89
1604521072.6600,84
1604521072.6620,75
1604521072.6643,77
1604521072.6662,94
1604521072.6680,145
1604521072.6700,271
1604521072.6706,360
1604521072.6720,200
1604521072.6742,-9
1604521072.6760,33
1604521072.6781,94
1604521072.6801,26
1604521072.6821,21
1604521072.6840,53
1604521072.6860,33
1604521072.6880,24
1604521072.6900,41
1604521072.6920,38
1604521072.6940,31
1604521072.6960,36
1604521072.6980,36
1604521072.7000,29
1604521072.7006,31
1604521072.7020,31
1604521072.7039,26
1604521072.7060,29
1604521072.7080,36
1604521072.7100,41
1604521072.7121,43
1604521072.7140,50
1604521072.7160,53
1604521072.7179,48
1604521072.7199,43
1604521072.7219,46
1604521072.7239,48
1604521072.7260,46
1604521072.7279,38
1604521072.7300,33
1604521072.7305,29
1604521072.7319,21
1604521072.7339,16
1604521072.7360,29
1604521072.7380,43
1604521072.7400,31
1604521072.7419,24
1604521072.7439,36
1604521072.7459,41
1604521072.7480,41
1604521072.7499,50
1604521072.7519,58
1604521072.7539,60
1604521072.7560,62
1604521072.7579,70
1604521072.7601,77
1604521072.7605,79
1604521072.7619,79
1604521072.7639,84
1604521072.7660,89
1604521072.7680,92
1604521072.7699,94
1604521072.7719,96
1604521072.7739,96
1604521072.7760,92
1604521072.7779,84
1604521072.7800,82
1604521072.7819,84
1604521072.7839,87
1604521072.7860,84
1604521072.7879,84
1604521072.7899,87
1604521073.1940,84
1604521073.1947,82
1604521073.1971,79
1604521073.1997,77
1604521073.2017,70
1604521073.2037,67
1604521073.2058,70
1604521073.2077,70
1604521073.2097,58
1604521073.2117,43
1604521073.2137,48
1604521073.2158,58
1604521073.2177,48
1604521073.2197,33
1604521073.2204,38
1604521073.2217,46
1604521073.2237,36
1604521073.2257,14
1604521073.2276,16
1604521073.2296,26
1604521073.2316,21
1604521073.2337,19
1604521073.2357,26
1604521073.2376,26
1604521073.2396,31
1604521073.2417,46
1604521073.2437,55
1604521073.2456,60
1604521073.2476,55
1604521073.2496,43
1604521073.2502,33
1604521073.2516,26
1604521073.2536,19
1604521073.2557,19
1604521073.2578,19
1604521073.2596,12
1604521073.2616,12
1604521073.2636,9
1604521073.2657,2
1604521073.2676,24
1604521073.2696,118
1604521073.2716,251
1604521073.2737,251
1604521073.2757,53
1604521073.2776,-55
1604521073.2796,12
1604521073.2802,12
1604521073.2816,-26
1604521073.2836,2
1604521073.2857,4
1604521073.2876,-12
1604521073.2896,0
1604521073.2916,-9
1604521073.2936,2
1604521073.2957,38
1604521073.2977,24
1604521073.2996,-2
1604521073.3016,2
1604521073.3036,12
1604521073.3057,24
1604521073.3076,29
1604521073.3096,12
1604521073.3102,4
1604521073.3116,16
1604521073.3137,33
1604521073.3157,43
1604521073.3176,43
1604521073.3196,46
1604521073.3216,46
1604521073.3237,43
1604521073.3257,46
1604521073.3276,46
1604521073.3297,43
1604521073.7636,43
1604521073.7643,43
1604521073.7661,33
1604521073.7684,29
1604521073.7704,33
1604521073.7724,46
1604521073.7744,53
1604521073.7763,46
1604521073.7784,43
1604521073.7803,31
1604521073.7823,4
1604521073.7843,19
1604521073.7866,62
1604521073.7884,48
1604521073.7903,16
1604521073.7924,29
1604521073.7943,48
1604521073.7963,62
1604521073.7969,62
1604521073.7983,50
1604521073.8005,60
1604521073.8023,70
1604521073.8043,67
1604521073.8064,72
1604521073.8083,79
1604521073.8104,77
1604521073.8123,75
1604521073.8143,75
1604521073.8163,75
1604521073.8183,77
1604521073.8203,79
1604521073.8223,84
1604521073.8243,72
1604521073.8263,62
1604521073.8269,82
1604521073.8283,79
1604521073.8303,53
1604521073.8323,50
1604521073.8343,58
1604521073.8363,70
1604521073.8383,87
1604521073.8403,79
1604521073.8423,62
1604521073.8443,67
1604521073.8463,72
1604521073.8483,70
1604521073.8503,70
1604521073.8523,72
1604521073.8544,75
1604521073.8550,67
1604521073.8563,62
1604521073.8583,72
1604521073.8603,75
1604521073.8623,70
1604521073.8643,75
1604521073.8663,82
1604521073.8683,84
1604521073.8703,89
1604521073.8723,104
1604521073.8743,96
1604521073.8763,72
1604521073.8783,65
1604521073.8803,65
1604521073.8824,55
1604521073.8844,46
1604521073.8849,50
1604521073.8864,58
1604521073.8883,60
1604521073.8903,60
1604521073.8923,62
1604521073.8943,65
1604521073.8963,87
1604521073.8983,162
1604521074.3043,278
1604521074.3051,297
1604521074.3076,145
1604521074.3102,41
1604521074.3122,77
1604521074.3142,72
1604521074.3161,31
1604521074.3181,29
1604521074.3188,16
1604521074.3201,7
1604521074.3221,21
1604521074.3241,24
1604521074.3262,16
1604521074.3282,21
1604521074.3301,31
1604521074.3321,26
1604521074.3341,19
1604521074.3362,31
1604521074.3381,33
1604521074.3401,14
1604521074.3421,4
1604521074.3441,16
1604521074.3461,24
1604521074.3481,24
1604521074.3487,29
1604521074.3501,33
1604521074.3521,31
1604521074.3541,33
1604521074.3561,43
1604521074.3582,38
1604521074.3601,21
1604521074.3621,16
1604521074.3641,16
1604521074.3661,14
1604521074.3681,33
1604521074.3701,38
1604521074.3721,21
1604521074.3741,16
1604521074.3761,29
1604521074.3781,43
1604521074.3787,29
1604521074.3803,4
1604521074.3821,14
1604521074.3841,19
1604521074.3861,19
1604521074.3881,36
1604521074.3901,38
1604521074.3921,41
1604521074.3941,58
1604521074.3961,72
1604521074.3981,70
1604521074.4001,65
1604521074.4021,65
1604521074.4041,70
1604521074.4061,60
1604521074.4081,48
1604521074.4087,62
1604521074.4101,77
1604521074.4121,53
1604521074.4141,19
1604521074.4162,16
1604521074.4181,26
1604521074.4201,16
1604521074.4221,2
1604521074.4241,-14
1604521074.4262,-31
1604521074.4281,-43
1604521074.4301,-65
1604521074.4321,-77
1604521074.4341,-67
1604521074.4361,-67
1604521074.4381,-70
1604521074.4387,-67
1604521074.8441,-67
1604521074.8447,-75
1604521074.8471,-70
1604521074.8497,-55
1604521074.8517,-50
1604521074.8537,-48
1604521074.8558,-43
1604521074.8577,-38
1604521074.8597,-36
1604521074.8617,-38
1604521074.8637,-41
1604521074.8658,-24
1604521074.8663,-7
1604521074.8677,-12
1604521074.8697,-14
1604521074.8717,-14
1604521074.8737,-31
1604521074.8758,-46
1604521074.8777,-46
1604521074.8798,-36
1604521074.8817,-26
1604521074.8837,-7
1604521074.8857,12
1604521074.8877,-2
1604521074.8897,-21
1604521074.8917,50
1604521074.8937,225
1604521074.8957,312
1604521074.8962,123
1604521074.8976,-92
1604521074.8997,-24
1604521074.9017,62
1604521074.9037,12
1604521074.9057,16
1604521074.9077,38
1604521074.9096,-2
1604521074.9116,12
1604521074.9136,60
1604521074.9157,62
1604521074.9176,55
1604521074.9196,72
1604521074.9216,82
1604521074.9237,75
1604521074.9257,77
1604521074.9263,79
1604521074.9277,72
1604521074.9296,70
1604521074.9316,67
1604521074.9337,62
1604521074.9358,53
1604521074.9377,55
1604521074.9397,48
1604521074.9417,31
1604521074.9436,31
1604521074.9457,41
1604521074.9476,16
1604521074.9496,-12
1604521074.9516,-16
1604521074.9536,-16
1604521074.9557,-26
1604521074.9562,-36
1604521074.9577,-50
1604521074.9596,-62
1604521074.9616,-65
1604521074.9636,-65
1604521074.9657,-79
1604521074.9676,-92
1604521074.9696,-99
1604521074.9717,-94
1604521074.9737,-94
1604521074.9759,-106
1604521074.9777,-111
1604521074.9796,-111
1604521075.4142,-123
1604521075.4150,-138
1604521075.4166,-147
1604521075.4190,-154
1604521075.4210,-169
1604521075.4230,-191
1604521075.4250,-208
1604521075.4270,-217
1604521075.4290,-227
1604521075.4311,-244
1604521075.4330,-263
1604521075.4350,-280
1604521075.4370,-295
1604521075.4390,-319
1604521075.4410,-346
1604521075.4430,-358
1604521075.4450,-377
1604521075.4470,-409
1604521075.4476,-430
1604521075.4490,-440
1604521075.4510,-460
1604521075.4530,-491
1604521075.4550,-493
1604521075.4570,-493
1604521075.4589,-522
1604521075.4609,-554
1604521075.4630,-561
1604521075.4650,-571
1604521075.4670,-585
1604521075.4690,-600
1604521075.4710,-617
1604521075.4730,-636
1604521075.4750,-668
1604521075.4770,-692
1604521075.4775,-704
1604521075.4789,-723
1604521075.4809,-743
1604521075.4829,-755
1604521075.4849,-760
1604521075.4869,-762
1604521075.4889,-772
1604521075.4909,-786
1604521075.4930,-789
1604521075.4949,-777
1604521075.4969,-748
1604521075.4989,-687
1604521075.5009,-593
1604521075.5030,-581
1604521075.5051,-743
1604521075.5070,-854
1604521075.5075,-801
1604521075.5089,-796
1604521075.5109,-842
1604521075.5129,-825
1604521075.5149,-808
1604521075.5169,-813
1604521075.5189,-803
1604521075.5210,-796
1604521075.5229,-791
1604521075.5249,-779
1604521075.5269,-767
1604521075.5290,-760
1604521075.5309,-752
1604521075.5329,-738
1604521075.5349,-723
1604521075.5370,-719
1604521075.5375,-714
1604521075.5389,-702
1604521075.5409,-687
1604521075.5429,-685
1604521075.5449,-682
1604521075.5470,-668
1604521075.5490,-656
1604521075.9842,-673
1604521075.9850,-682
1604521075.9875,-665
1604521075.9901,-658
1604521075.9921,-665
1604521075.9941,-660
1604521075.9960,-653
1604521075.9967,-648
1604521075.9980,-646
1604521076.0000,-631
1604521076.0020,-610
1604521076.0040,-602
1604521076.0061,-595
1604521076.0080,-578
1604521076.0100,-564
1604521076.0121,-539
1604521076.0140,-503
1604521076.0160,-489
1604521076.0180,-489
1604521076.0200,-472
1604521076.0220,-452
1604521076.0240,-438
1604521076.0261,-416
1604521076.0266,-406
1604521076.0280,-399
1604521076.0301,-375
1604521076.0322,-368
1604521076.0340,-363
1604521076.0360,-326
1604521076.0380,-302
1604521076.0400,-300
1604521076.0420,-290
1604521076.0440,-278
1604521076.0460,-271
1604521076.0480,-259
1604521076.0500,-246
1604521076.0520,-244
1604521076.0540,-227
1604521076.0560,-208
1604521076.0566,-213
1604521076.0580,-217
1604521076.0600,-213
1604521076.0620,-208
1604521076.0640,-203
1604521076.0660,-191
1604521076.0680,-181
1604521076.0700,-169
1604521076.0720,-159
1604521076.0740,-152
1604521076.0761,-145
1604521076.0780,-125
1604521076.0801,-101
1604521076.0820,-106
1604521076.0840,-113
1604521076.0860,-111
1604521076.0866,-113
1604521076.0880,-121
1604521076.0900,-125
1604521076.0920,-118
1604521076.0940,-101
1604521076.0960,-94
1604521076.0980,-87
1604521076.1000,-77
1604521076.1020,-72
1604521076.1040,-48
1604521076.1061,21
1604521076.1080,133
1604521076.1100,176
1604521076.1120,43
1604521076.1140,-84
1604521076.1160,-38
1604521076.1166,-12
1604521076.1180,-50
1604521076.5545,-31
1604521076.5557,-21
1604521076.5580,-46
1604521076.5607,-36
1604521076.5629,-16
1604521076.5647,-21
1604521076.5666,-21
1604521076.5687,-21
1604521076.5707,-38
1604521076.5727,-43
1604521076.5747,-12
1604521076.5767,9
1604521076.5786,-7
1604521076.5792,-7
1604521076.5806,0
1604521076.5826,-19
1604521076.5846,-26
1604521076.5866,-7
1604521076.5886,0
1604521076.5906,-7
1604521076.5926,-4
1604521076.5946,2
1604521076.5966,0
1604521076.5986,7
1604521076.6006,16
1604521076.6026,16
1604521076.6046,9
1604521076.6065,12
1604521076.6086,24
1604521076.6092,38
1604521076.6106,50
1604521076.6126,62
1604521076.6146,70
1604521076.6165,79
1604521076.6185,92
1604521076.6205,101
1604521076.6226,108
1604521076.6245,121
1604521076.6265,123
1604521076.6285,125
1604521076.6305,140
1604521076.6325,152
1604521076.6345,157
1604521076.6365,154
1604521076.6385,152
1604521076.6391,164
1604521076.6405,176
1604521076.6425,169
1604521076.6445,157
1604521076.6466,159
1604521076.6485,174
1604521076.6505,179
1604521076.6525,157
1604521076.6545,142
1604521076.6565,138
1604521076.6588,138
1604521076.6606,154
1604521076.6625,162
1604521076.6645,191
1604521076.6665,234
1604521076.6685,227
1604521076.6691,193
1604521076.6705,188
1604521076.6726,188
1604521076.6745,176
1604521076.6765,179
1604521076.6785,188
1604521076.6805,186
1604521076.6825,186
1604521076.6845,200
1604521076.6865,208
1604521076.6886,198
1604521076.6905,215
1604521077.0942,242
1604521077.0949,217
1604521077.0973,184
1604521077.1000,186
1604521077.1020,191
1604521077.1040,171
1604521077.1061,150
1604521077.1079,145
1604521077.1100,154
1604521077.1120,135
1604521077.1140,111
1604521077.1160,118
1604521077.1180,133
1604521077.1200,164
1604521077.1219,259
1604521077.1240,377
1604521077.1260,346
1604521077.1265,142
1604521077.1280,70
1604521077.1299,150
1604521077.1319,128
1604521077.1339,77
1604521077.1360,113
1604521077.1379,125
1604521077.1399,101
1604521077.1419,104
1604521077.1439,106
1604521077.1459,92
1604521077.1479,94
1604521077.1499,121
1604521077.1519,133
1604521077.1539,111
1604521077.1559,104
1604521077.1567,128
1604521077.1579,118
1604521077.1599,77
1604521077.1619,111
1604521077.1639,174
1604521077.1660,130
1604521077.1679,87
1604521077.1699,150
1604521077.1719,200
1604521077.1739,142
1604521077.1760,104
1604521077.1779,159
1604521077.1799,171
1604521077.1819,135
1604521077.1839,140
1604521077.1860,157
1604521077.1866,169
1604521077.1879,188
1604521077.1899,205
1604521077.1919,222
1604521077.1939,239
1604521077.1959,242
1604521077.1979,234
1604521077.1999,237
1604521077.2019,256
1604521077.2039,273
1604521077.2060,271
1604521077.2079,263
1604521077.2099,259
1604521077.2119,263
1604521077.2140,280
1604521077.2160,273
1604521077.2165,261
1604521077.2179,297
1604521077.2199,307
1604521077.2219,254
1604521077.2239,222
1604521077.2260,225
1604521077.2280,234
1604521077.2299,246
1604521077.6638,249
1604521077.6646,244
1604521077.6670,237
1604521077.6697,227
1604521077.6717,242
1604521077.6736,276
1604521077.6757,266
1604521077.6777,237
1604521077.6783,239
1604521077.6797,244
1604521077.6817,239
1604521077.6839,244
1604521077.6857,256
1604521077.6876,266
1604521077.6896,271
1604521077.6916,280
1604521077.6936,288
1604521077.6957,278
1604521077.6976,266
1604521077.6996,268
1604521077.7016,254
1604521077.7036,232
1604521077.7057,232
1604521077.7077,254
1604521077.7083,268
1604521077.7089,234
1604521077.7106,225
1604521077.7126,254
1604521077.7146,251
1604521077.7166,249
1604521077.7186,288
1604521077.7206,377
1604521077.7226,489
1604521077.7246,462
1604521077.7266,280
1604521077.7285,225
1604521077.7305,297
1604521077.7325,276
1604521077.7332,227
1604521077.7345,237
1604521077.7366,237
1604521077.7386,234
1604521077.7405,261
1604521077.7425,266
1604521077.7446,246
1604521077.7465,244
1604521077.7486,244
1604521077.7505,242
1604521077.7525,256
1604521077.7546,280
1604521077.7566,280
1604521077.7585,232
1604521077.7605,222
1604521077.7625,254
1604521077.7632,246
1604521077.7645,222
1604521077.7666,237
1604521077.7686,244
1604521077.7705,232
1604521077.7725,227
1604521077.7745,230
1604521077.7766,220
1604521077.7787,203
1604521077.7806,186
1604521077.7825,174
1604521077.7845,171
1604521077.7866,164
1604521077.7885,159
1604521077.7905,176
1604521077.7926,191
1604521077.7932,181
1604521077.7945,181
1604521077.7966,200
1604521078.2036,193
1604521078.2042,154
1604521078.2067,162
1604521078.2092,193
1604521078.2112,188
1604521078.2133,205
1604521078.2153,220
1604521078.2173,198
1604521078.2193,193
1604521078.2212,200
1604521078.2218,200
1604521078.2232,203
1604521078.2252,203
1604521078.2272,198
1604521078.2292,193
1604521078.2312,191
1604521078.2332,196
1604521078.2352,198
1604521078.2372,181
1604521078.2392,162
1604521078.2413,171
1604521078.2432,186
1604521078.2452,169
1604521078.2472,157
1604521078.2492,179
1604521078.2512,181
1604521078.2518,152
1604521078.2532,169
1604521078.2552,217
1604521078.2572,196
1604521078.2592,152
1604521078.2611,179
1604521078.2632,210
1604521078.2652,184
1604521078.2672,164
1604521078.2692,176
1604521078.2712,174
1604521078.2732,164
1604521078.2751,164
1604521078.2772,169
1604521078.2793,174
1604521078.2812,179
1604521078.2818,176
1604521078.2832,157
1604521078.2852,147
1604521078.2871,196
1604521078.2892,271
1604521078.2912,341
1604521078.2932,382
1604521078.2952,307
1604521078.2972,200
1604521078.2991,193
1604521078.3012,164
1604521078.3032,101
1604521078.3051,50
1604521078.3072,12
1604521078.3092,53
1604521078.3112,123
1604521078.3118,113
1604521078.3132,94
1604521078.3152,121
1604521078.3172,130
1604521078.3191,123
1604521078.3212,128
1604521078.3232,133
1604521078.3252,121
1604521078.3272,113
1604521078.3291,111
1604521078.3312,104
1604521078.3331,101
1604521078.3351,108
1604521078.3372,116
1604521078.3392,99
1604521078.7739,62
1604521078.7745,58
1604521078.7770,84
1604521078.7796,82
1604521078.7816,62
1604521078.7836,55
1604521078.7857,50
1604521078.7876,41
1604521078.7896,31
1604521078.7916,29
1604521078.7936,43
1604521078.7956,62
1604521078.7976,62
1604521078.7996,67
1604521078.8002,87
1604521078.8016,108
1604521078.8036,116
1604521078.8057,87
1604521078.8078,60
1604521078.8096,89
1604521078.8116,106
1604521078.8135,70
1604521078.8156,62
1604521078.8176,84
1604521078.8196,79
1604521078.8215,75
1604521078.8235,92
1604521078.8256,92
1604521078.8275,82
1604521078.8295,82
1604521078.8302,79
1604521078.8316,79
1604521078.8335,87
1604521078.8356,82
1604521078.8376,58
1604521078.8395,62
1604521078.8415,82
1604521078.8435,65
1604521078.8456,70
1604521078.8475,99
1604521078.8495,87
1604521078.8515,70
1604521078.8535,96
1604521078.8556,111
1604521078.8575,96
1604521078.8595,96
1604521078.8601,99
1604521078.8616,75
1604521078.8636,55
1604521078.8656,53
1604521078.8675,58
1604521078.8695,62
1604521078.8715,53
1604521078.8735,36
1604521078.8756,46
1604521078.8775,62
1604521078.8795,77
1604521078.8815,125
1604521078.8835,232
1604521078.8856,302
1604521078.8876,186
1604521078.8895,29
1604521078.8902,58
1604521078.8916,87
1604521078.8935,14
1604521078.8956,9
1604521078.8975,53
1604521078.8995,46
1604521078.9015,36
1604521078.9037,46
1604521078.9056,50
1604521078.9075,62
1604521078.9095,77
1604521079.4044,67
1604521079.4055,65
1604521079.4079,89
1604521079.4105,67
1604521079.4125,9
1604521079.4133,31
1604521079.4145,79
1604521079.4167,50
1604521079.4185,16
1604521079.4205,41
1604521079.4225,62
1604521079.4245,70
1604521079.4266,84
1604521079.4285,84
1604521079.4306,65
1604521079.4326,58
1604521079.4346,58
1604521079.4365,50
1604521079.4385,41
1604521079.4405,43
1604521079.4425,46
1604521079.4431,41
1604521079.4445,43
1604521079.4465,53
1604521079.4485,55
1604521079.4505,50
1604521079.4525,58
1604521079.4545,70
1604521079.4565,65
1604521079.4585,65
1604521079.4604,75
1604521079.4625,65
1604521079.4645,53
1604521079.4665,65
1604521079.4684,75
1604521079.4704,70
1604521079.4724,72
1604521079.4731,79
1604521079.4744,77
1604521079.4764,79
1604521079.4784,82
1604521079.4804,75
1604521079.4824,58
1604521079.4844,58
1604521079.4864,72
1604521079.4884,82
1604521079.4904,77
1604521079.4926,75
1604521079.4944,79
1604521079.4964,84
1604521079.4984,94
1604521079.5004,94
1604521079.5024,92
1604521079.5030,99
1604521079.5045,118
1604521079.5064,118
1604521079.5084,101
1604521079.5104,92
1604521079.5124,82
1604521079.5145,70
1604521079.5165,60
1604521079.5185,55
1604521079.5204,58
1604521079.5224,62
1604521079.5244,55
1604521079.5265,50
1604521079.5284,65
1604521079.5304,77
1604521079.5324,111
1604521079.5330,205
1604521079.5344,292
1604521079.5365,200
1604521079.5384,36
1604521079.9147,53
1604521079.9153,104
1604521079.9177,38
1604521079.9203,26
1604521079.9223,62
1604521079.9243,46
1604521079.9264,33
1604521079.9283,50
1604521079.9304,46
1604521079.9309,38
1604521079.9323,53
1604521079.9343,43
1604521079.9364,26
1604521079.9383,43
1604521079.9403,53
1604521079.9423,29
1604521079.9443,16
1604521079.9463,29
1604521079.9483,31
1604521079.9503,21
1604521079.9523,21
1604521079.9543,36
1604521079.9563,38
1604521079.9583,24
1604521079.9603,19
1604521079.9611,21
1604521079.9623,12
1604521079.9643,7
1604521079.9663,9
1604521079.9683,4
1604521079.9703,0
1604521079.9723,4
1604521079.9743,12
1604521079.9763,16
1604521079.9783,14
1604521079.9803,14
1604521079.9823,26
1604521079.9843,41
1604521079.9863,38
1604521079.9883,33
1604521079.9903,43
1604521079.9909,48
1604521079.9923,43
1604521079.9943,43
1604521079.9963,48
1604521079.9983,48
1604521080.0004,43
1604521080.0025,29
1604521080.0044,31
1604521080.0064,48
1604521080.0084,50
1604521080.0103,36
1604521080.0123,29
1604521080.0143,14
1604521080.0163,-4
1604521080.0185,-9
1604521080.0204,-9
1604521080.0209,-19
1604521080.0223,-29
1604521080.0243,-31
1604521080.0263,-26
1604521080.0283,-31
1604521080.0303,-36
1604521080.0323,-26
1604521080.0343,-14
1604521080.0363,-33
1604521080.0383,-62
1604521080.0403,-65
1604521080.0423,-65
1604521080.0443,-84
1604521080.0463,-96
1604521080.0483,-89
1604521080.0503,-87
1604521080.4549,-89
1604521080.4557,-82
1604521080.4582,-72
1604521080.4601,-72
1604521080.4619,-58
1604521080.4638,14
1604521080.4659,145
1604521080.4678,186
1604521080.4699,-4
1604521080.4718,-169
1604521080.4738,-84
1604521080.4758,-24
1604521080.4777,-89
1604521080.4797,-101
1604521080.4817,-79
1604521080.4837,-87
1604521080.4844,-92
1604521080.4858,-87
1604521080.4877,-89
1604521080.4897,-84
1604521080.4917,-70
1604521080.4937,-65
1604521080.4958,-67
1604521080.4977,-58
1604521080.4997,-55
1604521080.5017,-58
1604521080.5038,-50
1604521080.5057,-46
1604521080.5077,-53
1604521080.5097,-46
1604521080.5117,-29
1604521080.5137,-33
1604521080.5143,-53
1604521080.5157,-58
1604521080.5177,-50
1604521080.5197,-55
1604521080.5218,-65
1604521080.5237,-72
1604521080.5257,-84
1604521080.5277,-87
1604521080.5297,-70
1604521080.5317,-55
1604521080.5337,-43
1604521080.5357,-29
1604521080.5377,-19
1604521080.5397,-16
1604521080.5417,0
1604521080.5437,26
1604521080.5443,29
1604521080.5457,21
1604521080.5477,31
1604521080.5497,46
1604521080.5517,48
1604521080.5537,50
1604521080.5559,55
1604521080.5577,53
1604521080.5597,46
1604521080.5617,48
1604521080.5637,48
1604521080.5657,48
1604521080.5677,48
1604521080.5697,41
1604521080.5717,26
1604521080.5737,26
1604521080.5743,36
1604521080.5757,36
1604521080.5777,41
1604521080.5797,55
1604521080.5817,48
1604521080.5837,33
1604521080.5857,50
1604521080.5877,72
1604521080.5897,50
1604521081.0241,26
1604521081.0249,41
1604521081.0273,36
1604521081.0300,0
1604521081.0306,9
1604521081.0320,24
1604521081.0340,2
1604521081.0360,-4
1604521081.0379,-2
1604521081.0399,-9
1604521081.0419,-2
1604521081.0439,19
1604521081.0460,75
1604521081.0480,193
1604521081.0499,266
1604521081.0519,140
1604521081.0539,0
1604521081.0560,41
1604521081.0579,50
1604521081.0599,-14
1604521081.0605,-7
1604521081.0619,16
1604521081.0639,4
1604521081.0659,9
1604521081.0679,16
1604521081.0699,2
1604521081.0719,-7
1604521081.0739,4
1604521081.0760,16
1604521081.0779,19
1604521081.0799,14
1604521081.0819,9
1604521081.0840,14
1604521081.0860,16
1604521081.0879,21
1604521081.0899,21
1604521081.0905,12
1604521081.0919,7
1604521081.0940,21
1604521081.0960,26
1604521081.0979,9
1604521081.0999,-7
1604521081.1019,-4
1604521081.1039,-7
1604521081.1059,-4
1604521081.1079,9
1604521081.1099,16
1604521081.1119,19
1604521081.1139,16
1604521081.1159,7
1604521081.1179,7
1604521081.1199,14
1604521081.1205,24
1604521081.1219,33
1604521081.1239,46
1604521081.1259,58
1604521081.1279,67
1604521081.1299,75
1604521081.1319,79
1604521081.1339,70
1604521081.1359,60
1604521081.1379,70
1604521081.1399,82
1604521081.1420,89
1604521081.1439,94
1604521081.1459,89
1604521081.1479,82
1604521081.1499,70
1604521081.1505,60
1604521081.1519,58
1604521081.1539,53
1604521081.1560,58
1604521081.1579,67
1604521081.5941,77
1604521081.5949,84
1604521081.5972,87
1604521081.5990,87
1604521081.6010,101
1604521081.6030,113
1604521081.6049,99
1604521081.6069,77
1604521081.6089,70
1604521081.6095,65
1604521081.6111,46
1604521081.6129,29
1604521081.6149,31
1604521081.6170,31
1604521081.6189,21
1604521081.6209,21
1604521081.6230,26
1604521081.6249,26
1604521081.6270,41
1604521081.6289,101
1604521081.6309,208
1604521081.6329,246
1604521081.6349,116
1604521081.6369,2
1604521081.6389,48
1604521081.6395,55
1604521081.6409,0
1604521081.6429,14
1604521081.6449,36
1604521081.6468,21
1604521081.6489,21
1604521081.6509,31
1604521081.6529,21
1604521081.6549,16
1604521081.6569,19
1604521081.6588,19
1604521081.6609,31
1604521081.6629,33
1604521081.6649,4
1604521081.6669,-16
1604521081.6688,-16
1604521081.6695,-16
1604521081.6708,-19
1604521081.6729,-19
1604521081.6749,-19
1604521081.6769,-26
1604521081.6789,-41
1604521081.6808,-58
1604521081.6828,-60
1604521081.6848,-53
1604521081.6869,-60
1604521081.6889,-82
1604521081.6909,-82
1604521081.6928,-75
1604521081.6948,-96
1604521081.6968,-106
1604521081.6989,-94
1604521081.6995,-94
1604521081.7008,-79
1604521081.7029,-55
1604521081.7048,-65
1604521081.7070,-87
1604521081.7089,-77
1604521081.7109,-60
1604521081.7129,-62
1604521081.7149,-77
1604521081.7168,-79
1604521081.7188,-82
1604521081.7208,-89
1604521081.7230,-87
1604521081.7248,-92
1604521081.7269,-101
1604521081.7288,-99
1604521082.1342,-99
1604521082.1350,-99
1604521082.1374,-96
1604521082.1401,-104
1604521082.1421,-111
1604521082.1441,-106
1604521082.1461,-99
1604521082.1480,-89
1604521082.1500,-72
1604521082.1521,-72
1604521082.1541,-89
1604521082.1561,-75
1604521082.1580,-43
1604521082.1600,-41
1604521082.1607,-53
1604521082.1620,-55
1604521082.1640,-58
1604521082.1660,-62
1604521082.1680,-60
1604521082.1700,-46
1604521082.1720,-33
1604521082.1740,-26
1604521082.1760,-21
1604521082.1780,-16
1604521082.1800,-12
1604521082.1820,0
1604521082.1840,55
1604521082.1860,191
1604521082.1880,285
1604521082.1900,130
1604521082.1983,-79
1604521082.2000,-26
1604521082.2020,58
1604521082.2040,-7
1604521082.2060,-19
1604521082.2080,24
1604521082.2100,12
1604521082.2121,2
1604521082.2140,21
1604521082.2162,16
1604521082.2180,2
1604521082.2200,19
1604521082.2220,33
1604521082.2240,24
1604521082.2260,16
1604521082.2266,21
1604521082.2279,26
1604521082.2300,21
1604521082.2320,21
1604521082.2340,24
1604521082.2360,31
1604521082.2380,31
1604521082.2400,29
1604521082.2420,31
1604521082.2440,26
1604521082.2460,14
1604521082.2480,4
1604521082.2500,4
1604521082.2520,4
1604521082.2540,-2
1604521082.2560,-9
1604521082.2566,-7
1604521082.2580,-4
1604521082.2600,-2
1604521082.2620,9
1604521082.2640,21
1604521082.2660,26
1604521082.2680,29
1604521082.2700,29
1604521082.2720,29
1604521082.2740,31
1604521082.2760,31
1604521082.2780,36
1604521082.7340,41
1604521082.7348,48
1604521082.7366,48
1604521082.7385,48
1604521082.7405,53
1604521082.7427,53
1604521082.7445,43
1604521082.7466,43
1604521082.7485,38
1604521082.7506,31
1604521082.7525,29
1604521082.7546,29
1604521082.7565,26
1604521082.7585,24
1604521082.7605,26
1604521082.7624,26
1604521082.7645,24
1604521082.7653,24
1604521082.7665,31
1604521082.7685,48
1604521082.7705,58
1604521082.7725,48
1604521082.7745,38
1604521082.7765,38
1604521082.7784,33
1604521082.7804,19
1604521082.7825,14
1604521082.7844,19
1604521082.7865,24
1604521082.7884,24
1604521082.7904,24
1604521082.7924,26
1604521082.7944,24
1604521082.7951,46
1604521082.7965,140
1604521082.7984,266
1604521082.8004,237
1604521082.8024,41
1604521082.8044,-16
1604521082.8065,62
1604521082.8084,43
1604521082.8104,-2
1604521082.8124,12
1604521082.8145,21
1604521082.8165,9
1604521082.8185,7
1604521082.8204,9
1604521082.8224,9
1604521082.8244,7
1604521082.8251,7
1604521082.8264,2
1604521082.8284,-2
1604521082.8304,0
1604521082.8324,7
1604521082.8344,9
1604521082.8365,9
1604521082.8384,14
1604521082.8404,19
1604521082.8425,26
1604521082.8444,31
1604521082.8464,31
1604521082.8485,26
1604521082.8504,21
1604521082.8524,14
1604521082.8545,9
1604521082.8551,4
1604521082.8564,0
1604521082.8584,-2
1604521082.8606,-7
1604521082.8625,-4
1604521082.8644,2
1604521082.8664,12
1604521082.8685,24
1604521083.2739,31
1604521083.2745,36
1604521083.2773,41
1604521083.2795,48
1604521083.2815,53
1604521083.2835,50
1604521083.2855,50
1604521083.2875,53
1604521083.2895,62
1604521083.2915,65
1604521083.2935,60
1604521083.2956,50
1604521083.2975,53
1604521083.2982,58
1604521083.2995,55
1604521083.3016,55
1604521083.3035,58
1604521083.3055,62
1604521083.3075,60
1604521083.3095,60
1604521083.3115,62
1604521083.3135,62
1604521083.3155,62
1604521083.3175,70
1604521083.3195,72
1604521083.3215,67
1604521083.3235,65
1604521083.3255,77
1604521083.3275,92
1604521083.3281,82
1604521083.3295,67
1604521083.3315,62
1604521083.3335,55
1604521083.3355,38
1604521083.3375,31
1604521083.3395,36
1604521083.3415,36
1604521083.3436,29
1604521083.3456,29
1604521083.3475,31
1604521083.3495,29
1604521083.3516,33
1604521083.3535,87
1604521083.3556,215
1604521083.3575,261
1604521083.3582,89
1604521083.3597,-31
1604521083.3616,48
1604521083.3635,62
1604521083.3656,0
1604521083.3675,14
1604521083.3695,38
1604521083.3715,19
1604521083.3735,14
1604521083.3755,24
1604521083.3776,19
1604521083.3796,14
1604521083.3815,24
1604521083.3835,21
1604521083.3855,14
1604521083.3875,16
1604521083.3881,16
1604521083.3895,12
1604521083.3915,9
1604521083.3936,9
1604521083.3956,7
1604521083.3975,2
1604521083.3995,0
1604521083.4015,2
1604521083.4035,-4
1604521083.4055,-12
1604521083.4075,-16
1604521083.4095,-21
1604521083.8441,-31
1604521083.8449,-36
1604521083.8465,-38
1604521083.8490,-41
1604521083.8510,-36
1604521083.8530,-26
1604521083.8550,-19
1604521083.8570,-19
1604521083.8590,-24
1604521083.8610,-14
1604521083.8630,0
1604521083.8650,7
1604521083.8669,9
1604521083.8689,12
1604521083.8709,16
1604521083.8729,19
1604521083.8749,16
1604521083.8769,21
1604521083.8775,24
1604521083.8789,21
1604521083.8810,21
1604521083.8829,26
1604521083.8849,24
1604521083.8869,19
1604521083.8891,14
1604521083.8909,14
1604521083.8929,19
1604521083.8949,7
1604521083.8970,-2
1604521083.8989,14
1604521083.9009,21
1604521083.9029,-4
1604521083.9049,-7
1604521083.9069,9
1604521083.9075,7
1604521083.9089,0
1604521083.9109,9
1604521083.9129,12
1604521083.9149,16
1604521083.9169,33
1604521083.9189,38
1604521083.9209,24
1604521083.9229,12
1604521083.9249,7
1604521083.9269,0
1604521083.9290,-14
1604521083.9309,-16
1604521083.9329,-7
1604521083.9350,-7
1604521083.9370,-14
1604521083.9375,-12
1604521083.9389,-9
1604521083.9409,-4
1604521083.9429,43
1604521083.9449,157
1604521083.9469,234
1604521083.9489,101
1604521083.9508,-55
1604521083.9529,0
1604521083.9549,38
1604521083.9569,-36
1604521083.9589,-38
1604521083.9609,-4
1604521083.9629,-19
1604521083.9650,-29
1604521083.9670,-12
1604521083.9675,-14
1604521083.9689,-19
1604521083.9709,-12
1604521083.9729,-7
1604521083.9749,-14
1604521083.9769,-16
1604521083.9781,-16
1604521084.3837,-19
1604521084.3846,-24
1604521084.3874,-24
1604521084.3897,-21
1604521084.3917,-24
1604521084.3937,-26
1604521084.3956,-31
1604521084.3963,-33
1604521084.3976,-41
1604521084.3996,-58
1604521084.4016,-70
1604521084.4036,-70
1604521084.4057,-79
1604521084.4076,-89
1604521084.4096,-87
1604521084.4116,-82
1604521084.4138,-79
1604521084.4157,-72
1604521084.4176,-65
1604521084.4196,-60
1604521084.4216,-53
1604521084.4236,-43
1604521084.4256,-33
1604521084.4262,-29
1604521084.4276,-31
1604521084.4296,-29
1604521084.4316,-21
1604521084.4336,-19
1604521084.4356,-21
1604521084.4376,-21
1604521084.4396,-21
1604521084.4416,-24
1604521084.4436,-24
1604521084.4456,-21
1604521084.4476,-21
1604521084.4496,-24
1604521084.4516,-29
1604521084.4536,-31
1604521084.4557,-33
1604521084.4562,-33
1604521084.4576,-36
1604521084.4596,-41
1604521084.4616,-46
1604521084.4636,-46
1604521084.4657,-43
1604521084.4676,-41
1604521084.4696,-36
1604521084.4716,-31
1604521084.4736,-26
1604521084.4756,-26
1604521084.4776,-29
1604521084.4796,-21
1604521084.4816,-9
1604521084.4837,-9
1604521084.4857,-24
1604521084.4862,-31
1604521084.4876,-36
1604521084.4896,-46
1604521084.4916,-58
1604521084.4936,-58
1604521084.4956,-55
1604521084.4976,-55
1604521084.4996,-53
1604521084.5016,-50
1604521084.5036,-48
1604521084.5056,-33
1604521084.5076,21
1604521084.5096,147
1604521084.5116,196
1604521084.5137,9
1604521084.5156,-135
1604521084.5162,-48
1604521084.5176,-24
1604521084.9541,-92
1604521084.9549,-77
1604521084.9574,-55
1604521084.9600,-79
1604521084.9619,-79
1604521084.9639,-75
1604521084.9660,-89
1604521084.9679,-96
1604521084.9699,-87
1604521084.9719,-84
1604521084.9739,-92
1604521084.9745,-89
1604521084.9759,-84
1604521084.9779,-87
1604521084.9799,-87
1604521084.9819,-82
1604521084.9839,-82
1604521084.9859,-84
1604521084.9878,-87
1604521084.9899,-84
1604521084.9919,-84
1604521084.9939,-89
1604521084.9959,-96
1604521084.9978,-104
1604521084.9998,-106
1604521085.0019,-106
1604521085.0038,-111
1604521085.0045,-113
1604521085.0059,-108
1604521085.0078,-101
1604521085.0099,-89
1604521085.0120,-77
1604521085.0139,-70
1604521085.0159,-67
1604521085.0178,-62
1604521085.0199,-53
1604521085.0219,-46
1604521085.0239,-38
1604521085.0259,-33
1604521085.0279,-29
1604521085.0298,-24
1604521085.0318,-24
1604521085.0338,-24
1604521085.0344,-21
1604521085.0359,-19
1604521085.0378,-21
1604521085.0398,-19
1604521085.0419,-19
1604521085.0439,-19
1604521085.0459,-21
1604521085.0478,-24
1604521085.0498,-21
1604521085.0518,-21
1604521085.0538,-24
1604521085.0559,-21
1604521085.0579,-19
1604521085.0598,-19
1604521085.0619,-19
1604521085.0639,-19
1604521085.0644,-16
1604521085.0659,-7
1604521085.0678,-2
1604521085.0698,-2
1604521085.0718,0
1604521085.0738,19
1604521085.0759,29
1604521085.0778,16
1604521085.0798,7
1604521085.0819,2
1604521085.0838,-7
1604521085.0859,-19
1604521085.0878,-24
1604521085.0899,-21
1604521085.4942,-21
1604521085.4950,-26
1604521085.4966,-24
1604521085.4991,-21
1604521085.5010,-19
1604521085.5031,2
1604521085.5051,87
1604521085.5070,230
1604521085.5090,215
1604521085.5112,-31
1604521085.5130,-125
1604521085.5150,-2
1604521085.5170,-7
1604521085.5190,-72
1604521085.5210,-41
1604521085.5230,-29
1604521085.5250,-55
1604521085.5270,-48
1604521085.5276,-36
1604521085.5290,-43
1604521085.5310,-41
1604521085.5330,-33
1604521085.5350,-36
1604521085.5371,-38
1604521085.5390,-33
1604521085.5410,-33
1604521085.5430,-41
1604521085.5450,-46
1604521085.5470,-48
1604521085.5490,-43
1604521085.5510,-43
1604521085.5530,-46
1604521085.5550,-46
1604521085.5569,-48
1604521085.5576,-58
1604521085.5590,-65
1604521085.5609,-65
1604521085.5630,-70
1604521085.5649,-75
1604521085.5670,-77
1604521085.5690,-77
1604521085.5710,-75
1604521085.5729,-65
1604521085.5749,-58
1604521085.5770,-50
1604521085.5790,-46
1604521085.5810,-43
1604521085.5829,-38
1604521085.5849,-31
1604521085.5870,-26
1604521085.5876,-21
1604521085.5889,-16
1604521085.5910,-12
1604521085.5929,-7
1604521085.5950,-4
1604521085.5969,-2
1604521085.5989,0
1604521085.6009,2
1604521085.6030,-2
1604521085.6049,-2
1604521085.6071,0
1604521085.6090,2
1604521085.6110,0
1604521085.6129,0
1604521085.6150,0
1604521085.6169,-2
1604521085.6176,-7
1604521085.6199,-4
1604521085.6220,-4
1604521085.6239,-4
1604521085.6260,-4
1604521085.6279,-4
1604521085.6299,-2
1604521086.0938,-4
1604521086.0947,-2
1604521086.0971,0
1604521086.0997,4
1604521086.1017,2
1604521086.1023,-2
1604521086.1038,0
1604521086.1057,16
1604521086.1077,29
1604521086.1097,24
1604521086.1117,14
1604521086.1138,9
1604521086.1158,2
1604521086.1177,-9
1604521086.1197,-19
1604521086.1217,-19
1604521086.1237,-14
1604521086.1257,-12
1604521086.1277,-14
1604521086.1297,-19
1604521086.1317,-24
1604521086.1323,-14
1604521086.1337,46
1604521086.1357,179
1604521086.1376,246
1604521086.1397,65
1604521086.1416,-113
1604521086.1436,-33
1604521086.1457,14
1604521086.1476,-58
1604521086.1496,-53
1604521086.1516,-24
1604521086.1536,-48
1604521086.1557,-53
1604521086.1577,-33
1604521086.1597,-33
1604521086.1616,-38
1604521086.1622,-33
1604521086.1639,-33
1604521086.1658,-38
1604521086.1677,-36
1604521086.1697,-33
1604521086.1716,-36
1604521086.1736,-33
1604521086.1757,-31
1604521086.1776,-29
