,ecg
1606837505.786,3303.0
1606837505.7886,5411.0
1606837505.7912,6370.0
1606837505.7939,7175.0
1606837505.7963,8121.0
1606837505.7984,8720.0
1606837505.8009,9170.0
1606837505.8028,9676.0
1606837505.8046,10065.0
1606837505.8067,10351.0
1606837505.8087,10645.0
1606837505.8107,10899.0
1606837505.8129,11092.0
1606837505.8152,11276.0
1606837505.8174,11452.0
1606837505.8195,11589.0
1606837505.8216,11696.0
1606837505.8231,11809.0
1606837505.8246,11916.0
1606837505.8266,11997.0
1606837505.8286,12061.0
1606837505.8306,12127.0
1606837505.8326,12180.0
1606837505.8346,12222.0
1606837505.8366,12259.0
1606837505.8387,12290.0
1606837505.8406,12330.0
1606837505.8425,12349.0
1606837505.8445,12349.0
1606837505.8466,12356.0
1606837505.8485,12369.0
1606837505.8506,12366.0
1606837505.8525,12361.0
1606837505.8545,12356.0
1606837505.8566,12344.0
1606837505.8585,12322.0
1606837505.8605,12305.0
1606837505.8625,12288.0
1606837505.8645,12271.0
1606837505.8665,12237.0
1606837505.8685,12195.0
1606837505.8706,12168.0
1606837505.8725,12139.0
1606837505.8745,12092.0
1606837505.8766,12053.0
1606837505.8785,12019.0
1606837505.8805,11968.0
1606837505.8826,11911.0
1606837505.8845,11858.0
1606837505.8865,11814.0
1606837505.8888,11777.0
1606837505.8906,11730.0
1606837505.8925,11684.0
1606837505.8945,11633.0
1606837505.8965,11564.0
1606837505.8985,11493.0
1606837505.9005,11430.0
1606837505.9025,11356.0
1606837505.9045,11273.0
1606837505.9066,11200.0
1606837505.9086,11146.0
1606837505.9105,11104.0
1606837505.9126,11085.0
1606837505.9144,11112.0
1606837505.9165,11195.0
1606837505.9184,11288.0
1606837505.9205,11327.0
1606837505.9225,11356.0
1606837505.9245,11503.0
1606837505.9265,11723.0
1606837505.9284,11603.0
1606837505.9304,10862.0
1606837505.9325,10136.0
1606837506.3243,10004.0
1606837506.3253,9994.0
1606837506.3277,9811.0
1606837506.3304,9728.0
1606837506.3324,9710.0
1606837506.3343,9618.0
1606837506.3365,9532.0
1606837506.3383,9493.0
1606837506.3404,9429.0
1606837506.3424,9353.0
1606837506.3443,9287.0
1606837506.3464,9224.0
1606837506.3484,9168.0
1606837506.3503,9084.0
1606837506.3524,8987.0
1606837506.3543,8925.0
1606837506.3563,8869.0
1606837506.3583,8789.0
1606837506.3604,8718.0
1606837506.3624,8669.0
1606837506.3643,8605.0
1606837506.3663,8524.0
1606837506.3683,8466.0
1606837506.3703,8417.0
1606837506.3723,8343.0
1606837506.3743,8268.0
1606837506.3763,8202.0
1606837506.3783,8123.0
1606837506.3805,8023.0
1606837506.3823,7918.0
1606837506.3843,7825.0
1606837506.3863,7737.0
1606837506.3883,7651.0
1606837506.3903,7568.0
1606837506.3922,7495.0
1606837506.3943,7424.0
1606837506.3963,7353.0
1606837506.3982,7275.0
1606837506.4003,7201.0
1606837506.4023,7138.0
1606837506.4043,7069.0
1606837506.4062,7003.0
1606837506.4082,6932.0
1606837506.4103,6862.0
1606837506.4123,6798.0
1606837506.4143,6729.0
1606837506.4163,6654.0
1606837506.4182,6583.0
1606837506.4203,6522.0
1606837506.4223,6453.0
1606837506.4242,6387.0
1606837506.4262,6326.0
1606837506.4282,6262.0
1606837506.4302,6199.0
1606837506.4323,6138.0
1606837506.4342,6074.0
1606837506.4363,6008.0
1606837506.4382,5944.0
1606837506.4402,5888.0
1606837506.4423,5830.0
1606837506.4442,5761.0
1606837506.4462,5700.0
1606837506.4483,5644.0
1606837506.4502,5578.0
1606837506.4523,5516.0
1606837506.4542,5463.0
1606837506.4563,5411.0
1606837506.4582,5350.0
1606837506.4603,5287.0
1606837506.4623,5230.0
1606837506.4642,5177.0
1606837506.4662,5120.0
1606837506.4683,5067.0
1606837506.8647,5015.0
1606837506.8656,4959.0
1606837506.8681,4895.0
1606837506.8707,4842.0
1606837506.8727,4795.0
1606837506.8747,4744.0
1606837506.8771,4687.0
1606837506.8788,4629.0
1606837506.8807,4575.0
1606837506.8826,4533.0
1606837506.8846,4482.0
1606837506.8867,4431.0
1606837506.8887,4401.0
1606837506.8907,4367.0
1606837506.8927,4313.0
1606837506.8946,4262.0
1606837506.8966,4211.0
1606837506.8987,4157.0
1606837506.9007,4101.0
1606837506.9027,4047.0
1606837506.9047,4008.0
1606837506.9067,3981.0
1606837506.9086,3981.0
1606837506.9106,4039.0
1606837506.9126,4159.0
1606837506.9146,4264.0
1606837506.9166,4316.0
1606837506.9186,4392.0
1606837506.9206,4609.0
1606837506.9226,4878.0
1606837506.9246,4751.0
1606837506.9266,3986.0
1606837506.9286,3303.0
1606837506.9306,3245.0
1606837506.9326,3269.0
1606837506.9346,3132.0
1606837506.9366,3110.0
1606837506.9386,3127.0
1606837506.9406,3064.0
1606837506.9427,3025.0
1606837506.9446,3025.0
1606837506.9466,2995.0
1606837506.9486,2961.0
1606837506.9506,2946.0
1606837506.9526,2924.0
1606837506.9546,2895.0
1606837506.9567,2868.0
1606837506.9586,2844.0
1606837506.9606,2822.0
1606837506.9626,2797.0
1606837506.9646,2773.0
1606837506.9666,2758.0
1606837506.9686,2743.0
1606837506.9706,2724.0
1606837506.9726,2707.0
1606837506.9746,2692.0
1606837506.9766,2675.0
1606837506.9788,2650.0
1606837506.9807,2626.0
1606837506.9827,2599.0
1606837506.9846,2562.0
1606837506.9866,2501.0
1606837506.9886,2433.0
1606837506.9906,2381.0
1606837506.9926,2337.0
1606837506.9946,2291.0
1606837506.9966,2259.0
1606837506.9986,2235.0
1606837507.0006,2210.0
1606837507.0026,2183.0
1606837507.0046,2164.0
1606837507.0068,2147.0
1606837507.0086,2127.0
1606837507.4339,2103.0
1606837507.4349,2078.0
1606837507.4373,2056.0
1606837507.4401,2037.0
1606837507.4419,2022.0
1606837507.4439,2002.0
1606837507.446,1975.0
1606837507.4479,1949.0
1606837507.45,1922.0
1606837507.452,1907.0
1606837507.4539,1895.0
1606837507.4559,1868.0
1606837507.4579,1848.0
1606837507.46,1838.0
1606837507.4619,1821.0
1606837507.4639,1794.0
1606837507.4659,1775.0
1606837507.4679,1760.0
1606837507.47,1738.0
1606837507.4719,1711.0
1606837507.4738,1697.0
1606837507.4759,1684.0
1606837507.4778,1665.0
1606837507.4798,1640.0
1606837507.4819,1621.0
1606837507.4839,1604.0
1606837507.4859,1589.0
1606837507.4878,1572.0
1606837507.4899,1555.0
1606837507.4919,1543.0
1606837507.4939,1523.0
1606837507.4959,1499.0
1606837507.4978,1479.0
1606837507.4998,1467.0
1606837507.5019,1447.0
1606837507.504,1433.0
1606837507.5059,1428.0
1606837507.5078,1428.0
1606837507.5098,1423.0
1606837507.512,1413.0
1606837507.5139,1403.0
1606837507.5159,1381.0
1606837507.5179,1349.0
1606837507.5199,1325.0
1606837507.522,1308.0
1606837507.5239,1298.0
1606837507.5259,1300.0
1606837507.5278,1320.0
1606837507.5299,1384.0
1606837507.5319,1513.0
1606837507.5338,1667.0
1606837507.5358,1777.0
1606837507.5378,1865.0
1606837507.5399,2059.0
1606837507.542,2359.0
1606837507.5439,2423.0
1606837507.5458,1846.0
1606837507.5479,1073.0
1606837507.5498,870.0
1606837507.552,968.0
1606837507.5539,882.0
1606837507.5559,829.0
1606837507.5578,882.0
1606837507.5599,880.0
1606837507.5619,858.0
1606837507.5639,870.0
1606837507.5659,875.0
1606837507.5679,870.0
1606837507.5699,877.0
1606837507.5719,877.0
1606837507.5738,873.0
1606837507.5758,875.0
1606837507.5779,877.0
1606837508.0339,880.0
1606837508.0352,882.0
1606837508.0368,887.0
1606837508.0387,887.0
1606837508.0407,885.0
1606837508.0427,885.0
1606837508.0447,892.0
1606837508.0467,899.0
1606837508.0487,895.0
1606837508.0507,890.0
1606837508.0526,897.0
1606837508.0546,897.0
1606837508.0567,875.0
1606837508.0589,843.0
1606837508.0607,802.0
1606837508.0626,760.0
1606837508.0646,731.0
1606837508.0666,714.0
1606837508.0686,704.0
1606837508.0706,696.0
1606837508.0726,687.0
1606837508.0746,689.0
1606837508.0766,689.0
1606837508.0786,674.0
1606837508.0806,665.0
1606837508.0827,670.0
1606837508.0846,667.0
1606837508.0866,660.0
1606837508.0886,660.0
1606837508.0906,655.0
1606837508.0926,652.0
1606837508.0946,652.0
1606837508.0966,645.0
1606837508.0986,640.0
1606837508.1006,640.0
1606837508.1026,638.0
1606837508.1046,638.0
1606837508.1067,640.0
1606837508.1086,635.0
1606837508.1106,626.0
1606837508.1126,623.0
1606837508.1146,621.0
1606837508.1167,611.0
1606837508.1186,606.0
1606837508.1206,604.0
1606837508.1226,601.0
1606837508.1246,594.0
1606837508.1266,582.0
1606837508.1286,579.0
1606837508.1306,579.0
1606837508.1326,577.0
1606837508.1346,569.0
1606837508.1366,562.0
1606837508.1386,557.0
1606837508.1406,552.0
1606837508.1426,547.0
1606837508.1446,545.0
1606837508.1466,540.0
1606837508.1486,533.0
1606837508.1506,530.0
1606837508.1526,533.0
1606837508.1546,525.0
1606837508.1566,518.0
1606837508.1586,518.0
1606837508.1608,515.0
1606837508.1626,508.0
1606837508.1646,501.0
1606837508.1666,498.0
1606837508.1686,498.0
1606837508.1706,508.0
1606837508.1726,518.0
1606837508.1746,520.0
1606837508.1766,518.0
1606837508.5441,506.0
1606837508.5448,493.0
1606837508.5473,481.0
1606837508.55,467.0
1606837508.552,462.0
1606837508.5539,471.0
1606837508.5559,498.0
1606837508.5579,564.0
1606837508.5599,692.0
1606837508.562,846.0
1606837508.5639,963.0
1606837508.5659,1078.0
1606837508.5679,1305.0
1606837508.5699,1601.0
1606837508.5718,1565.0
1606837508.5738,921.0
1606837508.5758,273.0
1606837508.5778,185.0
1606837508.5798,232.0
1606837508.5819,132.0
1606837508.5838,122.0
1606837508.5858,168.0
1606837508.5878,151.0
1606837508.5899,154.0
1606837508.5919,190.0
1606837508.5938,202.0
1606837508.5958,207.0
1606837508.5979,222.0
1606837508.5998,229.0
1606837508.6019,229.0
1606837508.6039,232.0
1606837508.6058,246.0
1606837508.6078,271.0
1606837508.6098,281.0
1606837508.6119,278.0
1606837508.6138,291.0
1606837508.6158,310.0
1606837508.6178,320.0
1606837508.6198,327.0
1606837508.6219,339.0
1606837508.6238,354.0
1606837508.6258,364.0
1606837508.6281,374.0
1606837508.6299,371.0
1606837508.6319,354.0
1606837508.6338,330.0
1606837508.6358,303.0
1606837508.6378,276.0
1606837508.6399,251.0
1606837508.6419,229.0
1606837508.6438,212.0
1606837508.6459,207.0
1606837508.6479,215.0
1606837508.6499,227.0
1606837508.6519,237.0
1606837508.6538,256.0
1606837508.6558,261.0
1606837508.6578,244.0
1606837508.6598,239.0
1606837508.6619,249.0
1606837508.6638,246.0
1606837508.6658,237.0
1606837508.6678,242.0
1606837508.6698,256.0
1606837508.6719,254.0
1606837508.6739,244.0
1606837508.6759,251.0
1606837508.6778,259.0
1606837508.6798,254.0
1606837508.6819,246.0
1606837508.6838,246.0
1606837508.6858,249.0
1606837508.6879,249.0
1606837509.1449,244.0
1606837509.1467,249.0
1606837509.1491,244.0
1606837509.1516,234.0
1606837509.1537,239.0
1606837509.1556,251.0
1606837509.1577,249.0
1606837509.1596,237.0
1606837509.1617,234.0
1606837509.1636,224.0
1606837509.1656,210.0
1606837509.1676,212.0
1606837509.1696,232.0
1606837509.1715,242.0
1606837509.1736,232.0
1606837509.1755,227.0
1606837509.1775,224.0
1606837509.1795,220.0
1606837509.1816,222.0
1606837509.1835,234.0
1606837509.1857,237.0
1606837509.1876,227.0
1606837509.1895,220.0
1606837509.1916,222.0
1606837509.1936,222.0
1606837509.1955,224.0
1606837509.1975,229.0
1606837509.1995,234.0
1606837509.2016,246.0
1606837509.2035,261.0
1606837509.2055,259.0
1606837509.2076,237.0
1606837509.2095,217.0
1606837509.2115,220.0
1606837509.2135,212.0
1606837509.2155,200.0
1606837509.2175,217.0
1606837509.2196,266.0
1606837509.2214,349.0
1606837509.2235,484.0
1606837509.2255,633.0
1606837509.2275,758.0
1606837509.2295,895.0
1606837509.2316,1139.0
1606837509.2335,1371.0
1606837509.2355,1159.0
1606837509.2375,467.0
1606837509.2395,29.0
1606837509.2416,56.0
1606837509.2435,41.0
1606837509.2455,-46.0
1606837509.2475,-9.0
1606837509.2495,19.0
1606837509.2515,2.0
1606837509.2536,24.0
1606837509.2555,48.0
1606837509.2575,44.0
1606837509.2595,56.0
1606837509.2615,66.0
1606837509.2635,66.0
1606837509.2655,90.0
1606837509.2675,119.0
1606837509.2695,114.0
1606837509.2714,107.0
1606837509.2735,127.0
1606837509.2755,146.0
1606837509.2775,156.0
1606837509.2795,168.0
1606837509.2816,183.0
1606837509.2835,195.0
1606837509.2855,215.0
1606837509.2877,239.0
1606837509.2896,249.0
1606837509.6843,244.0
1606837509.6853,239.0
1606837509.6878,224.0
1606837509.6904,193.0
1606837509.6923,161.0
1606837509.6943,136.0
1606837509.6963,122.0
1606837509.6984,110.0
1606837509.7003,107.0
1606837509.7024,114.0
1606837509.7043,117.0
1606837509.7063,107.0
1606837509.7083,100.0
1606837509.7103,110.0
1606837509.7123,117.0
1606837509.7143,117.0
1606837509.7163,122.0
1606837509.7183,129.0
1606837509.7203,134.0
1606837509.7223,134.0
1606837509.7243,136.0
1606837509.7263,136.0
1606837509.7283,139.0
1606837509.7303,141.0
1606837509.7323,144.0
1606837509.7343,144.0
1606837509.7363,144.0
1606837509.7384,146.0
1606837509.7403,154.0
1606837509.7423,158.0
1606837509.7443,158.0
1606837509.7463,156.0
1606837509.7483,158.0
1606837509.7503,161.0
1606837509.7523,161.0
1606837509.7543,161.0
1606837509.7563,161.0
1606837509.7583,158.0
1606837509.7603,156.0
1606837509.7623,156.0
1606837509.7643,158.0
1606837509.7663,158.0
1606837509.7682,156.0
1606837509.7703,154.0
1606837509.7723,154.0
1606837509.7743,161.0
1606837509.7763,173.0
1606837509.7783,183.0
1606837509.7803,190.0
1606837509.7825,195.0
1606837509.7843,188.0
1606837509.7863,168.0
1606837509.7883,156.0
1606837509.7903,154.0
1606837509.7923,151.0
1606837509.7943,161.0
1606837509.7963,188.0
1606837509.7983,249.0
1606837509.8003,371.0
1606837509.8023,528.0
1606837509.8043,660.0
1606837509.8062,770.0
1606837509.8083,963.0
1606837509.8103,1237.0
1606837509.8123,1234.0
1606837509.8143,670.0
1606837509.8163,61.0
1606837509.8183,-44.0
1606837509.8203,9.0
1606837509.8223,-70.0
1606837509.8243,-83.0
1606837509.8263,-31.0
1606837509.8283,-36.0
1606837510.2245,-46.0
1606837510.2255,-24.0
1606837510.2271,-14.0
1606837510.2289,-9.0
1606837510.231,0.0
1606837510.2329,9.0
1606837510.2349,24.0
1606837510.237,41.0
1606837510.239,44.0
1606837510.241,44.0
1606837510.2429,56.0
1606837510.245,66.0
1606837510.2469,75.0
1606837510.2489,97.0
1606837510.2509,117.0
1606837510.2528,129.0
1606837510.2548,149.0
1606837510.257,163.0
1606837510.2588,173.0
1606837510.2609,183.0
1606837510.2628,180.0
1606837510.2648,161.0
1606837510.2668,129.0
1606837510.2688,97.0
1606837510.2708,66.0
1606837510.2716,41.0
1606837510.2728,34.0
1606837510.275,34.0
1606837510.2769,39.0
1606837510.2788,46.0
1606837510.2808,46.0
1606837510.2828,41.0
1606837510.2848,48.0
1606837510.2868,58.0
1606837510.2888,61.0
1606837510.2908,63.0
1606837510.2928,68.0
1606837510.2948,68.0
1606837510.2969,70.0
1606837510.2988,78.0
1606837510.3008,85.0
1606837510.3015,88.0
1606837510.3039,92.0
1606837510.3059,92.0
1606837510.3078,90.0
1606837510.3098,97.0
1606837510.3119,105.0
1606837510.3138,102.0
1606837510.3158,100.0
1606837510.3179,105.0
1606837510.3198,110.0
1606837510.3219,107.0
1606837510.3238,102.0
1606837510.3258,102.0
1606837510.328,105.0
1606837510.3298,107.0
1606837510.3319,117.0
1606837510.3325,134.0
1606837510.3348,139.0
1606837510.3369,139.0
1606837510.3388,134.0
1606837510.3408,119.0
1606837510.3428,107.0
1606837510.3448,97.0
1606837510.3469,92.0
1606837510.3488,105.0
1606837510.3508,136.0
1606837510.3528,190.0
1606837510.3548,303.0
1606837510.3568,469.0
1606837510.3588,628.0
1606837510.3608,748.0
1606837510.3628,914.0
1606837510.7943,1178.0
1606837510.7953,1308.0
1606837510.7977,873.0
1606837510.8004,134.0
1606837510.8023,-127.0
1606837510.8045,-44.0
1606837510.8064,-117.0
1606837510.8084,-176.0
1606837510.8104,-107.0
1606837510.8124,-92.0
1606837510.8142,-112.0
1606837510.8162,-85.0
1606837510.8183,-61.0
1606837510.8202,-61.0
1606837510.8223,-48.0
1606837510.8243,-22.0
1606837510.825,-9.0
1606837510.8272,-9.0
1606837510.8293,0.0
1606837510.8313,14.0
1606837510.8333,29.0
1606837510.8352,39.0
1606837510.8373,48.0
1606837510.8393,63.0
1606837510.8413,78.0
1606837510.8433,92.0
1606837510.8453,102.0
1606837510.8472,117.0
1606837510.8492,134.0
1606837510.8513,139.0
1606837510.8534,139.0
1606837510.8553,134.0
1606837510.856,114.0
1606837510.8573,83.0
1606837510.8592,51.0
1606837510.8613,36.0
1606837510.8633,31.0
1606837510.8653,29.0
1606837510.8673,34.0
1606837510.8692,39.0
1606837510.8713,39.0
1606837510.8733,41.0
1606837510.8752,48.0
1606837510.8772,46.0
1606837510.8793,51.0
1606837510.8814,63.0
1606837510.8832,70.0
1606837510.8853,68.0
1606837510.8859,66.0
1606837510.8882,68.0
1606837510.8904,73.0
1606837510.8923,73.0
1606837510.8942,75.0
1606837510.8962,75.0
1606837510.8982,75.0
1606837510.9002,73.0
1606837510.9025,78.0
1606837510.9043,80.0
1606837510.9063,80.0
1606837510.9083,78.0
1606837510.9102,78.0
1606837510.9122,75.0
1606837510.9142,73.0
1606837510.9162,83.0
1606837510.9169,100.0
1606837510.9192,114.0
1606837510.9215,119.0
1606837510.9233,119.0
1606837510.9253,112.0
1606837510.9272,95.0
1606837510.9292,85.0
1606837510.9314,80.0
1606837510.9332,78.0
1606837511.3339,85.0
1606837511.3349,112.0
1606837511.3373,168.0
1606837511.3402,278.0
1606837511.3412,445.0
1606837511.3429,594.0
1606837511.3448,701.0
1606837511.3469,848.0
1606837511.3489,1117.0
1606837511.3509,1323.0
1606837511.3528,961.0
1606837511.3548,149.0
1606837511.357,-217.0
1606837511.3589,-95.0
1606837511.3608,-112.0
1606837511.3628,-193.0
1606837511.3648,-134.0
1606837511.3668,-110.0
1606837511.3688,-136.0
1606837511.3709,-110.0
1606837511.3715,-78.0
1606837511.3739,-78.0
1606837511.3758,-68.0
1606837511.3778,-48.0
1606837511.3798,-41.0
1606837511.3818,-34.0
1606837511.3838,-19.0
1606837511.3858,-9.0
1606837511.3879,2.0
1606837511.3899,17.0
1606837511.3919,26.0
1606837511.3939,29.0
1606837511.3958,46.0
1606837511.3978,68.0
1606837511.4,80.0
1606837511.4019,85.0
1606837511.4025,105.0
1606837511.4048,122.0
1606837511.407,122.0
1606837511.4089,107.0
1606837511.4108,90.0
1606837511.4128,61.0
1606837511.4148,31.0
1606837511.4168,17.0
1606837511.4188,9.0
1606837511.4208,-2.0
1606837511.4229,-9.0
1606837511.4248,-4.0
1606837511.4268,0.0
1606837511.4289,2.0
1606837511.4309,4.0
1606837511.4328,7.0
1606837511.4335,7.0
1606837511.4358,9.0
1606837511.4378,17.0
1606837511.4399,19.0
1606837511.4419,22.0
1606837511.4439,26.0
1606837511.4459,26.0
1606837511.4478,24.0
1606837511.4499,24.0
1606837511.4519,26.0
1606837511.4538,29.0
1606837511.4559,36.0
1606837511.4579,41.0
1606837511.4598,39.0
1606837511.4619,34.0
1606837511.4638,39.0
1606837511.4645,44.0
1606837511.4658,48.0
1606837511.4678,56.0
1606837511.4698,68.0
1606837511.4719,83.0
1606837511.9038,85.0
1606837511.9047,73.0
1606837511.9072,63.0
1606837511.9099,63.0
1606837511.9118,48.0
1606837511.9137,31.0
1606837511.9158,39.0
1606837511.9178,66.0
1606837511.9197,117.0
1606837511.9217,232.0
1606837511.9238,393.0
1606837511.9257,518.0
1606837511.9279,608.0
1606837511.9297,782.0
1606837511.9318,1124.0
1606837511.9337,1433.0
1606837511.9357,1164.0
1606837511.9377,283.0
1606837511.9398,-259.0
1606837511.9417,-161.0
1606837511.9437,-117.0
1606837511.9457,-224.0
1606837511.9477,-190.0
1606837511.9496,-141.0
1606837511.9518,-156.0
1606837511.9537,-141.0
1606837511.9557,-110.0
1606837511.9577,-105.0
1606837511.9597,-100.0
1606837511.9618,-80.0
1606837511.9637,-66.0
1606837511.9657,-58.0
1606837511.9677,-48.0
1606837511.9697,-34.0
1606837511.9717,-22.0
1606837511.9738,-12.0
1606837511.9757,0.0
1606837511.9777,9.0
1606837511.9797,24.0
1606837511.9817,41.0
1606837511.9838,51.0
1606837511.9857,66.0
1606837511.9877,85.0
1606837511.9897,97.0
1606837511.9917,97.0
1606837511.9937,92.0
1606837511.9957,70.0
1606837511.9977,36.0
1606837511.9997,4.0
1606837512.0017,-12.0
1606837512.0037,-17.0
1606837512.0057,-22.0
1606837512.0077,-22.0
1606837512.0097,-17.0
1606837512.0117,-9.0
1606837512.0137,-4.0
1606837512.0157,0.0
1606837512.0177,7.0
1606837512.0197,9.0
1606837512.0217,4.0
1606837512.0238,9.0
1606837512.0257,22.0
1606837512.0277,26.0
1606837512.0298,29.0
1606837512.0318,31.0
1606837512.0337,36.0
1606837512.0357,44.0
1606837512.0377,48.0
1606837512.0398,56.0
1606837512.0417,61.0
1606837512.0437,66.0
1606837512.0457,68.0
1606837512.0477,70.0
1606837512.5038,68.0
1606837512.5048,66.0
1606837512.5074,63.0
1606837512.5099,63.0
1606837512.5119,70.0
1606837512.5139,88.0
1606837512.516,92.0
1606837512.5179,88.0
1606837512.5199,83.0
1606837512.522,75.0
1606837512.5239,66.0
1606837512.5259,56.0
1606837512.5279,46.0
1606837512.5299,48.0
1606837512.5319,63.0
1606837512.5338,102.0
1606837512.5359,188.0
1606837512.5378,337.0
1606837512.5399,513.0
1606837512.5419,662.0
1606837512.544,797.0
1606837512.5458,1024.0
1606837512.5478,1364.0
1606837512.5498,1406.0
1606837512.5519,728.0
1606837512.5538,-75.0
1606837512.5558,-224.0
1606837512.5579,-127.0
1606837512.5598,-222.0
1606837512.5619,-249.0
1606837512.5638,-180.0
1606837512.5658,-185.0
1606837512.5678,-185.0
1606837512.5698,-149.0
1606837512.5718,-134.0
1606837512.5739,-129.0
1606837512.5758,-110.0
1606837512.5778,-100.0
1606837512.5798,-92.0
1606837512.5818,-75.0
1606837512.5838,-63.0
1606837512.5859,-56.0
1606837512.5878,-44.0
1606837512.5899,-31.0
1606837512.5918,-19.0
1606837512.5938,-9.0
1606837512.5958,7.0
1606837512.5978,26.0
1606837512.5998,44.0
1606837512.6018,61.0
1606837512.6038,78.0
1606837512.6059,92.0
1606837512.6079,95.0
1606837512.6098,88.0
1606837512.6118,63.0
1606837512.6138,36.0
1606837512.6158,17.0
1606837512.6178,2.0
1606837512.6198,-4.0
1606837512.6218,0.0
1606837512.6239,2.0
1606837512.6258,-2.0
1606837512.6278,4.0
1606837512.6298,12.0
1606837512.6318,12.0
1606837512.6338,17.0
1606837512.6358,26.0
1606837512.6378,24.0
1606837512.6398,24.0
1606837512.6418,34.0
1606837512.6438,41.0
1606837512.6458,39.0
1606837512.6478,39.0
1606837513.0439,41.0
1606837513.0447,44.0
1606837513.0471,44.0
1606837513.0497,44.0
1606837513.0518,46.0
1606837513.0537,53.0
1606837513.0558,58.0
1606837513.0578,56.0
1606837513.0597,56.0
1606837513.0618,63.0
1606837513.0637,61.0
1606837513.0657,51.0
1606837513.0677,53.0
1606837513.0698,61.0
1606837513.0717,56.0
1606837513.0738,56.0
1606837513.0757,63.0
1606837513.0777,61.0
1606837513.0797,58.0
1606837513.0819,63.0
1606837513.0838,63.0
1606837513.0857,61.0
1606837513.0876,58.0
1606837513.0898,53.0
1606837513.0918,48.0
1606837513.0936,56.0
1606837513.0957,66.0
1606837513.0977,75.0
1606837513.0997,92.0
1606837513.1018,105.0
1606837513.1037,102.0
1606837513.1057,88.0
1606837513.1077,80.0
1606837513.1097,70.0
1606837513.1117,63.0
1606837513.1137,66.0
1606837513.1157,83.0
1606837513.1177,114.0
1606837513.1197,183.0
1606837513.1217,322.0
1606837513.1238,496.0
1606837513.1257,635.0
1606837513.1277,745.0
1606837513.1297,934.0
1606837513.1317,1247.0
1606837513.1337,1376.0
1606837513.1357,846.0
1606837513.1377,36.0
1606837513.1398,-207.0
1606837513.1417,-110.0
1606837513.1437,-188.0
1606837513.1457,-237.0
1606837513.1477,-171.0
1606837513.1497,-158.0
1606837513.1517,-171.0
1606837513.1537,-144.0
1606837513.1557,-127.0
1606837513.1577,-124.0
1606837513.1597,-110.0
1606837513.1617,-90.0
1606837513.1637,-80.0
1606837513.1657,-73.0
1606837513.1677,-63.0
1606837513.1697,-56.0
1606837513.1717,-46.0
1606837513.1738,-36.0
1606837513.1757,-22.0
1606837513.1777,-9.0
1606837513.1797,0.0
1606837513.1818,17.0
1606837513.1838,39.0
1606837513.1857,58.0
1606837513.1877,78.0
1606837513.6143,88.0
1606837513.6152,95.0
1606837513.6177,90.0
1606837513.6204,68.0
1606837513.6224,41.0
1606837513.6243,24.0
1606837513.6264,9.0
1606837513.6283,-4.0
1606837513.6303,-17.0
1606837513.6323,-22.0
1606837513.6343,-19.0
1606837513.6363,-9.0
1606837513.6383,-7.0
1606837513.6404,-9.0
1606837513.6423,-2.0
1606837513.6443,0.0
1606837513.6462,-2.0
1606837513.6482,0.0
1606837513.6502,7.0
1606837513.6523,12.0
1606837513.6542,9.0
1606837513.6563,12.0
1606837513.6582,12.0
1606837513.6602,9.0
1606837513.6622,14.0
1606837513.6642,24.0
1606837513.6662,19.0
1606837513.6682,19.0
1606837513.6702,29.0
1606837513.6723,34.0
1606837513.6742,31.0
1606837513.6763,36.0
1606837513.6782,44.0
1606837513.6802,46.0
1606837513.6823,48.0
1606837513.6842,48.0
1606837513.6862,51.0
1606837513.6884,56.0
1606837513.6904,58.0
1606837513.6922,56.0
1606837513.6942,51.0
1606837513.6962,56.0
1606837513.6982,61.0
1606837513.7002,53.0
1606837513.7023,56.0
1606837513.7042,66.0
1606837513.7063,61.0
1606837513.7082,58.0
1606837513.7104,66.0
1606837513.7122,66.0
1606837513.7142,66.0
1606837513.7162,70.0
1606837513.7182,70.0
1606837513.7202,70.0
1606837513.7223,66.0
1606837513.7243,61.0
1606837513.7262,66.0
1606837513.7282,68.0
1606837513.7302,66.0
1606837513.7323,63.0
1606837513.7342,66.0
1606837513.7362,63.0
1606837513.7383,61.0
1606837513.7404,63.0
1606837513.7423,66.0
1606837513.7442,66.0
1606837513.7462,61.0
1606837513.7482,53.0
1606837513.7502,51.0
1606837513.7523,61.0
1606837513.7542,75.0
1606837513.7563,88.0
1606837513.7583,92.0
1606837514.1541,85.0
1606837514.1552,75.0
1606837514.1577,66.0
1606837514.1603,56.0
1606837514.1623,48.0
1606837514.1642,53.0
1606837514.1663,70.0
1606837514.1682,110.0
1606837514.1702,198.0
1606837514.1723,335.0
1606837514.1742,491.0
1606837514.1761,623.0
1606837514.1782,738.0
1606837514.1801,931.0
1606837514.1822,1242.0
1606837514.1841,1335.0
1606837514.1861,767.0
1606837514.1881,-24.0
1606837514.1903,-229.0
1606837514.1921,-132.0
1606837514.1941,-220.0
1606837514.1961,-259.0
1606837514.1981,-188.0
1606837514.2001,-185.0
1606837514.2022,-198.0
1606837514.2041,-163.0
1606837514.2064,-139.0
1606837514.2082,-136.0
1606837514.2101,-124.0
1606837514.2122,-107.0
1606837514.2142,-97.0
1606837514.2161,-88.0
1606837514.2181,-78.0
1606837514.2201,-70.0
1606837514.2222,-58.0
1606837514.2242,-41.0
1606837514.2262,-34.0
1606837514.2281,-26.0
1606837514.2301,-7.0
1606837514.2322,9.0
1606837514.2341,22.0
1606837514.2361,44.0
1606837514.2382,68.0
1606837514.2403,83.0
1606837514.2422,92.0
1606837514.2441,90.0
1606837514.2461,68.0
1606837514.2481,44.0
1606837514.2501,19.0
1606837514.2522,4.0
1606837514.2541,-4.0
1606837514.2562,-14.0
1606837514.2581,-17.0
1606837514.2601,-9.0
1606837514.2621,-9.0
1606837514.2641,-9.0
1606837514.2661,-4.0
1606837514.2681,0.0
1606837514.2701,2.0
1606837514.2722,2.0
1606837514.2742,4.0
1606837514.2761,12.0
1606837514.2781,14.0
1606837514.2801,9.0
1606837514.2822,9.0
1606837514.2841,19.0
1606837514.2861,22.0
1606837514.2882,17.0
1606837514.2903,12.0
1606837514.2921,14.0
1606837514.2941,26.0
1606837514.2961,29.0
1606837514.2981,26.0
1606837514.7243,29.0
1606837514.7253,29.0
1606837514.7278,22.0
1606837514.7304,19.0
1606837514.7325,22.0
1606837514.7343,19.0
1606837514.7363,7.0
1606837514.7384,0.0
1606837514.7404,4.0
1606837514.7424,9.0
1606837514.7443,12.0
1606837514.7463,14.0
1606837514.7484,19.0
1606837514.7503,19.0
1606837514.7523,14.0
1606837514.7543,19.0
1606837514.7564,24.0
1606837514.7584,24.0
1606837514.7603,26.0
1606837514.7623,29.0
1606837514.7642,29.0
1606837514.7662,29.0
1606837514.7682,31.0
1606837514.7702,34.0
1606837514.772,34.0
1606837514.7733,36.0
1606837514.7752,41.0
1606837514.7772,41.0
1606837514.7793,39.0
1606837514.7813,39.0
1606837514.7832,41.0
1606837514.7852,46.0
1606837514.7872,46.0
1606837514.7893,41.0
1606837514.7913,44.0
1606837514.7932,48.0
1606837514.7953,61.0
1606837514.7972,78.0
1606837514.7992,88.0
1606837514.8013,83.0
1606837514.8032,66.0
1606837514.8053,51.0
1606837514.8073,51.0
1606837514.8092,53.0
1606837514.8113,51.0
1606837514.8132,66.0
1606837514.8152,105.0
1606837514.8172,178.0
1606837514.8193,308.0
1606837514.8213,457.0
1606837514.8233,557.0
1606837514.8252,648.0
1606837514.8272,885.0
1606837514.8292,1266.0
1606837514.8313,1423.0
1606837514.8334,880.0
1606837514.8353,29.0
1606837514.8372,-234.0
1606837514.8393,-107.0
1606837514.8413,-161.0
1606837514.8432,-220.0
1606837514.8452,-158.0
1606837514.8472,-144.0
1606837514.8493,-156.0
1606837514.8513,-132.0
1606837514.8533,-122.0
1606837514.8553,-122.0
1606837514.8573,-100.0
1606837514.8593,-83.0
1606837514.8613,-80.0
1606837514.8632,-70.0
1606837514.8652,-53.0
1606837514.8672,-41.0
1606837515.2642,-34.0
1606837515.2655,-22.0
1606837515.2679,-2.0
1606837515.2705,12.0
1606837515.2726,24.0
1606837515.2746,44.0
1606837515.2766,61.0
1606837515.2785,66.0
1606837515.2806,70.0
1606837515.2825,92.0
1606837515.2847,100.0
1606837515.2865,88.0
1606837515.2885,61.0
1606837515.2906,17.0
1606837515.2925,-22.0
1606837515.2946,-39.0
1606837515.2965,-44.0
1606837515.2985,-53.0
1606837515.3005,-56.0
1606837515.3024,-51.0
1606837515.3044,-46.0
1606837515.3066,-41.0
1606837515.3084,-36.0
1606837515.3104,-34.0
1606837515.3124,-29.0
1606837515.3144,-22.0
1606837515.3164,-22.0
1606837515.3184,-22.0
1606837515.3204,-19.0
1606837515.3225,-12.0
1606837515.3245,-4.0
1606837515.3266,-2.0
1606837515.3284,2.0
1606837515.3307,9.0
1606837515.3325,12.0
1606837515.3344,14.0
1606837515.3365,19.0
1606837515.3384,24.0
1606837515.3405,26.0
1606837515.3425,24.0
1606837515.3444,22.0
1606837515.3464,26.0
1606837515.3485,31.0
1606837515.3504,31.0
1606837515.3524,31.0
1606837515.3544,26.0
1606837515.3565,24.0
1606837515.3584,26.0
1606837515.3604,26.0
1606837515.3624,29.0
1606837515.3645,29.0
1606837515.3665,29.0
1606837515.3684,29.0
1606837515.3704,36.0
1606837515.3725,36.0
1606837515.3745,34.0
1606837515.3764,41.0
1606837515.3784,46.0
1606837515.3804,41.0
1606837515.3824,34.0
1606837515.3845,34.0
1606837515.3864,34.0
1606837515.3884,29.0
1606837515.3906,41.0
1606837515.3924,61.0
1606837515.3944,73.0
1606837515.3965,75.0
1606837515.3985,75.0
1606837515.4004,70.0
1606837515.4024,58.0
1606837515.4044,51.0
1606837515.4065,48.0
1606837515.4084,56.0
1606837515.8641,73.0
1606837515.8651,117.0
1606837515.8676,217.0
1606837515.8702,369.0
1606837515.8722,525.0
1606837515.8742,633.0
1606837515.8763,760.0
1606837515.8782,1058.0
1606837515.8802,1418.0
1606837515.8822,1300.0
1606837515.8841,498.0
1606837515.8863,-176.0
1606837515.8882,-190.0
1606837515.8902,-127.0
1606837515.8922,-229.0
1606837515.9003,-220.0
1606837515.9021,-161.0
1606837515.9041,-173.0
1606837515.9062,-168.0
1606837515.9081,-141.0
1606837515.9101,-134.0
1606837515.9121,-129.0
1606837515.9141,-112.0
1606837515.9161,-95.0
1606837515.9181,-83.0
1606837515.9201,-70.0
1606837515.9222,-58.0
1606837515.9241,-44.0
1606837515.9261,-34.0
1606837515.9281,-19.0
1606837515.9301,-2.0
1606837515.9321,14.0
1606837515.9341,26.0
1606837515.9361,44.0
1606837515.9381,63.0
1606837515.9401,83.0
1606837515.9421,97.0
1606837515.9441,107.0
1606837515.9461,107.0
1606837515.9482,90.0
1606837515.9502,53.0
1606837515.9521,14.0
1606837515.9541,-7.0
1606837515.9562,-24.0
1606837515.9581,-39.0
1606837515.9601,-44.0
1606837515.9621,-39.0
1606837515.9641,-34.0
1606837515.9662,-34.0
1606837515.9681,-29.0
1606837515.9701,-24.0
1606837515.9722,-26.0
1606837515.9741,-29.0
1606837515.9761,-22.0
1606837515.9781,-12.0
1606837515.9801,-9.0
1606837515.9821,-9.0
1606837515.9841,-7.0
1606837515.9861,-4.0
1606837515.9881,-2.0
1606837515.9902,7.0
1606837515.9921,14.0
1606837515.9942,17.0
1606837515.9961,19.0
1606837515.9981,24.0
1606837516.0002,29.0
1606837516.0022,31.0
1606837516.0041,34.0
1606837516.0061,36.0
1606837516.0081,41.0
1606837516.0101,44.0
1606837516.0121,41.0
1606837516.0141,41.0
1606837516.4036,44.0
1606837516.4046,44.0
1606837516.4072,41.0
1606837516.4097,44.0
1606837516.4119,41.0
1606837516.4137,41.0
1606837516.4158,46.0
1606837516.4177,46.0
1606837516.4197,41.0
1606837516.4216,36.0
1606837516.4238,31.0
1606837516.4256,29.0
1606837516.4277,36.0
1606837516.4296,39.0
1606837516.4317,34.0
1606837516.4337,36.0
1606837516.4356,39.0
1606837516.4376,39.0
1606837516.4397,36.0
1606837516.4417,41.0
1606837516.4436,44.0
1606837516.4456,41.0
1606837516.4476,44.0
1606837516.4496,46.0
1606837516.4517,44.0
1606837516.4536,41.0
1606837516.4556,44.0
1606837516.4577,41.0
1606837516.4596,41.0
1606837516.4616,44.0
1606837516.4636,44.0
1606837516.4656,36.0
1606837516.4676,34.0
1606837516.4696,39.0
1606837516.4716,46.0
1606837516.4737,58.0
1606837516.4756,75.0
1606837516.4776,80.0
1606837516.4796,75.0
1606837516.4816,66.0
1606837516.4838,56.0
1606837516.4856,48.0
1606837516.4876,39.0
1606837516.4897,39.0
1606837516.4916,56.0
1606837516.4936,92.0
1606837516.4956,180.0
1606837516.4976,332.0
1606837516.4996,489.0
1606837516.5017,616.0
1606837516.5036,777.0
1606837516.5057,1083.0
1606837516.5076,1381.0
1606837516.5096,1132.0
1606837516.5117,339.0
1606837516.5136,-139.0
1606837516.5156,-110.0
1606837516.5176,-139.0
1606837516.5196,-234.0
1606837516.5216,-185.0
1606837516.5237,-146.0
1606837516.5256,-163.0
1606837516.5276,-149.0
1606837516.5296,-127.0
1606837516.5316,-122.0
1606837516.5336,-107.0
1606837516.5356,-85.0
1606837516.5376,-75.0
1606837516.5383,-66.0
1606837516.5407,-48.0
1606837516.5426,-44.0
1606837516.5446,-34.0
1606837516.5466,-14.0
1606837516.9747,0.0
1606837516.9754,9.0
1606837516.9768,29.0
1606837516.9788,46.0
1606837516.9807,58.0
1606837516.9828,78.0
1606837516.9847,100.0
1606837516.9868,110.0
1606837516.9875,114.0
1606837516.9898,117.0
1606837516.9918,102.0
1606837516.9937,68.0
1606837516.9957,29.0
1606837516.9977,-2.0
1606837516.9997,-22.0
1606837517.0018,-39.0
1606837517.0037,-46.0
1606837517.0058,-41.0
1606837517.0079,-36.0
1606837517.0097,-41.0
1606837517.0117,-34.0
1606837517.0137,-22.0
1606837517.0157,-19.0
1606837517.0177,-19.0
1606837517.0184,-14.0
1606837517.0198,-7.0
1606837517.0217,-2.0
1606837517.0239,-2.0
1606837517.0257,4.0
1606837517.0277,7.0
1606837517.0297,2.0
1606837517.0317,9.0
1606837517.0337,19.0
1606837517.0357,7.0
1606837517.0377,2.0
1606837517.0398,14.0
1606837517.0418,17.0
1606837517.0437,4.0
1606837517.0457,-2.0
1606837517.0477,9.0
1606837517.0483,19.0
1606837517.0497,17.0
1606837517.0517,14.0
1606837517.0537,14.0
1606837517.0558,17.0
1606837517.0577,26.0
1606837517.0597,29.0
1606837517.0618,26.0
1606837517.0637,31.0
1606837517.0657,24.0
1606837517.0677,12.0
1606837517.0697,12.0
1606837517.0717,17.0
1606837517.0738,22.0
1606837517.0757,19.0
1606837517.0777,14.0
1606837517.0784,17.0
1606837517.0797,24.0
1606837517.0817,24.0
1606837517.0837,26.0
1606837517.0857,29.0
1606837517.0877,26.0
1606837517.0898,22.0
1606837517.0918,24.0
1606837517.0937,24.0
1606837517.0957,26.0
1606837517.0977,26.0
1606837517.0997,22.0
1606837517.1017,29.0
1606837517.1039,36.0
1606837517.1058,31.0
1606837517.1064,29.0
1606837517.1077,36.0
1606837517.5141,34.0
1606837517.5151,29.0
1606837517.5175,41.0
1606837517.5202,46.0
1606837517.5222,36.0
1606837517.5242,29.0
1606837517.5262,29.0
1606837517.5281,36.0
1606837517.5302,41.0
1606837517.5322,44.0
1606837517.5341,58.0
1606837517.5361,68.0
1606837517.5381,53.0
1606837517.5401,44.0
1606837517.5408,44.0
1606837517.542,36.0
1606837517.544,34.0
1606837517.5461,44.0
1606837517.548,68.0
1606837517.5501,129.0
1606837517.5521,254.0
1606837517.5541,423.0
1606837517.556,564.0
1606837517.558,670.0
1606837517.56,858.0
1606837517.5621,1183.0
1606837517.564,1337.0
1606837517.5661,848.0
1606837517.568,58.0
1606837517.5701,-207.0
1606837517.5707,-127.0
1606837517.5721,-205.0
1606837517.5741,-251.0
1606837517.576,-183.0
1606837517.578,-176.0
1606837517.5801,-190.0
1606837517.5821,-161.0
1606837517.5841,-139.0
1606837517.5861,-139.0
1606837517.588,-122.0
1606837517.5901,-107.0
1606837517.5921,-102.0
1606837517.594,-90.0
1606837517.596,-73.0
1606837517.5981,-56.0
1606837517.6,-39.0
1606837517.6007,-29.0
1606837517.6022,-19.0
1606837517.6041,-7.0
1606837517.6061,12.0
1606837517.608,31.0
1606837517.6101,51.0
1606837517.6121,75.0
1606837517.614,97.0
1606837517.616,105.0
1606837517.618,110.0
1606837517.62,105.0
1606837517.6221,83.0
1606837517.624,51.0
1606837517.6261,9.0
1606837517.628,-24.0
1606837517.63,-36.0
1606837517.6308,-44.0
1606837517.6321,-53.0
1606837517.634,-53.0
1606837517.636,-41.0
1606837517.638,-36.0
1606837517.64,-39.0
1606837517.6421,-34.0
1606837517.6441,-24.0
1606837517.6461,-19.0
1606837517.648,-14.0
1606837517.65,-14.0
1606837518.0839,-14.0
1606837518.0846,-9.0
1606837518.0869,-2.0
1606837518.0897,2.0
1606837518.0904,0.0
1606837518.0926,-2.0
1606837518.0946,-7.0
1606837518.0966,-7.0
1606837518.0986,-2.0
1606837518.1006,0.0
1606837518.1027,-2.0
1606837518.1046,-2.0
1606837518.1066,4.0
1606837518.1086,9.0
1606837518.1106,9.0
1606837518.1126,4.0
1606837518.1146,0.0
1606837518.1166,0.0
1606837518.1186,2.0
1606837518.1206,2.0
1606837518.1213,2.0
1606837518.1226,2.0
1606837518.1246,0.0
1606837518.1266,-7.0
1606837518.1286,-12.0
1606837518.1308,-2.0
1606837518.1327,12.0
1606837518.1346,7.0
1606837518.1366,-4.0
1606837518.1388,-2.0
1606837518.1406,7.0
1606837518.1426,4.0
1606837518.1446,2.0
1606837518.1466,9.0
1606837518.1486,12.0
1606837518.1506,9.0
1606837518.1513,17.0
1606837518.1527,22.0
1606837518.1546,22.0
1606837518.1566,22.0
1606837518.1586,19.0
1606837518.1606,19.0
1606837518.1627,17.0
1606837518.1646,14.0
1606837518.1666,26.0
1606837518.1686,46.0
1606837518.1707,56.0
1606837518.1726,53.0
1606837518.1746,53.0
1606837518.1766,44.0
1606837518.1786,31.0
1606837518.1806,26.0
1606837518.1826,24.0
1606837518.1846,26.0
1606837518.1866,44.0
1606837518.1886,80.0
1606837518.1906,161.0
1606837518.1926,298.0
1606837518.1946,445.0
1606837518.1966,535.0
1606837518.1986,657.0
1606837518.2006,978.0
1606837518.2026,1369.0
1606837518.2047,1271.0
1606837518.2066,469.0
1606837518.2086,-200.0
1606837518.2106,-200.0
1606837518.2126,-122.0
1606837518.2146,-222.0
1606837518.2166,-212.0
1606837518.2186,-158.0
1606837518.2206,-168.0
1606837518.2226,-161.0
1606837518.6239,-124.0
1606837518.6247,-117.0
1606837518.6271,-114.0
1606837518.63,-97.0
1606837518.6318,-83.0
1606837518.6337,-73.0
1606837518.636,-68.0
1606837518.6378,-66.0
1606837518.6397,-48.0
1606837518.6418,-29.0
1606837518.6437,-19.0
1606837518.6457,-9.0
1606837518.6478,14.0
1606837518.6497,39.0
1606837518.6518,56.0
1606837518.6537,75.0
1606837518.6558,88.0
1606837518.6577,97.0
1606837518.6597,112.0
1606837518.6618,117.0
1606837518.6637,97.0
1606837518.6657,56.0
1606837518.6677,7.0
1606837518.6697,-34.0
1606837518.6718,-56.0
1606837518.6737,-66.0
1606837518.6757,-75.0
1606837518.6778,-80.0
1606837518.6797,-73.0
1606837518.6818,-68.0
1606837518.6837,-63.0
1606837518.6859,-56.0
1606837518.6877,-51.0
1606837518.6897,-46.0
1606837518.6917,-44.0
1606837518.6937,-36.0
1606837518.6957,-29.0
1606837518.6977,-26.0
1606837518.6997,-29.0
1606837518.7018,-24.0
1606837518.7037,-17.0
1606837518.7057,-9.0
1606837518.7077,-2.0
1606837518.7097,2.0
1606837518.7117,2.0
1606837518.7137,7.0
1606837518.7157,14.0
1606837518.7178,17.0
1606837518.7197,12.0
1606837518.7218,14.0
1606837518.7238,19.0
1606837518.7257,14.0
1606837518.7277,12.0
1606837518.7297,12.0
1606837518.732,17.0
1606837518.7338,22.0
1606837518.7358,22.0
1606837518.7377,14.0
1606837518.7397,7.0
1606837518.7418,7.0
1606837518.7437,9.0
1606837518.7457,7.0
1606837518.7478,9.0
1606837518.7497,12.0
1606837518.7517,14.0
1606837518.7537,14.0
1606837518.7557,9.0
1606837518.7577,7.0
1606837518.7597,9.0
1606837518.7618,14.0
1606837518.7637,19.0
1606837518.7657,34.0
1606837518.7677,53.0
1606837519.2239,58.0
1606837519.2246,48.0
1606837519.2271,41.0
1606837519.2297,31.0
1606837519.2319,9.0
1606837519.2337,7.0
1606837519.2358,29.0
1606837519.2377,56.0
1606837519.2397,105.0
1606837519.2417,217.0
1606837519.2437,383.0
1606837519.2457,530.0
1606837519.2477,630.0
1606837519.2497,826.0
1606837519.2517,1205.0
1606837519.2537,1445.0
1606837519.2557,992.0
1606837519.2577,105.0
1606837519.2597,-259.0
1606837519.2617,-144.0
1606837519.2637,-183.0
1606837519.2657,-254.0
1606837519.2677,-185.0
1606837519.2697,-163.0
1606837519.2718,-188.0
1606837519.2737,-158.0
1606837519.2757,-129.0
1606837519.2777,-122.0
1606837519.2797,-112.0
1606837519.2817,-100.0
1606837519.2837,-92.0
1606837519.2856,-78.0
1606837519.2878,-66.0
1606837519.2897,-48.0
1606837519.2917,-36.0
1606837519.2936,-26.0
1606837519.2957,-12.0
1606837519.2976,12.0
1606837519.2996,31.0
1606837519.3017,48.0
1606837519.3037,63.0
1606837519.3057,85.0
1606837519.3077,110.0
1606837519.3096,124.0
1606837519.3117,127.0
1606837519.3137,122.0
1606837519.3156,95.0
1606837519.3177,51.0
1606837519.3197,12.0
1606837519.3217,-14.0
1606837519.3237,-34.0
1606837519.3256,-48.0
1606837519.3276,-48.0
1606837519.3296,-44.0
1606837519.3318,-39.0
1606837519.3337,-39.0
1606837519.3356,-36.0
1606837519.3376,-26.0
1606837519.3397,-22.0
1606837519.3417,-19.0
1606837519.3437,-14.0
1606837519.3457,-12.0
1606837519.3476,-17.0
1606837519.3496,-12.0
1606837519.3517,-7.0
1606837519.3536,-7.0
1606837519.3557,-7.0
1606837519.3576,0.0
1606837519.3597,4.0
1606837519.3617,14.0
1606837519.3637,19.0
1606837519.3657,17.0
1606837519.3677,22.0
1606837519.824,26.0
1606837519.8249,22.0
1606837519.8267,19.0
1606837519.8287,24.0
1606837519.8307,22.0
1606837519.8326,19.0
1606837519.8346,24.0
1606837519.8367,31.0
1606837519.8386,22.0
1606837519.8406,4.0
1606837519.8429,9.0
1606837519.8447,17.0
1606837519.8467,9.0
1606837519.8486,7.0
1606837519.8506,9.0
1606837519.8527,7.0
1606837519.8546,7.0
1606837519.8566,12.0
1606837519.8586,17.0
1606837519.8607,17.0
1606837519.8626,14.0
1606837519.8646,12.0
1606837519.8666,17.0
1606837519.8686,22.0
1606837519.8706,22.0
1606837519.8726,22.0
1606837519.8746,24.0
1606837519.8766,22.0
1606837519.8786,19.0
1606837519.8806,22.0
1606837519.8826,31.0
1606837519.8846,51.0
1606837519.8867,63.0
1606837519.8886,61.0
1606837519.8906,61.0
1606837519.8926,58.0
1606837519.8946,46.0
1606837519.8966,39.0
1606837519.8987,39.0
1606837519.9006,51.0
1606837519.9026,78.0
1606837519.9046,144.0
1606837519.9066,266.0
1606837519.9087,430.0
1606837519.9107,569.0
1606837519.9127,687.0
1606837519.9147,912.0
1606837519.9167,1291.0
1606837519.9188,1440.0
1606837519.9206,875.0
1606837519.9226,41.0
1606837519.9246,-202.0
1606837519.9266,-110.0
1606837519.9286,-193.0
1606837519.9306,-234.0
1606837519.9326,-168.0
1606837519.9346,-168.0
1606837519.9366,-173.0
1606837519.9386,-134.0
1606837519.9406,-114.0
1606837519.9426,-112.0
1606837519.9448,-97.0
1606837519.9467,-78.0
1606837519.9486,-73.0
1606837519.9506,-63.0
1606837519.9526,-44.0
1606837519.9546,-36.0
1606837519.9567,-36.0
1606837519.9586,-24.0
1606837519.9606,-4.0
1606837519.9626,9.0
1606837519.9646,24.0
1606837519.9666,46.0
1606837520.3336,66.0
1606837520.3346,85.0
1606837520.3371,100.0
1606837520.3397,117.0
1606837520.3417,127.0
1606837520.3436,124.0
1606837520.3457,100.0
1606837520.3476,61.0
1606837520.3496,29.0
1606837520.3517,2.0
1606837520.3536,-19.0
1606837520.3556,-31.0
1606837520.3576,-34.0
1606837520.3596,-31.0
1606837520.3615,-41.0
1606837520.3635,-44.0
1606837520.3655,-31.0
1606837520.3675,-26.0
1606837520.3696,-26.0
1606837520.3716,-24.0
1606837520.3735,-19.0
1606837520.3755,-12.0
1606837520.3776,-2.0
1606837520.3795,2.0
1606837520.3816,2.0
1606837520.3835,4.0
1606837520.3855,7.0
1606837520.3875,7.0
1606837520.3896,7.0
1606837520.3916,12.0
1606837520.3936,9.0
1606837520.3955,9.0
1606837520.3975,24.0
1606837520.3995,26.0
1606837520.4016,19.0
1606837520.4036,26.0
1606837520.4056,29.0
1606837520.4075,22.0
1606837520.4095,26.0
1606837520.4118,34.0
1606837520.4136,34.0
1606837520.4156,31.0
1606837520.4176,31.0
1606837520.4196,29.0
1606837520.4216,24.0
1606837520.4236,29.0
1606837520.4255,31.0
1606837520.4276,29.0
1606837520.4296,29.0
1606837520.4316,24.0
1606837520.4336,24.0
1606837520.4356,34.0
1606837520.4375,34.0
1606837520.4395,26.0
1606837520.4416,34.0
1606837520.4436,34.0
1606837520.4456,24.0
1606837520.4475,26.0
1606837520.4495,29.0
1606837520.4517,19.0
1606837520.4536,14.0
1606837520.4555,17.0
1606837520.4575,14.0
1606837520.4595,12.0
1606837520.4615,19.0
1606837520.4636,24.0
1606837520.4656,22.0
1606837520.4675,22.0
1606837520.4696,24.0
1606837520.4716,24.0
1606837520.4736,19.0
1606837520.4755,19.0
1606837520.4776,19.0
1606837520.9038,19.0
1606837520.9048,24.0
1606837520.9073,36.0
1606837520.9099,46.0
1606837520.9119,53.0
1606837520.9139,51.0
1606837520.916,44.0
1606837520.9179,29.0
1606837520.9198,7.0
1606837520.9219,4.0
1606837520.9238,24.0
1606837520.9258,41.0
1606837520.9278,70.0
1606837520.9298,163.0
1606837520.9318,322.0
1606837520.9338,471.0
1606837520.9357,584.0
1606837520.938,743.0
1606837520.9398,1031.0
1606837520.9418,1300.0
1606837520.9437,1066.0
1606837520.9457,308.0
1606837520.9477,-166.0
1606837520.9497,-134.0
1606837520.9518,-158.0
1606837520.9538,-254.0
1606837520.9557,-207.0
1606837520.9577,-171.0
1606837520.9597,-195.0
1606837520.9618,-176.0
1606837520.9637,-146.0
1606837520.9657,-144.0
1606837520.9677,-132.0
1606837520.9697,-110.0
1606837520.9718,-105.0
1606837520.9737,-100.0
1606837520.9758,-80.0
1606837520.9778,-68.0
1606837520.9798,-63.0
1606837520.9821,-51.0
1606837520.9841,-29.0
1606837520.9862,-17.0
1606837520.9878,-4.0
1606837520.9899,17.0
1606837520.9918,36.0
1606837520.9938,56.0
1606837520.9959,70.0
1606837520.9979,85.0
1606837520.9998,100.0
1606837521.0018,105.0
1606837521.0037,95.0
1606837521.0057,63.0
1606837521.0077,22.0
1606837521.0097,-14.0
1606837521.012,-39.0
1606837521.0138,-51.0
1606837521.0157,-51.0
1606837521.0177,-56.0
1606837521.0197,-53.0
1606837521.0218,-48.0
1606837521.0237,-46.0
1606837521.0257,-46.0
1606837521.0279,-34.0
1606837521.03,-22.0
1606837521.0318,-19.0
1606837521.0337,-22.0
1606837521.0357,-22.0
1606837521.0377,-14.0
1606837521.0399,-4.0
1606837521.0418,-2.0
1606837521.0437,-4.0
1606837521.0458,-2.0
1606837521.0478,0.0
1606837521.4437,2.0
1606837521.4444,4.0
1606837521.4468,2.0
1606837521.4494,4.0
1606837521.4515,12.0
1606837521.4534,12.0
1606837521.4555,12.0
1606837521.4574,19.0
1606837521.4594,17.0
1606837521.4615,4.0
1606837521.4634,7.0
1606837521.4654,17.0
1606837521.4674,12.0
1606837521.4694,4.0
1606837521.4713,9.0
1606837521.4733,17.0
1606837521.4753,17.0
1606837521.4774,12.0
1606837521.4794,12.0
1606837521.4815,14.0
1606837521.4834,9.0
1606837521.4853,9.0
1606837521.4873,17.0
1606837521.4893,17.0
1606837521.4914,9.0
1606837521.4933,9.0
1606837521.4953,14.0
1606837521.4973,14.0
1606837521.4993,12.0
1606837521.5015,12.0
1606837521.5034,14.0
1606837521.5054,17.0
1606837521.5073,17.0
1606837521.5094,14.0
1606837521.5114,12.0
1606837521.5133,14.0
1606837521.5154,12.0
1606837521.5174,12.0
1606837521.5193,12.0
1606837521.5214,9.0
1606837521.5234,7.0
1606837521.5254,9.0
1606837521.5274,19.0
1606837521.5293,34.0
1606837521.5314,44.0
1606837521.5333,41.0
1606837521.5355,39.0
1606837521.5374,34.0
1606837521.5394,22.0
1606837521.5414,9.0
1606837521.5434,2.0
1606837521.5454,4.0
1606837521.5473,19.0
1606837521.5493,48.0
1606837521.5515,112.0
1606837521.5534,242.0
1606837521.5554,405.0
1606837521.5573,533.0
1606837521.5593,648.0
1606837521.5614,880.0
1606837521.5634,1203.0
1606837521.5654,1188.0
1606837521.5674,542.0
1606837521.5694,-114.0
1606837521.5714,-202.0
1606837521.5734,-149.0
1606837521.5754,-239.0
1606837521.5774,-239.0
1606837521.5794,-183.0
1606837521.5814,-193.0
1606837521.5834,-190.0
1606837521.5854,-161.0
1606837521.5874,-154.0
1606837521.9841,-146.0
1606837521.9849,-122.0
1606837521.9861,-107.0
1606837521.9882,-102.0
1606837521.9901,-90.0
1606837521.9921,-73.0
1606837521.994,-73.0
1606837521.996,-68.0
1606837521.998,-46.0
1606837522.0,-29.0
1606837522.002,-22.0
1606837522.0039,-4.0
1606837522.0059,19.0
1606837522.008,44.0
1606837522.01,63.0
1606837522.0119,80.0
1606837522.0139,85.0
1606837522.0159,85.0
1606837522.0179,85.0
1606837522.0199,58.0
1606837522.022,17.0
1606837522.024,-19.0
1606837522.0259,-51.0
1606837522.028,-68.0
1606837522.0301,-70.0
1606837522.032,-75.0
1606837522.034,-75.0
1606837522.0359,-66.0
1606837522.038,-61.0
1606837522.0399,-58.0
1606837522.042,-56.0
1606837522.044,-51.0
1606837522.046,-41.0
1606837522.048,-36.0
1606837522.05,-39.0
1606837522.0519,-29.0
1606837522.054,-24.0
1606837522.056,-26.0
1606837522.058,-26.0
1606837522.0599,-24.0
1606837522.062,-19.0
1606837522.0639,-14.0
1606837522.066,-12.0
1606837522.068,-9.0
1606837522.07,-4.0
1606837522.072,-2.0
1606837522.074,-2.0
1606837522.0759,2.0
1606837522.0779,-2.0
1606837522.0799,-4.0
1606837522.082,-2.0
1606837522.0839,-2.0
1606837522.0859,-7.0
1606837522.088,0.0
1606837522.09,7.0
1606837522.092,2.0
1606837522.094,-4.0
1606837522.0959,2.0
1606837522.098,7.0
1606837522.0999,2.0
1606837522.102,-2.0
1606837522.104,2.0
1606837522.106,2.0
1606837522.108,4.0
1606837522.1099,12.0
1606837522.1119,9.0
1606837522.1139,0.0
1606837522.116,-4.0
1606837522.118,-7.0
1606837522.1199,-2.0
1606837522.122,17.0
1606837522.124,34.0
1606837522.1259,36.0
1606837522.584,31.0
1606837522.5852,24.0
1606837522.588,17.0
1606837522.5904,0.0
1606837522.5923,-14.0
1606837522.5943,-7.0
1606837522.5963,7.0
1606837522.5983,26.0
1606837522.6003,92.0
1606837522.6022,237.0
1606837522.6042,391.0
1606837522.6062,484.0
1606837522.6082,582.0
1606837522.6102,851.0
1606837522.6122,1254.0
1606837522.6142,1276.0
1606837522.6162,567.0
1606837522.6182,-166.0
1606837522.6202,-234.0
1606837522.6222,-134.0
1606837522.6242,-229.0
1606837522.6262,-239.0
1606837522.6282,-173.0
1606837522.6301,-180.0
1606837522.6322,-185.0
1606837522.6342,-149.0
1606837522.6361,-139.0
1606837522.6381,-139.0
1606837522.6402,-114.0
1606837522.6422,-97.0
1606837522.6442,-92.0
1606837522.6462,-83.0
1606837522.6482,-66.0
1606837522.6502,-56.0
1606837522.6522,-41.0
1606837522.6542,-19.0
1606837522.6562,0.0
1606837522.6582,12.0
1606837522.6601,31.0
1606837522.6622,53.0
1606837522.6641,75.0
1606837522.6662,95.0
1606837522.6682,107.0
1606837522.6702,112.0
1606837522.6722,114.0
1606837522.6742,97.0
1606837522.6762,58.0
1606837522.6781,14.0
1606837522.6802,-26.0
1606837522.6822,-56.0
1606837522.6842,-75.0
1606837522.6861,-83.0
1606837522.6882,-80.0
1606837522.6903,-75.0
1606837522.6922,-70.0
1606837522.6942,-68.0
1606837522.6961,-66.0
1606837522.6982,-58.0
1606837522.7001,-48.0
1606837522.7022,-46.0
1606837522.7042,-46.0
1606837522.7062,-39.0
1606837522.7082,-34.0
1606837522.7101,-34.0
1606837522.7122,-26.0
1606837522.7142,-17.0
1606837522.7162,-12.0
1606837522.7181,-9.0
1606837522.7201,-2.0
1606837522.7222,2.0
1606837522.7241,0.0
1606837522.7262,0.0
1606837522.7282,0.0
1606837523.1535,2.0
1606837523.1543,0.0
1606837523.1567,2.0
1606837523.1594,7.0
1606837523.1613,7.0
1606837523.1633,2.0
1606837523.1654,4.0
1606837523.1673,2.0
1606837523.1693,-9.0
1606837523.1713,-14.0
1606837523.1733,-9.0
1606837523.1753,-7.0
1606837523.1773,-12.0
1606837523.1793,-12.0
1606837523.1813,-4.0
1606837523.1833,7.0
1606837523.1853,26.0
1606837523.1873,39.0
1606837523.1893,36.0
1606837523.1913,26.0
1606837523.1933,12.0
1606837523.1953,2.0
1606837523.1974,-2.0
1606837523.1993,-12.0
1606837523.2013,-7.0
1606837523.2033,22.0
1606837523.2053,88.0
1606837523.2073,215.0
1606837523.2093,379.0
1606837523.2113,515.0
1606837523.2132,618.0
1606837523.2155,804.0
1606837523.2161,1151.0
1606837523.2173,1354.0
1606837523.2194,890.0
1606837523.2213,39.0
1606837523.2232,-281.0
1606837523.2253,-163.0
1606837523.2273,-210.0
1606837523.2293,-281.0
1606837523.2313,-215.0
1606837523.2333,-190.0
1606837523.2353,-207.0
1606837523.2373,-180.0
1606837523.2393,-158.0
1606837523.2413,-156.0
1606837523.2433,-136.0
1606837523.2453,-117.0
1606837523.246,-114.0
1606837523.2483,-102.0
1606837523.2504,-80.0
1606837523.2523,-70.0
1606837523.2543,-61.0
1606837523.2563,-46.0
1606837523.2583,-29.0
1606837523.2603,-14.0
1606837523.2623,0.0
1606837523.2643,19.0
1606837523.2663,44.0
1606837523.2683,61.0
1606837523.2703,75.0
1606837523.2723,88.0
1606837523.2743,92.0
1606837523.2763,83.0
1606837523.277,61.0
1606837523.2783,29.0
1606837523.2803,-12.0
1606837523.2823,-44.0
1606837523.2843,-56.0
1606837523.2863,-63.0
1606837523.2883,-66.0
1606837523.2903,-63.0
1606837523.2923,-58.0
1606837523.6938,-53.0
1606837523.6948,-51.0
1606837523.6972,-46.0
1606837523.6999,-44.0
1606837523.7021,-34.0
1606837523.7039,-29.0
1606837523.706,-26.0
1606837523.7067,-26.0
1606837523.7088,-22.0
1606837523.7111,-24.0
1606837523.7128,-24.0
1606837523.7147,-19.0
1606837523.7167,-17.0
1606837523.7188,-17.0
1606837523.7208,-12.0
1606837523.7228,-4.0
1606837523.7247,-4.0
1606837523.7267,-9.0
1606837523.7287,-9.0
1606837523.7308,-2.0
1606837523.7328,0.0
1606837523.7347,0.0
1606837523.7368,0.0
1606837523.7374,2.0
1606837523.7387,2.0
1606837523.7407,2.0
1606837523.7428,4.0
1606837523.7447,9.0
1606837523.7467,9.0
1606837523.7487,12.0
1606837523.7507,9.0
1606837523.7528,7.0
1606837523.7547,7.0
1606837523.7567,9.0
1606837523.7587,9.0
1606837523.7607,12.0
1606837523.7627,14.0
1606837523.7647,7.0
1606837523.7669,9.0
1606837523.7676,17.0
1606837523.7697,26.0
1606837523.7718,36.0
1606837523.7738,46.0
1606837523.7757,51.0
1606837523.7777,46.0
1606837523.7797,36.0
1606837523.7819,26.0
1606837523.7837,24.0
1606837523.7857,17.0
1606837523.7877,22.0
1606837523.7897,48.0
1606837523.7917,97.0
1606837523.7938,200.0
1606837523.7957,357.0
1606837523.7964,506.0
1606837523.7987,618.0
1606837523.8007,787.0
1606837523.8029,1105.0
1606837523.8048,1354.0
1606837523.8067,1007.0
1606837523.8089,176.0
1606837523.8108,-237.0
1606837523.8127,-158.0
1606837523.8147,-195.0
1606837523.8167,-283.0
1606837523.8187,-227.0
1606837523.8207,-193.0
1606837523.8227,-217.0
1606837523.8247,-195.0
1606837523.8267,-163.0
1606837523.8274,-156.0
1606837523.8297,-149.0
1606837523.8317,-132.0
1606837524.2639,-117.0
1606837524.2649,-102.0
1606837524.2674,-92.0
1606837524.27,-83.0
1606837524.272,-68.0
1606837524.2739,-56.0
1606837524.2759,-48.0
1606837524.2779,-39.0
1606837524.2799,-26.0
1606837524.2819,-12.0
1606837524.2826,4.0
1606837524.2848,24.0
1606837524.2868,39.0
1606837524.2889,51.0
1606837524.2909,63.0
1606837524.2928,61.0
1606837524.2948,48.0
1606837524.2968,19.0
1606837524.2988,-19.0
1606837524.3009,-46.0
1606837524.3028,-58.0
1606837524.3048,-61.0
1606837524.3068,-66.0
1606837524.3088,-70.0
1606837524.3109,-66.0
1606837524.3128,-53.0
1606837524.3135,-53.0
1606837524.3148,-51.0
1606837524.3168,-41.0
1606837524.3188,-39.0
1606837524.3209,-39.0
1606837524.3228,-34.0
1606837524.3248,-22.0
1606837524.3268,-19.0
1606837524.3288,-19.0
1606837524.3309,-12.0
1606837524.3328,-4.0
1606837524.3348,-7.0
1606837524.337,-12.0
1606837524.3389,-4.0
1606837524.3408,4.0
1606837524.3428,2.0
1606837524.3435,0.0
1606837524.3448,4.0
1606837524.3468,9.0
1606837524.3488,4.0
1606837524.3509,4.0
1606837524.3528,12.0
1606837524.3548,9.0
1606837524.3568,7.0
1606837524.3588,14.0
1606837524.3609,17.0
1606837524.3629,14.0
1606837524.3648,9.0
1606837524.3668,9.0
1606837524.3688,14.0
1606837524.3709,17.0
1606837524.3728,17.0
1606837524.3735,17.0
1606837524.3749,19.0
1606837524.3768,17.0
1606837524.3788,19.0
1606837524.3809,24.0
1606837524.3828,24.0
1606837524.3848,22.0
1606837524.3868,24.0
1606837524.3888,26.0
1606837524.3909,26.0
1606837524.3928,26.0
1606837524.3948,22.0
1606837524.3968,22.0
1606837524.3988,22.0
1606837524.4009,24.0
1606837524.8036,24.0
1606837524.8045,24.0
1606837524.8069,36.0
1606837524.8096,48.0
1606837524.8115,48.0
1606837524.8135,44.0
1606837524.8155,36.0
1606837524.8175,24.0
1606837524.8195,4.0
1606837524.8215,-2.0
1606837524.8234,22.0
1606837524.8254,44.0
1606837524.8275,88.0
1606837524.8295,212.0
1606837524.8314,383.0
1606837524.8335,523.0
1606837524.8356,628.0
1606837524.8375,802.0
1606837524.8394,1107.0
1606837524.8415,1310.0
1606837524.8434,917.0
1606837524.8454,119.0
1606837524.8474,-224.0
1606837524.8494,-146.0
1606837524.8515,-200.0
1606837524.8535,-271.0
1606837524.8554,-217.0
1606837524.8574,-202.0
1606837524.8595,-217.0
1606837524.8615,-190.0
1606837524.8634,-168.0
1606837524.8654,-163.0
1606837524.8674,-144.0
1606837524.8694,-124.0
1606837524.8715,-119.0
1606837524.8734,-112.0
1606837524.8754,-100.0
1606837524.8774,-88.0
1606837524.8795,-75.0
1606837524.8815,-63.0
1606837524.8834,-46.0
1606837524.8854,-34.0
1606837524.8874,-22.0
1606837524.8895,-12.0
1606837524.8914,9.0
1606837524.8935,34.0
1606837524.8954,51.0
1606837524.8974,61.0
1606837524.8994,78.0
1606837524.9015,80.0
1606837524.9034,63.0
1606837524.9054,29.0
1606837524.9074,-4.0
1606837524.9094,-29.0
1606837524.9114,-36.0
1606837524.9134,-44.0
1606837524.9154,-61.0
1606837524.9175,-61.0
1606837524.9194,-51.0
1606837524.9215,-51.0
1606837524.9234,-51.0
1606837524.9254,-41.0
1606837524.9274,-36.0
1606837524.9294,-39.0
1606837524.9315,-24.0
1606837524.9335,-12.0
1606837524.9354,-19.0
1606837524.9376,-26.0
1606837524.9395,-24.0
1606837524.9414,-19.0
1606837524.9434,-17.0
1606837524.9454,-22.0
1606837524.9474,-22.0
1606837525.3743,-14.0
1606837525.3755,-7.0
1606837525.3779,-2.0
1606837525.3806,0.0
1606837525.3826,-4.0
1606837525.3846,-12.0
1606837525.3867,-12.0
1606837525.3886,-7.0
1606837525.3906,0.0
1606837525.3926,2.0
1606837525.3946,-2.0
1606837525.3966,-2.0
1606837525.3986,2.0
1606837525.4006,2.0
1606837525.4026,0.0
1606837525.4046,0.0
1606837525.4066,2.0
1606837525.4086,-2.0
1606837525.4106,0.0
1606837525.4125,7.0
1606837525.4147,7.0
1606837525.4165,4.0
1606837525.4185,12.0
1606837525.4205,14.0
1606837525.4226,12.0
1606837525.4246,9.0
1606837525.4265,9.0
1606837525.4285,7.0
1606837525.4305,4.0
1606837525.4325,9.0
1606837525.4345,12.0
1606837525.4365,14.0
1606837525.4385,9.0
1606837525.4405,9.0
1606837525.4425,24.0
1606837525.4445,39.0
1606837525.4465,41.0
1606837525.4485,48.0
1606837525.4505,48.0
1606837525.4525,34.0
1606837525.4545,24.0
1606837525.4565,17.0
1606837525.4585,9.0
1606837525.4605,22.0
1606837525.4625,51.0
1606837525.4647,102.0
1606837525.4665,212.0
1606837525.4685,366.0
1606837525.4705,503.0
1606837525.4725,613.0
1606837525.4745,775.0
1606837525.4765,1058.0
1606837525.4786,1256.0
1606837525.4805,909.0
1606837525.4825,149.0
1606837525.4845,-215.0
1606837525.4865,-141.0
1606837525.4885,-176.0
1606837525.4905,-256.0
1606837525.4925,-207.0
1606837525.4945,-185.0
1606837525.4965,-205.0
1606837525.4985,-183.0
1606837525.5005,-158.0
1606837525.5025,-161.0
1606837525.5045,-149.0
1606837525.5065,-127.0
1606837525.5085,-119.0
1606837525.5105,-112.0
1606837525.5125,-95.0
1606837525.5145,-80.0
1606837525.5165,-68.0
1606837525.5185,-56.0
1606837525.9754,-41.0
1606837525.9763,-24.0
1606837525.9775,-12.0
1606837525.9795,2.0
1606837525.9815,24.0
1606837525.9836,44.0
1606837525.9855,46.0
1606837525.9875,48.0
1606837525.9895,63.0
1606837525.9915,68.0
1606837525.9935,46.0
1606837525.9955,12.0
1606837525.9975,-14.0
1606837525.9995,-39.0
1606837526.0015,-61.0
1606837526.0034,-73.0
1606837526.0054,-68.0
1606837526.0074,-68.0
1606837526.0094,-70.0
1606837526.0114,-66.0
1606837526.0134,-61.0
1606837526.0154,-58.0
1606837526.0174,-53.0
1606837526.0196,-44.0
1606837526.0215,-39.0
1606837526.0235,-39.0
1606837526.0254,-34.0
1606837526.0274,-34.0
1606837526.0294,-29.0
1606837526.0315,-24.0
1606837526.0334,-22.0
1606837526.0354,-19.0
1606837526.0374,-14.0
1606837526.0394,-12.0
1606837526.0414,-9.0
1606837526.0434,-7.0
1606837526.0454,-7.0
1606837526.0475,-7.0
1606837526.0494,-2.0
1606837526.0514,0.0
1606837526.0534,0.0
1606837526.0554,0.0
1606837526.0574,0.0
1606837526.0594,2.0
1606837526.0614,2.0
1606837526.0634,2.0
1606837526.0654,2.0
1606837526.0674,4.0
1606837526.0694,9.0
1606837526.0714,7.0
1606837526.0734,2.0
1606837526.0754,2.0
1606837526.0774,2.0
1606837526.0794,-4.0
1606837526.0814,-12.0
1606837526.0834,-4.0
1606837526.0854,4.0
1606837526.0874,19.0
1606837526.0894,34.0
1606837526.0914,44.0
1606837526.0934,44.0
1606837526.0954,31.0
1606837526.0974,22.0
1606837526.0994,14.0
1606837526.1014,4.0
1606837526.1034,4.0
1606837526.1054,24.0
1606837526.1074,56.0
1606837526.1094,127.0
1606837526.1114,259.0
1606837526.1134,420.0
1606837526.1154,550.0
1606837526.1174,662.0
1606837526.5138,875.0
1606837526.5148,1166.0
1606837526.5171,1139.0
1606837526.5197,515.0
1606837526.5217,-110.0
1606837526.5236,-185.0
1606837526.5257,-132.0
1606837526.5276,-227.0
1606837526.5297,-237.0
1606837526.5317,-188.0
1606837526.5336,-198.0
1606837526.5356,-202.0
1606837526.5377,-180.0
1606837526.5396,-171.0
1606837526.5416,-163.0
1606837526.5436,-144.0
1606837526.5456,-127.0
1606837526.5476,-114.0
1606837526.5497,-105.0
1606837526.5516,-100.0
1606837526.5536,-92.0
1606837526.5556,-80.0
1606837526.5576,-63.0
1606837526.5596,-48.0
1606837526.5616,-34.0
1606837526.5636,-14.0
1606837526.5656,0.0
1606837526.5676,17.0
1606837526.5696,34.0
1606837526.5716,48.0
1606837526.5737,58.0
1606837526.5756,58.0
1606837526.5776,44.0
1606837526.5796,17.0
1606837526.5816,-19.0
1606837526.5836,-48.0
1606837526.5856,-63.0
1606837526.5876,-75.0
1606837526.5896,-83.0
1606837526.5916,-85.0
1606837526.5936,-78.0
1606837526.5956,-75.0
1606837526.5976,-75.0
1606837526.5996,-70.0
1606837526.6016,-61.0
1606837526.6036,-58.0
1606837526.6056,-56.0
1606837526.6076,-53.0
1606837526.6096,-46.0
1606837526.6116,-41.0
1606837526.6136,-41.0
1606837526.6155,-41.0
1606837526.6177,-31.0
1606837526.6196,-24.0
1606837526.6216,-26.0
1606837526.6236,-22.0
1606837526.6256,-17.0
1606837526.6276,-14.0
1606837526.6296,-9.0
1606837526.6316,0.0
1606837526.6336,-2.0
1606837526.6356,-9.0
1606837526.6376,-4.0
1606837526.6396,2.0
1606837526.6416,2.0
1606837526.6436,2.0
1606837526.6456,0.0
1606837526.6476,-7.0
1606837526.6496,-7.0
1606837526.6516,-2.0
1606837526.6536,12.0
1606837526.6556,31.0
1606837526.6577,44.0
1606837527.0841,41.0
1606837527.0852,29.0
1606837527.0877,22.0
1606837527.0904,17.0
1606837527.0923,12.0
1606837527.0943,12.0
1606837527.0963,19.0
1606837527.0983,34.0
1606837527.1003,68.0
1606837527.1023,161.0
1606837527.1043,320.0
1606837527.1063,484.0
1606837527.1083,599.0
1606837527.1103,721.0
1606837527.1122,951.0
1606837527.1142,1217.0
1606837527.1162,1085.0
1606837527.1182,369.0
1606837527.1202,-198.0
1606837527.1223,-190.0
1606837527.1243,-154.0
1606837527.1262,-254.0
1606837527.1283,-232.0
1606837527.1302,-176.0
1606837527.1322,-195.0
1606837527.1342,-193.0
1606837527.1362,-158.0
1606837527.1382,-149.0
1606837527.1402,-146.0
1606837527.1422,-129.0
1606837527.1444,-114.0
1606837527.1462,-105.0
1606837527.1482,-95.0
1606837527.1502,-88.0
1606837527.1523,-78.0
1606837527.1542,-66.0
1606837527.1562,-51.0
1606837527.1583,-41.0
1606837527.1602,-39.0
1606837527.1622,-29.0
1606837527.1642,-12.0
1606837527.1662,7.0
1606837527.1682,19.0
1606837527.1702,29.0
1606837527.1722,36.0
1606837527.1743,44.0
1606837527.1762,34.0
1606837527.1782,2.0
1606837527.1802,-29.0
1606837527.1822,-46.0
1606837527.1842,-61.0
1606837527.1862,-73.0
1606837527.1882,-70.0
1606837527.1902,-68.0
1606837527.1922,-68.0
1606837527.1943,-63.0
1606837527.1962,-56.0
1606837527.1982,-48.0
1606837527.2002,-46.0
1606837527.2022,-44.0
1606837527.2042,-36.0
1606837527.2062,-31.0
1606837527.2082,-29.0
1606837527.2102,-22.0
1606837527.2122,-24.0
1606837527.2142,-19.0
1606837527.2162,-14.0
1606837527.2182,-17.0
1606837527.2202,-14.0
1606837527.2222,-9.0
1606837527.2242,-7.0
1606837527.2262,-4.0
1606837527.2282,-4.0
1606837527.624,-7.0
1606837527.6249,-7.0
1606837527.6274,2.0
1606837527.63,9.0
1606837527.6322,7.0
1606837527.634,2.0
1606837527.6361,2.0
1606837527.638,4.0
1606837527.6403,4.0
1606837527.642,0.0
1606837527.6439,-7.0
1606837527.6459,-12.0
1606837527.648,-12.0
1606837527.6499,-12.0
1606837527.6519,2.0
1606837527.6539,29.0
1606837527.6559,41.0
1606837527.6579,41.0
1606837527.66,39.0
1606837527.6619,31.0
1606837527.6639,19.0
1606837527.6659,7.0
1606837527.6679,0.0
1606837527.6699,4.0
1606837527.6719,22.0
1606837527.6739,61.0
1606837527.6759,151.0
1606837527.6779,305.0
1606837527.6799,464.0
1606837527.682,579.0
1606837527.6839,679.0
1606837527.6859,855.0
1606837527.6879,1120.0
1606837527.6899,1178.0
1606837527.6919,638.0
1606837527.6939,-85.0
1606837527.6959,-251.0
1606837527.6979,-151.0
1606837527.6999,-227.0
1606837527.7019,-261.0
1606837527.7039,-200.0
1606837527.7059,-200.0
1606837527.7079,-205.0
1606837527.7099,-176.0
1606837527.7119,-161.0
1606837527.7139,-151.0
1606837527.7159,-132.0
1606837527.7179,-119.0
1606837527.72,-114.0
1606837527.722,-105.0
1606837527.7239,-92.0
1606837527.7259,-85.0
1606837527.7279,-78.0
1606837527.7299,-66.0
1606837527.7319,-48.0
1606837527.7339,-41.0
1606837527.7359,-41.0
1606837527.7379,-29.0
1606837527.7399,-9.0
1606837527.742,4.0
1606837527.744,14.0
1606837527.7459,24.0
1606837527.7479,31.0
1606837527.7499,31.0
1606837527.752,12.0
1606837527.7539,-19.0
1606837527.7559,-41.0
1606837527.7579,-56.0
1606837527.7599,-63.0
1606837527.7619,-63.0
1606837527.7639,-58.0
1606837527.7659,-58.0
1606837527.7679,-61.0
1606837528.164,-61.0
1606837528.1649,-53.0
1606837528.1673,-46.0
1606837528.17,-41.0
1606837528.172,-39.0
1606837528.174,-36.0
1606837528.1761,-34.0
1606837528.178,-39.0
1606837528.18,-39.0
1606837528.1821,-24.0
1606837528.184,-17.0
1606837528.1859,-24.0
1606837528.188,-22.0
1606837528.1899,-12.0
1606837528.1919,-7.0
1606837528.1939,-12.0
1606837528.1959,-14.0
1606837528.1979,-12.0
1606837528.1999,-2.0
1606837528.202,0.0
1606837528.2039,-2.0
1606837528.2059,0.0
1606837528.2079,7.0
1606837528.2099,7.0
1606837528.2119,-4.0
1606837528.2139,-7.0
1606837528.2159,2.0
1606837528.218,4.0
1606837528.2199,2.0
1606837528.2219,0.0
1606837528.224,0.0
1606837528.2259,4.0
1606837528.2279,7.0
1606837528.2299,4.0
1606837528.2319,0.0
1606837528.2338,2.0
1606837528.2359,9.0
1606837528.238,12.0
1606837528.2399,12.0
1606837528.2418,24.0
1606837528.2439,41.0
1606837528.2459,46.0
1606837528.2479,44.0
1606837528.2498,39.0
1606837528.2519,31.0
1606837528.2539,26.0
1606837528.2559,17.0
1606837528.2579,9.0
1606837528.2599,22.0
1606837528.2618,53.0
1606837528.2639,122.0
1606837528.2659,251.0
1606837528.2678,398.0
1606837528.2698,496.0
1606837528.2719,584.0
1606837528.2738,767.0
1606837528.2758,1071.0
1606837528.2779,1274.0
1606837528.2799,924.0
1606837528.2819,122.0
1606837528.2839,-273.0
1606837528.2859,-163.0
1606837528.2878,-161.0
1606837528.2898,-244.0
1606837528.2918,-200.0
1606837528.2938,-166.0
1606837528.2959,-180.0
1606837528.2978,-166.0
1606837528.2998,-139.0
1606837528.3019,-129.0
1606837528.3039,-119.0
1606837528.3059,-110.0
1606837528.3079,-105.0
1606837528.7339,-92.0
1606837528.7348,-75.0
1606837528.7372,-63.0
1606837528.7399,-53.0
1606837528.7419,-51.0
1606837528.7439,-53.0
1606837528.7461,-41.0
1606837528.7479,-22.0
1606837528.7499,-4.0
1606837528.7519,7.0
1606837528.7539,22.0
1606837528.7559,36.0
1606837528.7579,41.0
1606837528.7599,46.0
1606837528.7618,51.0
1606837528.764,36.0
1606837528.7659,-2.0
1606837528.7679,-31.0
1606837528.7699,-48.0
1606837528.7718,-68.0
1606837528.7738,-73.0
1606837528.7758,-70.0
1606837528.7778,-73.0
1606837528.7798,-73.0
1606837528.7818,-68.0
1606837528.7838,-66.0
1606837528.7858,-63.0
1606837528.7878,-58.0
1606837528.7899,-58.0
1606837528.7918,-58.0
1606837528.7938,-53.0
1606837528.7958,-48.0
1606837528.7978,-41.0
1606837528.7998,-26.0
1606837528.8018,-26.0
1606837528.8038,-34.0
1606837528.8058,-29.0
1606837528.8078,-19.0
1606837528.8098,-24.0
1606837528.8118,-24.0
1606837528.8138,-17.0
1606837528.8158,-17.0
1606837528.8178,-19.0
1606837528.8198,-22.0
1606837528.8218,-19.0
1606837528.8238,-12.0
1606837528.8258,-9.0
1606837528.8278,-12.0
1606837528.8298,-12.0
1606837528.8318,-7.0
1606837528.8338,-7.0
1606837528.8358,-9.0
1606837528.8378,-7.0
1606837528.8398,-4.0
1606837528.8418,-14.0
1606837528.8438,-17.0
1606837528.8458,0.0
1606837528.8478,26.0
1606837528.8498,44.0
1606837528.8518,41.0
1606837528.8538,26.0
1606837528.8558,19.0
1606837528.8578,22.0
1606837528.8598,12.0
1606837528.8618,2.0
1606837528.8638,9.0
1606837528.8659,29.0
1606837528.8679,63.0
1606837528.8699,139.0
1606837528.8718,273.0
1606837528.8738,415.0
1606837528.8758,511.0
1606837528.8778,611.0
1606837529.3339,838.0
1606837529.3348,1183.0
1606837529.3373,1313.0
1606837529.3399,787.0
1606837529.3419,-46.0
1606837529.3439,-310.0
1606837529.346,-171.0
1606837529.3479,-212.0
1606837529.35,-278.0
1606837529.352,-222.0
1606837529.354,-200.0
1606837529.3559,-210.0
1606837529.3579,-185.0
1606837529.3599,-166.0
1606837529.3618,-158.0
1606837529.3638,-139.0
1606837529.3658,-119.0
1606837529.3678,-112.0
1606837529.3699,-105.0
1606837529.3719,-90.0
1606837529.3738,-70.0
1606837529.3759,-58.0
1606837529.3779,-53.0
1606837529.3798,-39.0
1606837529.3818,-22.0
1606837529.3838,-7.0
1606837529.3858,7.0
1606837529.3878,19.0
1606837529.3898,31.0
1606837529.3918,44.0
1606837529.3938,61.0
1606837529.3958,70.0
1606837529.3978,63.0
1606837529.3998,31.0
1606837529.4019,0.0
1606837529.4038,-26.0
1606837529.4058,-46.0
1606837529.4078,-56.0
1606837529.4098,-58.0
1606837529.4118,-66.0
1606837529.4138,-66.0
1606837529.4158,-51.0
1606837529.4178,-51.0
1606837529.4198,-53.0
1606837529.422,-44.0
1606837529.4239,-36.0
1606837529.4258,-39.0
1606837529.4278,-39.0
1606837529.4298,-31.0
1606837529.4318,-26.0
1606837529.4338,-22.0
1606837529.436,-19.0
1606837529.4378,-14.0
1606837529.4399,-9.0
1606837529.4418,-2.0
1606837529.4438,0.0
1606837529.4458,-4.0
1606837529.4478,-7.0
1606837529.4498,-2.0
1606837529.4506,0.0
1606837529.4518,-4.0
1606837529.4538,-7.0
1606837529.4558,-4.0
1606837529.4578,-4.0
1606837529.4598,-12.0
1606837529.4618,-9.0
1606837529.4638,-2.0
1606837529.4658,-4.0
1606837529.4678,-7.0
1606837529.4698,-7.0
1606837529.4718,-4.0
1606837529.4738,-7.0
1606837529.4758,-7.0
1606837529.8742,-7.0
1606837529.8751,-12.0
1606837529.8775,-19.0
1606837529.8803,-14.0
1606837529.8822,7.0
1606837529.8842,26.0
1606837529.8863,34.0
1606837529.8883,36.0
1606837529.8902,34.0
1606837529.8922,22.0
1606837529.8942,7.0
1606837529.8962,-2.0
1606837529.8982,-4.0
1606837529.9002,4.0
1606837529.9022,31.0
1606837529.9041,90.0
1606837529.9058,212.0
1606837529.9065,376.0
1606837529.9081,520.0
1606837529.9102,630.0
1606837529.9121,782.0
1606837529.9141,1071.0
1606837529.9164,1349.0
1606837529.9182,1105.0
1606837529.9201,271.0
1606837529.9222,-271.0
1606837529.9241,-210.0
1606837529.9261,-180.0
1606837529.9281,-281.0
1606837529.9301,-246.0
1606837529.9322,-202.0
1606837529.9341,-220.0
1606837529.9361,-207.0
1606837529.9367,-176.0
1606837529.9381,-163.0
1606837529.9401,-151.0
1606837529.9421,-134.0
1606837529.9441,-127.0
1606837529.9461,-117.0
1606837529.9481,-100.0
1606837529.9501,-83.0
1606837529.9521,-73.0
1606837529.9541,-68.0
1606837529.9561,-53.0
1606837529.9581,-36.0
1606837529.9601,-24.0
1606837529.9621,-14.0
1606837529.9641,4.0
1606837529.9661,24.0
1606837529.9745,36.0
1606837529.9761,48.0
1606837529.9781,61.0
1606837529.9802,61.0
1606837529.9821,46.0
1606837529.9841,19.0
1606837529.9861,-9.0
1606837529.9881,-31.0
1606837529.9901,-46.0
1606837529.9921,-53.0
1606837529.9941,-58.0
1606837529.9961,-56.0
1606837529.9981,-48.0
1606837530.0001,-48.0
1606837530.0022,-48.0
1606837530.0027,-41.0
1606837530.004,-34.0
1606837530.0061,-34.0
1606837530.0081,-36.0
1606837530.0101,-34.0
1606837530.0121,-29.0
1606837530.0141,-26.0
1606837530.0161,-24.0
1606837530.0181,-24.0
1606837530.4438,-22.0
1606837530.4449,-12.0
1606837530.4473,-7.0
1606837530.4501,-9.0
1606837530.452,-9.0
1606837530.4526,-7.0
1606837530.454,-9.0
1606837530.4561,-17.0
1606837530.458,-22.0
1606837530.46,-19.0
1606837530.462,-14.0
1606837530.464,-19.0
1606837530.466,-24.0
1606837530.468,-17.0
1606837530.47,-17.0
1606837530.472,-22.0
1606837530.474,-14.0
1606837530.476,-4.0
1606837530.478,-9.0
1606837530.48,-14.0
1606837530.482,-9.0
1606837530.4826,-4.0
1606837530.4839,-2.0
1606837530.486,0.0
1606837530.4879,-2.0
1606837530.4899,-2.0
1606837530.4919,-2.0
1606837530.4939,-2.0
1606837530.4959,2.0
1606837530.4979,4.0
1606837530.4999,2.0
1606837530.502,7.0
1606837530.5039,12.0
1606837530.5059,9.0
1606837530.5079,9.0
1606837530.5099,9.0
1606837530.5119,9.0
1606837530.5126,7.0
1606837530.515,4.0
1606837530.5169,14.0
1606837530.5189,29.0
1606837530.5209,41.0
1606837530.5229,51.0
1606837530.5249,46.0
1606837530.5269,36.0
1606837530.5289,34.0
1606837530.5309,31.0
1606837530.5329,22.0
1606837530.5349,17.0
1606837530.5369,26.0
1606837530.5389,53.0
1606837530.541,117.0
1606837530.5429,246.0
1606837530.5436,413.0
1606837530.5449,552.0
1606837530.5469,665.0
1606837530.5489,848.0
1606837530.551,1159.0
1606837530.5529,1349.0
1606837530.5549,924.0
1606837530.5569,100.0
1606837530.5589,-237.0
1606837530.5609,-146.0
1606837530.563,-207.0
1606837530.5649,-273.0
1606837530.5669,-210.0
1606837530.5689,-200.0
1606837530.5709,-212.0
1606837530.5729,-180.0
1606837530.5736,-163.0
1606837530.5749,-158.0
1606837530.5769,-139.0
1606837530.5789,-124.0
1606837530.9836,-114.0
1606837530.9843,-97.0
1606837530.9861,-90.0
1606837530.988,-83.0
1606837530.99,-66.0
1606837530.992,-53.0
1606837530.994,-46.0
1606837530.9961,-34.0
1606837530.9981,-24.0
1606837530.9988,-17.0
1606837531.0011,0.0
1606837531.0031,22.0
1606837531.005,34.0
1606837531.007,39.0
1606837531.0091,53.0
1606837531.0111,61.0
1606837531.013,46.0
1606837531.015,17.0
1606837531.017,-14.0
1606837531.019,-41.0
1606837531.0211,-61.0
1606837531.0231,-70.0
1606837531.025,-78.0
1606837531.027,-80.0
1606837531.029,-75.0
1606837531.0297,-68.0
1606837531.0321,-68.0
1606837531.034,-63.0
1606837531.036,-56.0
1606837531.0382,-51.0
1606837531.04,-48.0
1606837531.042,-39.0
1606837531.044,-34.0
1606837531.046,-36.0
1606837531.048,-34.0
1606837531.05,-31.0
1606837531.0521,-39.0
1606837531.054,-39.0
1606837531.056,-29.0
1606837531.058,-26.0
1606837531.06,-24.0
1606837531.0607,-19.0
1606837531.0621,-14.0
1606837531.064,-12.0
1606837531.066,-12.0
1606837531.0681,-9.0
1606837531.07,-7.0
1606837531.0721,-4.0
1606837531.074,-2.0
1606837531.076,-2.0
1606837531.078,-2.0
1606837531.08,-4.0
1606837531.082,-9.0
1606837531.084,-12.0
1606837531.086,-7.0
1606837531.088,-2.0
1606837531.09,0.0
1606837531.092,4.0
1606837531.094,4.0
1606837531.096,0.0
1606837531.098,0.0
1606837531.1001,4.0
1606837531.102,14.0
1606837531.104,14.0
1606837531.106,9.0
1606837531.108,9.0
1606837531.11,7.0
1606837531.112,9.0
1606837531.114,14.0
1606837531.116,17.0
1606837531.118,19.0
1606837531.1201,17.0
1606837531.1221,14.0
1606837531.5541,22.0
1606837531.5553,22.0
1606837531.5579,19.0
1606837531.5604,19.0
1606837531.5624,24.0
1606837531.5644,19.0
1606837531.5665,4.0
1606837531.5687,0.0
1606837531.5705,4.0
1606837531.5724,14.0
1606837531.5745,29.0
1606837531.5764,44.0
1606837531.5784,51.0
1606837531.5804,53.0
1606837531.5824,46.0
1606837531.5844,26.0
1606837531.5864,19.0
1606837531.5884,14.0
1606837531.5904,14.0
1606837531.5924,29.0
1606837531.5944,61.0
1606837531.5964,129.0
1606837531.5984,256.0
1606837531.6004,418.0
1606837531.6024,552.0
1606837531.6044,662.0
1606837531.6064,843.0
1606837531.6084,1139.0
1606837531.6104,1271.0
1606837531.6123,787.0
1606837531.6143,19.0
1606837531.6164,-222.0
1606837531.6183,-134.0
1606837531.6203,-217.0
1606837531.6223,-271.0
1606837531.6244,-200.0
1606837531.6264,-193.0
1606837531.6283,-215.0
1606837531.6303,-185.0
1606837531.6323,-158.0
1606837531.6344,-158.0
1606837531.6363,-149.0
1606837531.6383,-129.0
1606837531.6403,-119.0
1606837531.6423,-110.0
1606837531.6443,-102.0
1606837531.6464,-95.0
1606837531.6483,-80.0
1606837531.6503,-63.0
1606837531.6523,-56.0
1606837531.6543,-44.0
1606837531.6563,-19.0
1606837531.6583,-7.0
1606837531.6603,2.0
1606837531.6623,17.0
1606837531.6643,31.0
1606837531.6663,44.0
1606837531.6683,58.0
1606837531.6705,63.0
1606837531.6724,46.0
1606837531.6743,12.0
1606837531.6763,-24.0
1606837531.6783,-48.0
1606837531.6803,-58.0
1606837531.6823,-66.0
1606837531.6843,-75.0
1606837531.6864,-75.0
1606837531.6883,-63.0
1606837531.6903,-58.0
1606837531.6923,-61.0
1606837531.6943,-56.0
1606837531.6964,-48.0
1606837531.6983,-46.0
1606837532.0939,-44.0
1606837532.0948,-36.0
1606837532.0972,-29.0
1606837532.0999,-26.0
1606837532.102,-26.0
1606837532.1039,-22.0
1606837532.1059,-22.0
1606837532.1079,-24.0
1606837532.1099,-24.0
1606837532.1118,-22.0
1606837532.1138,-22.0
1606837532.1158,-24.0
1606837532.1178,-19.0
1606837532.1198,-14.0
1606837532.1219,-9.0
1606837532.1238,-9.0
1606837532.1258,-12.0
1606837532.1278,-17.0
1606837532.1299,-14.0
1606837532.132,-7.0
1606837532.1338,-2.0
1606837532.1358,0.0
1606837532.1378,-2.0
1606837532.1398,-4.0
1606837532.1419,-2.0
1606837532.1438,-7.0
1606837532.1458,-7.0
1606837532.1478,0.0
1606837532.1498,0.0
1606837532.1518,-2.0
1606837532.1538,-2.0
1606837532.1557,2.0
1606837532.1578,2.0
1606837532.1598,2.0
1606837532.1618,2.0
1606837532.1637,7.0
1606837532.1659,14.0
1606837532.1678,14.0
1606837532.1698,9.0
1606837532.1718,4.0
1606837532.1737,7.0
1606837532.1757,9.0
1606837532.1778,9.0
1606837532.1797,9.0
1606837532.1818,12.0
1606837532.1838,7.0
1606837532.1857,7.0
1606837532.1877,12.0
1606837532.1898,14.0
1606837532.1917,7.0
1606837532.1937,7.0
1606837532.1957,17.0
1606837532.1977,34.0
1606837532.1997,48.0
1606837532.2018,46.0
1606837532.2037,36.0
1606837532.2057,24.0
1606837532.2078,17.0
1606837532.2098,9.0
1606837532.2118,4.0
1606837532.2138,14.0
1606837532.2157,48.0
1606837532.2177,114.0
1606837532.2197,229.0
1606837532.2218,376.0
1606837532.2238,493.0
1606837532.2258,586.0
1606837532.2277,797.0
1606837532.2298,1159.0
1606837532.2318,1300.0
1606837532.2337,760.0
1606837532.2357,-34.0
1606837532.2378,-251.0
1606837532.6942,-144.0
1606837532.6953,-210.0
1606837532.6972,-249.0
1606837532.699,-188.0
1606837532.7011,-193.0
1606837532.703,-207.0
1606837532.705,-171.0
1606837532.7071,-154.0
1606837532.709,-161.0
1606837532.7111,-146.0
1606837532.713,-124.0
1606837532.715,-112.0
1606837532.717,-100.0
1606837532.719,-83.0
1606837532.7214,-68.0
1606837532.7231,-56.0
1606837532.7252,-46.0
1606837532.7271,-34.0
1606837532.729,-17.0
1606837532.7311,9.0
1606837532.733,31.0
1606837532.735,44.0
1606837532.737,63.0
1606837532.739,83.0
1606837532.741,92.0
1606837532.743,95.0
1606837532.745,85.0
1606837532.747,58.0
1606837532.749,24.0
1606837532.751,-12.0
1606837532.7529,-48.0
1606837532.755,-70.0
1606837532.7569,-83.0
1606837532.759,-88.0
1606837532.761,-85.0
1606837532.7629,-80.0
1606837532.7649,-68.0
1606837532.767,-61.0
1606837532.7689,-66.0
1606837532.771,-61.0
1606837532.7729,-46.0
1606837532.7736,-46.0
1606837532.7749,-44.0
1606837532.7769,-34.0
1606837532.7789,-31.0
1606837532.781,-26.0
1606837532.7829,-26.0
1606837532.7849,-26.0
1606837532.7869,-17.0
1606837532.7889,-7.0
1606837532.791,-14.0
1606837532.7929,-17.0
1606837532.7949,-7.0
1606837532.797,0.0
1606837532.7989,4.0
1606837532.801,7.0
1606837532.8029,0.0
1606837532.8037,-7.0
1606837532.8049,2.0
1606837532.8069,7.0
1606837532.8089,0.0
1606837532.811,0.0
1606837532.8129,4.0
1606837532.815,-2.0
1606837532.8169,-4.0
1606837532.8191,0.0
1606837532.821,2.0
1606837532.8229,2.0
1606837532.8249,0.0
1606837532.8269,-2.0
1606837532.8289,0.0
1606837532.831,0.0
1606837532.8329,-2.0
1606837533.2337,-2.0
1606837533.2345,0.0
1606837533.2369,2.0
1606837533.2396,9.0
1606837533.2416,26.0
1606837533.2435,41.0
1606837533.2456,39.0
1606837533.2475,29.0
1606837533.2495,17.0
1606837533.2515,0.0
1606837533.2535,-14.0
1606837533.2555,-17.0
1606837533.2575,-4.0
1606837533.2595,14.0
1606837533.2602,61.0
1606837533.2615,173.0
1606837533.2635,322.0
1606837533.2655,430.0
1606837533.2674,511.0
1606837533.2694,696.0
1606837533.2715,1076.0
1606837533.2735,1381.0
1606837533.2755,1041.0
1606837533.2775,149.0
1606837533.2795,-320.0
1606837533.2815,-205.0
1606837533.2835,-185.0
1606837533.2854,-276.0
1606837533.2875,-224.0
1606837533.2895,-183.0
1606837533.2901,-202.0
1606837533.2915,-195.0
1606837533.2935,-168.0
1606837533.2955,-154.0
1606837533.2975,-141.0
1606837533.2995,-122.0
1606837533.3015,-110.0
1606837533.3035,-100.0
1606837533.3055,-85.0
1606837533.3075,-68.0
1606837533.3095,-53.0
1606837533.3115,-39.0
1606837533.3135,-26.0
1606837533.3157,-9.0
1606837533.3175,12.0
1606837533.3195,31.0
1606837533.3201,48.0
1606837533.3215,73.0
1606837533.3234,85.0
1606837533.3255,90.0
1606837533.3276,97.0
1606837533.3295,97.0
1606837533.3315,70.0
1606837533.3335,24.0
1606837533.3354,-19.0
1606837533.3375,-53.0
1606837533.3394,-73.0
1606837533.3415,-80.0
1606837533.3435,-78.0
1606837533.3455,-78.0
1606837533.3474,-80.0
1606837533.3495,-75.0
1606837533.3501,-68.0
1606837533.3515,-66.0
1606837533.3535,-58.0
1606837533.3555,-51.0
1606837533.3575,-48.0
1606837533.3595,-44.0
1606837533.3615,-36.0
1606837533.3635,-39.0
1606837533.3655,-39.0
1606837533.3675,-31.0
1606837533.3695,-24.0
1606837533.864,-17.0
1606837533.8653,-12.0
1606837533.8677,-7.0
1606837533.8704,-2.0
1606837533.8724,-2.0
1606837533.8731,0.0
1606837533.8753,0.0
1606837533.8774,-7.0
1606837533.8793,-12.0
1606837533.8814,-7.0
1606837533.8833,-2.0
1606837533.8853,-2.0
1606837533.8874,-4.0
1606837533.8894,-4.0
1606837533.8913,-4.0
1606837533.8933,-9.0
1606837533.8953,-17.0
1606837533.8973,-17.0
1606837533.8993,-17.0
1606837533.9014,-19.0
1606837533.9032,-19.0
1606837533.9041,-19.0
1606837533.9053,-24.0
1606837533.9072,-22.0
1606837533.9092,-7.0
1606837533.9113,7.0
1606837533.9132,19.0
1606837533.9152,26.0
1606837533.9172,22.0
1606837533.9193,7.0
1606837533.9212,-7.0
1606837533.9232,-12.0
1606837533.9253,-9.0
1606837533.9273,2.0
1606837533.9292,22.0
1606837533.9313,73.0
1606837533.9332,180.0
1606837533.9339,344.0
1606837533.9352,493.0
1606837533.9372,604.0
1606837533.9392,760.0
1606837533.9412,1085.0
1606837533.9432,1411.0
1606837533.9452,1176.0
1606837533.9472,305.0
1606837533.9492,-269.0
1606837533.9513,-207.0
1606837533.9532,-173.0
1606837533.9552,-283.0
1606837533.9572,-251.0
1606837533.9592,-200.0
1606837533.9613,-217.0
1606837533.9632,-202.0
1606837533.9639,-171.0
1606837533.9652,-163.0
1606837533.9672,-156.0
1606837533.9692,-136.0
1606837533.9713,-122.0
1606837533.9732,-112.0
1606837533.9752,-97.0
1606837533.9772,-83.0
1606837533.9793,-70.0
1606837533.9813,-56.0
1606837533.9832,-39.0
1606837533.9852,-26.0
1606837533.9872,-12.0
1606837533.9892,7.0
1606837533.9912,26.0
1606837533.9932,41.0
1606837533.9939,58.0
1606837533.9952,70.0
1606837533.9972,80.0
1606837533.9994,80.0
1606837534.3439,63.0
1606837534.3449,26.0
1606837534.3473,-12.0
1606837534.35,-41.0
1606837534.352,-58.0
1606837534.3539,-70.0
1606837534.3559,-75.0
1606837534.358,-73.0
1606837534.3599,-68.0
1606837534.3606,-68.0
1606837534.3619,-63.0
1606837534.3639,-56.0
1606837534.3659,-53.0
1606837534.3679,-56.0
1606837534.3699,-48.0
1606837534.3719,-44.0
1606837534.3738,-51.0
1606837534.3759,-56.0
1606837534.3778,-44.0
1606837534.3798,-36.0
1606837534.3819,-39.0
1606837534.3839,-41.0
1606837534.3859,-36.0
1606837534.3878,-31.0
1606837534.3898,-29.0
1606837534.3906,-22.0
1606837534.3918,-19.0
1606837534.3938,-17.0
1606837534.3959,-12.0
1606837534.3978,-12.0
1606837534.3998,-9.0
1606837534.4019,-9.0
1606837534.4039,-7.0
1606837534.406,-2.0
1606837534.4079,-2.0
1606837534.4098,-2.0
1606837534.4118,-2.0
1606837534.4138,-2.0
1606837534.4159,0.0
1606837534.4178,0.0
1606837534.4185,2.0
1606837534.4199,2.0
1606837534.4219,2.0
1606837534.4239,4.0
1606837534.4259,4.0
1606837534.4279,7.0
1606837534.4298,9.0
1606837534.4318,9.0
1606837534.4338,7.0
1606837534.4359,9.0
1606837534.438,12.0
1606837534.4399,9.0
1606837534.4418,7.0
1606837534.4438,4.0
1606837534.4458,0.0
1606837534.4478,4.0
1606837534.4485,22.0
1606837534.4498,41.0
1606837534.4519,51.0
1606837534.4538,48.0
1606837534.4558,41.0
1606837534.4578,34.0
1606837534.4598,24.0
1606837534.4618,17.0
1606837534.4639,12.0
1606837534.4659,17.0
1606837534.4678,48.0
1606837534.4698,119.0
1606837534.4719,244.0
1606837534.4738,410.0
1606837534.4758,557.0
1606837534.4778,662.0
1606837534.4785,868.0
1606837534.9141,1242.0
1606837534.9153,1415.0
1606837534.9177,868.0
1606837534.9204,17.0
1606837534.9224,-249.0
1606837534.9244,-161.0
1606837534.9264,-249.0
1606837534.9284,-298.0
1606837534.9304,-224.0
1606837534.9323,-224.0
1606837534.9343,-234.0
1606837534.9363,-193.0
1606837534.9383,-171.0
1606837534.9403,-163.0
1606837534.9423,-146.0
1606837534.943,-129.0
1606837534.9453,-122.0
1606837534.9473,-110.0
1606837534.9493,-95.0
1606837534.9513,-78.0
1606837534.9532,-63.0
1606837534.9552,-51.0
1606837534.9572,-39.0
1606837534.9592,-26.0
1606837534.9613,-4.0
1606837534.9633,17.0
1606837534.9652,36.0
1606837534.9672,53.0
1606837534.9694,70.0
1606837534.9713,88.0
1606837534.9732,95.0
1606837534.9739,90.0
1606837534.9753,70.0
1606837534.9772,31.0
1606837534.9793,-7.0
1606837534.9813,-39.0
1606837534.9832,-58.0
1606837534.9852,-66.0
1606837534.9873,-63.0
1606837534.9894,-58.0
1606837534.9913,-58.0
1606837534.9932,-56.0
1606837534.9953,-48.0
1606837534.9972,-44.0
1606837534.9993,-39.0
1606837535.0013,-31.0
1606837535.0032,-26.0
1606837535.0039,-24.0
1606837535.0052,-24.0
1606837535.0072,-19.0
1606837535.0093,-12.0
1606837535.0113,-9.0
1606837535.0132,-7.0
1606837535.0152,-4.0
1606837535.0172,-2.0
1606837535.0192,-4.0
1606837535.0213,-2.0
1606837535.0232,2.0
1606837535.0252,4.0
1606837535.0272,2.0
1606837535.0293,7.0
1606837535.0313,14.0
1606837535.0332,12.0
1606837535.0339,14.0
1606837535.0352,14.0
1606837535.0372,9.0
1606837535.0393,17.0
1606837535.0413,19.0
1606837535.0432,7.0
1606837535.0452,9.0
1606837535.0473,17.0
1606837535.0493,14.0
1606837535.0513,9.0
1606837535.4539,12.0
1606837535.4549,14.0
1606837535.4573,12.0
1606837535.46,9.0
1606837535.4608,14.0
1606837535.463,19.0
1606837535.4651,14.0
1606837535.467,7.0
1606837535.4689,9.0
1606837535.4709,14.0
1606837535.4729,9.0
1606837535.4749,7.0
1606837535.4769,14.0
1606837535.4789,17.0
1606837535.4809,14.0
1606837535.4829,17.0
1606837535.4849,17.0
1606837535.4869,14.0
1606837535.4889,17.0
1606837535.4909,22.0
1606837535.4916,19.0
1606837535.4929,14.0
1606837535.4949,14.0
1606837535.4969,22.0
1606837535.4989,24.0
1606837535.5009,22.0
1606837535.5029,17.0
1606837535.5049,12.0
1606837535.5069,12.0
1606837535.5089,24.0
1606837535.5109,39.0
1606837535.5129,44.0
1606837535.5149,48.0
1606837535.5169,46.0
1606837535.5189,34.0
1606837535.5209,19.0
1606837535.5216,14.0
1606837535.5229,9.0
1606837535.5249,17.0
1606837535.5269,46.0
1606837535.5289,90.0
1606837535.5309,185.0
1606837535.5329,342.0
1606837535.5349,496.0
1606837535.5369,616.0
1606837535.5389,775.0
1606837535.541,1066.0
1606837535.5429,1313.0
1606837535.5449,1012.0
1606837535.5469,217.0
1606837535.5489,-202.0
1606837535.5509,-136.0
1606837535.5515,-173.0
1606837535.5529,-266.0
1606837535.5549,-210.0
1606837535.5569,-176.0
1606837535.5589,-200.0
1606837535.561,-180.0
1606837535.5631,-154.0
1606837535.5649,-149.0
1606837535.5668,-136.0
1606837535.5689,-124.0
1606837535.5709,-119.0
1606837535.5729,-102.0
1606837535.5749,-90.0
1606837535.5769,-85.0
1606837535.5789,-70.0
1606837535.5809,-53.0
1606837535.5816,-39.0
1606837535.5828,-29.0
1606837535.5849,-19.0
1606837535.5869,2.0
1606837535.5889,31.0
1606837536.0837,48.0
1606837536.0848,58.0
1606837536.0872,73.0
1606837536.09,80.0
1606837536.092,68.0
1606837536.0939,56.0
1606837536.0961,36.0
1606837536.0979,-2.0
1606837536.0988,-39.0
1606837536.0999,-53.0
1606837536.1019,-66.0
1606837536.1039,-73.0
1606837536.1059,-70.0
1606837536.108,-66.0
1606837536.1099,-66.0
1606837536.1118,-66.0
1606837536.1138,-58.0
1606837536.1159,-48.0
1606837536.1179,-53.0
1606837536.1199,-48.0
1606837536.1219,-31.0
1606837536.1238,-29.0
1606837536.1258,-34.0
1606837536.1278,-31.0
1606837536.1285,-24.0
1606837536.1298,-22.0
1606837536.1318,-19.0
1606837536.1338,-19.0
1606837536.1358,-22.0
1606837536.1378,-19.0
1606837536.1398,-19.0
1606837536.1418,-19.0
1606837536.1438,-12.0
1606837536.1458,-2.0
1606837536.1478,0.0
1606837536.1499,-2.0
1606837536.1519,0.0
1606837536.1538,2.0
1606837536.1558,-2.0
1606837536.1578,-4.0
1606837536.1585,2.0
1606837536.1598,9.0
1606837536.1618,9.0
1606837536.1638,2.0
1606837536.1658,0.0
1606837536.1679,2.0
1606837536.1698,4.0
1606837536.1718,2.0
1606837536.1738,4.0
1606837536.1758,12.0
1606837536.1778,12.0
1606837536.1798,4.0
1606837536.1819,4.0
1606837536.1838,7.0
1606837536.1858,2.0
1606837536.1878,2.0
1606837536.1885,7.0
1606837536.1898,7.0
1606837536.1919,7.0
1606837536.1939,12.0
1606837536.196,14.0
1606837536.1979,12.0
1606837536.1998,7.0
1606837536.2019,7.0
1606837536.2038,17.0
1606837536.2058,19.0
1606837536.2079,14.0
1606837536.2098,14.0
1606837536.2118,14.0
1606837536.2138,2.0
1606837536.2158,2.0
1606837536.2165,12.0
1606837536.2178,22.0
1606837536.624,29.0
1606837536.6249,41.0
1606837536.6273,44.0
1606837536.63,34.0
1606837536.632,19.0
1606837536.634,9.0
1606837536.6361,4.0
1606837536.638,7.0
1606837536.64,12.0
1606837536.6419,29.0
1606837536.6439,83.0
1606837536.6459,195.0
1606837536.6479,342.0
1606837536.6501,462.0
1606837536.6507,555.0
1606837536.652,716.0
1606837536.6539,1036.0
1606837536.6559,1310.0
1606837536.6579,1014.0
1606837536.6599,188.0
1606837536.6619,-269.0
1606837536.6639,-188.0
1606837536.6659,-183.0
1606837536.6679,-266.0
1606837536.6699,-220.0
1606837536.6719,-188.0
1606837536.6739,-205.0
1606837536.6759,-183.0
1606837536.6779,-158.0
1606837536.6799,-163.0
1606837536.6806,-146.0
1606837536.6819,-119.0
1606837536.6839,-110.0
1606837536.6859,-105.0
1606837536.6879,-90.0
1606837536.6899,-75.0
1606837536.6919,-61.0
1606837536.6939,-48.0
1606837536.6959,-36.0
1606837536.6979,-19.0
1606837536.6999,0.0
1606837536.7019,19.0
1606837536.7039,41.0
1606837536.7059,61.0
1606837536.7079,73.0
1606837536.7099,85.0
1606837536.7106,92.0
1606837536.7119,88.0
1606837536.7139,75.0
1606837536.7159,44.0
1606837536.7179,0.0
1606837536.72,-34.0
1606837536.7219,-51.0
1606837536.7239,-68.0
1606837536.7259,-80.0
1606837536.7279,-75.0
1606837536.7299,-68.0
1606837536.7319,-66.0
1606837536.7339,-58.0
1606837536.7359,-56.0
1606837536.7379,-48.0
1606837536.7399,-39.0
1606837536.7406,-44.0
1606837536.7419,-41.0
1606837536.7441,-34.0
1606837536.7459,-26.0
1606837536.7479,-24.0
1606837536.7499,-24.0
1606837536.7519,-17.0
1606837536.7539,-14.0
1606837536.7559,-14.0
1606837536.7579,-12.0
1606837536.7599,-9.0
1606837537.164,-9.0
1606837537.1649,-7.0
1606837537.1673,-9.0
1606837537.1685,-14.0
1606837537.17,-7.0
1606837537.1719,7.0
1606837537.1739,9.0
1606837537.176,2.0
1606837537.1779,0.0
1606837537.1799,2.0
1606837537.1819,-9.0
1606837537.1839,-17.0
1606837537.1859,-7.0
1606837537.188,-2.0
1606837537.1899,-9.0
1606837537.1919,-14.0
1606837537.1939,-4.0
1606837537.1959,-2.0
1606837537.1979,-9.0
1606837537.1986,-4.0
1606837537.1999,2.0
1606837537.2019,2.0
1606837537.2039,-4.0
1606837537.2059,2.0
1606837537.2079,14.0
1606837537.2099,7.0
1606837537.2119,-4.0
1606837537.2139,0.0
1606837537.2158,4.0
1606837537.2179,0.0
1606837537.2199,-2.0
1606837537.2219,12.0
1606837537.2239,26.0
1606837537.2259,34.0
1606837537.2279,36.0
1606837537.2286,29.0
1606837537.2299,17.0
1606837537.2319,9.0
1606837537.2338,7.0
1606837537.2359,4.0
1606837537.2379,7.0
1606837537.2399,34.0
1606837537.2421,105.0
1606837537.2439,227.0
1606837537.2459,376.0
1606837537.2479,493.0
1606837537.2499,591.0
1606837537.2519,807.0
1606837537.2539,1181.0
1606837537.2559,1340.0
1606837537.2579,799.0
1606837537.2586,-34.0
1606837537.2599,-278.0
1606837537.2619,-144.0
1606837537.2638,-193.0
1606837537.2659,-249.0
1606837537.2679,-188.0
1606837537.2699,-178.0
1606837537.2719,-195.0
1606837537.2738,-166.0
1606837537.2759,-141.0
1606837537.2778,-136.0
1606837537.2799,-124.0
1606837537.2819,-112.0
1606837537.2839,-97.0
1606837537.2859,-80.0
1606837537.2878,-68.0
1606837537.2885,-61.0
1606837537.2899,-48.0
1606837537.2919,-24.0
1606837537.2939,-4.0
1606837537.2959,4.0
1606837537.2979,19.0
1606837537.7339,44.0
1606837537.7349,68.0
1606837537.7373,90.0
1606837537.74,107.0
1606837537.742,112.0
1606837537.744,114.0
1606837537.7462,110.0
1606837537.748,78.0
1606837537.7487,29.0
1606837537.751,-12.0
1606837537.7529,-41.0
1606837537.7549,-63.0
1606837537.7569,-70.0
1606837537.7589,-63.0
1606837537.7609,-61.0
1606837537.7629,-70.0
1606837537.7649,-66.0
1606837537.7669,-51.0
1606837537.7689,-41.0
1606837537.7709,-44.0
1606837537.773,-44.0
1606837537.7749,-31.0
1606837537.7769,-26.0
1606837537.7789,-31.0
1606837537.7795,-22.0
1606837537.7809,-12.0
1606837537.7829,-14.0
1606837537.7849,-12.0
1606837537.7869,-2.0
1606837537.7889,0.0
1606837537.7908,-2.0
1606837537.7928,-2.0
1606837537.7949,4.0
1606837537.7968,4.0
1606837537.7988,0.0
1606837537.8009,2.0
1606837537.8029,0.0
1606837537.8048,-4.0
1606837537.8069,-2.0
1606837537.8089,4.0
1606837537.8095,4.0
1606837537.8109,7.0
1606837537.8128,4.0
1606837537.8149,4.0
1606837537.8168,7.0
1606837537.8188,7.0
1606837537.8209,4.0
1606837537.8228,0.0
1606837537.8248,0.0
1606837537.8268,2.0
1606837537.8289,2.0
1606837537.8309,2.0
1606837537.8328,4.0
1606837537.8349,2.0
1606837537.8368,2.0
1606837537.8388,4.0
1606837537.8395,7.0
1606837537.8408,4.0
1606837537.8429,4.0
1606837537.8449,7.0
1606837537.8468,9.0
1606837537.8489,9.0
1606837537.8508,7.0
1606837537.8528,7.0
1606837537.8549,22.0
1606837537.8569,36.0
1606837537.8588,39.0
1606837537.8609,48.0
1606837537.8628,58.0
1606837537.8648,48.0
1606837537.8668,34.0
1606837537.869,29.0
1606837537.8694,22.0
1606837538.3037,19.0
1606837538.3046,39.0
1606837538.307,83.0
1606837538.3087,166.0
1606837538.3108,303.0
1606837538.3127,459.0
1606837538.3146,586.0
1606837538.3167,706.0
1606837538.3187,951.0
1606837538.3207,1286.0
1606837538.3226,1249.0
1606837538.3246,542.0
1606837538.3266,-146.0
1606837538.3273,-210.0
1606837538.3287,-144.0
1606837538.3307,-246.0
1606837538.3326,-246.0
1606837538.3346,-183.0
1606837538.3366,-190.0
1606837538.3387,-188.0
1606837538.3406,-156.0
1606837538.3426,-146.0
1606837538.3446,-139.0
1606837538.3466,-122.0
1606837538.3486,-112.0
1606837538.3507,-102.0
1606837538.3527,-90.0
1606837538.3546,-80.0
1606837538.3566,-70.0
1606837538.3572,-56.0
1606837538.3586,-39.0
1606837538.3607,-26.0
1606837538.3626,-9.0
1606837538.3646,14.0
1606837538.3666,31.0
1606837538.3686,44.0
1606837538.3707,63.0
1606837538.3726,85.0
1606837538.3747,95.0
1606837538.3766,97.0
1606837538.3786,88.0
1606837538.3807,61.0
1606837538.3826,24.0
1606837538.3846,-14.0
1606837538.3866,-44.0
1606837538.3872,-58.0
1606837538.3886,-68.0
1606837538.3906,-75.0
1606837538.3926,-68.0
1606837538.3948,-63.0
1606837538.3966,-58.0
1606837538.3986,-48.0
1606837538.4007,-48.0
1606837538.4026,-51.0
1606837538.4046,-44.0
1606837538.4066,-36.0
1606837538.4086,-31.0
1606837538.4106,-19.0
1606837538.4126,-17.0
1606837538.4146,-22.0
1606837538.4166,-17.0
1606837538.4172,-9.0
1606837538.4186,-7.0
1606837538.4207,-7.0
1606837538.4226,-4.0
1606837538.4246,-4.0
1606837538.4266,-4.0
1606837538.4286,-2.0
1606837538.4307,-2.0
1606837538.4326,-4.0
1606837538.4346,4.0
1606837538.4366,9.0
1606837538.4386,4.0
1606837538.814,7.0
1606837538.8149,9.0
1606837538.8173,7.0
1606837538.8191,0.0
1606837538.8197,0.0
1606837538.8211,2.0
1606837538.823,-4.0
1606837538.825,-7.0
1606837538.827,-4.0
1606837538.829,-9.0
1606837538.831,-17.0
1606837538.833,-14.0
1606837538.8349,-12.0
1606837538.837,-12.0
1606837538.839,-12.0
1606837538.841,-7.0
1606837538.843,-2.0
1606837538.845,-2.0
1606837538.847,-12.0
1606837538.849,-14.0
1606837538.8496,-2.0
1606837538.851,0.0
1606837538.8529,-4.0
1606837538.855,2.0
1606837538.8569,4.0
1606837538.8589,0.0
1606837538.861,2.0
1606837538.8631,7.0
1606837538.865,7.0
1606837538.8669,4.0
1606837538.8689,4.0
1606837538.871,14.0
1606837538.8729,19.0
1606837538.875,9.0
1606837538.877,2.0
1606837538.8776,14.0
1606837538.8789,24.0
1606837538.881,34.0
1606837538.8829,41.0
1606837538.8849,48.0
1606837538.8869,46.0
1606837538.889,31.0
1606837538.8909,26.0
1606837538.8929,22.0
1606837538.8949,19.0
1606837538.8969,26.0
1606837538.8989,53.0
1606837538.901,112.0
1606837538.9029,227.0
1606837538.9049,386.0
1606837538.9069,525.0
1606837538.9075,635.0
1606837538.9089,833.0
1606837538.911,1168.0
1606837538.9129,1305.0
1606837538.9149,807.0
1606837538.9169,51.0
1606837538.9189,-188.0
1606837538.921,-119.0
1606837538.9229,-200.0
1606837538.9249,-244.0
1606837538.9269,-183.0
1606837538.929,-183.0
1606837538.931,-200.0
1606837538.9329,-173.0
1606837538.935,-154.0
1606837538.9369,-146.0
1606837538.9375,-129.0
1606837538.9389,-114.0
1606837538.9409,-107.0
1606837538.9429,-97.0
1606837538.945,-85.0
1606837538.9469,-70.0
1606837539.4138,-61.0
1606837539.4147,-48.0
1606837539.4172,-41.0
1606837539.4199,-39.0
1606837539.4218,-24.0
1606837539.4241,7.0
1606837539.4259,29.0
1606837539.4266,41.0
1606837539.4278,56.0
1606837539.4298,73.0
1606837539.4319,83.0
1606837539.4338,78.0
1606837539.4358,56.0
1606837539.4378,19.0
1606837539.4398,-19.0
1606837539.4418,-51.0
1606837539.4438,-68.0
1606837539.4458,-75.0
1606837539.4478,-83.0
1606837539.4498,-88.0
1606837539.4518,-85.0
1606837539.4538,-78.0
1606837539.4558,-73.0
1606837539.4564,-70.0
1606837539.4578,-63.0
1606837539.4598,-58.0
1606837539.4618,-53.0
1606837539.4637,-51.0
1606837539.4657,-46.0
1606837539.4677,-44.0
1606837539.47,-41.0
1606837539.4718,-39.0
1606837539.4738,-31.0
1606837539.4758,-26.0
1606837539.4779,-34.0
1606837539.4798,-36.0
1606837539.4817,-29.0
1606837539.4837,-29.0
1606837539.4858,-29.0
1606837539.4864,-24.0
1606837539.4879,-19.0
1606837539.4898,-19.0
1606837539.4917,-22.0
1606837539.4937,-17.0
1606837539.4958,-9.0
1606837539.4977,-9.0
1606837539.4998,-12.0
1606837539.5018,-9.0
1606837539.5038,-9.0
1606837539.5058,-9.0
1606837539.5077,-7.0
1606837539.5097,-7.0
1606837539.5118,-14.0
1606837539.5139,-17.0
1606837539.5157,-14.0
1606837539.5165,-12.0
1606837539.5189,-14.0
1606837539.5207,-14.0
1606837539.5227,-7.0
1606837539.5248,-7.0
1606837539.5268,-12.0
1606837539.5288,-22.0
1606837539.5308,-19.0
1606837539.5328,-9.0
1606837539.5348,-7.0
1606837539.5368,-14.0
1606837539.5388,-9.0
1606837539.5408,0.0
1606837539.5428,-2.0
1606837539.5448,-7.0
1606837539.5468,-4.0
1606837539.5474,2.0
1606837539.5488,4.0
1606837539.9838,2.0
1606837539.9847,0.0
1606837539.9864,-2.0
1606837539.9884,-7.0
1606837539.9904,-7.0
1606837539.9924,-2.0
1606837539.9944,0.0
1606837539.9964,-7.0
1606837539.9984,-19.0
1606837540.0004,-22.0
1606837540.0024,-7.0
1606837540.0044,7.0
1606837540.005,17.0
1606837540.0064,26.0
1606837540.0084,31.0
1606837540.0104,24.0
1606837540.0123,17.0
1606837540.0143,14.0
1606837540.0163,7.0
1606837540.0183,2.0
1606837540.0203,12.0
1606837540.0224,44.0
1606837540.0243,114.0
1606837540.0265,244.0
1606837540.0283,401.0
1606837540.0303,528.0
1606837540.0323,640.0
1606837540.0343,873.0
1606837540.0349,1232.0
1606837540.0363,1291.0
1606837540.0383,665.0
1606837540.0403,-73.0
1606837540.0423,-217.0
1606837540.0443,-134.0
1606837540.0464,-222.0
1606837540.0483,-249.0
1606837540.0503,-185.0
1606837540.0522,-180.0
1606837540.0542,-190.0
1606837540.0563,-163.0
1606837540.0582,-144.0
1606837540.0603,-139.0
1606837540.0623,-127.0
1606837540.0643,-107.0
1606837540.0649,-95.0
1606837540.0662,-80.0
1606837540.0683,-68.0
1606837540.0702,-63.0
1606837540.0722,-51.0
1606837540.0742,-31.0
1606837540.0763,-22.0
1606837540.0783,-12.0
1606837540.0803,12.0
1606837540.0822,39.0
1606837540.0843,58.0
1606837540.0863,70.0
1606837540.0883,88.0
1606837540.0903,105.0
1606837540.0923,114.0
1606837540.0942,105.0
1606837540.0949,78.0
1606837540.0963,31.0
1606837540.0982,-14.0
1606837540.1003,-41.0
1606837540.1022,-61.0
1606837540.1043,-80.0
1606837540.1063,-88.0
1606837540.1082,-83.0
1606837540.1102,-80.0
1606837540.1122,-85.0
1606837540.1142,-80.0
1606837540.1163,-68.0
1606837540.1183,-61.0
1606837540.524,-58.0
1606837540.525,-56.0
1606837540.5274,-53.0
1606837540.5286,-48.0
1606837540.5301,-46.0
1606837540.532,-44.0
1606837540.534,-39.0
1606837540.5361,-34.0
1606837540.5381,-34.0
1606837540.5401,-36.0
1606837540.542,-39.0
1606837540.544,-41.0
1606837540.5463,-41.0
1606837540.5481,-41.0
1606837540.55,-36.0
1606837540.552,-34.0
1606837540.554,-26.0
1606837540.556,-22.0
1606837540.558,-26.0
1606837540.5586,-29.0
1606837540.56,-26.0
1606837540.562,-29.0
1606837540.564,-26.0
1606837540.566,-29.0
1606837540.568,-31.0
1606837540.57,-34.0
1606837540.572,-29.0
1606837540.574,-26.0
1606837540.576,-26.0
1606837540.5781,-24.0
1606837540.58,-19.0
1606837540.582,-22.0
1606837540.584,-24.0
1606837540.586,-22.0
1606837540.588,-14.0
1606837540.5886,-7.0
1606837540.59,-12.0
1606837540.5919,-19.0
1606837540.5939,-12.0
1606837540.5959,-4.0
1606837540.5979,-9.0
1606837540.5999,-12.0
1606837540.602,-7.0
1606837540.6039,-12.0
1606837540.6059,-12.0
1606837540.608,4.0
1606837540.6099,19.0
1606837540.6119,26.0
1606837540.614,29.0
1606837540.6159,26.0
1606837540.6179,24.0
1606837540.6185,17.0
1606837540.62,2.0
1606837540.622,-2.0
1606837540.6239,9.0
1606837540.6259,24.0
1606837540.628,58.0
1606837540.63,151.0
1606837540.632,300.0
1606837540.6339,435.0
1606837540.6359,523.0
1606837540.6379,650.0
1606837540.6399,965.0
1606837540.6421,1330.0
1606837540.644,1178.0
1606837540.6459,371.0
1606837540.6479,-234.0
1606837540.6485,-212.0
1606837540.6499,-156.0
1606837540.652,-249.0
1606837540.6539,-224.0
1606837540.656,-173.0
1606837540.6579,-193.0
1606837541.0934,-183.0
1606837541.0942,-154.0
1606837541.0967,-154.0
1606837541.0994,-144.0
1606837541.1014,-112.0
1606837541.1035,-105.0
1606837541.1055,-110.0
1606837541.1061,-97.0
1606837541.1073,-75.0
1606837541.1093,-63.0
1606837541.1114,-51.0
1606837541.1133,-29.0
1606837541.1153,-17.0
1606837541.1173,-4.0
1606837541.1193,17.0
1606837541.1213,44.0
1606837541.1233,68.0
1606837541.1253,88.0
1606837541.1273,102.0
1606837541.1293,112.0
1606837541.1313,112.0
1606837541.1332,100.0
1606837541.1352,66.0
1606837541.1358,17.0
1606837541.1372,-31.0
1606837541.1392,-61.0
1606837541.1414,-75.0
1606837541.1433,-78.0
1606837541.1453,-78.0
1606837541.1472,-75.0
1606837541.1492,-78.0
1606837541.1512,-73.0
1606837541.1532,-63.0
1606837541.1552,-63.0
1606837541.1572,-63.0
1606837541.1592,-56.0
1606837541.1613,-48.0
1606837541.1632,-46.0
1606837541.1653,-41.0
1606837541.1658,-36.0
1606837541.1672,-34.0
1606837541.1694,-26.0
1606837541.1713,-26.0
1606837541.1732,-26.0
1606837541.1752,-22.0
1606837541.1772,-22.0
1606837541.1792,-19.0
1606837541.1812,-12.0
1606837541.1832,-7.0
1606837541.1853,-12.0
1606837541.1872,-12.0
1606837541.1892,-4.0
1606837541.1913,-7.0
1606837541.1932,-17.0
1606837541.1952,-17.0
1606837541.1958,-14.0
1606837541.1973,-22.0
1606837541.1993,-24.0
1606837541.2014,-19.0
1606837541.2034,-17.0
1606837541.2053,-19.0
1606837541.2073,-17.0
1606837541.2092,-17.0
1606837541.2112,-17.0
1606837541.2132,-9.0
1606837541.2152,-9.0
1606837541.2172,-14.0
1606837541.2192,-14.0
1606837541.2213,-7.0
1606837541.2232,-4.0
1606837541.2252,-7.0
1606837541.2258,-4.0
1606837541.2272,-2.0
1606837541.634,-2.0
1606837541.6349,2.0
1606837541.6374,2.0
1606837541.6401,-2.0
1606837541.642,-7.0
1606837541.644,-2.0
1606837541.6461,12.0
1606837541.648,19.0
1606837541.65,24.0
1606837541.652,34.0
1606837541.6541,36.0
1606837541.6562,19.0
1606837541.658,4.0
1606837541.66,4.0
1606837541.6607,4.0
1606837541.6619,9.0
1606837541.664,31.0
1606837541.6659,85.0
1606837541.6679,198.0
1606837541.6702,354.0
1606837541.672,496.0
1606837541.674,606.0
1606837541.676,775.0
1606837541.678,1107.0
1606837541.68,1389.0
1606837541.6819,1071.0
1606837541.6839,227.0
1606837541.6859,-232.0
1606837541.6879,-158.0
1606837541.6899,-183.0
1606837541.6906,-281.0
1606837541.6919,-232.0
1606837541.694,-190.0
1606837541.6959,-210.0
1606837541.6979,-190.0
1606837541.6999,-163.0
1606837541.702,-158.0
1606837541.7039,-146.0
1606837541.7059,-127.0
1606837541.7079,-117.0
1606837541.7099,-102.0
1606837541.7119,-85.0
1606837541.7139,-73.0
1606837541.7159,-63.0
1606837541.7179,-48.0
1606837541.7199,-41.0
1606837541.7206,-34.0
1606837541.7219,-14.0
1606837541.7239,7.0
1606837541.7259,29.0
1606837541.7279,48.0
1606837541.7299,68.0
1606837541.732,85.0
1606837541.734,97.0
1606837541.7359,97.0
1606837541.7379,80.0
1606837541.7399,46.0
1606837541.7419,0.0
1606837541.7439,-39.0
1606837541.7459,-66.0
1606837541.7479,-80.0
1606837541.7499,-85.0
1606837541.7506,-85.0
1606837541.7519,-85.0
1606837541.7539,-80.0
1606837541.7559,-73.0
1606837541.7579,-73.0
1606837541.7599,-68.0
1606837541.7619,-53.0
1606837541.7639,-48.0
1606837541.7661,-53.0
1606837541.768,-48.0
1606837541.7699,-41.0
1606837542.2334,-36.0
1606837542.2342,-31.0
1606837542.236,-26.0
1606837542.2384,-29.0
1606837542.2404,-39.0
1606837542.2423,-41.0
1606837542.2443,-39.0
1606837542.2463,-36.0
1606837542.2483,-34.0
1606837542.2503,-34.0
1606837542.2523,-29.0
1606837542.2543,-24.0
1606837542.2564,-19.0
1606837542.2583,-19.0
1606837542.2603,-19.0
1606837542.2623,-24.0
1606837542.2643,-29.0
1606837542.2662,-26.0
1606837542.2669,-22.0
1606837542.2682,-17.0
1606837542.2703,-19.0
1606837542.2722,-22.0
1606837542.2742,-19.0
1606837542.2763,-17.0
1606837542.2782,-17.0
1606837542.2802,-17.0
1606837542.2822,-12.0
1606837542.2842,-12.0
1606837542.2862,-12.0
1606837542.2882,-7.0
1606837542.2902,-4.0
1606837542.2922,-2.0
1606837542.2942,2.0
1606837542.2962,4.0
1606837542.2968,2.0
1606837542.2982,2.0
1606837542.3002,7.0
1606837542.3022,7.0
1606837542.3042,4.0
1606837542.3062,0.0
1606837542.3083,0.0
1606837542.3102,2.0
1606837542.3122,7.0
1606837542.3142,9.0
1606837542.3162,9.0
1606837542.3182,9.0
1606837542.3202,7.0
1606837542.3222,9.0
1606837542.3244,9.0
1606837542.3262,9.0
1606837542.3268,12.0
1606837542.3282,9.0
1606837542.3302,9.0
1606837542.3322,22.0
1606837542.3342,41.0
1606837542.3362,48.0
1606837542.3382,48.0
1606837542.3402,46.0
1606837542.3422,36.0
1606837542.3442,29.0
1606837542.3462,24.0
1606837542.3482,24.0
1606837542.3502,29.0
1606837542.3522,51.0
1606837542.3542,114.0
1606837542.3562,244.0
1606837542.3568,403.0
1606837542.3583,535.0
1606837542.3602,650.0
1606837542.3622,863.0
1606837542.3642,1208.0
1606837542.3662,1337.0
1606837542.3682,811.0
1606837542.8034,41.0
1606837542.8043,-190.0
1606837542.8067,-119.0
1606837542.8084,-202.0
1606837542.8104,-244.0
1606837542.8124,-185.0
1606837542.8144,-183.0
1606837542.8164,-190.0
1606837542.8184,-161.0
1606837542.819,-154.0
1606837542.8205,-156.0
1606837542.8224,-139.0
1606837542.8244,-119.0
1606837542.8263,-107.0
1606837542.8284,-97.0
1606837542.8304,-88.0
1606837542.8324,-75.0
1606837542.8343,-53.0
1606837542.8363,-41.0
1606837542.8383,-31.0
1606837542.8405,-12.0
1606837542.8424,2.0
1606837542.8443,17.0
1606837542.8463,41.0
1606837542.8469,68.0
1606837542.8483,83.0
1606837542.8505,95.0
1606837542.8524,102.0
1606837542.8544,102.0
1606837542.8563,90.0
1606837542.8583,53.0
1606837542.8603,0.0
1606837542.8624,-44.0
1606837542.8643,-63.0
1606837542.8663,-73.0
1606837542.8683,-75.0
1606837542.8703,-73.0
1606837542.8723,-75.0
1606837542.8743,-73.0
1606837542.8763,-68.0
1606837542.8769,-68.0
1606837542.8783,-63.0
1606837542.8803,-53.0
1606837542.8823,-48.0
1606837542.8843,-48.0
1606837542.8863,-46.0
1606837542.8883,-36.0
1606837542.8903,-31.0
1606837542.8923,-36.0
1606837542.8943,-36.0
1606837542.8963,-31.0
1606837542.8983,-29.0
1606837542.9003,-24.0
1606837542.9023,-24.0
1606837542.9043,-26.0
1606837542.9063,-22.0
1606837542.9069,-14.0
1606837542.9083,-19.0
1606837542.9103,-19.0
1606837542.9123,-14.0
1606837542.9143,-14.0
1606837542.9163,-17.0
1606837542.9183,-14.0
1606837542.9203,-14.0
1606837542.9223,-17.0
1606837542.9243,-14.0
1606837542.9263,-9.0
1606837542.9283,-4.0
1606837542.9303,-7.0
1606837542.9323,-7.0
1606837542.9343,-9.0
1606837542.9363,-14.0
1606837542.9369,-14.0
1606837543.3438,-12.0
1606837543.3447,-7.0
1606837543.3471,-2.0
1606837543.3488,-4.0
1606837543.3511,-7.0
1606837543.3528,-2.0
1606837543.3548,-2.0
1606837543.3568,0.0
1606837543.3588,2.0
1606837543.3608,4.0
1606837543.3628,2.0
1606837543.3648,-4.0
1606837543.3668,-9.0
1606837543.3674,-4.0
1606837543.3688,-2.0
1606837543.3708,-4.0
1606837543.3727,2.0
1606837543.3747,7.0
1606837543.3768,4.0
1606837543.3787,2.0
1606837543.3808,2.0
1606837543.3827,12.0
1606837543.3847,17.0
1606837543.3868,9.0
1606837543.3887,2.0
1606837543.3907,2.0
1606837543.3927,9.0
1606837543.3947,7.0
1606837543.3967,7.0
1606837543.3973,12.0
1606837543.3987,9.0
1606837543.4008,2.0
1606837543.4027,-2.0
1606837543.4047,0.0
1606837543.4067,17.0
1606837543.4087,34.0
1606837543.4108,41.0
1606837543.4127,44.0
1606837543.4147,41.0
1606837543.4167,29.0
1606837543.4187,26.0
1606837543.4208,22.0
1606837543.4227,17.0
1606837543.4247,31.0
1606837543.4267,56.0
1606837543.4273,105.0
1606837543.4287,215.0
1606837543.4308,376.0
1606837543.4327,520.0
1606837543.4347,626.0
1606837543.4367,792.0
1606837543.4387,1110.0
1606837543.4407,1340.0
1606837543.4427,987.0
1606837543.4447,195.0
1606837543.4469,-193.0
1606837543.4488,-124.0
1606837543.4508,-163.0
1606837543.4527,-246.0
1606837543.4547,-193.0
1606837543.4567,-161.0
1606837543.4573,-185.0
1606837543.4587,-166.0
1606837543.4608,-132.0
1606837543.4627,-127.0
1606837543.4647,-122.0
1606837543.4668,-107.0
1606837543.4687,-95.0
1606837543.4708,-83.0
1606837543.4727,-70.0
1606837543.4747,-61.0
1606837543.4767,-46.0
1606837543.4787,-34.0
1606837543.9438,-19.0
1606837543.9447,-4.0
1606837543.9472,4.0
1606837543.9483,22.0
1606837543.9498,44.0
1606837543.9518,68.0
1606837543.9538,88.0
1606837543.9559,100.0
1606837543.9578,105.0
1606837543.9598,102.0
1606837543.9618,92.0
1606837543.9637,63.0
1606837543.9657,17.0
1606837543.9677,-24.0
1606837543.9698,-51.0
1606837543.9718,-66.0
1606837543.9738,-78.0
1606837543.9757,-88.0
1606837543.9777,-80.0
1606837543.9783,-75.0
1606837543.9798,-78.0
1606837543.9818,-75.0
1606837543.9837,-73.0
1606837543.9857,-73.0
1606837543.9878,-68.0
1606837543.9897,-56.0
1606837543.9917,-51.0
1606837543.9937,-56.0
1606837543.9957,-56.0
1606837543.9977,-44.0
1606837543.9998,-39.0
1606837544.0017,-41.0
1606837544.0037,-44.0
1606837544.0059,-36.0
1606837544.0077,-31.0
1606837544.0083,-31.0
1606837544.0097,-34.0
1606837544.0118,-31.0
1606837544.0139,-31.0
1606837544.0158,-36.0
1606837544.0177,-31.0
1606837544.0189,-22.0
1606837544.0207,-22.0
1606837544.0227,-24.0
1606837544.0247,-24.0
1606837544.0267,-19.0
1606837544.0287,-17.0
1606837544.0308,-19.0
1606837544.0327,-24.0
1606837544.0348,-17.0
1606837544.0354,-9.0
1606837544.0367,-14.0
1606837544.0387,-19.0
1606837544.0408,-19.0
1606837544.0427,-19.0
1606837544.0447,-22.0
1606837544.0467,-22.0
1606837544.0487,-14.0
1606837544.0508,-9.0
1606837544.0527,-9.0
1606837544.0547,-12.0
1606837544.0567,-14.0
1606837544.0587,-14.0
1606837544.0607,-4.0
1606837544.0627,-2.0
1606837544.0647,-7.0
1606837544.0653,-12.0
1606837544.0667,-12.0
1606837544.0687,-7.0
1606837544.0708,-7.0
1606837544.0727,-7.0
1606837544.0747,-2.0
1606837544.0767,2.0
1606837544.4539,2.0
1606837544.4548,-2.0
1606837544.4573,-2.0
1606837544.459,0.0
1606837544.461,-2.0
1606837544.4629,-9.0
1606837544.4649,-14.0
1606837544.4655,-2.0
1606837544.4669,14.0
1606837544.4689,24.0
1606837544.471,26.0
1606837544.4731,22.0
1606837544.475,9.0
1606837544.4769,-9.0
1606837544.4789,-19.0
1606837544.4809,-19.0
1606837544.4829,-22.0
1606837544.4849,-12.0
1606837544.4869,12.0
1606837544.4889,73.0
1606837544.4909,202.0
1606837544.4928,352.0
1606837544.4948,452.0
1606837544.4955,542.0
1606837544.4968,787.0
1606837544.4988,1183.0
1606837544.5009,1300.0
1606837544.5028,699.0
1606837544.5048,-107.0
1606837544.5068,-286.0
1606837544.5088,-156.0
1606837544.5109,-229.0
1606837544.5129,-273.0
1606837544.5148,-210.0
1606837544.5169,-210.0
1606837544.5188,-220.0
1606837544.5209,-183.0
1606837544.5228,-166.0
1606837544.5249,-161.0
1606837544.5254,-139.0
1606837544.5268,-122.0
1606837544.5288,-117.0
1606837544.5308,-107.0
1606837544.5328,-90.0
1606837544.5348,-75.0
1606837544.5368,-61.0
1606837544.5388,-41.0
1606837544.5408,-26.0
1606837544.5428,-14.0
1606837544.5448,7.0
1606837544.5468,31.0
1606837544.5488,56.0
1606837544.5509,75.0
1606837544.5528,90.0
1606837544.5548,100.0
1606837544.5554,107.0
1606837544.5568,102.0
1606837544.5588,75.0
1606837544.5609,31.0
1606837544.5628,-14.0
1606837544.5648,-58.0
1606837544.5668,-88.0
1606837544.569,-102.0
1606837544.5709,-112.0
1606837544.5728,-114.0
1606837544.5749,-112.0
1606837544.5768,-105.0
1606837544.5789,-102.0
1606837544.5809,-102.0
1606837544.5828,-92.0
1606837544.5848,-85.0
1606837544.5854,-85.0
1606837544.5868,-85.0
1606837544.9936,-78.0
1606837544.9945,-75.0
1606837544.9963,-73.0
1606837544.9982,-73.0
1606837545.0002,-75.0
1606837545.0022,-70.0
1606837545.0042,-70.0
1606837545.0062,-75.0
1606837545.0082,-70.0
1606837545.0102,-53.0
1606837545.0122,-53.0
1606837545.0142,-56.0
1606837545.0148,-41.0
1606837545.0162,-36.0
1606837545.0182,-46.0
1606837545.0202,-44.0
1606837545.0221,-34.0
1606837545.0241,-31.0
1606837545.0261,-36.0
1606837545.0281,-36.0
1606837545.0301,-29.0
1606837545.0321,-24.0
1606837545.0341,-29.0
1606837545.0361,-31.0
1606837545.0381,-29.0
1606837545.0401,-26.0
1606837545.0421,-24.0
1606837545.0441,-19.0
1606837545.0447,-17.0
1606837545.0461,-12.0
1606837545.0481,-12.0
1606837545.0501,-9.0
1606837545.0521,-7.0
1606837545.0541,-4.0
1606837545.0561,0.0
1606837545.0581,-2.0
1606837545.0601,-7.0
1606837545.0621,2.0
1606837545.0641,4.0
1606837545.0661,-2.0
1606837545.0683,0.0
1606837545.0702,7.0
1606837545.0721,22.0
1606837545.0741,41.0
1606837545.0748,46.0
1606837545.0761,41.0
1606837545.0782,34.0
1606837545.0801,31.0
1606837545.0821,29.0
1606837545.0841,17.0
1606837545.0861,12.0
1606837545.0881,36.0
1606837545.0901,83.0
1606837545.0921,166.0
1606837545.0941,310.0
1606837545.0961,467.0
1606837545.0981,569.0
1606837545.1001,689.0
1606837545.1021,968.0
1606837545.1041,1327.0
1606837545.1047,1288.0
1606837545.1061,547.0
1606837545.1082,-176.0
1606837545.1101,-234.0
1606837545.1121,-139.0
1606837545.1141,-239.0
1606837545.1161,-246.0
1606837545.1181,-183.0
1606837545.1201,-202.0
1606837545.1221,-207.0
1606837545.1241,-173.0
1606837545.1261,-161.0
1606837545.1282,-158.0
1606837545.5638,-134.0
1606837545.5647,-117.0
1606837545.5746,-112.0
1606837545.5768,-102.0
1606837545.5788,-95.0
1606837545.5808,-88.0
1606837545.5827,-68.0
1606837545.5847,-44.0
1606837545.5867,-29.0
1606837545.5888,-17.0
1606837545.5907,4.0
1606837545.5927,26.0
1606837545.5947,44.0
1606837545.5967,66.0
1606837545.5987,83.0
1606837545.6007,95.0
1606837545.6027,100.0
1606837545.6033,92.0
1606837545.6049,70.0
1606837545.6067,29.0
1606837545.6087,-22.0
1606837545.6107,-58.0
1606837545.6127,-75.0
1606837545.6147,-83.0
1606837545.6168,-85.0
1606837545.6187,-85.0
1606837545.6206,-85.0
1606837545.6227,-85.0
1606837545.6247,-83.0
1606837545.6266,-78.0
1606837545.6287,-70.0
1606837545.6307,-68.0
1606837545.6327,-68.0
1606837545.6333,-58.0
1606837545.6346,-48.0
1606837545.6367,-51.0
1606837545.6386,-51.0
1606837545.6407,-44.0
1606837545.6426,-41.0
1606837545.6446,-41.0
1606837545.6466,-36.0
1606837545.6487,-29.0
1606837545.6507,-26.0
1606837545.6527,-22.0
1606837545.6546,-17.0
1606837545.6566,-19.0
1606837545.6586,-19.0
1606837545.6607,-14.0
1606837545.6627,-9.0
1606837545.6633,-7.0
1606837545.6646,-4.0
1606837545.6666,-4.0
1606837545.6687,-4.0
1606837545.6707,-7.0
1606837545.6726,-4.0
1606837545.6746,0.0
1606837545.6766,0.0
1606837545.6787,-2.0
1606837545.6808,0.0
1606837545.6826,0.0
1606837545.6846,-4.0
1606837545.6866,-9.0
1606837545.6886,-4.0
1606837545.6906,-4.0
1606837545.6926,-4.0
1606837545.6933,2.0
1606837545.6946,4.0
1606837545.6966,2.0
1606837545.6986,4.0
1606837545.7009,7.0
1606837545.7027,2.0
1606837545.7047,9.0
1606837545.7066,19.0
1606837546.1641,14.0
1606837546.1652,12.0
1606837546.1677,17.0
1606837546.1704,17.0
1606837546.1723,12.0
1606837546.1743,9.0
1606837546.175,7.0
1606837546.1764,12.0
1606837546.1783,12.0
1606837546.1803,7.0
1606837546.1823,7.0
1606837546.1843,14.0
1606837546.1863,17.0
1606837546.1883,12.0
1606837546.1903,9.0
1606837546.1922,14.0
1606837546.1942,31.0
1606837546.1962,46.0
1606837546.1982,51.0
1606837546.2003,48.0
1606837546.2022,39.0
1606837546.2043,29.0
1606837546.205,22.0
1606837546.2063,17.0
1606837546.2083,14.0
1606837546.2103,31.0
1606837546.2123,68.0
1606837546.2143,144.0
1606837546.2163,281.0
1606837546.2182,437.0
1606837546.2202,560.0
1606837546.2222,689.0
1606837546.2242,953.0
1606837546.2262,1296.0
1606837546.2282,1244.0
1606837546.2302,545.0
1606837546.2322,-107.0
1606837546.2342,-168.0
1606837546.2349,-129.0
1606837546.2362,-237.0
1606837546.2382,-229.0
1606837546.2402,-171.0
1606837546.2422,-183.0
1606837546.2442,-180.0
1606837546.2462,-149.0
1606837546.2482,-141.0
1606837546.2502,-136.0
1606837546.2525,-117.0
1606837546.2543,-102.0
1606837546.2562,-92.0
1606837546.2582,-83.0
1606837546.2602,-75.0
1606837546.2622,-63.0
1606837546.2642,-51.0
1606837546.2649,-41.0
1606837546.2662,-29.0
1606837546.2682,-9.0
1606837546.2703,9.0
1606837546.2722,29.0
1606837546.2742,53.0
1606837546.2762,75.0
1606837546.2782,92.0
1606837546.2802,110.0
1606837546.2822,117.0
1606837546.2842,112.0
1606837546.2862,90.0
1606837546.2882,48.0
1606837546.2902,7.0
1606837546.2922,-29.0
1606837546.2942,-53.0
1606837546.2949,-68.0
1606837546.2962,-73.0
1606837546.2982,-75.0
1606837546.7035,-70.0
1606837546.7044,-63.0
1606837546.7068,-66.0
1606837546.7085,-66.0
1606837546.7106,-53.0
1606837546.7125,-48.0
1606837546.7145,-48.0
1606837546.7165,-44.0
1606837546.7185,-44.0
1606837546.7205,-48.0
1606837546.7224,-51.0
1606837546.7244,-51.0
1606837546.7264,-46.0
1606837546.7271,-39.0
1606837546.7284,-36.0
1606837546.7305,-39.0
1606837546.7324,-36.0
1606837546.7344,-31.0
1606837546.7364,-29.0
1606837546.7385,-26.0
1606837546.7405,-22.0
1606837546.7424,-19.0
1606837546.7444,-19.0
1606837546.7464,-14.0
1606837546.7484,-9.0
1606837546.7507,-7.0
1606837546.7525,-7.0
1606837546.7544,-4.0
1606837546.7564,0.0
1606837546.757,0.0
1606837546.7584,-7.0
1606837546.7604,-7.0
1606837546.7624,-4.0
1606837546.7644,-4.0
1606837546.7664,0.0
1606837546.7684,-2.0
1606837546.7705,0.0
1606837546.7724,2.0
1606837546.7744,-2.0
1606837546.7764,-2.0
1606837546.7783,2.0
1606837546.7805,0.0
1606837546.7824,-2.0
1606837546.7844,0.0
1606837546.7864,2.0
1606837546.787,0.0
1606837546.7884,0.0
1606837546.7905,4.0
1606837546.7924,9.0
1606837546.7944,7.0
1606837546.7964,2.0
1606837546.7984,9.0
1606837546.8005,12.0
1606837546.8024,4.0
1606837546.8044,9.0
1606837546.8064,14.0
1606837546.8085,14.0
1606837546.8105,14.0
1606837546.8124,14.0
1606837546.8144,17.0
1606837546.8164,19.0
1606837546.817,19.0
1606837546.8184,19.0
1606837546.8205,22.0
1606837546.8224,19.0
1606837546.8244,19.0
1606837546.8264,29.0
1606837546.8284,44.0
1606837546.8305,46.0
1606837546.8324,46.0
1606837546.8344,53.0
1606837546.8364,51.0
1606837546.8384,36.0
1606837547.2734,24.0
1606837547.2743,17.0
1606837547.2768,17.0
1606837547.2797,31.0
1606837547.2814,66.0
1606837547.2834,134.0
1606837547.2855,261.0
1606837547.2874,413.0
1606837547.2894,528.0
1606837547.2914,645.0
1606837547.2934,885.0
1606837547.2955,1210.0
1606837547.2975,1227.0
1606837547.2994,618.0
1606837547.3014,-61.0
1606837547.3034,-185.0
1606837547.3053,-132.0
1606837547.306,-227.0
1606837547.3073,-239.0
1606837547.3094,-183.0
1606837547.3114,-188.0
1606837547.3134,-190.0
1606837547.3153,-158.0
1606837547.3173,-141.0
1606837547.3193,-136.0
1606837547.3213,-122.0
1606837547.3233,-105.0
1606837547.3253,-92.0
1606837547.3273,-78.0
1606837547.3293,-66.0
1606837547.3314,-63.0
1606837547.3334,-58.0
1606837547.3353,-46.0
1606837547.3359,-29.0
1606837547.3373,-12.0
1606837547.3393,9.0
1606837547.3413,29.0
1606837547.3433,46.0
1606837547.3453,58.0
1606837547.3473,68.0
1606837547.3493,83.0
1606837547.3513,95.0
1606837547.3533,92.0
1606837547.3553,66.0
1606837547.3573,26.0
1606837547.3593,-9.0
1606837547.3614,-44.0
1606837547.3633,-70.0
1606837547.3653,-85.0
1606837547.3659,-97.0
1606837547.3673,-102.0
1606837547.3693,-97.0
1606837547.3713,-88.0
1606837547.3733,-75.0
1606837547.3754,-73.0
1606837547.3773,-75.0
1606837547.3793,-70.0
1606837547.3813,-61.0
1606837547.3833,-56.0
1606837547.3853,-56.0
1606837547.3873,-56.0
1606837547.3893,-56.0
1606837547.3913,-51.0
1606837547.3934,-46.0
1606837547.3953,-51.0
1606837547.3959,-48.0
1606837547.3973,-41.0
1606837547.3993,-41.0
1606837547.4013,-39.0
1606837547.4033,-34.0
1606837547.4053,-34.0
1606837547.4073,-29.0
1606837547.4093,-26.0
1606837547.8138,-29.0
1606837547.8147,-19.0
1606837547.8172,-9.0
1606837547.8198,-9.0
1606837547.8218,-9.0
1606837547.8237,-14.0
1606837547.8258,-22.0
1606837547.8277,-17.0
1606837547.8285,-14.0
1606837547.8298,-22.0
1606837547.8318,-19.0
1606837547.8337,-14.0
1606837547.8357,-17.0
1606837547.8377,-14.0
1606837547.8402,-9.0
1606837547.8411,-9.0
1606837547.8447,-7.0
1606837547.8486,-7.0
1606837547.8558,-12.0
1606837547.8575,-9.0
1606837547.8588,-4.0
1606837547.8608,-2.0
1606837547.8627,2.0
1606837547.8647,4.0
1606837547.8667,-2.0
1606837547.8687,-4.0
1606837547.8708,2.0
1606837547.8728,2.0
1606837547.8747,2.0
1606837547.8767,4.0
1606837547.8787,7.0
1606837547.8808,7.0
1606837547.8829,4.0
1606837547.8847,-2.0
1606837547.8867,-2.0
1606837547.8873,0.0
1606837547.8887,-2.0
1606837547.8908,2.0
1606837547.8928,24.0
1606837547.8945,44.0
1606837547.8967,44.0
1606837547.8987,41.0
1606837547.9008,39.0
1606837547.9027,29.0
1606837547.9048,14.0
1606837547.9068,7.0
1606837547.9088,17.0
1606837547.9108,34.0
1606837547.9127,58.0
1606837547.9147,134.0
1606837547.9167,273.0
1606837547.9187,415.0
1606837547.9207,513.0
1606837547.9227,626.0
1606837547.9247,882.0
1606837547.9254,1244.0
1606837547.9267,1261.0
1606837547.9328,589.0
1606837547.9378,-136.0
1606837547.9397,-227.0
1606837547.9418,-129.0
1606837547.9437,-217.0
1606837547.9457,-237.0
1606837547.9477,-173.0
1606837547.9497,-171.0
1606837547.9517,-173.0
1606837547.9537,-146.0
1606837547.9557,-134.0
1606837547.9577,-129.0
1606837547.9584,-114.0
1606837547.9597,-102.0
1606837547.9617,-92.0
1606837547.9637,-75.0
1606837548.3838,-58.0
1606837548.3847,-48.0
1606837548.3872,-34.0
1606837548.3899,-17.0
1606837548.3919,-2.0
1606837548.3938,12.0
1606837548.3959,24.0
1606837548.3978,39.0
1606837548.3998,63.0
1606837548.4018,90.0
1606837548.4027,105.0
1606837548.4038,119.0
1606837548.4058,132.0
1606837548.4078,124.0
1606837548.4098,95.0
1606837548.4117,46.0
