Time,ECG
1606914074.8236,6362
1606914074.8263,7233
1606914074.8289,8141
1606914074.8315,8701
1606914074.8337,9183
1606914074.8359,9687
1606914074.8383,10059
1606914074.8409,10356
1606914074.8423,10662
1606914074.8443,10911
1606914074.8463,11097
1606914074.8483,11287
1606914074.8507,11458
1606914074.8528,11579
1606914074.8549,11693
1606914074.8570,11813
1606914074.8591,11900
1606914074.8610,11970
1606914074.8624,12040
1606914074.8644,12095
1606914074.8663,12141
1606914074.8683,12180
1606914074.8704,12202
1606914074.8725,12231
1606914074.8743,12257
1606914074.8763,12264
1606914074.8783,12264
1606914074.8803,12274
1606914074.8822,12293
1606914074.8842,12296
1606914074.8862,12274
1606914074.8882,12264
1606914074.8903,12260
1606914074.8922,12221
1606914074.8942,12182
1606914074.8962,12161
1606914074.8982,12120
1606914074.9003,12062
1606914074.9023,12026
1606914074.9042,12001
1606914074.9062,11953
1606914074.9082,11898
1606914074.9103,11854
1606914074.9122,11818
1606914074.9142,11767
1606914074.9162,11697
1606914074.9182,11637
1606914074.9203,11565
1606914074.9223,11483
1606914074.9242,11579
1606914074.9265,12050
1606914074.9283,12559
1606914074.9303,12412
1606914074.9322,11572
1606914074.9342,10920
1606914074.9362,10908
1606914074.9382,10978
1606914074.9403,10821
1606914074.9422,10730
1606914074.9442,10727
1606914074.9462,10648
1606914074.9482,10558
1606914074.9502,10520
1606914074.9522,10462
1606914074.9542,10375
1606914074.9562,10305
1606914074.9582,10247
1606914074.9602,10180
1606914074.9622,10107
1606914074.9642,10035
1606914074.9662,9967
1606914074.9681,9905
1606914074.9702,9832
1606914075.3616,9765
1606914075.3626,9709
1606914075.3650,9651
1606914075.3676,9581
1606914075.3696,9506
1606914075.3716,9441
1606914075.3737,9371
1606914075.3756,9284
1606914075.3776,9195
1606914075.3796,9120
1606914075.3815,9031
1606914075.3835,8901
1606914075.3856,8783
1606914075.3876,8705
1606914075.3895,8614
1606914075.3915,8505
1606914075.3936,8425
1606914075.3956,8358
1606914075.3976,8276
1606914075.3995,8196
1606914075.4015,8131
1606914075.4035,8054
1606914075.4056,7960
1606914075.4075,7883
1606914075.4096,7822
1606914075.4115,7755
1606914075.4136,7675
1606914075.4155,7598
1606914075.4177,7533
1606914075.4196,7467
1606914075.4215,7395
1606914075.4235,7325
1606914075.4255,7255
1606914075.4275,7188
1606914075.4295,7118
1606914075.4315,7048
1606914075.4335,6973
1606914075.4355,6908
1606914075.4375,6835
1606914075.4395,6761
1606914075.4415,6695
1606914075.4435,6633
1606914075.4455,6560
1606914075.4475,6493
1606914075.4495,6432
1606914075.4516,6365
1606914075.4535,6290
1606914075.4555,6222
1606914075.4575,6165
1606914075.4595,6102
1606914075.4615,6032
1606914075.4635,5964
1606914075.4655,5904
1606914075.4675,5841
1606914075.4695,5776
1606914075.4715,5716
1606914075.4735,5660
1606914075.4755,5597
1606914075.4775,5532
1606914075.4795,5477
1606914075.4815,5424
1606914075.4835,5361
1606914075.4855,5298
1606914075.4875,5240
1606914075.4895,5182
1606914075.4916,5125
1606914075.4937,5069
1606914075.4955,5011
1606914075.4975,4948
1606914075.4995,4890
1606914075.5015,4847
1606914075.5035,4811
1606914075.5055,4770
1606914075.9323,4719
1606914075.9332,4666
1606914075.9357,4611
1606914075.9383,4555
1606914075.9403,4502
1606914075.9423,4444
1606914075.9446,4393
1606914075.9463,4338
1606914075.9483,4268
1606914075.9503,4212
1606914075.9522,4179
1606914075.9542,4135
1606914075.9562,4085
1606914075.9582,4039
1606914075.9603,3988
1606914075.9622,3937
1606914075.9642,3884
1606914075.9662,3805
1606914075.9682,3793
1606914075.9703,4075
1606914075.9722,4652
1606914075.9742,4956
1606914075.9762,4463
1606914075.9782,3621
1606914075.9803,3288
1606914075.9822,3426
1606914075.9842,3419
1606914075.9862,3283
1606914075.9882,3283
1606914075.9903,3288
1606914075.9922,3230
1606914075.9942,3199
1606914075.9962,3187
1606914075.9982,3153
1606914076.0002,3122
1606914076.0022,3098
1606914076.0042,3066
1606914076.0062,3037
1606914076.0082,3011
1606914076.0102,2984
1606914076.0123,2958
1606914076.0142,2938
1606914076.0162,2922
1606914076.0182,2900
1606914076.0202,2878
1606914076.0222,2866
1606914076.0244,2852
1606914076.0262,2830
1606914076.0282,2806
1606914076.0302,2774
1606914076.0322,2736
1606914076.0342,2695
1606914076.0362,2651
1606914076.0382,2601
1606914076.0402,2545
1606914076.0422,2490
1606914076.0442,2444
1606914076.0464,2405
1606914076.0483,2367
1606914076.0502,2333
1606914076.0523,2306
1606914076.0542,2280
1606914076.0562,2251
1606914076.0582,2227
1606914076.0602,2205
1606914076.0622,2181
1606914076.0642,2157
1606914076.0662,2135
1606914076.0682,2116
1606914076.0702,2096
1606914076.0722,2075
1606914076.0742,2053
1606914076.0762,2034
1606914076.4717,2012
1606914076.4726,1988
1606914076.4751,1968
1606914076.4777,1952
1606914076.4797,1932
1606914076.4816,1911
1606914076.4838,1884
1606914076.4858,1860
1606914076.4876,1838
1606914076.4897,1809
1606914076.4916,1783
1606914076.4936,1766
1606914076.4956,1749
1606914076.4976,1725
1606914076.4996,1708
1606914076.5016,1693
1606914076.5036,1674
1606914076.5056,1652
1606914076.5076,1631
1606914076.5096,1614
1606914076.5116,1597
1606914076.5136,1575
1606914076.5156,1556
1606914076.5176,1539
1606914076.5197,1520
1606914076.5216,1500
1606914076.5236,1486
1606914076.5256,1474
1606914076.5276,1454
1606914076.5296,1435
1606914076.5316,1421
1606914076.5336,1406
1606914076.5356,1389
1606914076.5376,1375
1606914076.5396,1358
1606914076.5418,1343
1606914076.5437,1324
1606914076.5456,1317
1606914076.5476,1317
1606914076.5498,1310
1606914076.5516,1298
1606914076.5536,1283
1606914076.5556,1266
1606914076.5576,1245
1606914076.5596,1230
1606914076.5616,1213
1606914076.5636,1191
1606914076.5656,1172
1606914076.5676,1150
1606914076.5696,1134
1606914076.5716,1124
1606914076.5736,1114
1606914076.5756,1102
1606914076.5776,1090
1606914076.5796,1080
1606914076.5816,1071
1606914076.5836,1047
1606914076.5857,998
1606914076.5876,1020
1606914076.5896,1329
1606914076.5917,1930
1606914076.5937,2265
1606914076.5957,1814
1606914076.5977,1001
1606914076.5997,692
1606914076.6017,861
1606914076.6037,887
1606914076.6057,786
1606914076.6078,813
1606914076.6097,846
1606914076.6116,815
1606914076.6137,813
1606914076.6156,822
1606914077.0421,817
1606914077.0430,815
1606914077.0454,817
1606914077.0481,815
1606914077.0501,815
1606914077.0520,808
1606914077.0540,798
1606914077.0560,798
1606914077.0580,805
1606914077.0601,805
1606914077.0620,813
1606914077.0640,822
1606914077.0660,832
1606914077.0682,842
1606914077.0701,849
1606914077.0719,846
1606914077.0740,839
1606914077.0760,830
1606914077.0780,815
1606914077.0800,791
1606914077.0819,760
1606914077.0839,723
1606914077.0859,692
1606914077.0879,668
1606914077.0900,651
1606914077.0919,637
1606914077.0939,624
1606914077.0959,615
1606914077.0979,608
1606914077.1000,603
1606914077.1019,598
1606914077.1039,598
1606914077.1060,595
1606914077.1079,588
1606914077.1100,583
1606914077.1119,583
1606914077.1139,588
1606914077.1159,588
1606914077.1179,583
1606914077.1200,579
1606914077.1219,569
1606914077.1239,562
1606914077.1259,564
1606914077.1279,569
1606914077.1300,569
1606914077.1319,559
1606914077.1339,554
1606914077.1359,554
1606914077.1379,552
1606914077.1400,540
1606914077.1419,535
1606914077.1440,540
1606914077.1459,535
1606914077.1479,526
1606914077.1500,521
1606914077.1519,523
1606914077.1539,521
1606914077.1559,509
1606914077.1579,504
1606914077.1600,506
1606914077.1621,504
1606914077.1639,497
1606914077.1659,489
1606914077.1679,487
1606914077.1702,480
1606914077.1720,470
1606914077.1739,472
1606914077.1759,472
1606914077.1779,465
1606914077.1800,463
1606914077.1820,458
1606914077.1839,446
1606914077.1859,443
1606914077.5821,448
1606914077.5831,456
1606914077.5856,456
1606914077.5882,456
1606914077.5902,463
1606914077.5922,458
1606914077.5942,431
1606914077.5962,402
1606914077.5982,393
1606914077.6002,398
1606914077.6022,400
1606914077.6041,393
1606914077.6062,388
1606914077.6082,388
1606914077.6102,378
1606914077.6121,369
1606914077.6141,374
1606914077.6161,371
1606914077.6182,340
1606914077.6202,345
1606914077.6221,612
1606914077.6241,1223
1606914077.6261,1662
1606914077.6281,1278
1606914077.6302,386
1606914077.6321,-9
1606914077.6341,200
1606914077.6362,289
1606914077.6381,188
1606914077.6401,217
1606914077.6422,270
1606914077.6442,248
1606914077.6461,253
1606914077.6481,282
1606914077.6502,282
1606914077.6521,282
1606914077.6542,294
1606914077.6561,299
1606914077.6581,304
1606914077.6602,316
1606914077.6621,325
1606914077.6641,337
1606914077.6663,352
1606914077.6682,366
1606914077.6702,378
1606914077.6721,393
1606914077.6741,410
1606914077.6761,427
1606914077.6781,436
1606914077.6801,441
1606914077.6821,441
1606914077.6841,431
1606914077.6861,415
1606914077.6881,393
1606914077.6902,359
1606914077.6921,313
1606914077.6941,272
1606914077.6961,248
1606914077.6981,229
1606914077.7001,214
1606914077.7021,207
1606914077.7041,205
1606914077.7061,202
1606914077.7081,200
1606914077.7101,195
1606914077.7121,197
1606914077.7141,202
1606914077.7161,209
1606914077.7182,217
1606914077.7202,219
1606914077.7221,221
1606914077.7241,226
1606914077.7261,231
1606914078.1824,238
1606914078.1837,243
1606914078.1861,246
1606914078.1887,243
1606914078.1908,236
1606914078.1928,231
1606914078.1949,234
1606914078.1968,238
1606914078.1987,234
1606914078.2008,231
1606914078.2026,234
1606914078.2046,234
1606914078.2067,231
1606914078.2086,236
1606914078.2107,236
1606914078.2126,231
1606914078.2146,226
1606914078.2166,226
1606914078.2187,229
1606914078.2207,229
1606914078.2229,221
1606914078.2247,219
1606914078.2266,217
1606914078.2287,217
1606914078.2307,226
1606914078.2327,236
1606914078.2346,243
1606914078.2366,250
1606914078.2387,260
1606914078.2407,253
1606914078.2428,229
1606914078.2446,209
1606914078.2466,212
1606914078.2486,219
1606914078.2507,219
1606914078.2526,217
1606914078.2546,217
1606914078.2566,217
1606914078.2587,217
1606914078.2607,217
1606914078.2626,217
1606914078.2646,212
1606914078.2666,180
1606914078.2686,171
1606914078.2707,427
1606914078.2726,1054
1606914078.2746,1544
1606914078.2766,1213
1606914078.2786,318
1606914078.2807,-135
1606914078.2826,45
1606914078.2846,147
1606914078.2866,38
1606914078.2886,60
1606914078.2906,118
1606914078.2926,91
1606914078.2946,94
1606914078.2966,123
1606914078.2986,123
1606914078.3007,120
1606914078.3027,132
1606914078.3046,139
1606914078.3066,142
1606914078.3086,149
1606914078.3107,156
1606914078.3126,166
1606914078.3146,178
1606914078.3166,190
1606914078.3186,205
1606914078.3207,221
1606914078.3226,241
1606914078.3251,255
1606914078.3267,267
1606914078.7519,272
1606914078.7529,272
1606914078.7554,263
1606914078.7580,250
1606914078.7600,231
1606914078.7620,200
1606914078.7641,168
1606914078.7660,144
1606914078.7680,123
1606914078.7699,103
1606914078.7719,89
1606914078.7739,89
1606914078.7759,94
1606914078.7779,91
1606914078.7799,86
1606914078.7818,91
1606914078.7839,96
1606914078.7858,96
1606914078.7880,98
1606914078.7899,103
1606914078.7919,108
1606914078.7938,113
1606914078.7958,118
1606914078.7978,125
1606914078.7999,130
1606914078.8019,132
1606914078.8039,135
1606914078.8060,139
1606914078.8079,142
1606914078.8099,139
1606914078.8119,142
1606914078.8138,142
1606914078.8158,142
1606914078.8178,142
1606914078.8199,144
1606914078.8220,147
1606914078.8239,144
1606914078.8258,139
1606914078.8279,139
1606914078.8299,142
1606914078.8319,139
1606914078.8338,135
1606914078.8359,132
1606914078.8378,135
1606914078.8399,132
1606914078.8418,127
1606914078.8438,123
1606914078.8458,120
1606914078.8478,120
1606914078.8500,130
1606914078.8519,142
1606914078.8539,152
1606914078.8558,161
1606914078.8578,168
1606914078.8598,161
1606914078.8619,137
1606914078.8638,118
1606914078.8658,123
1606914078.8678,135
1606914078.8699,132
1606914078.8719,127
1606914078.8738,130
1606914078.8758,132
1606914078.8779,130
1606914078.8799,130
1606914078.8818,132
1606914078.8838,123
1606914078.8858,77
1606914078.8878,94
1606914078.8899,410
1606914078.8918,1042
1606914078.8938,1450
1606914078.8958,1083
1606914079.2919,250
1606914079.2929,-156
1606914079.2943,-2
1606914079.2963,65
1606914079.2983,-41
1606914079.3003,-16
1606914079.3023,31
1606914079.3042,9
1606914079.3062,16
1606914079.3083,45
1606914079.3103,43
1606914079.3122,33
1606914079.3142,48
1606914079.3162,57
1606914079.3183,57
1606914079.3202,67
1606914079.3222,77
1606914079.3242,84
1606914079.3262,94
1606914079.3282,106
1606914079.3302,123
1606914079.3322,142
1606914079.3342,161
1606914079.3362,178
1606914079.3382,190
1606914079.3389,197
1606914079.3413,197
1606914079.3434,193
1606914079.3452,183
1606914079.3472,164
1606914079.3492,132
1606914079.3512,98
1606914079.3532,79
1606914079.3552,60
1606914079.3572,41
1606914079.3592,31
1606914079.3612,31
1606914079.3632,26
1606914079.3652,26
1606914079.3672,33
1606914079.3692,36
1606914079.3699,36
1606914079.3722,36
1606914079.3742,38
1606914079.3762,45
1606914079.3782,50
1606914079.3803,53
1606914079.3822,60
1606914079.3842,67
1606914079.3862,67
1606914079.3882,69
1606914079.3903,77
1606914079.3922,82
1606914079.3942,84
1606914079.3962,84
1606914079.3982,89
1606914079.4003,94
1606914079.4009,98
1606914079.4032,98
1606914079.4052,101
1606914079.4073,101
1606914079.4092,101
1606914079.4113,101
1606914079.4132,103
1606914079.4152,106
1606914079.4172,106
1606914079.4192,103
1606914079.4212,103
1606914079.4232,101
1606914079.4252,96
1606914079.4272,94
1606914079.4292,91
1606914079.4312,89
1606914079.8319,94
1606914079.8329,106
1606914079.8353,120
1606914079.8380,127
1606914079.8401,132
1606914079.8422,137
1606914079.8440,125
1606914079.8459,98
1606914079.8479,77
1606914079.8499,84
1606914079.8518,96
1606914079.8538,94
1606914079.8559,89
1606914079.8578,94
1606914079.8599,96
1606914079.8618,96
1606914079.8626,98
1606914079.8648,96
1606914079.8668,77
1606914079.8689,36
1606914079.8709,113
1606914079.8728,526
1606914079.8748,1158
1606914079.8769,1389
1606914079.8788,822
1606914079.8809,36
1606914079.8828,-171
1606914079.8849,4
1606914079.8868,0
1606914079.8888,-82
1606914079.8908,-28
1606914079.8929,0
1606914079.8935,-19
1606914079.8960,-2
1606914079.8978,21
1606914079.8999,19
1606914079.9018,24
1606914079.9039,38
1606914079.9059,48
1606914079.9078,50
1606914079.9098,60
1606914079.9119,69
1606914079.9138,77
1606914079.9158,89
1606914079.9179,103
1606914079.9199,120
1606914079.9218,137
1606914079.9238,156
1606914079.9245,173
1606914079.9268,188
1606914079.9289,193
1606914079.9309,190
1606914079.9328,183
1606914079.9348,171
1606914079.9368,147
1606914079.9388,115
1606914079.9410,89
1606914079.9429,67
1606914079.9448,53
1606914079.9468,41
1606914079.9488,33
1606914079.9509,31
1606914079.9528,33
1606914079.9549,33
1606914079.9556,38
1606914079.9578,41
1606914079.9599,41
1606914079.9618,36
1606914079.9638,36
1606914079.9659,41
1606914079.9678,41
1606914079.9699,41
1606914079.9718,45
1606914080.4022,53
1606914080.4032,57
1606914080.4057,60
1606914080.4067,62
1606914080.4083,65
1606914080.4102,60
1606914080.4121,57
1606914080.4142,67
1606914080.4161,72
1606914080.4182,72
1606914080.4201,74
1606914080.4222,77
1606914080.4242,79
1606914080.4261,79
1606914080.4281,82
1606914080.4302,82
1606914080.4321,82
1606914080.4342,79
1606914080.4361,79
1606914080.4368,77
1606914080.4391,74
1606914080.4412,79
1606914080.4431,82
1606914080.4451,79
1606914080.4471,79
1606914080.4491,84
1606914080.4511,84
1606914080.4531,84
1606914080.4551,84
1606914080.4571,84
1606914080.4591,86
1606914080.4612,89
1606914080.4631,89
1606914080.4651,86
1606914080.4673,86
1606914080.4678,86
1606914080.4702,91
1606914080.4721,106
1606914080.4742,115
1606914080.4761,120
1606914080.4781,132
1606914080.4802,135
1606914080.4821,113
1606914080.4841,94
1606914080.4861,91
1606914080.4881,103
1606914080.4902,106
1606914080.4921,101
1606914080.4941,101
1606914080.4961,103
1606914080.4981,101
1606914080.4988,96
1606914080.5012,98
1606914080.5031,98
1606914080.5052,79
1606914080.5071,45
1606914080.5091,161
1606914080.5112,627
1606914080.5131,1254
1606914080.5151,1375
1606914080.5171,685
1606914080.5191,-77
1606914080.5212,-173
1606914080.5231,24
1606914080.5252,-9
1606914080.5271,-67
1606914080.5291,-2
1606914080.5299,12
1606914080.5321,-9
1606914080.5341,16
1606914080.5362,36
1606914080.5381,31
1606914080.5402,43
1606914080.9719,57
1606914080.9729,62
1606914080.9753,67
1606914080.9780,77
1606914080.9800,89
1606914080.9819,96
1606914080.9839,103
1606914080.9860,115
1606914080.9872,139
1606914080.9888,164
1606914080.9909,178
1606914080.9928,188
1606914080.9950,195
1606914080.9969,205
1606914080.9988,205
1606914081.0008,193
1606914081.0028,173
1606914081.0048,152
1606914081.0068,113
1606914081.0088,72
1606914081.0108,48
1606914081.0128,36
1606914081.0148,16
1606914081.0168,9
1606914081.0188,12
1606914081.0208,4
1606914081.0228,0
1606914081.0248,7
1606914081.0268,14
1606914081.0288,14
1606914081.0308,14
1606914081.0328,14
1606914081.0348,16
1606914081.0368,21
1606914081.0389,21
1606914081.0408,24
1606914081.0428,36
1606914081.0448,45
1606914081.0468,45
1606914081.0488,43
1606914081.0509,50
1606914081.0528,57
1606914081.0548,55
1606914081.0568,60
1606914081.0588,67
1606914081.0609,67
1606914081.0629,65
1606914081.0649,65
1606914081.0670,67
1606914081.0689,69
1606914081.0709,69
1606914081.0729,69
1606914081.0749,69
1606914081.0770,67
1606914081.0790,67
1606914081.0810,72
1606914081.0830,74
1606914081.0849,74
1606914081.0868,69
1606914081.0889,69
1606914081.0909,72
1606914081.0929,74
1606914081.0949,79
1606914081.0972,79
1606914081.0989,74
1606914081.1009,74
1606914081.1029,79
1606914081.1049,82
1606914081.1070,82
1606914081.1090,77
1606914081.1109,74
1606914081.1129,79
1606914081.1148,94
1606914081.5413,103
1606914081.5420,103
1606914081.5444,115
1606914081.5470,120
1606914081.5490,94
1606914081.5511,67
1606914081.5531,67
1606914081.5550,72
1606914081.5570,65
1606914081.5590,65
1606914081.5611,72
1606914081.5630,67
1606914081.5650,67
1606914081.5670,72
1606914081.5690,72
1606914081.5710,69
1606914081.5732,60
1606914081.5750,26
1606914081.5770,77
1606914081.5790,463
1606914081.5810,1146
1606914081.5830,1438
1606914081.5851,830
1606914081.5870,-45
1606914081.5890,-265
1606914081.5910,-21
1606914081.5930,-2
1606914081.5950,-106
1606914081.5970,-45
1606914081.5990,-2
1606914081.6010,-28
1606914081.6030,-14
1606914081.6050,9
1606914081.6070,4
1606914081.6090,9
1606914081.6110,28
1606914081.6130,36
1606914081.6150,38
1606914081.6170,48
1606914081.6190,57
1606914081.6211,67
1606914081.6232,82
1606914081.6250,96
1606914081.6270,110
1606914081.6289,130
1606914081.6310,149
1606914081.6329,164
1606914081.6351,173
1606914081.6370,180
1606914081.6390,180
1606914081.6410,171
1606914081.6429,154
1606914081.6450,125
1606914081.6470,89
1606914081.6490,50
1606914081.6510,24
1606914081.6530,4
1606914081.6550,-9
1606914081.6570,-19
1606914081.6589,-19
1606914081.6610,-19
1606914081.6630,-19
1606914081.6650,-16
1606914081.6669,-16
1606914081.6690,-16
1606914081.6710,-14
1606914081.6730,-12
1606914081.6750,-4
1606914081.6770,0
1606914081.6789,0
1606914081.6810,2
1606914081.6830,12
1606914081.6850,19
1606914082.1119,21
1606914082.1128,24
1606914082.1154,31
1606914082.1179,36
1606914082.1198,38
1606914082.1218,41
1606914082.1240,45
1606914082.1258,48
1606914082.1278,43
1606914082.1298,33
1606914082.1318,38
1606914082.1338,48
1606914082.1358,45
1606914082.1378,43
1606914082.1399,45
1606914082.1418,45
1606914082.1438,43
1606914082.1458,48
1606914082.1478,50
1606914082.1500,45
1606914082.1518,41
1606914082.1538,33
1606914082.1558,31
1606914082.1578,57
1606914082.1599,89
1606914082.1618,82
1606914082.1638,69
1606914082.1658,69
1606914082.1678,57
1606914082.1699,43
1606914082.1718,43
1606914082.1738,60
1606914082.1759,91
1606914082.1778,106
1606914082.1798,89
1606914082.1818,67
1606914082.1838,72
1606914082.1858,98
1606914082.1878,101
1606914082.1899,74
1606914082.1918,65
1606914082.1938,86
1606914082.1958,98
1606914082.1978,91
1606914082.1998,84
1606914082.2018,84
1606914082.2038,79
1606914082.2058,74
1606914082.2078,77
1606914082.2098,94
1606914082.2118,120
1606914082.2138,127
1606914082.2158,123
1606914082.2178,123
1606914082.2198,108
1606914082.2218,89
1606914082.2238,82
1606914082.2258,84
1606914082.2278,96
1606914082.2299,103
1606914082.2318,96
1606914082.2338,77
1606914082.2358,60
1606914082.2378,65
1606914082.2398,82
1606914082.2418,77
1606914082.2438,33
1606914082.2458,-14
1606914082.2478,110
1606914082.2498,617
1606914082.2520,1271
1606914082.2539,1413
1606914082.2558,757
1606914082.6519,-41
1606914082.6526,-214
1606914082.6551,-31
1606914082.6577,-53
1606914082.6598,-115
1606914082.6617,-48
1606914082.6637,-36
1606914082.6657,-60
1606914082.6677,-31
1606914082.6697,-14
1606914082.6717,-26
1606914082.6737,-26
1606914082.6757,-14
1606914082.6777,-9
1606914082.6797,-4
1606914082.6816,0
1606914082.6836,7
1606914082.6856,26
1606914082.6876,50
1606914082.6897,62
1606914082.6916,67
1606914082.6936,84
1606914082.6956,103
1606914082.6976,123
1606914082.6997,147
1606914082.7017,156
1606914082.7036,149
1606914082.7056,147
1606914082.7077,142
1606914082.7097,118
1606914082.7117,86
1606914082.7136,57
1606914082.7157,31
1606914082.7177,7
1606914082.7197,2
1606914082.7216,4
1606914082.7237,-4
1606914082.7256,-7
1606914082.7276,-2
1606914082.7297,-7
1606914082.7316,-14
1606914082.7337,-9
1606914082.7357,9
1606914082.7376,16
1606914082.7397,7
1606914082.7416,7
1606914082.7436,19
1606914082.7456,14
1606914082.7478,12
1606914082.7498,24
1606914082.7517,21
1606914082.7536,21
1606914082.7556,43
1606914082.7576,55
1606914082.7597,38
1606914082.7616,31
1606914082.7636,43
1606914082.7656,45
1606914082.7677,45
1606914082.7697,53
1606914082.7716,55
1606914082.7736,50
1606914082.7756,53
1606914082.7776,55
1606914082.7797,50
1606914082.7817,50
1606914082.7837,57
1606914082.7856,50
1606914082.7876,45
1606914082.7897,67
1606914082.7916,77
1606914082.7936,60
1606914082.7958,53
1606914083.2219,57
1606914083.2229,60
1606914083.2254,57
1606914083.2280,65
1606914083.2299,72
1606914083.2320,67
1606914083.2341,50
1606914083.2360,38
1606914083.2380,41
1606914083.2400,55
1606914083.2419,62
1606914083.2439,53
1606914083.2459,50
1606914083.2479,57
1606914083.2500,53
1606914083.2519,50
1606914083.2539,57
1606914083.2559,60
1606914083.2579,53
1606914083.2599,50
1606914083.2619,50
1606914083.2639,48
1606914083.2659,53
1606914083.2679,69
1606914083.2699,84
1606914083.2719,91
1606914083.2741,96
1606914083.2759,91
1606914083.2779,79
1606914083.2800,69
1606914083.2819,55
1606914083.2838,53
1606914083.2859,60
1606914083.2879,53
1606914083.2899,45
1606914083.2919,45
1606914083.2939,48
1606914083.2958,45
1606914083.2979,38
1606914083.2999,45
1606914083.3019,31
1606914083.3039,-14
1606914083.3059,115
1606914083.3079,617
1606914083.3099,1240
1606914083.3119,1392
1606914083.3139,760
1606914083.3159,-53
1606914083.3179,-234
1606914083.3199,-38
1606914083.3219,-74
1606914083.3238,-149
1606914083.3258,-79
1606914083.3279,-62
1606914083.3300,-82
1606914083.3319,-50
1606914083.3338,-36
1606914083.3359,-41
1606914083.3379,-24
1606914083.3399,-4
1606914083.3419,-9
1606914083.3439,-9
1606914083.3459,2
1606914083.3479,12
1606914083.3499,24
1606914083.3518,38
1606914083.3539,50
1606914083.3559,67
1606914083.3579,91
1606914083.3599,106
1606914083.3619,123
1606914083.3639,137
1606914083.3659,144
1606914083.7615,149
1606914083.7625,149
1606914083.7650,144
1606914083.7677,125
1606914083.7699,91
1606914083.7716,57
1606914083.7737,43
1606914083.7756,24
1606914083.7776,0
1606914083.7797,-14
1606914083.7815,-9
1606914083.7836,-14
1606914083.7855,-19
1606914083.7875,-12
1606914083.7896,-4
1606914083.7915,-4
1606914083.7935,0
1606914083.7955,4
1606914083.7975,4
1606914083.7995,2
1606914083.8015,7
1606914083.8035,14
1606914083.8055,14
1606914083.8075,12
1606914083.8096,16
1606914083.8115,28
1606914083.8135,36
1606914083.8155,33
1606914083.8175,36
1606914083.8196,41
1606914083.8215,41
1606914083.8235,43
1606914083.8255,50
1606914083.8275,53
1606914083.8296,48
1606914083.8315,50
1606914083.8335,50
1606914083.8355,53
1606914083.8375,57
1606914083.8396,57
1606914083.8415,50
1606914083.8435,43
1606914083.8455,45
1606914083.8475,53
1606914083.8496,50
1606914083.8515,45
1606914083.8535,53
1606914083.8555,62
1606914083.8575,53
1606914083.8596,43
1606914083.8616,50
1606914083.8635,57
1606914083.8655,53
1606914083.8675,45
1606914083.8696,48
1606914083.8717,50
1606914083.8736,53
1606914083.8755,53
1606914083.8775,50
1606914083.8796,50
1606914083.8816,53
1606914083.8835,53
1606914083.8855,48
1606914083.8875,53
1606914083.8896,53
1606914083.8915,43
1606914083.8935,48
1606914083.8955,55
1606914083.8976,48
1606914083.8996,41
1606914083.9015,43
1606914083.9035,50
1606914083.9055,62
1606914084.3319,69
1606914084.3328,72
1606914084.3353,79
1606914084.3379,82
1606914084.3399,67
1606914084.3418,43
1606914084.3439,26
1606914084.3458,31
1606914084.3478,43
1606914084.3499,33
1606914084.3519,21
1606914084.3538,31
1606914084.3558,50
1606914084.3578,53
1606914084.3599,43
1606914084.3618,28
1606914084.3638,-4
1606914084.3658,-4
1606914084.3678,253
1606914084.3699,854
1606914084.3718,1356
1606914084.3738,1148
1606914084.3758,318
1606914084.3778,-238
1606914084.3798,-139
1606914084.3818,-19
1606914084.3838,-132
1606914084.3858,-137
1606914084.3878,-65
1606914084.3898,-62
1606914084.3918,-62
1606914084.3938,-48
1606914084.3958,-41
1606914084.3980,-26
1606914084.4000,-16
1606914084.4018,-21
1606914084.4038,-14
1606914084.4058,2
1606914084.4078,12
1606914084.4098,21
1606914084.4118,33
1606914084.4138,31
1606914084.4158,36
1606914084.4178,72
1606914084.4198,106
1606914084.4218,113
1606914084.4238,127
1606914084.4258,149
1606914084.4278,152
1606914084.4299,144
1606914084.4318,147
1606914084.4338,137
1606914084.4358,108
1606914084.4378,79
1606914084.4399,53
1606914084.4418,28
1606914084.4438,7
1606914084.4458,0
1606914084.4478,-4
1606914084.4498,-9
1606914084.4518,-14
1606914084.4538,-12
1606914084.4558,-9
1606914084.4578,-7
1606914084.4598,-7
1606914084.4618,-2
1606914084.4638,0
1606914084.4658,0
1606914084.4678,2
1606914084.4698,4
1606914084.4718,12
1606914084.4738,14
1606914084.4758,14
1606914084.9314,19
1606914084.9324,26
1606914084.9348,26
1606914084.9374,33
1606914084.9396,45
1606914084.9415,43
1606914084.9436,33
1606914084.9454,31
1606914084.9474,33
1606914084.9494,38
1606914084.9514,43
1606914084.9535,41
1606914084.9555,36
1606914084.9574,36
1606914084.9594,36
1606914084.9613,41
1606914084.9633,43
1606914084.9653,36
1606914084.9673,33
1606914084.9693,45
1606914084.9713,48
1606914084.9733,43
1606914084.9753,43
1606914084.9773,45
1606914084.9793,41
1606914084.9813,38
1606914084.9833,36
1606914084.9853,31
1606914084.9873,28
1606914084.9893,31
1606914084.9913,31
1606914084.9933,38
1606914084.9954,38
1606914084.9974,31
1606914084.9993,28
1606914085.0021,38
1606914085.0034,43
1606914085.0053,38
1606914085.0073,36
1606914085.0093,36
1606914085.0113,36
1606914085.0133,38
1606914085.0153,50
1606914085.0173,69
1606914085.0193,69
1606914085.0213,65
1606914085.0233,62
1606914085.0253,62
1606914085.0273,60
1606914085.0293,57
1606914085.0313,50
1606914085.0333,48
1606914085.0353,45
1606914085.0373,36
1606914085.0394,38
1606914085.0414,45
1606914085.0433,48
1606914085.0453,48
1606914085.0473,48
1606914085.0493,48
1606914085.0513,50
1606914085.0533,36
1606914085.0555,-4
1606914085.0574,72
1606914085.0593,487
1606914085.0613,1131
1606914085.0634,1382
1606914085.0653,803
1606914085.0674,-24
1606914085.0693,-243
1606914085.0713,-36
1606914085.0734,-28
1606914085.0754,-118
1606914085.4717,-62
1606914085.4725,-28
1606914085.4749,-60
1606914085.4775,-48
1606914085.4796,-21
1606914085.4815,-16
1606914085.4835,-7
1606914085.4855,4
1606914085.4875,7
1606914085.4895,16
1606914085.4915,36
1606914085.4934,41
1606914085.4955,38
1606914085.4975,45
1606914085.4995,65
1606914085.5014,84
1606914085.5034,103
1606914085.5055,118
1606914085.5074,132
1606914085.5096,147
1606914085.5114,161
1606914085.5135,166
1606914085.5155,164
1606914085.5174,152
1606914085.5195,132
1606914085.5215,101
1606914085.5235,62
1606914085.5255,33
1606914085.5275,12
1606914085.5295,-4
1606914085.5315,-12
1606914085.5336,-9
1606914085.5355,-14
1606914085.5375,-21
1606914085.5396,-19
1606914085.5415,-19
1606914085.5435,-24
1606914085.5455,-12
1606914085.5474,2
1606914085.5496,-2
1606914085.5516,-2
1606914085.5535,4
1606914085.5555,9
1606914085.5575,9
1606914085.5595,16
1606914085.5614,28
1606914085.5634,36
1606914085.5654,31
1606914085.5675,26
1606914085.5696,33
1606914085.5715,43
1606914085.5735,43
1606914085.5754,41
1606914085.5775,48
1606914085.5795,50
1606914085.5815,41
1606914085.5834,43
1606914085.5854,48
1606914085.5874,43
1606914085.5895,41
1606914085.5914,43
1606914085.5935,45
1606914085.5954,45
1606914085.5974,43
1606914085.5995,50
1606914085.6002,50
1606914085.6024,43
1606914085.6045,38
1606914085.6064,38
1606914085.6085,38
1606914085.6105,38
1606914085.6124,43
1606914085.6144,48
1606914086.0114,48
1606914086.0124,43
1606914086.0148,41
1606914086.0175,43
1606914086.0195,50
1606914086.0214,57
1606914086.0235,65
1606914086.0254,72
1606914086.0261,72
1606914086.0284,55
1606914086.0304,43
1606914086.0324,45
1606914086.0343,43
1606914086.0364,36
1606914086.0384,28
1606914086.0404,21
1606914086.0423,16
1606914086.0443,24
1606914086.0465,31
1606914086.0484,31
1606914086.0504,26
1606914086.0523,26
1606914086.0543,31
1606914086.0563,31
1606914086.0570,19
1606914086.0593,-14
1606914086.0614,-7
1606914086.0633,277
1606914086.0653,916
1606914086.0673,1387
1606914086.0693,1042
1606914086.0713,154
1606914086.0733,-291
1606914086.0753,-106
1606914086.0773,-14
1606914086.0793,-130
1606914086.0813,-106
1606914086.0833,-45
1606914086.0853,-69
1606914086.0874,-67
1606914086.0881,-36
1606914086.0904,-28
1606914086.0923,-26
1606914086.0943,-12
1606914086.0963,0
1606914086.0984,4
1606914086.1004,12
1606914086.1024,21
1606914086.1043,31
1606914086.1065,41
1606914086.1084,57
1606914086.1103,77
1606914086.1123,89
1606914086.1143,106
1606914086.1163,125
1606914086.1170,135
1606914086.1193,139
1606914086.1214,149
1606914086.1234,152
1606914086.1253,137
1606914086.1273,113
1606914086.1293,86
1606914086.1313,62
1606914086.1333,41
1606914086.1353,19
1606914086.1373,0
1606914086.1393,-12
1606914086.1413,-21
1606914086.1433,-24
1606914086.1455,-12
1606914086.1474,-7
1606914086.1480,-12
1606914086.1504,-19
1606914086.6120,-14
1606914086.6132,4
1606914086.6144,4
1606914086.6162,-4
1606914086.6184,2
1606914086.6202,9
1606914086.6223,2
1606914086.6243,2
1606914086.6262,12
1606914086.6282,16
1606914086.6302,14
1606914086.6308,14
1606914086.6331,19
1606914086.6351,21
1606914086.6372,26
1606914086.6391,31
1606914086.6412,26
1606914086.6431,24
1606914086.6451,24
1606914086.6471,28
1606914086.6491,31
1606914086.6511,33
1606914086.6532,31
1606914086.6551,28
1606914086.6571,28
1606914086.6591,31
1606914086.6611,33
1606914086.6618,36
1606914086.6641,36
1606914086.6661,31
1606914086.6681,36
1606914086.6701,43
1606914086.6722,43
1606914086.6741,41
1606914086.6761,43
1606914086.6781,43
1606914086.6801,36
1606914086.6821,33
1606914086.6841,33
1606914086.6861,38
1606914086.6882,41
1606914086.6902,36
1606914086.6921,41
1606914086.6928,43
1606914086.6952,41
1606914086.6971,38
1606914086.6991,45
1606914086.7013,60
1606914086.7032,72
1606914086.7051,74
1606914086.7071,69
1606914086.7091,65
1606914086.7111,55
1606914086.7131,53
1606914086.7152,53
1606914086.7171,41
1606914086.7192,31
1606914086.7211,26
1606914086.7231,31
1606914086.7238,33
1606914086.7261,28
1606914086.7281,26
1606914086.7302,31
1606914086.7322,33
1606914086.7341,31
1606914086.7361,26
1606914086.7381,-4
1606914086.7402,-31
1606914086.7421,156
1606914086.7441,714
1606914086.7461,1290
1606914086.7481,1230
1606914086.7501,453
1606914087.1215,-205
1606914087.1223,-185
1606914087.1248,-24
1606914087.1274,-110
1606914087.1294,-144
1606914087.1313,-72
1606914087.1334,-74
1606914087.1354,-89
1606914087.1373,-55
1606914087.1393,-38
1606914087.1413,-48
1606914087.1433,-43
1606914087.1453,-38
1606914087.1473,-31
1606914087.1493,-19
1606914087.1513,-12
1606914087.1533,-4
1606914087.1540,7
1606914087.1563,19
1606914087.1584,33
1606914087.1604,48
1606914087.1623,69
1606914087.1643,91
1606914087.1663,108
1606914087.1683,118
1606914087.1705,125
1606914087.1724,125
1606914087.1743,118
1606914087.1765,110
1606914087.1783,94
1606914087.1804,69
1606914087.1823,45
1606914087.1830,26
1606914087.1853,7
1606914087.1873,-12
1606914087.1893,-19
1606914087.1913,-14
1606914087.1933,-7
1606914087.1953,-12
1606914087.1973,-14
1606914087.1993,-14
1606914087.2014,-12
1606914087.2034,-12
1606914087.2053,-7
1606914087.2073,-2
1606914087.2093,2
1606914087.2113,2
1606914087.2133,4
1606914087.2140,9
1606914087.2163,14
1606914087.2183,16
1606914087.2204,21
1606914087.2223,24
1606914087.2243,26
1606914087.2264,28
1606914087.2284,33
1606914087.2304,33
1606914087.2323,33
1606914087.2343,31
1606914087.2363,31
1606914087.2383,36
1606914087.2404,38
1606914087.2423,31
1606914087.2443,28
1606914087.2463,33
1606914087.2483,28
1606914087.2504,26
1606914087.2523,31
1606914087.2543,33
1606914087.2575,31
1606914087.2593,31
1606914087.2613,28
1606914087.2633,26
1606914087.6918,26
1606914087.6928,38
1606914087.6953,43
1606914087.6981,33
1606914087.6999,21
1606914087.7019,19
1606914087.7039,26
1606914087.7058,31
1606914087.7078,31
1606914087.7099,28
1606914087.7118,31
1606914087.7138,26
1606914087.7158,19
1606914087.7178,21
1606914087.7199,38
1606914087.7218,55
1606914087.7238,67
1606914087.7258,65
1606914087.7278,55
1606914087.7298,53
1606914087.7318,62
1606914087.7338,55
1606914087.7358,43
1606914087.7378,43
1606914087.7399,33
1606914087.7418,19
1606914087.7438,26
1606914087.7458,36
1606914087.7478,26
1606914087.7498,19
1606914087.7518,21
1606914087.7538,21
1606914087.7558,16
1606914087.7578,4
1606914087.7598,-31
1606914087.7618,-26
1606914087.7638,250
1606914087.7658,844
1606914087.7679,1278
1606914087.7698,991
1606914087.7718,185
1606914087.7738,-265
1606914087.7758,-125
1606914087.7778,-28
1606914087.7798,-135
1606914087.7818,-123
1606914087.7838,-62
1606914087.7858,-82
1606914087.7878,-82
1606914087.7898,-45
1606914087.7918,-41
1606914087.7938,-48
1606914087.7958,-33
1606914087.7978,-21
1606914087.8001,-21
1606914087.8018,-19
1606914087.8038,-7
1606914087.8058,0
1606914087.8078,7
1606914087.8098,19
1606914087.8118,33
1606914087.8138,50
1606914087.8158,67
1606914087.8178,79
1606914087.8198,91
1606914087.8218,103
1606914087.8238,108
1606914087.8258,106
1606914087.8278,98
1606914087.8298,89
1606914087.8318,74
1606914087.8338,50
1606914087.8358,26
1606914088.2918,9
1606914088.2927,4
1606914088.2942,-2
1606914088.2962,-14
1606914088.2983,-21
1606914088.3002,-24
1606914088.3022,-26
1606914088.3042,-26
1606914088.3062,-24
1606914088.3082,-24
1606914088.3102,-24
1606914088.3121,-19
1606914088.3141,-14
1606914088.3162,-12
1606914088.3182,-4
1606914088.3202,2
1606914088.3222,4
1606914088.3241,7
1606914088.3261,14
1606914088.3281,16
1606914088.3302,16
1606914088.3321,19
1606914088.3341,21
1606914088.3361,24
1606914088.3381,26
1606914088.3402,31
1606914088.3421,28
1606914088.3442,26
1606914088.3461,28
1606914088.3481,33
1606914088.3501,33
1606914088.3521,26
1606914088.3542,26
1606914088.3561,33
1606914088.3581,36
1606914088.3601,33
1606914088.3620,36
1606914088.3641,41
1606914088.3661,38
1606914088.3680,36
1606914088.3701,41
1606914088.3721,38
1606914088.3741,36
1606914088.3761,43
1606914088.3781,43
1606914088.3801,38
1606914088.3821,38
1606914088.3840,41
1606914088.3861,41
1606914088.3880,36
1606914088.3901,38
1606914088.3921,43
1606914088.3941,41
1606914088.3960,45
1606914088.3981,57
1606914088.4001,72
1606914088.4021,77
1606914088.4041,72
1606914088.4060,67
1606914088.4080,67
1606914088.4101,65
1606914088.4121,55
1606914088.4141,43
1606914088.4161,36
1606914088.4181,33
1606914088.4201,36
1606914088.4221,38
1606914088.4241,38
1606914088.4260,41
1606914088.4280,41
1606914088.4301,38
1606914088.4321,38
1606914088.4341,36
1606914088.8312,12
1606914088.8319,-4
1606914088.8344,164
1606914088.8370,692
1606914088.8391,1281
1606914088.8410,1206
1606914088.8430,352
1606914088.8450,-308
1606914088.8470,-212
1606914088.8490,-14
1606914088.8512,-113
1606914088.8530,-147
1606914088.8550,-69
1606914088.8570,-72
1606914088.8590,-84
1606914088.8609,-45
1606914088.8629,-31
1606914088.8650,-41
1606914088.8670,-31
1606914088.8690,-14
1606914088.8710,-4
1606914088.8730,7
1606914088.8750,19
1606914088.8770,33
1606914088.8790,48
1606914088.8810,62
1606914088.8829,77
1606914088.8849,94
1606914088.8869,113
1606914088.8890,135
1606914088.8909,154
1606914088.8929,166
1606914088.8949,173
1606914088.8969,171
1606914088.8989,156
1606914088.9010,137
1606914088.9029,113
1606914088.9049,82
1606914088.9069,43
1606914088.9089,7
1606914088.9110,-19
1606914088.9130,-31
1606914088.9149,-38
1606914088.9169,-45
1606914088.9189,-50
1606914088.9210,-50
1606914088.9229,-53
1606914088.9250,-50
1606914088.9269,-43
1606914088.9290,-36
1606914088.9310,-33
1606914088.9329,-26
1606914088.9349,-19
1606914088.9369,-16
1606914088.9390,-12
1606914088.9410,-2
1606914088.9429,2
1606914088.9449,7
1606914088.9469,9
1606914088.9489,12
1606914088.9509,14
1606914088.9531,12
1606914088.9550,14
1606914088.9569,19
1606914088.9589,21
1606914088.9610,21
1606914088.9629,21
1606914088.9649,26
1606914088.9669,26
1606914088.9689,24
1606914088.9710,24
1606914088.9729,26
1606914088.9749,28
1606914089.4019,28
1606914089.4032,26
1606914089.4056,31
1606914089.4082,33
1606914089.4103,31
1606914089.4122,33
1606914089.4144,38
1606914089.4162,38
1606914089.4182,38
1606914089.4202,50
1606914089.4223,57
1606914089.4242,38
1606914089.4262,16
1606914089.4282,14
1606914089.4303,21
1606914089.4324,26
1606914089.4342,24
1606914089.4362,26
1606914089.4383,26
1606914089.4404,26
1606914089.4423,24
1606914089.4443,24
1606914089.4463,14
1606914089.4484,-26
1606914089.4503,2
1606914089.4522,364
1606914089.4543,1068
1606914089.4563,1438
1606914089.4583,885
1606914089.4604,-36
1606914089.4622,-335
1606914089.4642,-91
1606914089.4662,-48
1606914089.4682,-159
1606914089.4702,-106
1606914089.4722,-55
1606914089.4742,-89
1606914089.4762,-79
1606914089.4782,-50
1606914089.4804,-53
1606914089.4822,-48
1606914089.4841,-28
1606914089.4861,-21
1606914089.4881,-16
1606914089.4902,-7
1606914089.4921,4
1606914089.4941,14
1606914089.4961,26
1606914089.4982,41
1606914089.5002,57
1606914089.5021,74
1606914089.5041,91
1606914089.5061,110
1606914089.5081,125
1606914089.5102,130
1606914089.5121,127
1606914089.5142,120
1606914089.5161,110
1606914089.5181,89
1606914089.5202,55
1606914089.5221,21
1606914089.5241,-2
1606914089.5261,-21
1606914089.5281,-33
1606914089.5302,-38
1606914089.5321,-41
1606914089.5341,-41
1606914089.5361,-43
1606914089.5381,-43
1606914089.5401,-43
1606914089.5421,-41
1606914089.5441,-36
1606914089.5461,-31
1606914089.9418,-26
1606914089.9427,-21
1606914089.9452,-16
1606914089.9478,-12
1606914089.9499,-4
1606914089.9518,-2
1606914089.9539,0
1606914089.9559,4
1606914089.9579,4
1606914089.9598,-2
1606914089.9619,-4
1606914089.9639,0
1606914089.9658,2
1606914089.9678,0
1606914089.9699,2
1606914089.9718,7
1606914089.9738,7
1606914089.9760,7
1606914089.9779,7
1606914089.9798,9
1606914089.9817,9
1606914089.9837,9
1606914089.9857,9
1606914089.9877,7
1606914089.9898,-2
1606914089.9918,-4
1606914089.9938,0
1606914089.9958,12
1606914089.9977,19
1606914089.9998,28
1606914090.0017,41
1606914090.0037,48
1606914090.0057,36
1606914090.0077,14
1606914090.0097,2
1606914090.0117,14
1606914090.0137,19
1606914090.0157,14
1606914090.0177,16
1606914090.0198,19
1606914090.0217,19
1606914090.0237,19
1606914090.0257,21
1606914090.0277,21
1606914090.0298,2
1606914090.0317,-48
1606914090.0337,14
1606914090.0357,427
1606914090.0377,1109
1606914090.0398,1452
1606914090.0417,962
1606914090.0438,65
1606914090.0457,-301
1606914090.0477,-91
1606914090.0498,-45
1606914090.0517,-171
1606914090.0537,-123
1606914090.0557,-67
1606914090.0577,-96
1606914090.0597,-89
1606914090.0617,-62
1606914090.0637,-62
1606914090.0657,-57
1606914090.0677,-45
1606914090.0698,-41
1606914090.0717,-36
1606914090.0737,-28
1606914090.0757,-21
1606914090.0779,-12
1606914090.0799,0
1606914090.0817,9
1606914090.0837,21
1606914090.0857,38
1606914090.5112,57
1606914090.5122,77
1606914090.5146,86
1606914090.5173,94
1606914090.5193,94
1606914090.5212,89
1606914090.5233,74
1606914090.5252,50
1606914090.5272,24
1606914090.5292,2
1606914090.5312,-21
1606914090.5332,-36
1606914090.5352,-45
1606914090.5372,-53
1606914090.5392,-55
1606914090.5412,-53
1606914090.5432,-53
1606914090.5452,-53
1606914090.5472,-53
1606914090.5492,-50
1606914090.5512,-45
1606914090.5532,-41
1606914090.5552,-41
1606914090.5572,-38
1606914090.5592,-28
1606914090.5612,-24
1606914090.5632,-21
1606914090.5652,-16
1606914090.5672,-14
1606914090.5692,-9
1606914090.5712,-7
1606914090.5732,0
1606914090.5753,4
1606914090.5772,7
1606914090.5792,7
1606914090.5812,9
1606914090.5832,12
1606914090.5852,14
1606914090.5872,16
1606914090.5892,16
1606914090.5913,16
1606914090.5932,14
1606914090.5952,9
1606914090.5972,9
1606914090.5992,12
1606914090.6012,19
1606914090.6034,28
1606914090.6052,38
1606914090.6072,48
1606914090.6092,57
1606914090.6112,55
1606914090.6132,31
1606914090.6152,9
1606914090.6173,9
1606914090.6192,21
1606914090.6212,24
1606914090.6233,21
1606914090.6252,19
1606914090.6272,21
1606914090.6292,21
1606914090.6312,19
1606914090.6332,19
1606914090.6352,19
1606914090.6372,-4
1606914090.6392,-41
1606914090.6412,108
1606914090.6432,632
1606914090.6452,1242
1606914090.6472,1276
1606914090.6492,542
1606914090.6512,-178
1606914090.6532,-219
1606914090.6552,-33
1606914091.0518,-96
1606914091.0528,-147
1606914091.0552,-77
1606914091.0579,-72
1606914091.0599,-91
1606914091.0618,-62
1606914091.0639,-45
1606914091.0658,-53
1606914091.0678,-50
1606914091.0698,-41
1606914091.0718,-41
1606914091.0738,-41
1606914091.0758,-26
1606914091.0778,-14
1606914091.0798,-4
1606914091.0817,4
1606914091.0837,19
1606914091.0858,36
1606914091.0877,55
1606914091.0898,72
1606914091.0917,89
1606914091.0937,98
1606914091.0957,101
1606914091.0977,98
1606914091.1000,91
1606914091.1018,79
1606914091.1037,60
1606914091.1058,28
1606914091.1078,4
1606914091.1098,-14
1606914091.1117,-28
1606914091.1138,-38
1606914091.1157,-38
1606914091.1177,-41
1606914091.1198,-41
1606914091.1218,-36
1606914091.1238,-33
1606914091.1257,-31
1606914091.1277,-31
1606914091.1298,-28
1606914091.1317,-26
1606914091.1338,-26
1606914091.1357,-24
1606914091.1378,-19
1606914091.1398,-16
1606914091.1417,-14
1606914091.1438,-14
1606914091.1457,-14
1606914091.1477,-9
1606914091.1498,-4
1606914091.1518,0
1606914091.1537,0
1606914091.1558,2
1606914091.1577,9
1606914091.1598,9
1606914091.1617,9
1606914091.1638,12
1606914091.1657,14
1606914091.1677,14
1606914091.1698,12
1606914091.1717,16
1606914091.1738,16
1606914091.1757,14
1606914091.1777,14
1606914091.1798,16
1606914091.1817,16
1606914091.1837,16
1606914091.1857,12
1606914091.1877,9
1606914091.1897,9
1606914091.1917,12
1606914091.1937,21
1606914091.1957,36
1606914091.6516,41
1606914091.6525,45
1606914091.6552,53
1606914091.6577,38
1606914091.6596,7
1606914091.6615,-14
1606914091.6636,-4
1606914091.6655,7
1606914091.6676,4
1606914091.6696,0
1606914091.6716,2
1606914091.6736,7
1606914091.6755,9
1606914091.6775,9
1606914091.6796,12
1606914091.6815,4
1606914091.6835,-33
1606914091.6855,-24
1606914091.6875,260
1606914091.6895,878
1606914091.6915,1319
1606914091.6935,977
1606914091.6955,127
1606914091.6975,-289
1606914091.6995,-118
1606914091.7015,-36
1606914091.7035,-142
1606914091.7055,-120
1606914091.7075,-60
1606914091.7096,-77
1606914091.7115,-74
1606914091.7135,-50
1606914091.7155,-48
1606914091.7175,-45
1606914091.7196,-31
1606914091.7215,-26
1606914091.7235,-24
1606914091.7255,-12
1606914091.7275,2
1606914091.7296,9
1606914091.7315,19
1606914091.7335,31
1606914091.7355,50
1606914091.7375,69
1606914091.7395,86
1606914091.7415,101
1606914091.7435,118
1606914091.7455,125
1606914091.7475,125
1606914091.7495,120
1606914091.7515,110
1606914091.7535,96
1606914091.7555,67
1606914091.7577,33
1606914091.7596,12
1606914091.7615,-4
1606914091.7635,-21
1606914091.7655,-31
1606914091.7676,-33
1606914091.7696,-38
1606914091.7715,-38
1606914091.7735,-33
1606914091.7755,-31
1606914091.7775,-28
1606914091.7796,-24
1606914091.7815,-21
1606914091.7835,-24
1606914091.7855,-21
1606914091.7875,-21
1606914091.7896,-24
1606914091.7915,-19
1606914091.7935,-9
1606914091.7955,-7
1606914092.1913,-4
1606914092.1921,-2
1606914092.1945,-2
1606914092.1971,2
1606914092.1991,9
1606914092.2011,12
1606914092.2031,12
1606914092.2051,7
1606914092.2071,4
1606914092.2091,4
1606914092.2111,2
1606914092.2131,-2
1606914092.2151,0
1606914092.2171,0
1606914092.2190,-2
1606914092.2210,-4
1606914092.2230,-2
1606914092.2250,-2
1606914092.2270,0
1606914092.2290,4
1606914092.2311,4
1606914092.2330,2
1606914092.2350,0
1606914092.2370,2
1606914092.2391,4
1606914092.2410,7
1606914092.2430,4
1606914092.2450,2
1606914092.2470,2
1606914092.2490,4
1606914092.2510,7
1606914092.2532,9
1606914092.2551,7
1606914092.2570,4
1606914092.2591,9
1606914092.2610,21
1606914092.2631,33
1606914092.2650,38
1606914092.2670,48
1606914092.2690,57
1606914092.2710,53
1606914092.2730,28
1606914092.2750,14
1606914092.2770,16
1606914092.2791,26
1606914092.2810,26
1606914092.2817,24
1606914092.2830,24
1606914092.2850,26
1606914092.2871,26
1606914092.2891,26
1606914092.2910,26
1606914092.2930,26
1606914092.2950,4
1606914092.2971,-19
1606914092.2991,125
1606914092.3010,639
1606914092.3031,1249
1606914092.3050,1225
1606914092.3070,407
1606914092.3090,-282
1606914092.3110,-238
1606914092.3117,-31
1606914092.3130,-101
1606914092.3151,-142
1606914092.3170,-65
1606914092.3190,-57
1606914092.3210,-72
1606914092.3230,-50
1606914092.3250,-36
1606914092.3270,-33
1606914092.3290,-19
1606914092.3311,-4
1606914092.7612,0
1606914092.7622,9
1606914092.7646,19
1606914092.7658,28
1606914092.7673,41
1606914092.7693,57
1606914092.7712,72
1606914092.7732,77
1606914092.7753,91
1606914092.7774,113
1606914092.7792,127
1606914092.7822,135
1606914092.7844,139
1606914092.7862,137
1606914092.7881,127
1606914092.7902,110
1606914092.7921,84
1606914092.7941,53
1606914092.7948,19
1606914092.7962,-9
1606914092.7982,-28
1606914092.8002,-41
1606914092.8022,-48
1606914092.8041,-50
1606914092.8061,-50
1606914092.8081,-53
1606914092.8102,-50
1606914092.8121,-45
1606914092.8141,-43
1606914092.8162,-38
1606914092.8182,-33
1606914092.8202,-31
1606914092.8223,-26
1606914092.8242,-19
1606914092.8248,-19
1606914092.8261,-16
1606914092.8281,-14
1606914092.8302,-12
1606914092.8321,-12
1606914092.8342,-7
1606914092.8361,-7
1606914092.8381,-4
1606914092.8402,-2
1606914092.8421,-4
1606914092.8441,-4
1606914092.8461,0
1606914092.8481,2
1606914092.8502,0
1606914092.8522,-2
1606914092.8541,-2
1606914092.8548,0
1606914092.8561,0
1606914092.8581,2
1606914092.8601,0
1606914092.8621,-7
1606914092.8641,-7
1606914092.8661,-2
1606914092.8681,0
1606914092.8702,-2
1606914092.8721,0
1606914092.8743,2
1606914092.8762,2
1606914092.8781,0
1606914092.8801,4
1606914092.8821,7
1606914092.8842,7
1606914092.8848,4
1606914092.8861,7
1606914092.8881,12
1606914092.8902,12
1606914092.8923,9
1606914092.8942,12
1606914092.8962,14
1606914093.3016,14
1606914093.3025,14
1606914093.3049,19
1606914093.3076,21
1606914093.3096,21
1606914093.3115,19
1606914093.3122,14
1606914093.3136,14
1606914093.3155,9
1606914093.3175,2
1606914093.3195,0
1606914093.3215,0
1606914093.3235,2
1606914093.3255,14
1606914093.3275,28
1606914093.3295,38
1606914093.3314,48
1606914093.3335,53
1606914093.3355,43
1606914093.3374,24
1606914093.3395,12
1606914093.3415,14
1606914093.3421,24
1606914093.3434,24
1606914093.3454,19
1606914093.3474,24
1606914093.3494,26
1606914093.3515,24
1606914093.3534,24
1606914093.3554,24
1606914093.3575,14
1606914093.3595,-28
1606914093.3614,-28
1606914093.3635,250
1606914093.3654,880
1606914093.3674,1389
1606914093.3695,1160
1606914093.3714,304
1606914093.3723,-265
1606914093.3735,-159
1606914093.3755,-38
1606914093.3774,-156
1606914093.3795,-156
1606914093.3814,-84
1606914093.3834,-101
1606914093.3855,-108
1606914093.3874,-77
1606914093.3895,-74
1606914093.3915,-77
1606914093.3935,-57
1606914093.3954,-48
1606914093.3974,-48
1606914093.3996,-38
1606914093.4014,-28
1606914093.4022,-24
1606914093.4034,-14
1606914093.4055,-4
1606914093.4075,7
1606914093.4095,21
1606914093.4115,33
1606914093.4135,53
1606914093.4154,72
1606914093.4174,84
1606914093.4195,91
1606914093.4214,91
1606914093.4235,86
1606914093.4254,74
1606914093.4275,57
1606914093.4295,33
1606914093.4301,7
1606914093.4314,-19
1606914093.4335,-38
1606914093.4355,-48
1606914093.8717,-50
1606914093.8727,-53
1606914093.8751,-53
1606914093.8778,-48
1606914093.8798,-43
1606914093.8817,-48
1606914093.8838,-53
1606914093.8857,-48
1606914093.8877,-43
1606914093.8896,-43
1606914093.8916,-41
1606914093.8936,-36
1606914093.8943,-31
1606914093.8956,-26
1606914093.8976,-24
1606914093.8997,-19
1606914093.9018,-14
1606914093.9037,-12
1606914093.9057,-9
1606914093.9076,-2
1606914093.9097,2
1606914093.9116,2
1606914093.9136,4
1606914093.9156,7
1606914093.9176,9
1606914093.9196,12
1606914093.9216,14
1606914093.9237,14
1606914093.9249,12
1606914093.9266,9
1606914093.9286,9
1606914093.9307,12
1606914093.9327,14
1606914093.9346,12
1606914093.9366,12
1606914093.9386,12
1606914093.9407,12
1606914093.9426,14
1606914093.9446,12
1606914093.9466,7
1606914093.9486,7
1606914093.9507,9
1606914093.9526,9
1606914093.9546,12
1606914093.9566,12
1606914093.9586,14
1606914093.9607,14
1606914093.9626,14
1606914093.9646,14
1606914093.9666,16
1606914093.9686,19
1606914093.9706,19
1606914093.9726,19
1606914093.9746,19
1606914093.9766,21
1606914093.9786,21
1606914093.9806,19
1606914093.9826,19
1606914093.9846,26
1606914093.9866,41
1606914093.9886,50
1606914093.9907,48
1606914093.9926,48
1606914093.9946,45
1606914093.9966,38
1606914093.9986,36
1606914094.0007,36
1606914094.0028,28
1606914094.0047,21
1606914094.0066,14
1606914094.0086,12
1606914094.0107,16
1606914094.0126,19
1606914094.4111,19
1606914094.4119,16
1606914094.4143,14
1606914094.4170,12
1606914094.4189,9
1606914094.4209,-7
1606914094.4230,-57
1606914094.4249,-14
1606914094.4269,369
1606914094.4289,1035
1606914094.4309,1375
1606914094.4329,890
1606914094.4349,33
1606914094.4369,-294
1606914094.4389,-106
1606914094.4409,-74
1606914094.4429,-183
1606914094.4449,-135
1606914094.4469,-86
1606914094.4489,-115
1606914094.4509,-103
1606914094.4529,-74
1606914094.4549,-74
1606914094.4570,-69
1606914094.4590,-53
1606914094.4609,-43
1606914094.4629,-41
1606914094.4649,-33
1606914094.4669,-21
1606914094.4689,-12
1606914094.4709,-4
1606914094.4729,2
1606914094.4749,19
1606914094.4769,38
1606914094.4789,57
1606914094.4809,77
1606914094.4829,96
1606914094.4849,106
1606914094.4869,108
1606914094.4889,108
1606914094.4909,106
1606914094.4929,94
1606914094.4949,67
1606914094.4969,36
1606914094.4989,12
1606914094.5011,-7
1606914094.5029,-26
1606914094.5050,-33
1606914094.5069,-38
1606914094.5089,-38
1606914094.5109,-38
1606914094.5129,-36
1606914094.5149,-36
1606914094.5169,-38
1606914094.5189,-36
1606914094.5209,-31
1606914094.5229,-28
1606914094.5249,-28
1606914094.5269,-28
1606914094.5289,-26
1606914094.5309,-21
1606914094.5329,-16
1606914094.5349,-12
1606914094.5369,-4
1606914094.5389,-4
1606914094.5409,-4
1606914094.5429,2
1606914094.5449,9
1606914094.5469,14
1606914094.5489,12
1606914094.5509,9
1606914094.5529,14
1606914094.5549,16
1606914095.0114,16
1606914095.0123,19
1606914095.0148,21
1606914095.0174,19
1606914095.0195,7
1606914095.0214,4
1606914095.0235,14
1606914095.0254,14
1606914095.0274,9
1606914095.0295,14
1606914095.0314,21
1606914095.0334,14
1606914095.0354,2
1606914095.0374,4
1606914095.0394,12
1606914095.0414,12
1606914095.0434,9
1606914095.0454,9
1606914095.0474,12
1606914095.0495,14
1606914095.0513,14
1606914095.0533,14
1606914095.0553,16
1606914095.0575,14
1606914095.0595,9
1606914095.0614,9
1606914095.0633,12
1606914095.0653,9
1606914095.0673,7
1606914095.0694,7
1606914095.0713,4
1606914095.0733,4
1606914095.0753,14
1606914095.0773,31
1606914095.0795,45
1606914095.0813,48
1606914095.0833,43
1606914095.0853,33
1606914095.0873,33
1606914095.0894,36
1606914095.0913,24
1606914095.0933,14
1606914095.0953,9
1606914095.0973,4
1606914095.0994,7
1606914095.1013,12
1606914095.1033,12
1606914095.1053,9
1606914095.1073,12
1606914095.1094,12
1606914095.1113,14
1606914095.1133,19
1606914095.1153,2
1606914095.1173,-41
1606914095.1194,31
1606914095.1213,446
1606914095.1233,1112
1606914095.1253,1363
1606914095.1273,740
1606914095.1295,-110
1606914095.1313,-299
1606914095.1333,-60
1606914095.1353,-62
1606914095.1373,-161
1606914095.1394,-96
1606914095.1413,-57
1606914095.1433,-82
1606914095.1453,-62
1606914095.1473,-41
1606914095.1494,-43
1606914095.1513,-31
1606914095.1533,-16
1606914095.1553,-16
1606914095.5811,-7
1606914095.5820,9
1606914095.5843,14
1606914095.5869,19
1606914095.5889,38
1606914095.5909,53
1606914095.5929,62
1606914095.5949,84
1606914095.5969,106
1606914095.5989,113
1606914095.6009,123
1606914095.6029,139
1606914095.6049,149
1606914095.6069,139
1606914095.6089,125
1606914095.6108,106
1606914095.6129,69
1606914095.6148,24
1606914095.6168,-9
1606914095.6189,-31
1606914095.6208,-45
1606914095.6229,-57
1606914095.6248,-62
1606914095.6268,-62
1606914095.6289,-60
1606914095.6308,-62
1606914095.6328,-62
1606914095.6348,-57
1606914095.6368,-55
1606914095.6388,-50
1606914095.6409,-45
1606914095.6428,-43
1606914095.6448,-38
1606914095.6469,-31
1606914095.6488,-26
1606914095.6509,-26
1606914095.6529,-21
1606914095.6548,-16
1606914095.6568,-14
1606914095.6588,-12
1606914095.6609,-7
1606914095.6628,-2
1606914095.6648,2
1606914095.6668,4
1606914095.6689,0
1606914095.6709,2
1606914095.6728,7
1606914095.6748,12
1606914095.6768,9
1606914095.6788,9
1606914095.6809,7
1606914095.6828,7
1606914095.6850,7
1606914095.6869,9
1606914095.6888,12
1606914095.6908,12
1606914095.6929,12
1606914095.6948,14
1606914095.6968,14
1606914095.6988,16
1606914095.7008,16
1606914095.7028,19
1606914095.7048,16
1606914095.7068,14
1606914095.7089,14
1606914095.7108,12
1606914095.7128,9
1606914095.7148,2
1606914095.7168,0
1606914095.7189,2
1606914095.7209,4
1606914095.7229,4
1606914095.7249,2
1606914096.1214,4
1606914096.1222,4
1606914096.1247,2
1606914096.1273,2
1606914096.1293,4
1606914096.1312,14
1606914096.1334,31
1606914096.1352,38
1606914096.1372,33
1606914096.1394,26
1606914096.1412,16
1606914096.1432,9
1606914096.1452,14
1606914096.1472,9
1606914096.1493,-2
1606914096.1512,-4
1606914096.1532,-7
1606914096.1552,-7
1606914096.1572,-2
1606914096.1592,-2
1606914096.1612,0
1606914096.1632,2
1606914096.1652,4
1606914096.1672,4
1606914096.1693,7
1606914096.1712,-14
1606914096.1732,-62
1606914096.1752,0
1606914096.1772,412
1606914096.1792,1088
1606914096.1814,1399
1606914096.1833,868
1606914096.1853,2
1606914096.1872,-299
1606914096.1893,-94
1606914096.1912,-72
1606914096.1932,-180
1606914096.1952,-127
1606914096.1972,-82
1606914096.1992,-108
1606914096.2012,-94
1606914096.2032,-65
1606914096.2052,-65
1606914096.2072,-60
1606914096.2092,-43
1606914096.2112,-38
1606914096.2132,-33
1606914096.2152,-21
1606914096.2172,-14
1606914096.2192,-9
1606914096.2212,2
1606914096.2232,16
1606914096.2252,31
1606914096.2272,45
1606914096.2293,62
1606914096.2312,82
1606914096.2332,101
1606914096.2352,108
1606914096.2372,108
1606914096.2393,108
1606914096.2413,103
1606914096.2432,89
1606914096.2452,65
1606914096.2472,36
1606914096.2493,9
1606914096.2512,-9
1606914096.2532,-26
1606914096.2552,-38
1606914096.2572,-43
1606914096.2592,-45
1606914096.2612,-41
1606914096.2632,-38
1606914096.2652,-38
1606914096.6917,-41
1606914096.6926,-41
1606914096.6951,-38
1606914096.6978,-33
1606914096.6997,-31
1606914096.7017,-26
1606914096.7038,-24
1606914096.7057,-28
1606914096.7079,-28
1606914096.7098,-24
1606914096.7116,-16
1606914096.7136,-14
1606914096.7157,-12
1606914096.7176,-7
1606914096.7197,-2
1606914096.7216,0
1606914096.7236,0
1606914096.7257,2
1606914096.7277,2
1606914096.7296,4
1606914096.7316,7
1606914096.7336,7
1606914096.7357,7
1606914096.7376,7
1606914096.7397,7
1606914096.7416,9
1606914096.7436,9
1606914096.7456,7
1606914096.7476,7
1606914096.7497,9
1606914096.7516,7
1606914096.7536,7
1606914096.7558,9
1606914096.7581,12
1606914096.7598,12
1606914096.7617,12
1606914096.7637,9
1606914096.7657,12
1606914096.7677,12
1606914096.7698,9
1606914096.7717,12
1606914096.7738,14
1606914096.7758,12
1606914096.7777,7
1606914096.7797,7
1606914096.7818,7
1606914096.7837,9
1606914096.7860,9
1606914096.7877,4
1606914096.7897,4
1606914096.7917,4
1606914096.7937,4
1606914096.7959,12
1606914096.7977,14
1606914096.7997,9
1606914096.8016,7
1606914096.8036,12
1606914096.8056,19
1606914096.8077,28
1606914096.8099,41
1606914096.8117,50
1606914096.8136,50
1606914096.8156,50
1606914096.8176,43
1606914096.8197,38
1606914096.8216,36
1606914096.8240,26
1606914096.8256,19
1606914096.8276,16
1606914096.8297,7
1606914096.8316,2
1606914096.8336,12
1606914096.8357,16
1606914097.2312,14
1606914097.2321,14
1606914097.2347,16
1606914097.2372,14
1606914097.2393,9
1606914097.2412,-16
1606914097.2432,-43
1606914097.2452,132
1606914097.2472,673
1606914097.2492,1266
1606914097.2511,1254
1606914097.2531,482
1606914097.2552,-231
1606914097.2571,-236
1606914097.2592,-43
1606914097.2611,-123
1606914097.2632,-176
1606914097.2651,-101
1606914097.2671,-89
1606914097.2691,-101
1606914097.2711,-72
1606914097.2731,-57
1606914097.2751,-60
1606914097.2771,-48
1606914097.2792,-33
1606914097.2811,-28
1606914097.2831,-21
1606914097.2851,-9
1606914097.2871,-2
1606914097.2891,4
1606914097.2911,21
1606914097.2931,38
1606914097.2952,53
1606914097.2972,72
1606914097.2991,91
1606914097.3011,110
1606914097.3032,127
1606914097.3061,137
1606914097.3072,142
1606914097.3092,135
1606914097.3111,123
1606914097.3131,110
1606914097.3151,89
1606914097.3171,45
1606914097.3191,9
1606914097.3211,-9
1606914097.3231,-21
1606914097.3251,-38
1606914097.3271,-50
1606914097.3291,-45
1606914097.3311,-38
1606914097.3331,-41
1606914097.3351,-43
1606914097.3372,-38
1606914097.3393,-31
1606914097.3411,-28
1606914097.3431,-28
1606914097.3451,-26
1606914097.3471,-24
1606914097.3491,-24
1606914097.3511,-19
1606914097.3531,-9
1606914097.3551,-4
1606914097.3571,-7
1606914097.3591,-9
1606914097.3611,-2
1606914097.3631,4
1606914097.3651,7
1606914097.3671,9
1606914097.3692,7
1606914097.3711,7
1606914097.3732,12
1606914097.3751,14
1606914097.7714,9
1606914097.7721,4
1606914097.7745,9
1606914097.7764,12
1606914097.7782,7
1606914097.7802,4
1606914097.7822,0
1606914097.7842,-2
1606914097.7861,-2
1606914097.7881,0
1606914097.7901,0
1606914097.7921,2
1606914097.7941,7
1606914097.7962,9
1606914097.7981,9
1606914097.8003,12
1606914097.8023,7
1606914097.8041,2
1606914097.8061,4
1606914097.8081,7
1606914097.8101,4
1606914097.8121,4
1606914097.8141,4
1606914097.8161,7
1606914097.8181,12
1606914097.8202,9
1606914097.8221,9
1606914097.8241,12
1606914097.8261,7
1606914097.8281,7
1606914097.8301,14
1606914097.8321,28
1606914097.8341,38
1606914097.8361,43
1606914097.8381,41
1606914097.8401,41
1606914097.8421,36
1606914097.8441,33
1606914097.8461,31
1606914097.8481,21
1606914097.8501,12
1606914097.8521,4
1606914097.8541,9
1606914097.8561,16
1606914097.8581,14
1606914097.8601,12
1606914097.8621,16
1606914097.8641,19
1606914097.8662,12
1606914097.8681,14
1606914097.8702,7
1606914097.8721,-31
1606914097.8741,21
1606914097.8761,419
1606914097.8781,1097
1606914097.8802,1353
1606914097.8821,719
1606914097.8841,-144
1606914097.8861,-335
1606914097.8881,-74
1606914097.8901,-62
1606914097.8921,-161
1606914097.8941,-96
1606914097.8961,-60
1606914097.8981,-91
1606914097.9001,-72
1606914097.9023,-43
1606914097.9042,-43
1606914097.9061,-31
1606914097.9081,-14
1606914097.9101,-9
1606914097.9121,-2
1606914097.9141,7
1606914098.3714,19
1606914098.3722,28
1606914098.3746,36
1606914098.3773,41
1606914098.3794,55
1606914098.3813,79
1606914098.3835,98
1606914098.3853,113
1606914098.3873,130
1606914098.3893,139
1606914098.3912,142
1606914098.3932,137
1606914098.3952,130
1606914098.3972,110
1606914098.3993,79
1606914098.4012,41
1606914098.4033,9
1606914098.4052,-16
1606914098.4072,-36
1606914098.4093,-48
1606914098.4112,-53
1606914098.4133,-57
1606914098.4152,-65
1606914098.4172,-65
1606914098.4193,-57
1606914098.4212,-55
1606914098.4232,-55
1606914098.4252,-50
1606914098.4272,-43
1606914098.4293,-38
1606914098.4312,-33
1606914098.4332,-28
1606914098.4352,-26
1606914098.4372,-21
1606914098.4393,-19
1606914098.4412,-14
1606914098.4432,-12
1606914098.4452,-9
1606914098.4472,-9
1606914098.4493,-9
1606914098.4512,-7
1606914098.4532,-2
1606914098.4552,-2
1606914098.4572,-4
1606914098.4594,-4
1606914098.4612,-9
1606914098.4632,-12
1606914098.4652,-7
1606914098.4672,-7
1606914098.4692,-9
1606914098.4712,-12
1606914098.4732,-12
1606914098.4752,-7
1606914098.4772,-4
1606914098.4793,-7
1606914098.4812,-7
1606914098.4832,-4
1606914098.4852,-4
1606914098.4872,-4
1606914098.4893,-2
1606914098.4912,2
1606914098.4932,2
1606914098.4952,0
1606914098.4972,-2
1606914098.4993,-2
1606914098.5012,-2
1606914098.5032,-4
1606914098.5052,-4
1606914098.5072,-2
1606914098.5092,-2
1606914098.5112,-2
1606914098.5132,0
1606914098.5152,2
1606914098.9416,2
1606914098.9425,0
1606914098.9450,2
1606914098.9476,2
1606914098.9497,2
1606914098.9516,4
1606914098.9537,19
1606914098.9556,33
1606914098.9576,31
1606914098.9596,24
1606914098.9615,26
1606914098.9637,26
1606914098.9655,21
1606914098.9675,16
1606914098.9695,9
1606914098.9715,4
1606914098.9735,0
1606914098.9755,-7
1606914098.9775,-2
1606914098.9795,4
1606914098.9815,2
1606914098.9835,2
1606914098.9858,7
1606914098.9876,7
1606914098.9895,4
1606914098.9915,-12
1606914098.9921,-57
1606914098.9935,-9
1606914098.9954,374
1606914098.9975,1035
1606914098.9995,1399
1606914099.0015,962
1606914099.0035,91
1606914099.0055,-299
1606914099.0075,-113
1606914099.0095,-57
1606914099.0114,-180
1606914099.0135,-144
1606914099.0155,-94
1606914099.0175,-120
1606914099.0195,-106
1606914099.0215,-74
1606914099.0221,-72
1606914099.0234,-69
1606914099.0255,-55
1606914099.0275,-50
1606914099.0295,-48
1606914099.0315,-38
1606914099.0334,-31
1606914099.0355,-24
1606914099.0375,-12
1606914099.0395,0
1606914099.0415,12
1606914099.0434,31
1606914099.0455,50
1606914099.0475,67
1606914099.0495,82
1606914099.0515,96
1606914099.0521,103
1606914099.0534,103
1606914099.0555,101
1606914099.0574,91
1606914099.0595,72
1606914099.0615,45
1606914099.0635,19
1606914099.0655,-2
1606914099.0675,-19
1606914099.0695,-31
1606914099.0715,-38
1606914099.0735,-41
1606914099.0755,-41
1606914099.0774,-38
1606914099.0795,-36
1606914099.4817,-33
1606914099.4827,-31
1606914099.4853,-28
1606914099.4877,-28
1606914099.4896,-26
1606914099.4916,-26
1606914099.4936,-24
1606914099.4956,-19
1606914099.4976,-19
1606914099.4997,-21
1606914099.5016,-21
1606914099.5035,-16
1606914099.5056,-12
1606914099.5063,-14
1606914099.5086,-12
1606914099.5106,-2
1606914099.5126,0
1606914099.5146,-2
1606914099.5166,-2
1606914099.5186,2
1606914099.5206,4
1606914099.5226,4
1606914099.5246,2
1606914099.5267,4
1606914099.5286,4
1606914099.5306,2
1606914099.5326,4
1606914099.5346,4
1606914099.5366,4
1606914099.5373,2
1606914099.5386,0
1606914099.5406,-4
1606914099.5426,-4
1606914099.5446,-2
1606914099.5466,0
1606914099.5486,0
1606914099.5506,-2
1606914099.5526,-9
1606914099.5546,-7
1606914099.5566,-4
1606914099.5586,-7
1606914099.5606,-9
1606914099.5626,-7
1606914099.5646,-4
1606914099.5666,-2
1606914099.5673,-4
1606914099.5686,-2
1606914099.5706,-2
1606914099.5726,-2
1606914099.5746,-4
1606914099.5766,-2
1606914099.5787,0
1606914099.5806,7
1606914099.5826,24
1606914099.5846,38
1606914099.5866,41
1606914099.5886,36
1606914099.5906,31
1606914099.5926,28
1606914099.5946,31
1606914099.5966,31
1606914099.5973,21
1606914099.5986,14
1606914099.6006,7
1606914099.6026,4
1606914099.6046,14
1606914099.6066,16
1606914099.6086,12
1606914099.6106,9
1606914099.6126,14
1606914099.6146,19
1606914099.6166,9
1606914099.6186,-26
1606914100.0518,-53
1606914100.0530,139
1606914100.0554,692
1606914100.0581,1281
1606914100.0589,1249
1606914100.0610,465
1606914100.0630,-238
1606914100.0651,-234
1606914100.0670,-48
1606914100.0690,-130
1606914100.0709,-176
1606914100.0729,-101
1606914100.0749,-91
1606914100.0769,-103
1606914100.0790,-77
1606914100.0809,-62
1606914100.0829,-62
1606914100.0849,-50
1606914100.0869,-38
1606914100.0889,-36
1606914100.0896,-28
1606914100.0909,-16
1606914100.0929,-9
1606914100.0949,-4
1606914100.0969,7
1606914100.0989,24
1606914100.1009,36
1606914100.1029,55
1606914100.1049,82
1606914100.1071,101
1606914100.1089,110
1606914100.1109,125
1606914100.1129,132
1606914100.1149,125
1606914100.1169,110
1606914100.1189,98
1606914100.1196,77
1606914100.1209,36
1606914100.1229,2
1606914100.1249,-14
1606914100.1269,-26
1606914100.1289,-43
1606914100.1309,-50
1606914100.1329,-48
1606914100.1349,-41
1606914100.1369,-36
1606914100.1389,-38
1606914100.1409,-41
1606914100.1429,-41
1606914100.1449,-33
1606914100.1469,-28
1606914100.1489,-24
1606914100.1496,-19
1606914100.1509,-19
1606914100.1529,-19
1606914100.1549,-14
1606914100.1569,-7
1606914100.1589,0
1606914100.1609,-2
1606914100.1629,-4
1606914100.1649,-2
1606914100.1669,-2
1606914100.1689,-2
1606914100.1709,7
1606914100.1729,12
1606914100.1749,7
1606914100.1769,4
1606914100.1789,12
1606914100.1796,16
1606914100.1809,16
1606914100.1829,16
1606914100.1849,14
1606914100.1869,14
1606914100.5912,14
1606914100.5921,14
1606914100.5945,16
1606914100.5974,14
1606914100.5992,9
1606914100.6011,9
1606914100.6031,14
1606914100.6053,9
1606914100.6071,4
1606914100.6091,7
1606914100.6111,4
1606914100.6132,-2
1606914100.6151,2
1606914100.6170,9
1606914100.6191,12
1606914100.6210,9
1606914100.6230,4
1606914100.6250,0
1606914100.6271,-2
1606914100.6290,-2
1606914100.6310,-4
1606914100.6330,-7
1606914100.6350,-4
1606914100.6370,2
1606914100.6391,12
1606914100.6410,26
1606914100.6431,38
1606914100.6450,41
1606914100.6470,33
1606914100.6491,28
1606914100.6510,28
1606914100.6530,26
1606914100.6550,16
1606914100.6570,9
1606914100.6591,4
1606914100.6610,0
1606914100.6630,4
1606914100.6650,12
1606914100.6670,7
1606914100.6691,4
1606914100.6710,9
1606914100.6730,12
1606914100.6750,14
1606914100.6771,2
1606914100.6791,-33
1606914100.6810,-7
1606914100.6830,320
1606914100.6850,969
1606914100.6870,1358
1606914100.6891,900
1606914100.6910,0
1606914100.6931,-357
1606914100.6950,-118
1606914100.6970,-41
1606914100.6991,-159
1606914100.7010,-118
1606914100.7030,-55
1606914100.7050,-79
1606914100.7072,-74
1606914100.7091,-43
1606914100.7111,-38
1606914100.7130,-33
1606914100.7150,-19
1606914100.7170,-12
1606914100.7191,-2
1606914100.7210,9
1606914100.7231,16
1606914100.7251,24
1606914100.7270,36
1606914100.7291,50
1606914100.7310,65
1606914100.7330,82
1606914100.7350,103
1606914101.1613,125
1606914101.1624,139
1606914101.1648,149
1606914101.1675,154
1606914101.1694,149
1606914101.1714,135
1606914101.1735,113
1606914101.1754,84
1606914101.1774,43
1606914101.1795,2
1606914101.1814,-26
1606914101.1834,-43
1606914101.1854,-55
1606914101.1874,-65
1606914101.1895,-65
1606914101.1914,-62
1606914101.1934,-62
1606914101.1954,-62
1606914101.1974,-57
1606914101.1994,-53
1606914101.2014,-50
1606914101.2034,-45
1606914101.2054,-38
1606914101.2074,-31
1606914101.2094,-28
1606914101.2114,-24
1606914101.2134,-19
1606914101.2154,-14
1606914101.2174,-14
1606914101.2194,-12
1606914101.2213,-7
1606914101.2233,-7
1606914101.2254,-4
1606914101.2273,-2
1606914101.2294,-2
1606914101.2313,0
1606914101.2335,0
1606914101.2354,2
1606914101.2373,4
1606914101.2394,4
1606914101.2413,4
1606914101.2433,2
1606914101.2453,2
1606914101.2473,2
1606914101.2494,4
1606914101.2513,4
1606914101.2533,4
1606914101.2553,2
1606914101.2574,2
1606914101.2594,4
1606914101.2613,4
1606914101.2633,4
1606914101.2653,2
1606914101.2673,4
1606914101.2694,7
1606914101.2713,7
1606914101.2733,7
1606914101.2753,7
1606914101.2773,7
1606914101.2793,9
1606914101.2813,9
1606914101.2833,7
1606914101.2853,7
1606914101.2873,4
1606914101.2893,2
1606914101.2913,0
1606914101.2933,2
1606914101.2953,2
1606914101.2973,0
1606914101.2993,4
1606914101.3013,21
1606914101.3033,36
1606914101.3053,38
1606914101.7612,38
1606914101.7621,31
1606914101.7646,21
1606914101.7672,19
1606914101.7693,21
1606914101.7712,14
1606914101.7733,0
1606914101.7752,-12
1606914101.7772,-12
1606914101.7793,-4
1606914101.7813,-4
1606914101.7832,-7
1606914101.7852,-2
1606914101.7872,0
1606914101.7895,-2
1606914101.7912,-2
1606914101.7931,-16
1606914101.7952,-62
1606914101.7972,-2
1606914101.7992,398
1606914101.8011,1054
1606914101.8031,1380
1606914101.8052,902
1606914101.8071,45
1606914101.8093,-296
1606914101.8111,-103
1606914101.8131,-67
1606914101.8151,-180
1606914101.8171,-132
1606914101.8193,-82
1606914101.8211,-110
1606914101.8231,-94
1606914101.8251,-65
1606914101.8271,-72
1606914101.8292,-67
1606914101.8311,-48
1606914101.8331,-43
1606914101.8351,-38
1606914101.8371,-31
1606914101.8392,-24
1606914101.8411,-14
1606914101.8431,-4
1606914101.8451,7
1606914101.8471,24
1606914101.8492,38
1606914101.8511,53
1606914101.8531,74
1606914101.8551,94
1606914101.8571,106
1606914101.8592,108
1606914101.8611,108
1606914101.8631,106
1606914101.8651,94
1606914101.8671,74
1606914101.8691,45
1606914101.8711,19
1606914101.8731,-2
1606914101.8751,-19
1606914101.8771,-31
1606914101.8792,-36
1606914101.8811,-41
1606914101.8831,-38
1606914101.8851,-36
1606914101.8871,-33
1606914101.8892,-33
1606914101.8913,-33
1606914101.8932,-38
1606914101.8951,-36
1606914101.8971,-31
1606914101.8992,-28
1606914101.9011,-26
1606914101.9032,-24
1606914101.9051,-16
1606914102.3015,-14
1606914102.3023,-12
1606914102.3047,-9
1606914102.3074,-4
1606914102.3094,-2
1606914102.3113,0
1606914102.3134,2
1606914102.3153,9
1606914102.3160,9
1606914102.3173,9
1606914102.3193,9
1606914102.3213,4
1606914102.3233,0
1606914102.3253,4
1606914102.3273,9
1606914102.3294,7
1606914102.3313,4
1606914102.3333,7
1606914102.3353,9
1606914102.3373,7
1606914102.3393,7
1606914102.3413,9
1606914102.3433,12
1606914102.3453,7
1606914102.3459,0
1606914102.3473,0
1606914102.3493,4
1606914102.3513,4
1606914102.3533,7
1606914102.3553,9
1606914102.3573,9
1606914102.3593,9
1606914102.3613,9
1606914102.3633,12
1606914102.3653,9
1606914102.3672,7
1606914102.3693,7
1606914102.3713,7
1606914102.3733,4
1606914102.3753,0
1606914102.3759,-2
1606914102.3773,12
1606914102.3793,31
1606914102.3814,41
1606914102.3833,41
1606914102.3853,41
1606914102.3873,33
1606914102.3893,26
1606914102.3913,28
1606914102.3933,21
1606914102.3953,7
1606914102.3973,7
1606914102.3993,4
1606914102.4013,4
1606914102.4033,12
1606914102.4053,12
1606914102.4060,7
1606914102.4073,9
1606914102.4093,9
1606914102.4113,7
1606914102.4133,4
1606914102.4153,-31
1606914102.4173,-55
1606914102.4193,159
1606914102.4213,745
1606914102.4233,1310
1606914102.4253,1187
1606914102.4273,357
1606914102.4293,-272
1606914102.4313,-197
1606914102.4333,-38
1606914102.4339,-137
1606914102.4353,-154
1606914102.8713,-77
1606914102.8722,-86
1606914102.8746,-96
1606914102.8773,-62
1606914102.8794,-53
1606914102.8812,-53
1606914102.8834,-33
1606914102.8852,-26
1606914102.8872,-33
1606914102.8893,-31
1606914102.8915,-14
1606914102.8932,0
1606914102.8953,7
1606914102.8961,16
1606914102.8982,33
1606914102.9002,48
1606914102.9022,62
1606914102.9042,86
1606914102.9062,110
1606914102.9082,123
1606914102.9102,132
1606914102.9124,132
1606914102.9142,127
1606914102.9162,120
1606914102.9182,101
1606914102.9202,65
1606914102.9221,28
1606914102.9242,-2
1606914102.9261,-28
1606914102.9268,-43
1606914102.9282,-50
1606914102.9302,-55
1606914102.9322,-57
1606914102.9343,-55
1606914102.9362,-50
1606914102.9382,-48
1606914102.9402,-50
1606914102.9421,-50
1606914102.9441,-43
1606914102.9461,-36
1606914102.9481,-31
1606914102.9501,-33
1606914102.9521,-31
1606914102.9542,-24
1606914102.9562,-19
1606914102.9568,-14
1606914102.9582,-9
1606914102.9601,-9
1606914102.9621,-9
1606914102.9641,-7
1606914102.9661,-7
1606914102.9681,-9
1606914102.9701,-9
1606914102.9722,-4
1606914102.9742,-7
1606914102.9762,-9
1606914102.9781,-2
1606914102.9801,2
1606914102.9821,4
1606914102.9841,7
1606914102.9861,7
1606914102.9868,0
1606914102.9881,2
1606914102.9901,9
1606914102.9921,9
1606914102.9941,9
1606914102.9961,12
1606914102.9981,7
1606914103.0001,2
1606914103.0021,4
1606914103.0041,9
1606914103.0061,9
1606914103.0083,9
1606914103.4115,9
1606914103.4124,9
1606914103.4140,7
1606914103.4165,12
1606914103.4185,14
1606914103.4204,12
1606914103.4224,14
1606914103.4244,31
1606914103.4264,45
1606914103.4284,43
1606914103.4304,33
1606914103.4324,26
1606914103.4344,24
1606914103.4364,16
1606914103.4384,12
1606914103.4404,4
1606914103.4423,0
1606914103.4443,-4
1606914103.4450,-7
1606914103.4463,-2
1606914103.4484,2
1606914103.4504,2
1606914103.4523,0
1606914103.4544,0
1606914103.4563,2
1606914103.4583,7
1606914103.4603,-2
1606914103.4623,-36
1606914103.4643,4
1606914103.4663,364
1606914103.4684,1030
1606914103.4703,1360
1606914103.4723,808
1606914103.4743,-89
1606914103.4826,-364
1606914103.4843,-101
1606914103.4863,-53
1606914103.4883,-161
1606914103.4903,-108
1606914103.4923,-57
1606914103.4943,-82
1606914103.4963,-72
1606914103.4983,-45
1606914103.5004,-45
1606914103.5023,-41
1606914103.5043,-24
1606914103.5063,-12
1606914103.5084,-4
1606914103.5104,7
1606914103.5110,16
1606914103.5125,26
1606914103.5144,43
1606914103.5163,60
1606914103.5183,72
1606914103.5203,89
1606914103.5223,115
1606914103.5243,137
1606914103.5263,152
1606914103.5283,161
1606914103.5304,168
1606914103.5323,164
1606914103.5344,149
1606914103.5363,127
1606914103.5383,91
1606914103.5403,50
1606914103.5410,14
1606914103.5424,-12
1606914103.5443,-33
1606914103.5463,-45
1606914103.5483,-55
1606914103.5504,-60
1606914103.5523,-60
1606914103.5543,-60
1606914103.9818,-57
1606914103.9827,-53
1606914103.9851,-48
1606914103.9878,-43
1606914103.9898,-38
1606914103.9917,-33
1606914103.9939,-31
1606914103.9957,-31
1606914103.9964,-26
1606914103.9987,-16
1606914104.0007,-16
1606914104.0028,-16
1606914104.0047,-9
1606914104.0067,-4
1606914104.0087,-2
1606914104.0106,-2
1606914104.0127,-2
1606914104.0146,0
1606914104.0166,0
1606914104.0187,2
1606914104.0206,4
1606914104.0226,7
1606914104.0246,4
1606914104.0266,4
1606914104.0274,4
1606914104.0296,7
1606914104.0316,7
1606914104.0336,7
1606914104.0358,7
1606914104.0377,4
1606914104.0397,2
1606914104.0416,4
1606914104.0437,7
1606914104.0456,7
1606914104.0476,4
1606914104.0496,2
1606914104.0516,0
1606914104.0536,0
1606914104.0556,2
1606914104.0576,0
1606914104.0584,0
1606914104.0607,0
1606914104.0626,0
1606914104.0647,2
1606914104.0666,4
1606914104.0686,4
1606914104.0706,4
1606914104.0726,2
1606914104.0746,4
1606914104.0766,4
1606914104.0786,12
1606914104.0806,28
1606914104.0826,43
1606914104.0846,45
1606914104.0866,41
1606914104.0886,36
1606914104.0893,31
1606914104.0916,26
1606914104.0936,21
1606914104.0956,14
1606914104.0976,9
1606914104.0996,-2
1606914104.1016,-9
1606914104.1036,0
1606914104.1056,4
1606914104.1076,-2
1606914104.1096,-2
1606914104.1116,2
1606914104.1136,7
1606914104.1156,4
1606914104.1176,-14
1606914104.1197,-62
1606914104.1203,0
1606914104.5209,400
1606914104.5216,1061
1606914104.5240,1404
1606914104.5267,945
1606914104.5287,62
1606914104.5306,-313
1606914104.5329,-120
1606914104.5347,-77
1606914104.5366,-202
1606914104.5386,-161
1606914104.5406,-103
1606914104.5426,-127
1606914104.5434,-120
1606914104.5457,-86
1606914104.5476,-82
1606914104.5497,-79
1606914104.5516,-65
1606914104.5536,-57
1606914104.5556,-50
1606914104.5576,-38
1606914104.5597,-33
1606914104.5616,-26
1606914104.5636,-14
1606914104.5656,-2
1606914104.5676,9
1606914104.5696,28
1606914104.5716,48
1606914104.5736,67
1606914104.5743,82
1606914104.5756,91
1606914104.5776,96
1606914104.5797,98
1606914104.5816,94
1606914104.5836,84
1606914104.5856,65
1606914104.5876,36
1606914104.5897,7
1606914104.5916,-12
1606914104.5936,-26
1606914104.5956,-41
1606914104.5976,-50
1606914104.5996,-50
1606914104.6016,-45
1606914104.6036,-43
1606914104.6043,-43
1606914104.6056,-38
1606914104.6076,-33
1606914104.6096,-36
1606914104.6116,-33
1606914104.6136,-28
1606914104.6156,-24
1606914104.6176,-19
1606914104.6197,-19
1606914104.6216,-16
1606914104.6236,-12
1606914104.6256,-9
1606914104.6276,-4
1606914104.6298,-2
1606914104.6317,0
1606914104.6336,2
1606914104.6343,4
1606914104.6356,9
1606914104.6376,16
1606914104.6397,16
1606914104.6416,12
1606914104.6436,16
1606914104.6456,24
1606914104.6476,21
1606914104.6496,16
1606914104.6516,19
1606914104.6536,24
1606914104.6556,21
1606914104.6576,16
1606914105.1217,14
1606914105.1228,19
1606914105.1252,21
1606914105.1264,21
1606914105.1279,19
1606914105.1300,12
1606914105.1319,7
1606914105.1339,9
1606914105.1359,14
1606914105.1379,9
1606914105.1398,7
1606914105.1418,7
1606914105.1438,7
1606914105.1458,7
1606914105.1478,12
1606914105.1500,12
1606914105.1518,7
1606914105.1538,7
1606914105.1558,9
1606914105.1565,7
1606914105.1578,9
1606914105.1598,21
1606914105.1618,31
1606914105.1638,38
1606914105.1658,45
1606914105.1678,45
1606914105.1698,38
1606914105.1718,28
1606914105.1738,24
1606914105.1758,19
1606914105.1778,14
1606914105.1798,2
1606914105.1818,-4
1606914105.1838,-2
1606914105.1858,7
1606914105.1866,7
1606914105.1878,2
1606914105.1897,7
1606914105.1918,9
1606914105.1938,9
1606914105.1958,4
1606914105.1978,-19
1606914105.1998,-50
1606914105.2018,91
1606914105.2038,608
1606914105.2058,1240
1606914105.2078,1288
1606914105.2098,528
1606914105.2118,-224
1606914105.2138,-267
1606914105.2158,-50
1606914105.2165,-103
1606914105.2178,-168
1606914105.2197,-96
1606914105.2218,-77
1606914105.2238,-91
1606914105.2257,-67
1606914105.2278,-50
1606914105.2298,-48
1606914105.2318,-33
1606914105.2338,-26
1606914105.2357,-26
1606914105.2378,-12
1606914105.2397,4
1606914105.2418,14
1606914105.2438,16
1606914105.2458,28
1606914105.2464,45
1606914105.2479,65
1606914105.2498,86
1606914105.2518,108
1606914105.2538,130
1606914105.2558,147
1606914105.6611,154
1606914105.6620,154
1606914105.6644,149
1606914105.6671,137
1606914105.6692,118
1606914105.6711,86
1606914105.6731,43
1606914105.6737,2
1606914105.6750,-19
1606914105.6770,-33
1606914105.6791,-55
1606914105.6810,-72
1606914105.6830,-67
1606914105.6852,-60
1606914105.6870,-67
1606914105.6890,-72
1606914105.6910,-65
1606914105.6930,-57
1606914105.6950,-57
1606914105.6970,-53
1606914105.6991,-45
1606914105.7010,-41
1606914105.7030,-38
1606914105.7036,-31
1606914105.7050,-26
1606914105.7070,-21
1606914105.7090,-19
1606914105.7109,-19
1606914105.7129,-9
1606914105.7150,-4
1606914105.7169,-4
1606914105.7190,-2
1606914105.7210,2
1606914105.7230,4
1606914105.7250,0
1606914105.7270,0
1606914105.7290,0
1606914105.7309,2
1606914105.7330,4
1606914105.7337,7
1606914105.7350,7
1606914105.7370,7
1606914105.7390,9
1606914105.7410,12
1606914105.7430,12
1606914105.7450,9
1606914105.7470,12
1606914105.7490,14
1606914105.7510,19
1606914105.7530,16
1606914105.7550,16
1606914105.7570,16
1606914105.7590,14
1606914105.7610,19
1606914105.7630,26
1606914105.7636,24
1606914105.7650,19
1606914105.7670,14
1606914105.7691,14
1606914105.7710,24
1606914105.7730,45
1606914105.7749,55
1606914105.7770,53
1606914105.7790,53
1606914105.7811,48
1606914105.7830,41
1606914105.7850,41
1606914105.7869,38
1606914105.7890,26
1606914105.7909,16
1606914105.7930,14
1606914105.7937,16
1606914105.7950,16
1606914106.2311,12
1606914106.2320,9
1606914106.2344,9
1606914106.2371,9
1606914106.2392,9
1606914106.2411,12
1606914106.2431,2
1606914106.2451,-48
1606914106.2471,-50
1606914106.2491,246
1606914106.2510,904
1606914106.2530,1377
1606914106.2550,1027
1606914106.2557,125
1606914106.2570,-340
1606914106.2591,-154
1606914106.2610,-50
1606914106.2630,-166
1606914106.2650,-142
1606914106.2671,-74
1606914106.2691,-96
1606914106.2710,-91
1606914106.2730,-60
1606914106.2750,-60
1606914106.2770,-57
1606914106.2791,-41
1606914106.2810,-33
1606914106.2830,-28
1606914106.2850,-19
1606914106.2857,-9
1606914106.2870,0
1606914106.2891,9
1606914106.2910,26
1606914106.2930,43
1606914106.2950,57
1606914106.2970,74
1606914106.2991,96
1606914106.3010,113
1606914106.3030,127
1606914106.3050,132
1606914106.3070,127
1606914106.3091,123
1606914106.3112,108
1606914106.3131,82
1606914106.3150,45
1606914106.3157,9
1606914106.3170,-19
1606914106.3191,-36
1606914106.3210,-48
1606914106.3230,-57
1606914106.3250,-60
1606914106.3270,-55
1606914106.3291,-53
1606914106.3310,-53
1606914106.3330,-50
1606914106.3350,-50
1606914106.3371,-48
1606914106.3391,-43
1606914106.3410,-43
1606914106.3430,-43
1606914106.3450,-36
1606914106.3457,-28
1606914106.3471,-26
1606914106.3490,-24
1606914106.3510,-19
1606914106.3531,-14
1606914106.3551,-12
1606914106.3571,-12
1606914106.3591,-9
1606914106.3610,-2
1606914106.3630,0
1606914106.3650,0
1606914106.3670,-2
1606914106.8017,-4
1606914106.8027,-7
1606914106.8043,-4
1606914106.8068,-2
1606914106.8087,0
1606914106.8107,-2
1606914106.8127,-2
1606914106.8147,2
1606914106.8167,0
1606914106.8187,-7
1606914106.8206,-7
1606914106.8226,-2
1606914106.8246,-2
1606914106.8267,-2
1606914106.8286,0
1606914106.8306,2
1606914106.8326,0
1606914106.8346,0
1606914106.8353,0
1606914106.8366,4
1606914106.8388,4
1606914106.8407,2
1606914106.8427,7
1606914106.8446,4
1606914106.8466,0
1606914106.8486,2
1606914106.8506,4
1606914106.8527,7
1606914106.8546,12
1606914106.8566,19
1606914106.8586,33
1606914106.8606,45
1606914106.8626,45
1606914106.8646,41
1606914106.8653,38
1606914106.8666,38
1606914106.8686,33
1606914106.8706,26
1606914106.8726,19
1606914106.8747,14
1606914106.8766,4
1606914106.8786,2
1606914106.8806,7
1606914106.8826,7
1606914106.8846,4
1606914106.8866,4
1606914106.8887,4
1606914106.8908,2
1606914106.8926,-2
1606914106.8946,-38
1606914106.8953,-72
1606914106.8966,113
1606914106.8986,682
1606914106.9006,1300
1606914106.9027,1331
1606914106.9046,588
1606914106.9066,-185
1606914106.9074,-253
1606914106.9096,-55
1606914106.9116,-135
1606914106.9136,-200
1606914106.9156,-115
1606914106.9176,-101
1606914106.9196,-125
1606914106.9216,-96
1606914106.9222,-79
1606914106.9236,-89
1606914106.9256,-77
1606914106.9276,-60
1606914106.9296,-60
1606914106.9316,-53
1606914106.9338,-41
1606914106.9356,-38
1606914107.3413,-28
1606914107.3422,-12
1606914107.3445,-2
1606914107.3473,12
1606914107.3493,31
1606914107.3512,48
1606914107.3518,65
1606914107.3532,82
1606914107.3552,94
1606914107.3572,94
1606914107.3592,84
1606914107.3612,74
1606914107.3632,65
1606914107.3652,43
1606914107.3672,12
1606914107.3691,-12
1606914107.3711,-28
1606914107.3731,-43
1606914107.3752,-53
1606914107.3772,-53
1606914107.3792,-55
1606914107.3812,-50
1606914107.3818,-48
1606914107.3831,-48
1606914107.3851,-41
1606914107.3872,-38
1606914107.3892,-43
1606914107.3911,-41
1606914107.3931,-31
1606914107.3951,-31
1606914107.3971,-31
1606914107.3991,-26
1606914107.4011,-16
1606914107.4031,-14
1606914107.4051,-12
1606914107.4071,-12
1606914107.4091,-9
1606914107.4112,-4
1606914107.4118,0
1606914107.4131,0
1606914107.4151,0
1606914107.4171,0
1606914107.4191,4
1606914107.4211,9
1606914107.4231,4
1606914107.4251,4
1606914107.4271,9
1606914107.4291,14
1606914107.4311,12
1606914107.4333,14
1606914107.4352,21
1606914107.4371,16
1606914107.4392,2
1606914107.4411,-2
1606914107.4417,4
1606914107.4431,4
1606914107.4451,7
1606914107.4471,14
1606914107.4492,12
1606914107.4512,4
1606914107.4531,9
1606914107.4551,12
1606914107.4573,12
1606914107.4593,16
1606914107.4612,16
1606914107.4631,14
1606914107.4651,16
1606914107.4671,16
1606914107.4691,14
1606914107.4697,16
1606914107.4711,24
1606914107.4731,26
1606914107.4751,33
1606914107.8813,36
1606914107.8822,43
1606914107.8847,43
1606914107.8874,4
1606914107.8894,-9
1606914107.8913,16
1606914107.8934,-2
1606914107.8953,-9
1606914107.8973,45
1606914107.8993,16
1606914107.9012,-41
1606914107.9019,9
1606914107.9032,55
1606914107.9053,36
1606914107.9072,28
1606914107.9093,50
1606914107.9113,55
1606914107.9132,28
1606914107.9153,16
1606914107.9173,144
1606914107.9192,542
1606914107.9212,1068
1606914107.9232,1213
1606914107.9252,694
1606914107.9272,43
1606914107.9293,-115
1606914107.9312,0
1606914107.9320,-12
1606914107.9333,-45
1606914107.9352,-79
1606914107.9372,-125
1606914107.9393,-41
1606914107.9412,43
1606914107.9432,84
1606914107.9452,26
1606914107.9472,-190
1606914107.9492,-147
1606914107.9512,91
1606914107.9534,69
1606914107.9553,-4
1606914107.9572,62
1606914107.9593,91
1606914107.9612,82
1606914107.9618,108
1606914107.9632,98
1606914107.9652,86
1606914107.9672,142
1606914107.9692,171
1606914107.9712,166
1606914107.9732,197
1606914107.9752,217
1606914107.9772,183
1606914107.9792,164
1606914107.9812,180
1606914107.9832,164
1606914107.9853,91
1606914107.9872,36
1606914107.9893,55
1606914107.9912,79
1606914107.9918,28
1606914107.9932,-38
1606914107.9952,-9
1606914107.9972,41
1606914107.9992,-2
1606914108.0012,-31
1606914108.0032,28
1606914108.0052,62
1606914108.0072,45
1606914108.0093,53
1606914108.0112,77
1606914108.0133,79
1606914108.0153,84
1606914108.0173,91
1606914108.4815,84
1606914108.4823,84
1606914108.4836,96
1606914108.4854,94
1606914108.4874,77
1606914108.4897,72
1606914108.4915,72
1606914108.4935,72
1606914108.4954,65
1606914108.4973,65
1606914108.4994,69
1606914108.5013,50
1606914108.5033,24
1606914108.5054,41
1606914108.5074,57
1606914108.5094,31
1606914108.5100,-9
1606914108.5113,-41
1606914108.5133,-28
1606914108.5153,0
1606914108.5173,-9
1606914108.5193,-19
1606914108.5213,7
1606914108.5233,14
1606914108.5253,9
1606914108.5273,21
1606914108.5294,21
1606914108.5313,9
1606914108.5333,9
1606914108.5353,16
1606914108.5373,28
1606914108.5393,41
1606914108.5399,57
1606914108.5413,67
1606914108.5433,50
1606914108.5453,33
1606914108.5473,55
1606914108.5493,79
1606914108.5513,36
1606914108.5533,-21
1606914108.5553,-19
1606914108.5573,-14
1606914108.5593,-53
1606914108.5613,-79
1606914108.5633,-79
1606914108.5653,-72
1606914108.5673,-60
1606914108.5693,-57
1606914108.5699,-65
1606914108.5713,-60
1606914108.5733,-41
1606914108.5753,-43
1606914108.5773,-67
1606914108.5793,-60
1606914108.5813,123
1606914108.5833,569
1606914108.5854,931
1606914108.5873,653
1606914108.5894,-108
1606914108.5913,-468
1606914108.5933,-238
1606914108.5953,-84
1606914108.5973,-120
1606914108.5993,-89
1606914108.5999,-41
1606914108.6013,-41
1606914108.6033,-38
1606914108.6053,-19
1606914108.6073,7
1606914108.6093,36
1606914108.6113,53
1606914108.6133,55
1606914108.6153,77
1606914109.0215,108
1606914109.0223,108
1606914109.0248,98
1606914109.0274,94
1606914109.0294,98
1606914109.0314,123
1606914109.0320,137
1606914109.0334,152
1606914109.0353,195
1606914109.0373,190
1606914109.0394,142
1606914109.0413,159
1606914109.0433,188
1606914109.0453,161
1606914109.0474,137
1606914109.0494,118
1606914109.0513,67
1606914109.0533,14
1606914109.0553,-4
1606914109.0573,-14
1606914109.0593,-33
1606914109.0613,-36
1606914109.0619,-36
1606914109.0633,-50
1606914109.0653,-53
1606914109.0673,-31
1606914109.0693,-16
1606914109.0713,-31
1606914109.0733,-53
1606914109.0753,-62
1606914109.0773,-53
1606914109.0793,-53
1606914109.0813,-38
1606914109.0833,-7
1606914109.0854,-14
1606914109.0873,-24
1606914109.0893,12
1606914109.0913,28
1606914109.0919,7
1606914109.0933,19
1606914109.0953,45
1606914109.0973,28
1606914109.0993,24
1606914109.1013,45
1606914109.1033,41
1606914109.1053,26
1606914109.1073,36
1606914109.1093,53
1606914109.1113,60
1606914109.1133,50
1606914109.1153,38
1606914109.1173,41
1606914109.1193,45
1606914109.1213,43
1606914109.1219,41
1606914109.1233,41
1606914109.1253,26
1606914109.1273,12
1606914109.1293,4
1606914109.1313,19
1606914109.1333,21
1606914109.1353,-38
1606914109.1373,-82
1606914109.1393,-33
1606914109.1413,-9
1606914109.1433,-62
1606914109.1453,-67
1606914109.1473,-7
1606914109.1493,19
1606914109.1513,19
1606914109.1519,14
1606914109.1533,19
1606914109.1553,43
1606914109.5912,57
1606914109.5922,48
1606914109.5946,31
1606914109.5972,31
1606914109.5992,41
1606914109.6013,43
1606914109.6033,33
1606914109.6053,43
1606914109.6072,62
1606914109.6094,67
1606914109.6113,62
1606914109.6119,57
1606914109.6135,45
1606914109.6153,31
1606914109.6173,69
1606914109.6192,289
1606914109.6212,706
1606914109.6232,928
1606914109.6252,557
1606914109.6272,-9
1606914109.6292,-171
1606914109.6312,-91
1606914109.6332,-94
1606914109.6352,-127
1606914109.6372,-96
1606914109.6393,-69
1606914109.6412,-91
1606914109.6419,-94
1606914109.6432,-65
1606914109.6452,-53
1606914109.6472,-57
1606914109.6492,-45
1606914109.6512,-28
1606914109.6532,-21
1606914109.6553,-14
1606914109.6574,-2
1606914109.6592,14
1606914109.6612,26
1606914109.6632,36
1606914109.6652,48
1606914109.6672,72
1606914109.6692,86
1606914109.6712,96
1606914109.6718,115
1606914109.6732,106
1606914109.6752,77
1606914109.6772,91
1606914109.6792,103
1606914109.6811,69
1606914109.6831,36
1606914109.6851,24
1606914109.6872,21
1606914109.6892,12
1606914109.6912,-14
1606914109.6931,-38
1606914109.6952,-43
1606914109.6971,-41
1606914109.6992,-41
1606914109.7012,-33
1606914109.7018,-26
1606914109.7031,-24
1606914109.7052,-19
1606914109.7071,-16
1606914109.7094,-4
1606914109.7112,12
1606914109.7131,16
1606914109.7151,19
1606914109.7172,26
1606914109.7192,28
1606914109.7211,24
1606914109.7232,26
1606914109.7251,36
1606914109.7272,41
1606914110.1311,19
1606914110.1320,-9
1606914110.1337,-2
1606914110.1361,16
1606914110.1380,16
1606914110.1401,19
1606914110.1420,9
1606914110.1440,-16
1606914110.1460,-21
1606914110.1480,-12
1606914110.1501,7
1606914110.1520,41
1606914110.1540,55
1606914110.1560,55
1606914110.1580,62
1606914110.1600,55
1606914110.1620,28
1606914110.1640,26
1606914110.1646,41
1606914110.1661,36
1606914110.1680,26
1606914110.1700,38
1606914110.1720,33
1606914110.1740,16
1606914110.1760,16
1606914110.1780,24
1606914110.1800,12
1606914110.1819,-16
1606914110.1839,-33
1606914110.1859,48
1606914110.1879,313
1606914110.1899,711
1606914110.1920,861
1606914110.1939,453
1606914110.1946,-86
1606914110.1959,-214
1606914110.1979,-113
1606914110.2000,-120
1606914110.2019,-139
1606914110.2039,-89
1606914110.2059,-72
1606914110.2081,-55
1606914110.2100,-31
1606914110.2119,-62
1606914110.2139,-55
1606914110.2159,-19
1606914110.2179,-24
1606914110.2199,-7
1606914110.2219,31
1606914110.2239,36
1606914110.2245,41
1606914110.2259,60
1606914110.2279,69
1606914110.2300,72
1606914110.2319,86
1606914110.2339,123
1606914110.2359,108
1606914110.2379,38
1606914110.2399,65
1606914110.2419,171
1606914110.2439,180
1606914110.2459,115
1606914110.2480,94
1606914110.2500,86
1606914110.2519,72
1606914110.2539,48
1606914110.2545,9
1606914110.2559,0
1606914110.2579,9
1606914110.2599,-2
1606914110.2619,-4
1606914110.2640,7
1606914110.2659,0
1606914110.7311,-2
1606914110.7320,4
1606914110.7344,9
1606914110.7371,12
1606914110.7392,24
1606914110.7411,33
1606914110.7418,14
1606914110.7432,-16
1606914110.7451,-26
1606914110.7471,4
1606914110.7491,19
1606914110.7511,-12
1606914110.7530,4
1606914110.7551,14
1606914110.7571,-12
1606914110.7591,19
1606914110.7610,31
1606914110.7631,0
1606914110.7650,9
1606914110.7673,38
1606914110.7690,45
1606914110.7710,48
1606914110.7716,67
1606914110.7730,84
1606914110.7750,91
1606914110.7770,84
1606914110.7790,65
1606914110.7810,41
1606914110.7830,38
1606914110.7850,50
1606914110.7870,50
1606914110.7891,41
1606914110.7910,36
1606914110.7930,28
1606914110.7950,21
1606914110.7970,24
1606914110.7990,28
1606914110.8010,14
1606914110.8016,-24
1606914110.8030,-43
1606914110.8050,135
1606914110.8070,562
1606914110.8091,907
1606914110.8110,772
1606914110.8130,270
1606914110.8150,-67
1606914110.8170,-96
1606914110.8189,-69
1606914110.8210,-79
1606914110.8230,-69
1606914110.8250,-48
1606914110.8270,-48
1606914110.8290,-45
1606914110.8309,-31
1606914110.8316,-24
1606914110.8330,-14
1606914110.8350,0
1606914110.8370,12
1606914110.8390,12
1606914110.8409,7
1606914110.8430,14
1606914110.8450,26
1606914110.8470,33
1606914110.8490,41
1606914110.8510,53
1606914110.8530,65
1606914110.8550,86
1606914110.8570,89
1606914110.8590,62
1606914110.8610,91
1606914110.8617,142
1606914110.8630,86
1606914110.8650,36
1606914111.2411,77
1606914111.2420,74
1606914111.2446,21
1606914111.2471,12
1606914111.2491,7
1606914111.2510,-9
1606914111.2530,-4
1606914111.2550,-12
1606914111.2570,-19
1606914111.2591,-9
1606914111.2610,-9
1606914111.2630,-19
1606914111.2650,-12
1606914111.2656,-7
1606914111.2670,-12
1606914111.2690,-7
1606914111.2710,4
1606914111.2730,0
1606914111.2750,-4
1606914111.2770,2
1606914111.2791,4
1606914111.2810,7
1606914111.2830,2
1606914111.2850,-12
1606914111.2870,-21
1606914111.2891,-7
1606914111.2910,-4
1606914111.2930,-24
1606914111.2950,-21
1606914111.2956,24
1606914111.2970,60
1606914111.2990,41
1606914111.3010,16
1606914111.3029,24
1606914111.3049,24
1606914111.3070,0
1606914111.3090,7
1606914111.3110,33
1606914111.3130,31
1606914111.3149,24
1606914111.3170,24
1606914111.3189,21
1606914111.3210,24
1606914111.3229,28
1606914111.3251,21
1606914111.3269,0
1606914111.3290,-9
1606914111.3309,103
1606914111.3331,448
1606914111.3350,859
1606914111.3370,897
1606914111.3391,441
1606914111.3410,-19
1606914111.3429,-135
1606914111.3449,-69
1606914111.3469,-89
1606914111.3490,-154
1606914111.3509,-123
1606914111.3529,-72
1606914111.3550,-74
1606914111.3556,-77
1606914111.3569,-69
1606914111.3590,-62
1606914111.3610,-43
1606914111.3630,-16
1606914111.3649,-19
1606914111.3669,-19
1606914111.3689,4
1606914111.3709,19
1606914111.3730,14
1606914111.3749,24
1606914111.3769,43
1606914111.3790,53
1606914111.8417,57
1606914111.8426,74
1606914111.8450,96
1606914111.8477,106
1606914111.8498,94
1606914111.8517,77
1606914111.8538,72
1606914111.8557,53
1606914111.8577,24
1606914111.8597,55
1606914111.8616,55
1606914111.8636,-53
1606914111.8656,-82
1606914111.8676,2
1606914111.8696,4
1606914111.8716,-50
1606914111.8736,-41
1606914111.8742,-19
1606914111.8756,-24
1606914111.8776,-21
1606914111.8796,-16
1606914111.8816,-21
1606914111.8836,-19
1606914111.8856,-12
1606914111.8876,-12
1606914111.8896,-9
1606914111.8918,-4
1606914111.8936,-2
1606914111.8956,4
1606914111.8976,9
1606914111.8996,-7
1606914111.9016,-14
1606914111.9036,-2
1606914111.9042,-2
1606914111.9056,14
1606914111.9076,41
1606914111.9096,53
1606914111.9116,45
1606914111.9136,19
1606914111.9155,21
1606914111.9175,26
1606914111.9195,0
1606914111.9215,2
1606914111.9236,16
1606914111.9256,7
1606914111.9276,0
1606914111.9296,7
1606914111.9316,12
1606914111.9335,0
1606914111.9342,-4
1606914111.9356,-4
1606914111.9376,-33
1606914111.9396,-41
1606914111.9415,147
1606914111.9435,576
1606914111.9456,953
1606914111.9476,875
1606914111.9496,364
1606914111.9515,-69
1606914111.9535,-125
1606914111.9555,-79
1606914111.9575,-127
1606914111.9596,-130
1606914111.9616,-96
1606914111.9636,-108
1606914111.9642,-113
1606914111.9656,-96
1606914111.9675,-91
1606914111.9695,-91
1606914111.9716,-84
1606914111.9736,-82
1606914111.9755,-84
1606914111.9776,-74
1606914112.4112,-62
1606914112.4119,-60
1606914112.4143,-50
1606914112.4170,-36
1606914112.4191,-28
1606914112.4196,-19
1606914112.4211,-2
1606914112.4230,19
1606914112.4250,28
1606914112.4270,24
1606914112.4290,19
1606914112.4309,12
1606914112.4329,7
1606914112.4350,0
1606914112.4370,-19
1606914112.4390,-45
1606914112.4410,-62
1606914112.4429,-74
1606914112.4449,-84
1606914112.4470,-96
1606914112.4490,-101
1606914112.4495,-94
1606914112.4509,-82
1606914112.4530,-91
1606914112.4549,-106
1606914112.4569,-98
1606914112.4590,-89
1606914112.4609,-91
1606914112.4629,-86
1606914112.4649,-79
1606914112.4669,-77
1606914112.4689,-72
1606914112.4709,-69
1606914112.4729,-65
1606914112.4749,-55
1606914112.4769,-57
1606914112.4790,-62
1606914112.4795,-55
1606914112.4809,-45
1606914112.4829,-38
1606914112.4849,-31
1606914112.4869,-14
1606914112.4890,7
1606914112.4909,12
1606914112.4929,9
1606914112.4949,-7
1606914112.4969,-33
1606914112.4990,-38
1606914112.5009,-28
1606914112.5029,-31
1606914112.5049,-36
1606914112.5069,-26
1606914112.5090,-24
1606914112.5095,-31
1606914112.5109,-28
1606914112.5130,-31
1606914112.5149,-38
1606914112.5169,-62
1606914112.5189,-89
1606914112.5209,55
1606914112.5229,550
1606914112.5249,1107
1606914112.5269,1066
1606914112.5290,330
1606914112.5309,-272
1606914112.5329,-250
1606914112.5349,-86
1606914112.5369,-137
1606914112.5390,-171
1606914112.5395,-118
1606914112.5409,-113
1606914112.5429,-120
1606914112.5449,-91
1606914112.9516,-72
1606914112.9525,-74
1606914112.9550,-62
1606914112.9577,-45
1606914112.9595,-45
1606914112.9615,-45
1606914112.9636,-33
1606914112.9655,-24
1606914112.9675,-16
1606914112.9695,-2
1606914112.9715,9
1606914112.9736,21
1606914112.9742,48
1606914112.9755,62
1606914112.9775,55
1606914112.9795,60
1606914112.9814,79
1606914112.9835,84
1606914112.9855,69
1606914112.9875,53
1606914112.9895,36
1606914112.9915,4
1606914112.9935,-28
1606914112.9955,-43
1606914112.9975,-57
1606914112.9995,-72
1606914113.0015,-79
1606914113.0035,-86
1606914113.0041,-82
1606914113.0055,-69
1606914113.0075,-77
1606914113.0095,-84
1606914113.0115,-69
1606914113.0137,-62
1606914113.0155,-67
1606914113.0176,-57
1606914113.0196,-48
1606914113.0216,-48
1606914113.0234,-45
1606914113.0255,-41
1606914113.0275,-36
1606914113.0295,-31
1606914113.0315,-33
1606914113.0335,-36
1606914113.0341,-28
1606914113.0355,-21
1606914113.0374,-14
1606914113.0395,-2
1606914113.0415,7
1606914113.0435,16
1606914113.0455,16
1606914113.0475,0
1606914113.0495,-24
1606914113.0515,-36
1606914113.0535,-28
1606914113.0555,-16
1606914113.0575,-19
1606914113.0596,-21
1606914113.0615,-14
1606914113.0635,-16
1606914113.0641,-24
1606914113.0655,-21
1606914113.0675,-16
1606914113.0695,-48
1606914113.0715,-91
1606914113.0735,82
1606914113.0755,685
1606914113.0775,1380
1606914113.0795,1372
1606914113.0815,506
1606914113.0835,-272
1606914113.0855,-275
1606914113.0875,-72
1606914113.5209,-159
1606914113.5215,-205
1606914113.5240,-120
1606914113.5266,-113
1606914113.5286,-127
1606914113.5306,-98
1606914113.5326,-98
1606914113.5346,-106
1606914113.5366,-86
1606914113.5386,-72
1606914113.5406,-69
1606914113.5428,-67
1606914113.5446,-55
1606914113.5466,-41
1606914113.5486,-28
1606914113.5506,-19
1606914113.5526,-7
1606914113.5532,9
1606914113.5546,24
1606914113.5566,41
1606914113.5586,57
1606914113.5606,69
1606914113.5613,67
1606914113.5635,55
1606914113.5656,48
1606914113.5676,38
1606914113.5695,16
1606914113.5715,-9
1606914113.5735,-31
1606914113.5755,-53
1606914113.5775,-67
1606914113.5796,-72
1606914113.5802,-74
1606914113.5815,-72
1606914113.5835,-72
1606914113.5855,-74
1606914113.5875,-77
1606914113.5896,-79
1606914113.5915,-82
1606914113.5935,-79
1606914113.5955,-74
1606914113.5975,-74
1606914113.5996,-74
1606914113.6015,-69
1606914113.6035,-60
1606914113.6055,-55
1606914113.6075,-55
1606914113.6096,-48
1606914113.6102,-41
1606914113.6115,-38
1606914113.6135,-38
1606914113.6155,-36
1606914113.6175,-28
1606914113.6195,-26
1606914113.6215,-28
1606914113.6235,-26
1606914113.6256,-21
1606914113.6275,-21
1606914113.6295,-24
1606914113.6315,-24
1606914113.6335,-26
1606914113.6355,-28
1606914113.6377,-26
1606914113.6396,-12
1606914113.6401,2
1606914113.6416,9
1606914113.6435,14
1606914113.6455,26
1606914113.6475,19
1606914113.6495,-4
1606914113.6515,-19
1606914113.6535,-16
1606914113.6555,-9
1606914114.0612,-9
1606914114.0622,-12
1606914114.0646,-9
1606914114.0673,-7
1606914114.0692,-9
1606914114.0713,-9
1606914114.0719,-4
1606914114.0734,-16
1606914114.0752,-72
1606914114.0772,-74
1606914114.0792,241
1606914114.0812,933
1606914114.0832,1474
1606914114.0852,1240
1606914114.0872,335
1606914114.0892,-304
1606914114.0912,-207
1606914114.0932,-67
1606914114.0952,-197
1606914114.0972,-197
1606914114.0992,-115
1606914114.1011,-132
1606914114.1017,-137
1606914114.1031,-101
1606914114.1051,-94
1606914114.1071,-96
1606914114.1092,-77
1606914114.1111,-67
1606914114.1131,-67
1606914114.1151,-62
1606914114.1171,-55
1606914114.1191,-45
1606914114.1211,-38
1606914114.1231,-24
1606914114.1251,-12
1606914114.1271,-7
1606914114.1291,7
1606914114.1311,28
1606914114.1318,48
1606914114.1331,57
1606914114.1353,60
1606914114.1372,65
1606914114.1392,65
1606914114.1411,50
1606914114.1431,26
1606914114.1452,4
1606914114.1471,-19
1606914114.1492,-38
1606914114.1511,-55
1606914114.1531,-62
1606914114.1551,-65
1606914114.1571,-69
1606914114.1592,-72
1606914114.1611,-69
1606914114.1617,-67
1606914114.1631,-72
1606914114.1651,-74
1606914114.1671,-69
1606914114.1691,-65
1606914114.1711,-62
1606914114.1731,-60
1606914114.1751,-55
1606914114.1771,-53
1606914114.1792,-45
1606914114.1811,-41
1606914114.1831,-38
1606914114.1851,-33
1606914114.1871,-26
1606914114.1892,-19
1606914114.1911,-16
1606914114.1917,-16
1606914114.1931,-14
1606914114.1951,-9
1606914114.6015,-7
1606914114.6025,-9
1606914114.6049,-7
1606914114.6076,-4
1606914114.6097,-4
1606914114.6115,-9
1606914114.6136,-16
1606914114.6155,-14
1606914114.6175,-9
1606914114.6196,-12
1606914114.6215,-12
1606914114.6222,-7
1606914114.6235,-4
1606914114.6255,-7
1606914114.6275,-7
1606914114.6296,-4
1606914114.6315,-4
1606914114.6335,-4
1606914114.6357,-4
1606914114.6375,-4
1606914114.6396,-7
1606914114.6415,-7
1606914114.6435,-4
1606914114.6455,-2
1606914114.6475,0
1606914114.6495,0
1606914114.6515,0
1606914114.6521,0
1606914114.6535,-4
1606914114.6555,-7
1606914114.6575,-4
1606914114.6595,2
1606914114.6615,4
1606914114.6635,4
1606914114.6655,4
1606914114.6675,7
1606914114.6695,9
1606914114.6715,9
1606914114.6735,9
1606914114.6755,14
1606914114.6775,9
1606914114.6795,2
1606914114.6816,0
1606914114.6821,9
1606914114.6836,26
1606914114.6855,41
1606914114.6875,45
1606914114.6895,50
1606914114.6915,50
1606914114.6935,38
1606914114.6955,26
1606914114.6975,14
1606914114.6995,9
1606914114.7015,14
1606914114.7035,19
1606914114.7055,14
1606914114.7075,12
1606914114.7095,12
1606914114.7115,9
1606914114.7121,9
1606914114.7135,9
1606914114.7155,7
1606914114.7175,-28
1606914114.7195,-77
1606914114.7215,77
1606914114.7235,620
1606914114.7255,1281
1606914114.7275,1459
1606914114.7295,813
1606914114.7316,-89
1606914114.7335,-301
1606914114.7355,-69
1606914114.7375,-115
1606914115.2016,-214
1606914115.2025,-132
1606914115.2043,-106
1606914115.2066,-147
1606914115.2086,-120
1606914115.2106,-89
1606914115.2126,-94
1606914115.2146,-86
1606914115.2166,-72
1606914115.2186,-67
1606914115.2206,-62
1606914115.2226,-53
1606914115.2246,-45
1606914115.2267,-36
1606914115.2287,-26
1606914115.2306,-14
1606914115.2326,0
1606914115.2346,19
1606914115.2352,36
1606914115.2366,55
1606914115.2386,72
1606914115.2406,79
1606914115.2426,82
1606914115.2447,86
1606914115.2466,86
1606914115.2486,79
1606914115.2506,55
1606914115.2525,24
1606914115.2545,0
1606914115.2565,-16
1606914115.2586,-33
1606914115.2605,-43
1606914115.2625,-48
1606914115.2631,-53
1606914115.2645,-55
1606914115.2665,-50
1606914115.2685,-45
1606914115.2705,-43
1606914115.2725,-43
1606914115.2745,-41
1606914115.2765,-38
1606914115.2785,-33
1606914115.2805,-31
1606914115.2825,-28
1606914115.2845,-26
1606914115.2867,-24
1606914115.2885,-21
1606914115.2908,-19
1606914115.2926,-16
1606914115.2931,-14
1606914115.2945,-12
1606914115.2965,-9
1606914115.2985,-7
1606914115.3005,-4
1606914115.3025,-2
1606914115.3045,0
1606914115.3065,0
1606914115.3085,0
1606914115.3105,0
1606914115.3125,2
1606914115.3145,4
1606914115.3165,2
1606914115.3185,0
1606914115.3205,-2
1606914115.3225,-4
1606914115.3231,-4
1606914115.3245,-4
1606914115.3265,-2
1606914115.3285,-2
1606914115.3305,-4
1606914115.3325,-4
1606914115.3345,-2
1606914115.3365,-2
1606914115.7715,-2
1606914115.7724,-2
1606914115.7748,-4
1606914115.7775,-4
1606914115.7795,-2
1606914115.7800,-2
1606914115.7814,-2
1606914115.7834,-2
1606914115.7854,-9
1606914115.7874,-14
1606914115.7894,-9
1606914115.7914,-4
1606914115.7934,-7
1606914115.7954,-9
1606914115.7974,-12
1606914115.7993,-9
1606914115.8013,-7
1606914115.8033,-2
1606914115.8053,0
1606914115.8074,0
1606914115.8094,0
1606914115.8100,2
1606914115.8114,7
1606914115.8133,9
1606914115.8154,9
1606914115.8175,12
1606914115.8194,14
1606914115.8213,14
1606914115.8233,14
1606914115.8253,14
1606914115.8273,14
1606914115.8294,9
1606914115.8313,4
1606914115.8333,7
1606914115.8353,16
1606914115.8374,31
1606914115.8394,38
1606914115.8400,45
1606914115.8413,50
1606914115.8433,43
1606914115.8453,26
1606914115.8473,16
1606914115.8494,16
1606914115.8513,21
1606914115.8533,24
1606914115.8553,21
1606914115.8573,21
1606914115.8594,24
1606914115.8613,24
1606914115.8633,24
1606914115.8653,24
1606914115.8673,19
1606914115.8694,-14
1606914115.8699,-57
1606914115.8713,94
1606914115.8733,622
1606914115.8753,1254
1606914115.8773,1387
1606914115.8794,726
1606914115.8814,-108
1606914115.8833,-267
1606914115.8853,-55
1606914115.8873,-108
1606914115.8894,-193
1606914115.8913,-110
1606914115.8933,-91
1606914115.8953,-123
1606914115.8973,-98
1606914115.8994,-77
1606914115.8999,-84
1606914115.9013,-77
1606914115.9033,-65
1606914115.9053,-62
1606914116.3113,-55
1606914116.3121,-50
1606914116.3134,-45
1606914116.3156,-33
1606914116.3174,-21
1606914116.3194,-14
1606914116.3213,-7
1606914116.3233,7
1606914116.3253,26
1606914116.3273,38
1606914116.3279,48
1606914116.3294,65
1606914116.3313,72
1606914116.3333,72
1606914116.3353,69
1606914116.3373,65
1606914116.3393,43
1606914116.3413,12
1606914116.3433,-12
1606914116.3453,-33
1606914116.3473,-48
1606914116.3493,-55
1606914116.3513,-60
1606914116.3533,-62
1606914116.3553,-62
1606914116.3573,-65
1606914116.3579,-62
1606914116.3593,-53
1606914116.3613,-48
1606914116.3633,-48
1606914116.3653,-48
1606914116.3673,-43
1606914116.3694,-41
1606914116.3713,-38
1606914116.3733,-36
1606914116.3753,-31
1606914116.3773,-31
1606914116.3793,-28
1606914116.3813,-24
1606914116.3833,-19
1606914116.3853,-14
1606914116.3873,-12
1606914116.3879,-12
1606914116.3893,-9
1606914116.3913,-4
1606914116.3933,-2
1606914116.3953,-2
1606914116.3973,0
1606914116.3993,0
1606914116.4013,-2
1606914116.4033,0
1606914116.4053,4
1606914116.4073,4
1606914116.4093,7
1606914116.4114,9
1606914116.4133,9
1606914116.4153,4
1606914116.4173,0
1606914116.4179,0
1606914116.4193,0
1606914116.4213,0
1606914116.4233,0
1606914116.4253,0
1606914116.4273,0
1606914116.4293,4
1606914116.4313,7
1606914116.4333,4
1606914116.4353,2
1606914116.4373,2
1606914116.4393,4
1606914116.4413,7
1606914116.4433,4
1606914116.4453,0
1606914116.8815,-4
1606914116.8825,-2
1606914116.8848,-2
1606914116.8866,-7
1606914116.8886,-7
1606914116.8905,-7
1606914116.8925,-16
1606914116.8945,-21
1606914116.8965,-19
1606914116.8985,-19
1606914116.9005,-24
1606914116.9025,-24
1606914116.9045,-12
1606914116.9065,2
1606914116.9085,9
1606914116.9105,14
1606914116.9125,24
1606914116.9131,24
1606914116.9145,4
1606914116.9165,-12
1606914116.9185,-14
1606914116.9204,-4
1606914116.9224,-2
1606914116.9244,-7
1606914116.9264,-4
1606914116.9284,0
1606914116.9304,0
1606914116.9324,0
1606914116.9344,7
1606914116.9365,2
1606914116.9384,-36
1606914116.9404,-62
1606914116.9426,135
1606914116.9431,714
1606914116.9444,1312
1606914116.9465,1233
1606914116.9484,412
1606914116.9504,-255
1606914116.9524,-209
1606914116.9544,-41
1606914116.9564,-137
1606914116.9584,-166
1606914116.9604,-89
1606914116.9624,-91
1606914116.9644,-103
1606914116.9664,-72
1606914116.9684,-60
1606914116.9704,-60
1606914116.9724,-50
1606914116.9730,-43
1606914116.9744,-36
1606914116.9764,-26
1606914116.9784,-19
1606914116.9804,-14
1606914116.9824,-2
1606914116.9844,9
1606914116.9865,21
1606914116.9884,38
1606914116.9904,55
1606914116.9924,72
1606914116.9944,89
1606914116.9964,101
1606914116.9984,108
1606914117.0004,113
1606914117.0024,110
1606914117.0031,96
1606914117.0044,74
1606914117.0064,48
1606914117.0084,16
1606914117.0104,-12
1606914117.0124,-28
1606914117.0144,-43
1606914117.0164,-55
1606914117.4215,-60
1606914117.4224,-60
1606914117.4248,-55
1606914117.4275,-57
1606914117.4296,-60
1606914117.4314,-57
1606914117.4334,-55
1606914117.4354,-60
1606914117.4374,-65
1606914117.4395,-60
1606914117.4403,-50
1606914117.4415,-48
1606914117.4434,-45
1606914117.4455,-36
1606914117.4474,-28
1606914117.4495,-28
1606914117.4514,-26
1606914117.4534,-24
1606914117.4554,-19
1606914117.4574,-21
1606914117.4595,-19
1606914117.4615,-19
1606914117.4635,-21
1606914117.4655,-21
1606914117.4674,-19
1606914117.4694,-16
1606914117.4700,-14
1606914117.4714,-14
1606914117.4734,-14
1606914117.4754,-14
1606914117.4774,-14
1606914117.4794,-14
1606914117.4814,-12
1606914117.4834,-7
1606914117.4854,-7
1606914117.4874,-9
1606914117.4894,-7
1606914117.4914,-4
1606914117.4934,-4
1606914117.4954,-7
1606914117.4974,-7
1606914117.4994,-4
1606914117.5000,-4
1606914117.5014,-4
1606914117.5034,0
1606914117.5054,0
1606914117.5074,0
1606914117.5094,2
1606914117.5114,2
1606914117.5133,4
1606914117.5153,4
1606914117.5174,7
1606914117.5194,9
1606914117.5214,7
1606914117.5234,4
1606914117.5254,7
1606914117.5274,9
1606914117.5294,9
1606914117.5300,0
1606914117.5313,0
1606914117.5333,12
1606914117.5355,2
1606914117.5374,-21
1606914117.5394,-16
1606914117.5414,19
1606914117.5433,26
1606914117.5454,14
1606914117.5473,36
1606914117.5494,65
1606914117.5514,45
1606914117.5534,38
1606914117.5554,60
1606914117.5574,53
1606914117.9912,4
1606914117.9921,4
1606914117.9946,50
1606914117.9972,45
1606914117.9993,28
1606914118.0012,24
1606914118.0033,14
1606914118.0052,26
1606914118.0072,48
1606914118.0092,45
1606914118.0112,-4
1606914118.0133,89
1606914118.0152,564
1606914118.0173,1179
1606914118.0192,1319
1606914118.0211,690
1606914118.0232,-60
1606914118.0237,-188
1606914118.0251,-12
1606914118.0271,-55
1606914118.0291,-127
1606914118.0311,-84
1606914118.0331,-67
1606914118.0351,-65
1606914118.0371,-41
1606914118.0391,-41
1606914118.0411,-41
1606914118.0431,-26
1606914118.0451,-21
1606914118.0471,-36
1606914118.0491,-31
1606914118.0511,-19
1606914118.0531,-24
1606914118.0537,-28
1606914118.0551,-36
1606914118.0571,-26
1606914118.0591,16
1606914118.0611,33
1606914118.0631,21
1606914118.0652,38
1606914118.0671,72
1606914118.0691,82
1606914118.0711,96
1606914118.0731,98
1606914118.0751,62
1606914118.0771,21
1606914118.0791,26
1606914118.0811,62
1606914118.0831,33
1606914118.0837,-50
1606914118.0851,-57
1606914118.0871,-16
1606914118.0891,-33
1606914118.0911,-57
1606914118.0931,-41
1606914118.0951,-33
1606914118.0971,-36
1606914118.0991,-33
1606914118.1011,-36
1606914118.1031,-48
1606914118.1051,-43
1606914118.1071,-26
1606914118.1091,-28
1606914118.1111,-31
1606914118.1131,-24
1606914118.1137,-26
1606914118.1151,-21
1606914118.1171,-4
1606914118.1191,-9
1606914118.1211,-12
1606914118.1231,-2
1606914118.1251,-7
1606914118.1271,-9
1606914118.5918,-4
1606914118.5926,-7
1606914118.5941,-14
1606914118.5961,-16
1606914118.5981,-16
1606914118.5987,-16
1606914118.6000,-26
1606914118.6020,-33
1606914118.6041,-33
1606914118.6060,-31
1606914118.6080,-38
1606914118.6101,-41
1606914118.6120,-36
1606914118.6140,-38
1606914118.6160,-48
1606914118.6180,-45
1606914118.6200,-43
1606914118.6222,-48
1606914118.6241,-50
1606914118.6260,-50
1606914118.6280,-50
1606914118.6287,-53
1606914118.6300,-53
1606914118.6320,-50
1606914118.6340,-48
1606914118.6360,-48
1606914118.6381,-48
1606914118.6400,-48
1606914118.6420,-45
1606914118.6440,-43
1606914118.6460,-43
1606914118.6480,-41
1606914118.6500,-38
1606914118.6521,-38
1606914118.6540,-45
1606914118.6560,-45
1606914118.6580,-38
1606914118.6587,-28
1606914118.6601,-14
1606914118.6620,-4
1606914118.6640,0
1606914118.6660,12
1606914118.6680,7
1606914118.6700,-16
1606914118.6720,-38
1606914118.6740,-33
1606914118.6760,-21
1606914118.6780,-16
1606914118.6801,-19
1606914118.6821,-16
1606914118.6840,-14
1606914118.6860,-12
1606914118.6881,-12
1606914118.6964,-16
1606914118.6981,-43
1606914118.7001,-65
1606914118.7021,115
1606914118.7041,646
1606914118.7061,1196
1606914118.7081,1119
1606914118.7101,359
1606914118.7121,-238
1606914118.7141,-197
1606914118.7161,-60
1606914118.7181,-139
1606914118.7201,-156
1606914118.7221,-91
1606914118.7241,-94
1606914118.7248,-106
1606914118.7261,-79
1606914118.7281,-65
1606914118.7301,-62
1606914118.7321,-53
1606914119.1319,-48
1606914119.1328,-41
1606914119.1353,-31
1606914119.1379,-26
1606914119.1400,-19
1606914119.1418,-7
1606914119.1439,4
1606914119.1458,14
1606914119.1478,26
1606914119.1499,45
1606914119.1518,65
1606914119.1525,72
1606914119.1538,77
1606914119.1558,84
1606914119.1578,89
1606914119.1599,82
1606914119.1618,77
1606914119.1638,65
1606914119.1658,38
1606914119.1678,4
1606914119.1698,-19
1606914119.1718,-36
1606914119.1738,-45
1606914119.1758,-55
1606914119.1778,-60
1606914119.1799,-60
1606914119.1819,-62
1606914119.1826,-65
1606914119.1838,-60
1606914119.1859,-50
1606914119.1878,-48
1606914119.1899,-48
1606914119.1918,-43
1606914119.1938,-36
1606914119.1958,-31
1606914119.1978,-28
1606914119.1998,-28
1606914119.2018,-31
1606914119.2038,-28
1606914119.2058,-19
1606914119.2078,-16
1606914119.2099,-14
1606914119.2118,-9
1606914119.2125,-12
1606914119.2149,-21
1606914119.2169,-19
1606914119.2190,-4
1606914119.2209,-2
1606914119.2228,-12
1606914119.2249,-7
1606914119.2268,2
1606914119.2289,-2
1606914119.2309,-7
1606914119.2329,-4
1606914119.2349,-2
1606914119.2369,-4
1606914119.2389,-4
1606914119.2409,-4
1606914119.2429,-7
1606914119.2436,-2
1606914119.2459,2
1606914119.2479,-2
1606914119.2500,-2
1606914119.2519,0
1606914119.2539,-2
1606914119.2559,-7
1606914119.2579,-7
1606914119.2599,-2
1606914119.2619,-2
1606914119.2639,-7
1606914119.2659,-16
1606914119.2679,-16
1606914119.2699,-4
1606914119.7030,4
1606914119.7039,9
1606914119.7063,16
1606914119.7090,26
1606914119.7111,31
1606914119.7130,31
1606914119.7152,16
1606914119.7170,-7
1606914119.7190,-21
1606914119.7210,-16
1606914119.7230,-9
1606914119.7249,-7
1606914119.7270,-4
1606914119.7290,-2
1606914119.7310,-2
1606914119.7330,-2
1606914119.7337,-2
1606914119.7360,-16
1606914119.7380,-53
1606914119.7401,19
1606914119.7420,436
1606914119.7440,1085
1606914119.7460,1271
1606914119.7480,610
1606914119.7502,-178
1606914119.7520,-296
1606914119.7540,-69
1606914119.7560,-84
1606914119.7580,-161
1606914119.7600,-103
1606914119.7620,-77
1606914119.7640,-94
1606914119.7646,-69
1606914119.7670,-53
1606914119.7690,-55
1606914119.7710,-41
1606914119.7730,-24
1606914119.7750,-24
1606914119.7770,-16
1606914119.7790,-2
1606914119.7810,4
1606914119.7830,12
1606914119.7850,26
1606914119.7869,38
1606914119.7890,48
1606914119.7910,67
1606914119.7930,89
1606914119.7950,106
1606914119.7957,118
1606914119.7970,125
1606914119.7990,125
1606914119.8010,123
1606914119.8030,113
1606914119.8049,94
1606914119.8070,65
1606914119.8090,31
1606914119.8110,2
1606914119.8130,-16
1606914119.8150,-33
1606914119.8170,-45
1606914119.8190,-50
1606914119.8196,-50
1606914119.8210,-53
1606914119.8216,-55
1606914119.8230,-53
1606914119.8250,-43
1606914119.8270,-38
1606914119.8290,-38
1606914119.8310,-38
1606914119.8330,-33
1606914119.8350,-28
1606914119.8370,-26
1606914119.8390,-24
1606914120.2430,-19
1606914120.2439,-12
1606914120.2466,-9
1606914120.2490,-7
1606914120.2510,-4
1606914120.2516,-9
1606914120.2529,-12
1606914120.2550,-4
1606914120.2569,2
1606914120.2589,-7
1606914120.2609,-16
1606914120.2629,-12
1606914120.2649,-9
1606914120.2669,-12
1606914120.2690,-9
1606914120.2710,-7
1606914120.2729,-7
1606914120.2749,-9
1606914120.2769,-9
1606914120.2789,-9
1606914120.2810,-4
1606914120.2815,-2
1606914120.2829,-7
1606914120.2849,-9
1606914120.2869,-9
1606914120.2889,-9
1606914120.2910,-12
1606914120.2930,-12
1606914120.2949,-9
1606914120.2969,-14
1606914120.2989,-16
1606914120.3010,-9
1606914120.3029,-9
1606914120.3049,-14
1606914120.3069,-19
1606914120.3089,-14
1606914120.3110,-2
1606914120.3115,14
1606914120.3131,21
1606914120.3151,26
1606914120.3169,38
1606914120.3189,33
1606914120.3210,9
1606914120.3229,-12
1606914120.3249,-16
1606914120.3269,-7
1606914120.3289,-4
1606914120.3310,-12
1606914120.3329,-14
1606914120.3349,-14
1606914120.3369,-16
1606914120.3389,-14
1606914120.3410,-26
1606914120.3417,-67
1606914120.3430,-79
1606914120.3449,132
1606914120.3469,687
1606914120.3489,1201
1606914120.3510,1061
1606914120.3530,291
1606914120.3550,-267
1606914120.3570,-200
1606914120.3589,-74
1606914120.3610,-166
1606914120.3630,-176
1606914120.3650,-110
1606914120.3670,-118
1606914120.3690,-123
1606914120.3710,-94
1606914120.3716,-84
1606914120.3730,-82
1606914120.3750,-72
1606914120.3770,-65
1606914120.7837,-57
1606914120.7846,-50
1606914120.7871,-45
1606914120.7897,-41
1606914120.7917,-24
1606914120.7937,-14
1606914120.7957,-12
1606914120.7976,-4
1606914120.7996,12
1606914120.8017,31
1606914120.8023,45
1606914120.8036,50
1606914120.8056,57
1606914120.8077,62
1606914120.8096,60
1606914120.8117,48
1606914120.8136,28
1606914120.8156,7
1606914120.8176,-14
1606914120.8196,-36
1606914120.8216,-45
1606914120.8236,-53
1606914120.8256,-57
1606914120.8276,-60
1606914120.8296,-55
1606914120.8316,-53
1606914120.8322,-50
1606914120.8336,-48
1606914120.8356,-43
1606914120.8376,-41
1606914120.8396,-36
1606914120.8418,-28
1606914120.8437,-24
1606914120.8456,-21
1606914120.8476,-16
1606914120.8496,-14
1606914120.8517,-9
1606914120.8536,-4
1606914120.8556,-2
1606914120.8576,-2
1606914120.8596,2
1606914120.8617,4
1606914120.8622,4
1606914120.8637,7
1606914120.8656,9
1606914120.8676,12
1606914120.8696,12
1606914120.8717,14
1606914120.8736,14
1606914120.8756,14
1606914120.8776,12
1606914120.8797,12
1606914120.8817,12
1606914120.8836,12
1606914120.8856,9
1606914120.8877,9
1606914120.8897,9
1606914120.8917,12
1606914120.8923,12
1606914120.8937,12
1606914120.8957,14
1606914120.8977,12
1606914120.8997,4
1606914120.9017,2
1606914120.9037,9
1606914120.9057,24
1606914120.9077,36
1606914120.9097,45
1606914120.9117,50
1606914120.9137,50
1606914120.9157,31
1606914120.9177,12
1606914120.9197,9
1606914121.3542,19
1606914121.3552,21
1606914121.3576,16
1606914121.3603,16
1606914121.3623,12
1606914121.3642,4
1606914121.3663,4
1606914121.3682,2
1606914121.3702,-28
1606914121.3725,-62
1606914121.3742,74
1606914121.3762,538
1606914121.3782,1073
1606914121.3802,1061
1606914121.3822,390
1606914121.3828,-185
1606914121.3842,-193
1606914121.3861,-57
1606914121.3881,-106
1606914121.3903,-137
1606914121.3922,-89
1606914121.3942,-84
1606914121.3962,-94
1606914121.3982,-74
1606914121.4002,-65
1606914121.4022,-62
1606914121.4041,-53
1606914121.4061,-45
1606914121.4082,-41
1606914121.4101,-33
1606914121.4122,-28
1606914121.4128,-26
1606914121.4143,-16
1606914121.4162,-2
1606914121.4182,12
1606914121.4202,21
1606914121.4222,36
1606914121.4242,55
1606914121.4262,69
1606914121.4282,82
1606914121.4302,86
1606914121.4323,82
1606914121.4342,77
1606914121.4362,69
1606914121.4382,55
1606914121.4402,31
1606914121.4422,2
1606914121.4428,-21
1606914121.4442,-31
1606914121.4462,-38
1606914121.4482,-48
1606914121.4502,-50
1606914121.4522,-45
1606914121.4542,-45
1606914121.4562,-45
1606914121.4582,-45
1606914121.4602,-41
1606914121.4622,-36
1606914121.4642,-31
1606914121.4662,-31
1606914121.4684,-26
1606914121.4703,-21
1606914121.4723,-16
1606914121.4728,-14
1606914121.4742,-12
1606914121.4762,-7
1606914121.4782,0
1606914121.4802,4
1606914121.4822,4
1606914121.4842,7
1606914121.4862,7
1606914121.4882,7
1606914121.4902,7
1606914121.9546,7
1606914121.9555,4
1606914121.9579,4
1606914121.9607,7
1606914121.9627,9
1606914121.9633,4
1606914121.9646,-2
1606914121.9667,0
1606914121.9686,2
1606914121.9706,0
1606914121.9727,0
1606914121.9746,2
1606914121.9766,2
1606914121.9786,-2
1606914121.9806,-7
1606914121.9826,0
1606914121.9846,16
1606914121.9866,28
1606914121.9886,33
1606914121.9906,45
1606914121.9926,48
1606914121.9932,31
1606914121.9945,9
1606914121.9966,7
1606914121.9985,16
1606914122.0006,14
1606914122.0026,12
1606914122.0046,14
1606914122.0065,14
1606914122.0086,12
1606914122.0106,14
1606914122.0126,16
1606914122.0146,0
1606914122.0165,-38
1606914122.0185,26
1606914122.0205,419
1606914122.0226,1052
1606914122.0232,1264
1606914122.0247,637
1606914122.0267,-144
1606914122.0286,-275
