,ecg
1606936450.1825,2960.0
1606936450.1842,3348.0
1606936450.1867,3919.0
1606936450.1894,4458.0
1606936450.1913,4832.0
1606936450.1933,5232.0
1606936450.1955,5636.0
1606936450.1975,5964.0
1606936450.2002,6279.0
1606936450.2025,6597.0
1606936450.2046,6874.0
1606936450.2072,7132.0
1606936450.2085,7387.0
1606936450.2103,7631.0
1606936450.2123,7852.0
1606936450.2143,8062.0
1606936450.2163,8264.0
1606936450.2184,8462.0
1606936450.2203,8642.0
1606936450.2223,8804.0
1606936450.2243,8963.0
1606936450.2264,9117.0
1606936450.2283,9240.0
1606936450.2303,9358.0
1606936450.2323,9483.0
1606936450.2343,9601.0
1606936450.2363,9705.0
1606936450.2382,9794.0
1606936450.2402,9876.0
1606936450.2422,9967.0
1606936450.2442,10049.0
1606936450.2463,10124.0
1606936450.2482,10201.0
1606936450.2503,10271.0
1606936450.2522,10319.0
1606936450.2542,10370.0
1606936450.2563,10425.0
1606936450.2582,10468.0
1606936450.2602,10497.0
1606936450.2622,10526.0
1606936450.2642,10553.0
1606936450.2664,10570.0
1606936450.2683,10579.0
1606936450.2702,10589.0
1606936450.2722,10606.0
1606936450.2742,10603.0
1606936450.2763,10589.0
1606936450.2782,10579.0
1606936450.2802,10582.0
1606936450.2822,10577.0
1606936450.2846,10545.0
1606936450.2863,10512.0
1606936450.2882,10492.0
1606936450.2902,10468.0
1606936450.2922,10425.0
1606936450.2942,10394.0
1606936450.2963,10367.0
1606936450.2982,10324.0
1606936450.3002,10278.0
1606936450.3022,10240.0
1606936450.3042,10187.0
1606936450.3062,10134.0
1606936450.3082,10088.0
1606936450.3102,10037.0
1606936450.3121,9982.0
1606936450.3142,9926.0
1606936450.3163,9869.0
1606936450.3182,9816.0
1606936450.3202,9765.0
1606936450.3222,9700.0
1606936450.3242,9633.0
1606936450.3262,9575.0
1606936450.3281,9514.0
1606936450.7516,9445.0
1606936450.7525,9380.0
1606936450.755,9319.0
1606936450.7578,9250.0
1606936450.7597,9177.0
1606936450.7617,9110.0
1606936450.7636,9045.0
1606936450.7656,8977.0
1606936450.7677,8905.0
1606936450.7696,8835.0
1606936450.7716,8782.0
1606936450.7736,8729.0
1606936450.7756,8650.0
1606936450.7775,8573.0
1606936450.7796,8503.0
1606936450.7816,8414.0
1606936450.7836,8320.0
1606936450.7856,8243.0
1606936450.7876,8161.0
1606936450.7896,8067.0
1606936450.7916,7987.0
1606936450.7936,7920.0
1606936450.7955,7852.0
1606936450.7976,7780.0
1606936450.7996,7703.0
1606936450.8016,7626.0
1606936450.8035,7568.0
1606936450.8055,7587.0
1606936450.8078,7717.0
1606936450.8096,7749.0
1606936450.8115,7460.0
1606936450.8135,7188.0
1606936450.8156,7180.0
1606936450.8176,7103.0
1606936450.8195,6939.0
1606936450.8215,6889.0
1606936450.8235,6843.0
1606936450.8255,6752.0
1606936450.8276,6682.0
1606936450.8295,6612.0
1606936450.8317,6535.0
1606936450.8336,6475.0
1606936450.8355,6417.0
1606936450.8376,6342.0
1606936450.8395,6265.0
1606936450.8415,6202.0
1606936450.8435,6140.0
1606936450.8455,6070.0
1606936450.8475,6005.0
1606936450.8496,5952.0
1606936450.8515,5884.0
1606936450.8535,5810.0
1606936450.8555,5749.0
1606936450.8576,5701.0
1606936450.8595,5639.0
1606936450.8615,5569.0
1606936450.8635,5511.0
1606936450.8656,5448.0
1606936450.8676,5374.0
1606936450.8695,5306.0
1606936450.8715,5244.0
1606936450.8735,5181.0
1606936450.8755,5113.0
1606936450.8776,5048.0
1606936450.8795,4991.0
1606936450.8817,4935.0
1606936450.8836,4875.0
1606936450.8855,4820.0
1606936450.8876,4771.0
1606936450.8895,4718.0
1606936450.8915,4668.0
1606936450.8935,4622.0
1606936450.8955,4576.0
1606936451.2916,4526.0
1606936451.2923,4473.0
1606936451.2947,4425.0
1606936451.2974,4379.0
1606936451.2995,4328.0
1606936451.3014,4273.0
1606936451.3037,4227.0
1606936451.3054,4184.0
1606936451.3074,4136.0
1606936451.3094,4087.0
1606936451.3113,4039.0
1606936451.3134,3996.0
1606936451.3154,3950.0
1606936451.3174,3892.0
1606936451.3193,3837.0
1606936451.3213,3801.0
1606936451.3233,3757.0
1606936451.3253,3709.0
1606936451.3274,3666.0
1606936451.3293,3625.0
1606936451.3313,3574.0
1606936451.3334,3526.0
1606936451.3353,3483.0
1606936451.3374,3444.0
1606936451.3393,3403.0
1606936451.3413,3360.0
1606936451.3433,3321.0
1606936451.3453,3283.0
1606936451.3473,3244.0
1606936451.3494,3203.0
1606936451.3513,3170.0
1606936451.3533,3131.0
1606936451.3553,3092.0
1606936451.3574,3054.0
1606936451.3593,3023.0
1606936451.3613,2989.0
1606936451.3633,2948.0
1606936451.3654,2907.0
1606936451.3674,2876.0
1606936451.3693,2844.0
1606936451.3713,2808.0
1606936451.3733,2772.0
1606936451.3753,2738.0
1606936451.3773,2709.0
1606936451.3794,2681.0
1606936451.3813,2652.0
1606936451.3834,2632.0
1606936451.3853,2628.0
1606936451.3874,2606.0
1606936451.3893,2555.0
1606936451.3913,2512.0
1606936451.3933,2473.0
1606936451.3953,2430.0
1606936451.3974,2387.0
1606936451.3994,2358.0
1606936451.4015,2331.0
1606936451.4034,2300.0
1606936451.4055,2273.0
1606936451.4074,2252.0
1606936451.4093,2225.0
1606936451.4113,2192.0
1606936451.4133,2182.0
1606936451.4154,2257.0
1606936451.4175,2440.0
1606936451.4194,2517.0
1606936451.4213,2259.0
1606936451.4233,2021.0
1606936451.4254,2074.0
1606936451.4274,2057.0
1606936451.4293,1931.0
1606936451.4313,1927.0
1606936451.4334,1929.0
1606936451.4353,1876.0
1606936451.8316,1852.0
1606936451.8327,1842.0
1606936451.8352,1813.0
1606936451.8378,1792.0
1606936451.8398,1780.0
1606936451.8418,1760.0
1606936451.8438,1736.0
1606936451.8458,1717.0
1606936451.8477,1703.0
1606936451.8498,1683.0
1606936451.8517,1657.0
1606936451.8537,1633.0
1606936451.8557,1618.0
1606936451.8577,1601.0
1606936451.8597,1580.0
1606936451.8616,1565.0
1606936451.8637,1551.0
1606936451.8657,1529.0
1606936451.8677,1510.0
1606936451.8697,1493.0
1606936451.8716,1474.0
1606936451.8737,1450.0
1606936451.8757,1428.0
1606936451.8777,1409.0
1606936451.8797,1385.0
1606936451.8817,1361.0
1606936451.8837,1339.0
1606936451.8857,1324.0
1606936451.8877,1310.0
1606936451.8896,1293.0
1606936451.8917,1279.0
1606936451.8937,1271.0
1606936451.8956,1264.0
1606936451.8977,1250.0
1606936451.8997,1235.0
1606936451.9018,1228.0
1606936451.9037,1216.0
1606936451.9057,1202.0
1606936451.9076,1192.0
1606936451.9096,1185.0
1606936451.9116,1175.0
1606936451.9136,1163.0
1606936451.9158,1151.0
1606936451.9177,1144.0
1606936451.9196,1132.0
1606936451.9216,1122.0
1606936451.9236,1112.0
1606936451.9257,1103.0
1606936451.9277,1091.0
1606936451.9296,1076.0
1606936451.9317,1067.0
1606936451.9337,1057.0
1606936451.9357,1045.0
1606936451.9377,1030.0
1606936451.9397,1016.0
1606936451.9417,1006.0
1606936451.9436,994.0
1606936451.9457,980.0
1606936451.9477,970.0
1606936451.9498,961.0
1606936451.9517,949.0
1606936451.9536,939.0
1606936451.9556,929.0
1606936451.9577,920.0
1606936451.9596,908.0
1606936451.9616,896.0
1606936451.9637,888.0
1606936451.9657,881.0
1606936451.9677,872.0
1606936451.9696,862.0
1606936451.9716,857.0
1606936451.9736,847.0
1606936451.9757,835.0
1606936452.3718,828.0
1606936452.3728,821.0
1606936452.3753,814.0
1606936452.3779,806.0
1606936452.3798,797.0
1606936452.3818,790.0
1606936452.3839,778.0
1606936452.3858,766.0
1606936452.3878,753.0
1606936452.3898,751.0
1606936452.3918,753.0
1606936452.3938,744.0
1606936452.3958,737.0
1606936452.3979,751.0
1606936452.4,768.0
1606936452.4018,758.0
1606936452.4038,734.0
1606936452.4057,720.0
1606936452.4078,705.0
1606936452.4097,684.0
1606936452.4117,662.0
1606936452.4137,652.0
1606936452.4158,645.0
1606936452.4178,638.0
1606936452.4198,631.0
1606936452.4218,628.0
1606936452.4238,621.0
1606936452.4258,611.0
1606936452.4278,640.0
1606936452.4297,770.0
1606936452.4319,965.0
1606936452.4339,968.0
1606936452.4358,720.0
1606936452.4377,611.0
1606936452.4397,652.0
1606936452.4417,575.0
1606936452.4438,520.0
1606936452.4457,554.0
1606936452.4478,546.0
1606936452.4499,520.0
1606936452.4518,529.0
1606936452.4537,532.0
1606936452.4558,520.0
1606936452.4577,517.0
1606936452.4597,520.0
1606936452.4617,515.0
1606936452.4637,513.0
1606936452.4658,510.0
1606936452.4678,508.0
1606936452.4698,505.0
1606936452.4717,501.0
1606936452.4737,496.0
1606936452.4757,493.0
1606936452.4777,488.0
1606936452.4798,484.0
1606936452.4818,481.0
1606936452.4838,476.0
1606936452.4858,472.0
1606936452.4877,469.0
1606936452.4897,464.0
1606936452.4917,457.0
1606936452.4937,450.0
1606936452.4957,440.0
1606936452.4977,433.0
1606936452.5001,426.0
1606936452.5018,414.0
1606936452.5038,404.0
1606936452.5057,402.0
1606936452.5077,399.0
1606936452.5097,397.0
1606936452.5117,397.0
1606936452.5137,402.0
1606936452.5159,407.0
1606936452.9716,409.0
1606936452.9725,411.0
1606936452.975,414.0
1606936452.9777,411.0
1606936452.9796,404.0
1606936452.9816,395.0
1606936452.9837,397.0
1606936452.9858,399.0
1606936452.9876,397.0
1606936452.9896,395.0
1606936452.9916,392.0
1606936452.9936,390.0
1606936452.9956,387.0
1606936452.9975,390.0
1606936452.9997,387.0
1606936453.0017,380.0
1606936453.0037,373.0
1606936453.0055,373.0
1606936453.0075,373.0
1606936453.0095,370.0
1606936453.0115,366.0
1606936453.0135,363.0
1606936453.0156,358.0
1606936453.0176,356.0
1606936453.0195,351.0
1606936453.0215,349.0
1606936453.0235,346.0
1606936453.0255,344.0
1606936453.0276,339.0
1606936453.0296,337.0
1606936453.0316,337.0
1606936453.0336,332.0
1606936453.0356,330.0
1606936453.0376,330.0
1606936453.0395,327.0
1606936453.0415,325.0
1606936453.0435,325.0
1606936453.0455,325.0
1606936453.0475,325.0
1606936453.0496,320.0
1606936453.0515,317.0
1606936453.0535,317.0
1606936453.0557,317.0
1606936453.0576,315.0
1606936453.0595,313.0
1606936453.0615,313.0
1606936453.0635,308.0
1606936453.0656,301.0
1606936453.0676,298.0
1606936453.0695,301.0
1606936453.0715,298.0
1606936453.0735,296.0
1606936453.0755,293.0
1606936453.0776,293.0
1606936453.0795,296.0
1606936453.0817,298.0
1606936453.0836,301.0
1606936453.0856,301.0
1606936453.0876,313.0
1606936453.0895,334.0
1606936453.0915,334.0
1606936453.0935,315.0
1606936453.0955,301.0
1606936453.0976,293.0
1606936453.0996,274.0
1606936453.1015,257.0
1606936453.1035,255.0
1606936453.1055,257.0
1606936453.1076,255.0
1606936453.1095,255.0
1606936453.1115,255.0
1606936453.1135,250.0
1606936453.1156,245.0
1606936453.5416,279.0
1606936453.5423,411.0
1606936453.5447,611.0
1606936453.5474,614.0
1606936453.5494,363.0
1606936453.5514,262.0
1606936453.5534,310.0
1606936453.5553,236.0
1606936453.5574,175.0
1606936453.5593,207.0
1606936453.5613,197.0
1606936453.5633,178.0
1606936453.5654,192.0
1606936453.5674,197.0
1606936453.5693,190.0
1606936453.5713,192.0
1606936453.5733,199.0
1606936453.5753,197.0
1606936453.5773,197.0
1606936453.5793,199.0
1606936453.5816,202.0
1606936453.5834,199.0
1606936453.5853,202.0
1606936453.5873,207.0
1606936453.5893,207.0
1606936453.5913,209.0
1606936453.5933,211.0
1606936453.5953,214.0
1606936453.5973,214.0
1606936453.5994,214.0
1606936453.6013,214.0
1606936453.6033,214.0
1606936453.6053,207.0
1606936453.6073,199.0
1606936453.6093,195.0
1606936453.6113,190.0
1606936453.6133,185.0
1606936453.6153,178.0
1606936453.6174,171.0
1606936453.6193,166.0
1606936453.6213,166.0
1606936453.6233,168.0
1606936453.6253,173.0
1606936453.6273,178.0
1606936453.6293,183.0
1606936453.6313,187.0
1606936453.6334,192.0
1606936453.6353,197.0
1606936453.6373,197.0
1606936453.6393,199.0
1606936453.6413,204.0
1606936453.6433,204.0
1606936453.6453,202.0
1606936453.6473,204.0
1606936453.6494,207.0
1606936453.6513,207.0
1606936453.6533,204.0
1606936453.6553,202.0
1606936453.6573,204.0
1606936453.6593,204.0
1606936453.6613,202.0
1606936453.6633,202.0
1606936453.6653,202.0
1606936453.6674,199.0
1606936453.6693,197.0
1606936453.6713,195.0
1606936453.6733,192.0
1606936453.6753,190.0
1606936453.6773,185.0
1606936453.6793,180.0
1606936453.6813,178.0
1606936453.6835,175.0
1606936453.6853,173.0
1606936454.0814,171.0
1606936454.0822,166.0
1606936454.0847,161.0
1606936454.0873,161.0
1606936454.0892,163.0
1606936454.0912,163.0
1606936454.0932,161.0
1606936454.0952,161.0
1606936454.0973,161.0
1606936454.0993,158.0
1606936454.1013,151.0
1606936454.1032,144.0
1606936454.1052,149.0
1606936454.1072,151.0
1606936454.1092,146.0
1606936454.1112,144.0
1606936454.1132,149.0
1606936454.1152,151.0
1606936454.1173,151.0
1606936454.1192,149.0
1606936454.1212,151.0
1606936454.1232,154.0
1606936454.1252,151.0
1606936454.1272,151.0
1606936454.1292,154.0
1606936454.1312,154.0
1606936454.1333,154.0
1606936454.1352,161.0
1606936454.1372,163.0
1606936454.1392,161.0
1606936454.1412,173.0
1606936454.1432,199.0
1606936454.1452,202.0
1606936454.1472,180.0
1606936454.1493,168.0
1606936454.1512,166.0
1606936454.1532,151.0
1606936454.1552,132.0
1606936454.1572,127.0
1606936454.1592,132.0
1606936454.1612,132.0
1606936454.1632,132.0
1606936454.1652,134.0
1606936454.1673,134.0
1606936454.1692,127.0
1606936454.1712,151.0
1606936454.1732,277.0
1606936454.1752,486.0
1606936454.1772,517.0
1606936454.1794,255.0
1606936454.1812,127.0
1606936454.1833,209.0
1606936454.1852,156.0
1606936454.1872,79.0
1606936454.1892,120.0
1606936454.1912,125.0
1606936454.1932,91.0
1606936454.1952,101.0
1606936454.1972,113.0
1606936454.1993,105.0
1606936454.2012,105.0
1606936454.2032,105.0
1606936454.2052,103.0
1606936454.2072,108.0
1606936454.2092,118.0
1606936454.2112,115.0
1606936454.2132,110.0
1606936454.2153,108.0
1606936454.2173,110.0
1606936454.2192,113.0
1606936454.2212,115.0
1606936454.2232,120.0
1606936454.2252,125.0
1606936454.6518,125.0
1606936454.6528,125.0
1606936454.6553,127.0
1606936454.6579,127.0
1606936454.6599,125.0
1606936454.6618,120.0
1606936454.6639,115.0
1606936454.6659,108.0
1606936454.6678,96.0
1606936454.6698,86.0
1606936454.6718,84.0
1606936454.6738,84.0
1606936454.6758,86.0
1606936454.6778,89.0
1606936454.6798,93.0
1606936454.6818,98.0
1606936454.684,103.0
1606936454.6858,110.0
1606936454.6878,118.0
1606936454.6898,120.0
1606936454.6918,118.0
1606936454.6938,122.0
1606936454.6958,130.0
1606936454.6978,132.0
1606936454.6999,130.0
1606936454.7019,132.0
1606936454.7025,137.0
1606936454.7051,139.0
1606936454.7069,139.0
1606936454.7088,139.0
1606936454.7108,142.0
1606936454.713,142.0
1606936454.7149,142.0
1606936454.7169,149.0
1606936454.7188,151.0
1606936454.7209,149.0
1606936454.7229,144.0
1606936454.7248,142.0
1606936454.7268,142.0
1606936454.7288,139.0
1606936454.7309,142.0
1606936454.7329,144.0
1606936454.7335,142.0
1606936454.7358,137.0
1606936454.7378,132.0
1606936454.7398,134.0
1606936454.7418,134.0
1606936454.7438,132.0
1606936454.7458,127.0
1606936454.7478,130.0
1606936454.75,132.0
1606936454.7518,132.0
1606936454.7538,130.0
1606936454.7558,130.0
1606936454.7578,127.0
1606936454.7598,125.0
1606936454.7618,130.0
1606936454.7638,132.0
1606936454.7645,130.0
1606936454.7669,125.0
1606936454.7688,122.0
1606936454.7708,122.0
1606936454.7728,122.0
1606936454.7748,125.0
1606936454.7768,125.0
1606936454.7788,127.0
1606936454.7808,127.0
1606936454.7829,125.0
1606936454.7848,127.0
1606936454.7869,130.0
1606936454.7888,134.0
1606936454.7908,137.0
1606936454.7928,137.0
1606936455.1915,154.0
1606936455.1924,178.0
1606936455.1949,175.0
1606936455.1976,154.0
1606936455.1996,142.0
1606936455.2018,134.0
1606936455.2036,120.0
1606936455.2055,108.0
1606936455.2075,101.0
1606936455.2095,96.0
1606936455.2114,93.0
1606936455.2134,96.0
1606936455.2155,96.0
1606936455.2175,91.0
1606936455.2194,93.0
1606936455.2214,142.0
1606936455.2221,301.0
1606936455.2244,501.0
1606936455.2264,433.0
1606936455.2284,125.0
1606936455.2304,72.0
1606936455.2325,173.0
1606936455.2345,91.0
1606936455.2364,38.0
1606936455.2384,89.0
1606936455.2404,81.0
1606936455.2424,57.0
1606936455.2444,77.0
1606936455.2464,84.0
1606936455.2485,77.0
1606936455.2505,81.0
1606936455.2524,89.0
1606936455.2531,89.0
1606936455.2554,89.0
1606936455.2575,96.0
1606936455.2595,98.0
1606936455.2614,96.0
1606936455.2634,101.0
1606936455.2655,103.0
1606936455.2675,105.0
1606936455.2694,108.0
1606936455.2714,110.0
1606936455.2734,110.0
1606936455.2754,113.0
1606936455.2774,110.0
1606936455.2794,110.0
1606936455.2814,113.0
1606936455.2822,110.0
1606936455.2845,103.0
1606936455.2864,98.0
1606936455.2884,96.0
1606936455.2904,89.0
1606936455.2924,79.0
1606936455.2944,74.0
1606936455.2965,72.0
1606936455.2984,74.0
1606936455.3007,77.0
1606936455.3024,81.0
1606936455.3044,86.0
1606936455.3064,89.0
1606936455.3084,93.0
1606936455.3104,96.0
1606936455.3124,101.0
1606936455.3131,101.0
1606936455.3145,101.0
1606936455.3165,103.0
1606936455.3184,108.0
1606936455.3204,110.0
1606936455.3224,110.0
1606936455.3244,113.0
1606936455.3265,115.0
1606936455.3284,118.0
1606936455.3304,115.0
1606936455.7618,118.0
1606936455.7628,120.0
1606936455.7652,120.0
1606936455.7679,120.0
1606936455.7687,120.0
1606936455.7708,115.0
1606936455.7728,108.0
1606936455.7749,101.0
1606936455.7767,101.0
1606936455.7787,101.0
1606936455.7807,96.0
1606936455.7828,93.0
1606936455.7848,93.0
1606936455.7867,93.0
1606936455.7887,91.0
1606936455.7907,93.0
1606936455.7927,93.0
1606936455.7947,91.0
1606936455.7968,91.0
1606936455.7988,93.0
1606936455.7994,93.0
1606936455.8018,93.0
1606936455.8037,91.0
1606936455.8057,91.0
1606936455.8078,91.0
1606936455.8098,91.0
1606936455.8117,91.0
1606936455.8137,91.0
1606936455.8158,93.0
1606936455.8178,91.0
1606936455.8197,89.0
1606936455.8217,93.0
1606936455.8237,96.0
1606936455.8257,93.0
1606936455.8279,91.0
1606936455.8298,89.0
1606936455.8304,91.0
1606936455.8328,91.0
1606936455.8349,89.0
1606936455.8367,89.0
1606936455.8387,89.0
1606936455.8407,89.0
1606936455.8427,93.0
1606936455.8447,98.0
1606936455.8468,98.0
1606936455.8488,108.0
1606936455.8508,132.0
1606936455.8527,137.0
1606936455.8547,118.0
1606936455.8568,105.0
1606936455.8587,101.0
1606936455.8607,86.0
1606936455.8614,69.0
1606936455.8637,65.0
1606936455.8658,69.0
1606936455.8678,69.0
1606936455.8698,69.0
1606936455.8717,69.0
1606936455.8737,65.0
1606936455.8757,60.0
1606936455.8777,96.0
1606936455.8797,233.0
1606936455.8818,440.0
1606936455.8838,455.0
1606936455.8857,204.0
1606936455.8877,89.0
1606936455.8897,139.0
1606936455.8917,72.0
1606936455.8924,16.0
1606936455.8947,52.0
1606936455.8968,52.0
1606936455.8988,31.0
1606936455.9008,43.0
1606936456.3017,52.0
1606936456.3027,48.0
1606936456.3051,50.0
1606936456.3078,57.0
1606936456.3097,57.0
1606936456.3117,60.0
1606936456.3139,65.0
1606936456.3157,60.0
1606936456.3177,52.0
1606936456.3196,57.0
1606936456.3216,62.0
1606936456.3236,65.0
1606936456.3258,67.0
1606936456.3277,74.0
1606936456.3296,77.0
1606936456.3316,77.0
1606936456.3337,79.0
1606936456.3356,81.0
1606936456.3376,81.0
1606936456.3396,79.0
1606936456.3417,77.0
1606936456.3436,74.0
1606936456.3456,69.0
1606936456.3476,62.0
1606936456.3497,57.0
1606936456.3516,52.0
1606936456.3536,48.0
1606936456.3556,45.0
1606936456.3577,50.0
1606936456.3596,55.0
1606936456.3616,60.0
1606936456.3636,65.0
1606936456.3657,72.0
1606936456.3677,79.0
1606936456.3696,81.0
1606936456.3716,84.0
1606936456.3736,86.0
1606936456.3756,89.0
1606936456.3776,84.0
1606936456.3796,84.0
1606936456.3816,89.0
1606936456.3837,91.0
1606936456.3857,93.0
1606936456.3876,96.0
1606936456.3896,98.0
1606936456.3916,101.0
1606936456.3936,98.0
1606936456.3956,101.0
1606936456.3976,103.0
1606936456.3997,105.0
1606936456.4016,105.0
1606936456.4036,103.0
1606936456.4056,103.0
1606936456.4077,103.0
1606936456.4096,103.0
1606936456.4116,101.0
1606936456.4136,98.0
1606936456.4157,93.0
1606936456.4177,89.0
1606936456.4197,86.0
1606936456.4216,89.0
1606936456.4236,89.0
1606936456.4257,89.0
1606936456.4278,89.0
1606936456.4297,89.0
1606936456.4316,89.0
1606936456.4337,89.0
1606936456.4356,89.0
1606936456.4376,91.0
1606936456.4396,89.0
1606936456.4416,86.0
1606936456.4436,89.0
1606936456.4456,91.0
1606936456.9016,91.0
1606936456.9027,89.0
1606936456.9051,91.0
1606936456.9078,89.0
1606936456.9097,84.0
1606936456.9117,79.0
1606936456.9139,79.0
1606936456.9158,81.0
1606936456.9178,81.0
1606936456.9198,77.0
1606936456.9217,77.0
1606936456.9237,79.0
1606936456.9258,79.0
1606936456.9277,79.0
1606936456.9297,79.0
1606936456.9317,79.0
1606936456.9338,79.0
1606936456.9358,81.0
1606936456.9377,89.0
1606936456.9397,89.0
1606936456.9417,91.0
1606936456.9437,108.0
1606936456.9457,132.0
1606936456.9477,125.0
1606936456.9498,105.0
1606936456.9517,98.0
1606936456.9537,91.0
1606936456.9557,72.0
1606936456.9577,57.0
1606936456.9597,57.0
1606936456.9617,57.0
1606936456.9637,50.0
1606936456.9657,50.0
1606936456.9677,52.0
1606936456.9697,50.0
1606936456.9716,52.0
1606936456.9737,120.0
1606936456.9756,296.0
1606936456.9777,467.0
1606936456.9796,354.0
1606936456.9816,108.0
1606936456.9839,98.0
1606936456.9858,122.0
1606936456.9877,26.0
1606936456.9896,19.0
1606936456.9917,55.0
1606936456.9936,36.0
1606936456.9956,26.0
1606936456.9977,40.0
1606936456.9997,38.0
1606936457.0017,36.0
1606936457.0036,45.0
1606936457.0057,48.0
1606936457.0076,50.0
1606936457.0097,55.0
1606936457.0116,57.0
1606936457.0136,55.0
1606936457.0157,50.0
1606936457.0177,55.0
1606936457.0196,65.0
1606936457.0217,67.0
1606936457.0236,67.0
1606936457.0256,69.0
1606936457.0276,79.0
1606936457.0296,81.0
1606936457.0317,81.0
1606936457.0338,79.0
1606936457.0357,81.0
1606936457.0376,81.0
1606936457.0396,72.0
1606936457.0416,65.0
1606936457.0436,65.0
1606936457.0457,50.0
1606936457.4416,43.0
1606936457.4424,52.0
1606936457.4449,65.0
1606936457.4475,62.0
1606936457.4496,55.0
1606936457.4516,60.0
1606936457.4536,65.0
1606936457.4555,65.0
1606936457.4574,65.0
1606936457.4595,62.0
1606936457.4614,57.0
1606936457.4634,62.0
1606936457.4655,74.0
1606936457.4675,74.0
1606936457.4694,67.0
1606936457.4714,79.0
1606936457.4734,84.0
1606936457.4754,72.0
1606936457.4774,72.0
1606936457.4796,89.0
1606936457.4816,86.0
1606936457.4835,79.0
1606936457.4854,86.0
1606936457.4875,86.0
1606936457.4894,84.0
1606936457.4914,93.0
1606936457.4934,98.0
1606936457.4954,91.0
1606936457.4974,84.0
1606936457.4995,81.0
1606936457.5015,89.0
1606936457.5034,96.0
1606936457.5054,84.0
1606936457.5075,77.0
1606936457.5094,81.0
1606936457.5114,84.0
1606936457.5134,81.0
1606936457.5155,84.0
1606936457.5175,84.0
1606936457.5194,72.0
1606936457.5214,65.0
1606936457.5234,74.0
1606936457.5254,89.0
1606936457.5275,91.0
1606936457.5294,81.0
1606936457.5316,79.0
1606936457.5335,81.0
1606936457.5354,72.0
1606936457.5374,72.0
1606936457.5394,84.0
1606936457.5414,91.0
1606936457.5434,84.0
1606936457.5454,79.0
1606936457.5474,91.0
1606936457.5495,98.0
1606936457.5514,81.0
1606936457.5534,67.0
1606936457.5554,72.0
1606936457.5574,72.0
1606936457.5594,69.0
1606936457.5614,81.0
1606936457.5634,91.0
1606936457.5655,79.0
1606936457.5675,69.0
1606936457.5694,77.0
1606936457.5714,89.0
1606936457.5734,86.0
1606936457.5754,86.0
1606936457.5774,103.0
1606936457.5794,132.0
1606936457.5817,137.0
1606936457.5835,113.0
1606936457.5854,84.0
1606936458.0117,81.0
1606936458.0128,89.0
1606936458.0152,72.0
1606936458.0178,48.0
1606936458.0198,43.0
1606936458.0218,48.0
1606936458.0239,48.0
1606936458.0258,55.0
1606936458.0277,55.0
1606936458.0297,40.0
1606936458.0318,52.0
1606936458.0338,163.0
1606936458.0358,375.0
1606936458.0377,452.0
1606936458.0397,216.0
1606936458.0417,28.0
1606936458.0437,103.0
1606936458.0457,86.0
1606936458.0477,0.0
1606936458.0498,33.0
1606936458.0517,60.0
1606936458.0537,28.0
1606936458.0557,26.0
1606936458.0577,40.0
1606936458.0597,40.0
1606936458.0617,40.0
1606936458.0637,52.0
1606936458.0658,57.0
1606936458.0678,50.0
1606936458.0697,52.0
1606936458.0717,62.0
1606936458.0737,60.0
1606936458.0757,55.0
1606936458.0777,60.0
1606936458.0798,62.0
1606936458.0817,67.0
1606936458.0838,81.0
1606936458.0857,79.0
1606936458.0877,74.0
1606936458.0897,79.0
1606936458.0917,89.0
1606936458.0937,84.0
1606936458.0957,74.0
1606936458.0977,89.0
1606936458.0998,84.0
1606936458.1017,50.0
1606936458.1037,55.0
1606936458.1057,84.0
1606936458.1079,72.0
1606936458.1097,50.0
1606936458.1117,65.0
1606936458.1137,79.0
1606936458.1157,65.0
1606936458.1178,57.0
1606936458.1197,74.0
1606936458.1217,74.0
1606936458.1237,55.0
1606936458.1257,60.0
1606936458.1277,79.0
1606936458.1297,74.0
1606936458.1318,74.0
1606936458.1338,79.0
1606936458.1357,79.0
1606936458.1377,77.0
1606936458.1397,79.0
1606936458.1417,84.0
1606936458.1437,91.0
1606936458.1457,86.0
1606936458.1477,77.0
1606936458.1498,81.0
1606936458.1517,89.0
1606936458.1537,91.0
1606936458.1557,93.0
1606936458.5513,93.0
1606936458.552,93.0
1606936458.5544,91.0
1606936458.5571,91.0
1606936458.5591,86.0
1606936458.5611,81.0
1606936458.5631,84.0
1606936458.5651,84.0
1606936458.5672,69.0
1606936458.5691,50.0
1606936458.5711,52.0
1606936458.573,65.0
1606936458.5751,60.0
1606936458.5771,50.0
1606936458.579,52.0
1606936458.5811,60.0
1606936458.5831,72.0
1606936458.585,77.0
1606936458.5871,62.0
1606936458.589,52.0
1606936458.591,67.0
1606936458.593,69.0
1606936458.595,57.0
1606936458.5971,60.0
1606936458.5991,62.0
1606936458.6011,62.0
1606936458.6032,65.0
1606936458.6051,65.0
1606936458.6071,57.0
1606936458.609,62.0
1606936458.6111,67.0
1606936458.613,55.0
1606936458.6151,62.0
1606936458.6171,77.0
1606936458.619,65.0
1606936458.621,62.0
1606936458.623,72.0
1606936458.625,69.0
1606936458.6271,93.0
1606936458.629,130.0
1606936458.631,125.0
1606936458.6333,93.0
1606936458.6351,74.0
1606936458.6371,62.0
1606936458.6391,52.0
1606936458.6412,43.0
1606936458.6431,48.0
1606936458.6452,55.0
1606936458.6471,38.0
1606936458.6491,26.0
1606936458.6511,36.0
1606936458.653,48.0
1606936458.655,55.0
1606936458.657,113.0
1606936458.659,279.0
1606936458.661,445.0
1606936458.663,330.0
1606936458.665,55.0
1606936458.6671,43.0
1606936458.669,110.0
1606936458.671,31.0
1606936458.673,14.0
1606936458.675,52.0
1606936458.6771,26.0
1606936458.679,12.0
1606936458.681,33.0
1606936458.6831,33.0
1606936458.685,21.0
1606936458.6871,28.0
1606936458.689,48.0
1606936458.691,52.0
1606936458.693,45.0
1606936458.695,40.0
1606936459.1216,40.0
1606936459.1225,50.0
1606936459.1249,65.0
1606936459.1276,57.0
1606936459.1298,38.0
1606936459.1316,31.0
1606936459.1337,28.0
1606936459.1356,45.0
1606936459.1375,77.0
1606936459.1395,72.0
1606936459.1415,43.0
1606936459.1435,36.0
1606936459.1455,36.0
1606936459.1475,52.0
1606936459.1495,72.0
1606936459.1515,52.0
1606936459.1535,31.0
1606936459.1555,28.0
1606936459.1575,21.0
1606936459.1595,24.0
1606936459.1614,36.0
1606936459.1635,33.0
1606936459.1655,28.0
1606936459.1675,38.0
1606936459.1695,45.0
1606936459.1714,40.0
1606936459.1735,45.0
1606936459.1754,45.0
1606936459.1775,33.0
1606936459.1795,43.0
1606936459.1816,55.0
1606936459.1835,52.0
1606936459.1855,52.0
1606936459.1875,57.0
1606936459.1894,55.0
1606936459.1915,62.0
1606936459.1935,67.0
1606936459.1955,57.0
1606936459.1975,62.0
1606936459.1996,72.0
1606936459.2015,74.0
1606936459.2034,74.0
1606936459.2056,74.0
1606936459.2075,77.0
1606936459.2095,79.0
1606936459.2114,69.0
1606936459.2134,67.0
1606936459.2155,74.0
1606936459.2176,69.0
1606936459.2195,62.0
1606936459.2214,65.0
1606936459.2234,67.0
1606936459.2254,62.0
1606936459.2275,57.0
1606936459.2295,55.0
1606936459.2317,50.0
1606936459.2335,55.0
1606936459.2355,62.0
1606936459.2375,62.0
1606936459.2394,55.0
1606936459.2415,50.0
1606936459.2434,57.0
1606936459.2455,69.0
1606936459.2475,69.0
1606936459.2495,67.0
1606936459.2515,62.0
1606936459.2535,57.0
1606936459.2554,57.0
1606936459.2575,60.0
1606936459.2594,55.0
1606936459.2615,50.0
1606936459.2635,52.0
1606936459.2656,48.0
1606936459.6617,52.0
1606936459.6626,65.0
1606936459.6651,52.0
1606936459.6678,43.0
1606936459.6697,52.0
1606936459.6717,62.0
1606936459.674,57.0
1606936459.6758,43.0
1606936459.6776,40.0
1606936459.6796,48.0
1606936459.6816,48.0
1606936459.6837,48.0
1606936459.6856,72.0
1606936459.6876,96.0
1606936459.6896,91.0
1606936459.6917,72.0
1606936459.6936,67.0
1606936459.6956,74.0
1606936459.6976,57.0
1606936459.6997,26.0
1606936459.7016,14.0
1606936459.7036,24.0
1606936459.7056,24.0
1606936459.7076,28.0
1606936459.7096,43.0
1606936459.7116,33.0
1606936459.7136,19.0
1606936459.7156,45.0
1606936459.7177,149.0
1606936459.7196,344.0
1606936459.7216,457.0
1606936459.7236,274.0
1606936459.7256,77.0
1606936459.7278,89.0
1606936459.7296,65.0
1606936459.7316,2.0
1606936459.7336,36.0
1606936459.7356,45.0
1606936459.7376,7.0
1606936459.7396,-2.0
1606936459.7416,12.0
1606936459.7436,26.0
1606936459.7456,28.0
1606936459.7476,24.0
1606936459.7496,33.0
1606936459.7516,36.0
1606936459.7536,40.0
1606936459.7556,40.0
1606936459.7576,28.0
1606936459.7596,33.0
1606936459.7616,60.0
1606936459.7636,67.0
1606936459.7656,50.0
1606936459.7676,52.0
1606936459.7696,67.0
1606936459.7716,62.0
1606936459.7736,55.0
1606936459.7756,69.0
1606936459.7776,86.0
1606936459.7796,79.0
1606936459.7816,62.0
1606936459.7836,57.0
1606936459.7856,55.0
1606936459.7876,40.0
1606936459.7896,38.0
1606936459.7916,62.0
1606936459.7936,55.0
1606936459.7956,21.0
1606936459.7976,21.0
1606936459.7996,43.0
1606936459.8016,60.0
1606936459.8036,50.0
1606936459.8056,33.0
1606936460.2616,38.0
1606936460.2625,60.0
1606936460.265,74.0
1606936460.2677,67.0
1606936460.2696,50.0
1606936460.2716,40.0
1606936460.2737,38.0
1606936460.2756,55.0
1606936460.2775,67.0
1606936460.2795,57.0
1606936460.2815,65.0
1606936460.2837,67.0
1606936460.2856,45.0
1606936460.2875,67.0
1606936460.2895,105.0
1606936460.2915,79.0
1606936460.2935,50.0
1606936460.2955,69.0
1606936460.2975,79.0
1606936460.2995,67.0
1606936460.3015,81.0
1606936460.3035,89.0
1606936460.3055,72.0
1606936460.3075,72.0
1606936460.3095,67.0
1606936460.3115,60.0
1606936460.3135,77.0
1606936460.3155,81.0
1606936460.3175,67.0
1606936460.3195,57.0
1606936460.3215,60.0
1606936460.3235,67.0
1606936460.3255,72.0
1606936460.3275,67.0
1606936460.3295,65.0
1606936460.3315,60.0
1606936460.3335,60.0
1606936460.3355,60.0
1606936460.3375,67.0
1606936460.3395,69.0
1606936460.3415,62.0
1606936460.3435,55.0
1606936460.3455,62.0
1606936460.3475,77.0
1606936460.3495,67.0
1606936460.3515,57.0
1606936460.3535,69.0
1606936460.3555,65.0
1606936460.3575,48.0
1606936460.3595,65.0
1606936460.3615,81.0
1606936460.3635,65.0
1606936460.3655,52.0
1606936460.3675,62.0
1606936460.3695,65.0
1606936460.3715,57.0
1606936460.3735,60.0
1606936460.3755,57.0
1606936460.3775,57.0
1606936460.3795,62.0
1606936460.3815,57.0
1606936460.3835,62.0
1606936460.3856,79.0
1606936460.3875,72.0
1606936460.3895,69.0
1606936460.3915,96.0
1606936460.3935,110.0
1606936460.3955,98.0
1606936460.3975,81.0
1606936460.3995,69.0
1606936460.4015,55.0
1606936460.4035,38.0
1606936460.4055,26.0
1606936460.8316,28.0
1606936460.8326,36.0
1606936460.8351,40.0
1606936460.8377,45.0
1606936460.8397,50.0
1606936460.8417,45.0
1606936460.8437,60.0
1606936460.8456,185.0
1606936460.8476,426.0
1606936460.8496,464.0
1606936460.8516,190.0
1606936460.8536,60.0
1606936460.8556,118.0
1606936460.8575,48.0
1606936460.8595,-14.0
1606936460.8615,31.0
1606936460.8636,33.0
1606936460.8656,4.0
1606936460.8676,14.0
1606936460.8695,21.0
1606936460.8715,14.0
1606936460.8735,19.0
1606936460.8755,28.0
1606936460.8775,28.0
1606936460.8795,26.0
1606936460.8815,31.0
1606936460.8835,38.0
1606936460.8855,40.0
1606936460.8875,40.0
1606936460.8895,40.0
1606936460.8915,48.0
1606936460.8935,57.0
1606936460.8956,52.0
1606936460.8976,50.0
1606936460.8995,57.0
1606936460.9015,62.0
1606936460.9036,62.0
1606936460.9055,62.0
1606936460.9075,65.0
1606936460.9096,65.0
1606936460.9117,60.0
1606936460.9136,57.0
1606936460.9156,50.0
1606936460.9175,45.0
1606936460.9195,43.0
1606936460.9215,38.0
1606936460.9235,31.0
1606936460.9256,28.0
1606936460.9276,38.0
1606936460.9297,45.0
1606936460.9315,36.0
1606936460.9335,36.0
1606936460.9355,43.0
1606936460.9375,48.0
1606936460.9395,50.0
1606936460.9415,57.0
1606936460.9435,55.0
1606936460.9455,52.0
1606936460.9476,62.0
1606936460.9495,65.0
1606936460.9516,62.0
1606936460.9536,69.0
1606936460.9556,72.0
1606936460.9575,72.0
1606936460.9595,79.0
1606936460.9615,84.0
1606936460.9636,79.0
1606936460.9655,79.0
1606936460.9676,81.0
1606936460.9696,86.0
1606936460.9715,93.0
1606936460.9735,91.0
1606936460.9756,84.0
1606936461.3716,91.0
1606936461.3729,93.0
1606936461.3753,69.0
1606936461.3779,62.0
1606936461.3799,84.0
1606936461.3819,89.0
1606936461.3839,81.0
1606936461.3847,91.0
1606936461.3868,84.0
1606936461.3888,62.0
1606936461.3908,50.0
1606936461.3928,62.0
1606936461.3948,81.0
1606936461.3968,67.0
1606936461.3988,45.0
1606936461.4008,55.0
1606936461.4028,57.0
1606936461.4048,67.0
1606936461.407,81.0
1606936461.4088,55.0
1606936461.4109,40.0
1606936461.4128,60.0
1606936461.4135,60.0
1606936461.4158,60.0
1606936461.4178,77.0
1606936461.4198,62.0
1606936461.4218,50.0
1606936461.4238,79.0
1606936461.4258,72.0
1606936461.4278,38.0
1606936461.4298,45.0
1606936461.4318,62.0
1606936461.4338,67.0
1606936461.4358,65.0
1606936461.4378,52.0
1606936461.4398,60.0
1606936461.4418,65.0
1606936461.4438,60.0
1606936461.4445,69.0
1606936461.4468,72.0
1606936461.4488,72.0
1606936461.4508,89.0
1606936461.4528,101.0
1606936461.4548,91.0
1606936461.4568,81.0
1606936461.4588,57.0
1606936461.4608,4.0
1606936461.4628,-7.0
1606936461.4648,48.0
1606936461.4668,50.0
1606936461.4688,19.0
1606936461.4708,33.0
1606936461.4728,60.0
1606936461.4748,50.0
1606936461.4755,48.0
1606936461.4778,125.0
1606936461.4798,332.0
1606936461.4819,457.0
1606936461.4838,209.0
1606936461.4858,-36.0
1606936461.4878,77.0
1606936461.4898,127.0
1606936461.4918,7.0
1606936461.4938,16.0
1606936461.4958,60.0
1606936461.4978,26.0
1606936461.4998,24.0
1606936461.5018,60.0
1606936461.5038,52.0
1606936461.5059,31.0
1606936461.5066,50.0
1606936461.5078,67.0
1606936461.5098,38.0
1606936461.9416,33.0
1606936461.9425,84.0
1606936461.945,98.0
1606936461.9477,62.0
1606936461.9495,31.0
1606936461.9515,57.0
1606936461.9535,105.0
1606936461.9555,96.0
1606936461.9574,60.0
1606936461.9594,57.0
1606936461.9614,69.0
1606936461.9622,86.0
1606936461.9645,89.0
1606936461.9665,79.0
1606936461.9685,79.0
1606936461.9705,74.0
1606936461.9725,86.0
1606936461.9744,93.0
1606936461.9765,62.0
1606936461.9784,48.0
1606936461.9805,50.0
1606936461.9824,43.0
1606936461.9844,43.0
1606936461.9865,55.0
1606936461.9884,77.0
1606936461.9905,79.0
1606936461.9925,50.0
1606936461.9932,55.0
1606936461.9954,96.0
1606936461.9975,89.0
1606936461.9994,57.0
1606936462.0014,60.0
1606936462.0035,79.0
1606936462.0055,81.0
1606936462.0075,74.0
1606936462.0094,67.0
1606936462.0115,74.0
1606936462.0134,91.0
1606936462.0155,89.0
1606936462.0175,77.0
1606936462.0194,69.0
1606936462.0214,77.0
1606936462.0234,98.0
1606936462.0242,108.0
1606936462.0265,108.0
1606936462.0285,91.0
1606936462.0305,77.0
1606936462.0326,96.0
1606936462.0345,105.0
1606936462.0364,79.0
1606936462.0384,74.0
1606936462.0405,79.0
1606936462.0425,65.0
1606936462.0444,77.0
1606936462.0465,86.0
1606936462.0485,77.0
1606936462.0504,79.0
1606936462.0524,84.0
1606936462.0545,62.0
1606936462.0552,55.0
1606936462.0575,74.0
1606936462.0595,81.0
1606936462.0615,69.0
1606936462.0634,67.0
1606936462.0656,55.0
1606936462.0675,40.0
1606936462.0694,62.0
1606936462.0714,74.0
1606936462.0735,79.0
1606936462.0754,86.0
1606936462.0775,60.0
1606936462.0794,57.0
1606936462.0815,89.0
1606936462.4813,81.0
1606936462.4819,62.0
1606936462.4843,79.0
1606936462.487,74.0
1606936462.489,62.0
1606936462.491,81.0
1606936462.4931,84.0
1606936462.495,86.0
1606936462.4969,118.0
1606936462.499,113.0
1606936462.5009,79.0
1606936462.5029,89.0
1606936462.5049,86.0
1606936462.5069,52.0
1606936462.5089,52.0
1606936462.5172,43.0
1606936462.5189,12.0
1606936462.5209,31.0
1606936462.5229,52.0
1606936462.5249,36.0
1606936462.5269,38.0
1606936462.5289,57.0
1606936462.5309,43.0
1606936462.5329,86.0
1606936462.5349,286.0
1606936462.5371,460.0
1606936462.5391,291.0
1606936462.5409,-31.0
1606936462.5429,-36.0
1606936462.5449,86.0
1606936462.5456,26.0
1606936462.5478,-2.0
1606936462.5499,48.0
1606936462.5519,21.0
1606936462.5539,12.0
1606936462.556,55.0
1606936462.5579,24.0
1606936462.5599,-14.0
1606936462.5619,36.0
1606936462.5639,43.0
1606936462.566,2.0
1606936462.5679,38.0
1606936462.5699,79.0
1606936462.5719,36.0
1606936462.5739,2.0
1606936462.576,50.0
1606936462.5766,79.0
1606936462.5789,38.0
1606936462.5809,43.0
1606936462.5829,98.0
1606936462.5849,93.0
1606936462.5869,55.0
1606936462.5889,77.0
1606936462.5909,103.0
1606936462.5929,101.0
1606936462.5949,103.0
1606936462.5969,101.0
1606936462.5989,118.0
1606936462.6009,137.0
1606936462.6029,101.0
1606936462.6049,72.0
1606936462.6069,103.0
1606936462.6077,156.0
1606936462.6099,161.0
1606936462.6119,139.0
1606936462.6139,158.0
1606936462.6159,175.0
1606936462.6179,178.0
1606936462.6199,204.0
1606936462.6219,209.0
1606936462.624,197.0
1606936462.626,204.0
1606936462.6279,207.0
1606936463.0215,209.0
1606936463.0224,231.0
1606936463.0248,231.0
1606936463.0278,219.0
1606936463.0295,219.0
1606936463.0315,211.0
1606936463.0336,209.0
1606936463.0355,221.0
1606936463.0374,219.0
1606936463.0394,207.0
1606936463.0414,197.0
1606936463.0434,190.0
1606936463.0454,187.0
1606936463.0474,197.0
1606936463.0494,175.0
1606936463.0514,132.0
1606936463.0534,137.0
1606936463.0554,161.0
1606936463.0574,137.0
1606936463.0594,93.0
1606936463.0614,93.0
1606936463.0634,108.0
1606936463.0654,96.0
1606936463.0674,84.0
1606936463.0694,86.0
1606936463.0714,69.0
1606936463.0734,50.0
1606936463.0754,65.0
1606936463.0774,74.0
1606936463.0794,52.0
1606936463.0814,48.0
1606936463.0834,48.0
1606936463.0854,40.0
1606936463.0874,38.0
1606936463.0894,40.0
1606936463.0914,62.0
1606936463.0934,57.0
1606936463.0954,12.0
1606936463.0974,4.0
1606936463.0994,40.0
1606936463.1014,45.0
1606936463.1034,19.0
1606936463.1054,9.0
1606936463.1074,24.0
1606936463.1094,19.0
1606936463.1114,9.0
1606936463.1134,0.0
1606936463.1154,7.0
1606936463.1174,50.0
1606936463.1194,67.0
1606936463.1214,50.0
1606936463.1234,33.0
1606936463.1254,19.0
1606936463.1274,-2.0
1606936463.1295,-24.0
1606936463.1314,-24.0
1606936463.1334,-24.0
1606936463.1354,-48.0
1606936463.1374,-55.0
1606936463.1394,-28.0
1606936463.1414,-21.0
1606936463.1434,-40.0
1606936463.1454,-36.0
1606936463.1474,36.0
1606936463.1494,207.0
1606936463.1514,411.0
1606936463.1534,344.0
1606936463.1554,26.0
1606936463.1574,-67.0
1606936463.1594,21.0
1606936463.1614,-21.0
1606936463.1634,-74.0
1606936463.1654,-50.0
1606936463.6214,-43.0
1606936463.6223,-55.0
1606936463.6248,-52.0
1606936463.6275,-52.0
1606936463.6294,-60.0
1606936463.6314,-55.0
1606936463.6335,-36.0
1606936463.6354,-31.0
1606936463.6374,-36.0
1606936463.6394,-21.0
1606936463.6414,-14.0
1606936463.6434,-45.0
1606936463.6454,-48.0
1606936463.6474,-12.0
1606936463.6494,-4.0
1606936463.6514,-9.0
1606936463.6534,2.0
1606936463.6554,12.0
1606936463.6574,14.0
1606936463.6593,19.0
1606936463.6613,26.0
1606936463.6633,28.0
1606936463.6653,26.0
1606936463.6674,28.0
1606936463.6694,31.0
1606936463.6714,28.0
1606936463.6733,24.0
1606936463.6753,16.0
1606936463.6774,14.0
1606936463.6793,19.0
1606936463.6814,21.0
1606936463.6833,14.0
1606936463.6855,7.0
1606936463.6874,7.0
1606936463.6893,12.0
1606936463.6913,16.0
1606936463.6933,14.0
1606936463.6953,12.0
1606936463.6974,9.0
1606936463.6993,9.0
1606936463.7013,16.0
1606936463.7033,19.0
1606936463.7053,21.0
1606936463.7074,24.0
1606936463.7093,28.0
1606936463.7114,31.0
1606936463.7134,33.0
1606936463.7154,38.0
1606936463.7174,40.0
1606936463.7194,43.0
1606936463.7213,43.0
1606936463.7233,48.0
1606936463.7253,52.0
1606936463.7274,50.0
1606936463.7293,50.0
1606936463.7314,55.0
1606936463.7333,50.0
1606936463.7353,43.0
1606936463.7373,45.0
1606936463.7393,50.0
1606936463.7413,48.0
1606936463.7433,45.0
1606936463.7453,43.0
1606936463.7473,43.0
1606936463.7493,40.0
1606936463.7513,40.0
1606936463.7533,40.0
1606936463.7553,43.0
1606936463.7573,45.0
1606936463.7593,43.0
1606936463.7613,38.0
1606936463.7633,38.0
1606936463.7653,38.0
1606936464.1916,43.0
1606936464.1925,45.0
1606936464.195,43.0
1606936464.1978,40.0
1606936464.1996,33.0
1606936464.2016,33.0
1606936464.2037,40.0
1606936464.2056,38.0
1606936464.2075,26.0
1606936464.2095,24.0
1606936464.2117,33.0
1606936464.2136,36.0
1606936464.2155,33.0
1606936464.2175,38.0
1606936464.2195,40.0
1606936464.2215,31.0
1606936464.2235,21.0
1606936464.2255,24.0
1606936464.2275,31.0
1606936464.2295,28.0
1606936464.2315,28.0
1606936464.2335,33.0
1606936464.2355,36.0
1606936464.2375,38.0
1606936464.2395,52.0
1606936464.2415,79.0
1606936464.2435,98.0
1606936464.2455,96.0
1606936464.2475,81.0
1606936464.2495,72.0
1606936464.2515,62.0
1606936464.2535,48.0
1606936464.2555,31.0
1606936464.2575,28.0
1606936464.2595,33.0
1606936464.2615,31.0
1606936464.2635,28.0
1606936464.2655,31.0
1606936464.2675,28.0
1606936464.2695,26.0
1606936464.2715,98.0
1606936464.2735,296.0
1606936464.2755,481.0
1606936464.2775,366.0
1606936464.2795,93.0
1606936464.2815,57.0
1606936464.2835,91.0
1606936464.2855,14.0
1606936464.2875,-2.0
1606936464.2895,28.0
1606936464.2915,14.0
1606936464.2935,4.0
1606936464.2955,16.0
1606936464.2975,21.0
1606936464.2995,21.0
1606936464.3015,21.0
1606936464.3036,24.0
1606936464.3055,26.0
1606936464.3075,31.0
1606936464.3095,33.0
1606936464.3115,36.0
1606936464.3136,33.0
1606936464.3155,33.0
1606936464.3175,38.0
1606936464.3195,45.0
1606936464.3215,52.0
1606936464.3235,52.0
1606936464.3255,50.0
1606936464.3275,24.0
1606936464.3295,-26.0
1606936464.3315,-45.0
1606936464.3335,4.0
1606936464.3355,48.0
1606936464.7314,40.0
1606936464.7323,38.0
1606936464.7348,48.0
1606936464.7374,45.0
1606936464.7393,43.0
1606936464.7413,40.0
1606936464.7433,33.0
1606936464.7453,31.0
1606936464.7474,33.0
1606936464.7493,31.0
1606936464.7513,24.0
1606936464.7533,28.0
1606936464.7553,36.0
1606936464.7573,33.0
1606936464.7593,31.0
1606936464.7613,33.0
1606936464.7634,36.0
1606936464.7653,40.0
1606936464.7673,43.0
1606936464.7693,45.0
1606936464.7713,48.0
1606936464.7733,48.0
1606936464.7753,55.0
1606936464.7773,57.0
1606936464.7793,57.0
1606936464.7813,60.0
1606936464.7833,62.0
1606936464.7853,62.0
1606936464.7873,65.0
1606936464.7893,67.0
1606936464.7913,67.0
1606936464.7933,65.0
1606936464.7953,65.0
1606936464.7973,65.0
1606936464.7993,62.0
1606936464.8013,60.0
1606936464.8033,60.0
1606936464.8053,60.0
1606936464.8073,57.0
1606936464.8094,57.0
1606936464.8113,57.0
1606936464.8133,55.0
1606936464.8153,55.0
1606936464.8173,55.0
1606936464.8193,50.0
1606936464.8213,50.0
1606936464.8233,52.0
1606936464.8253,52.0
1606936464.8273,50.0
1606936464.8293,48.0
1606936464.8313,50.0
1606936464.8333,52.0
1606936464.8353,48.0
1606936464.8373,43.0
1606936464.8393,45.0
1606936464.8413,48.0
1606936464.8433,48.0
1606936464.8453,45.0
1606936464.8473,48.0
1606936464.8493,50.0
1606936464.8513,52.0
1606936464.8533,55.0
1606936464.8553,74.0
1606936464.8573,98.0
1606936464.8593,91.0
1606936464.8613,67.0
1606936464.8633,57.0
1606936464.8653,48.0
1606936464.8673,26.0
1606936464.8693,9.0
1606936464.8713,12.0
1606936464.8733,16.0
1606936464.8753,21.0
1606936465.3016,24.0
1606936465.3028,24.0
1606936465.3053,28.0
1606936465.3079,28.0
1606936465.3099,69.0
1606936465.3119,236.0
1606936465.3141,452.0
1606936465.316,373.0
1606936465.3179,57.0
1606936465.3199,9.0
1606936465.3219,101.0
1606936465.3239,2.0
1606936465.326,-55.0
1606936465.3278,4.0
1606936465.3298,4.0
1606936465.3318,-21.0
1606936465.3338,-7.0
1606936465.3361,0.0
1606936465.3378,-9.0
1606936465.3398,-4.0
1606936465.3418,2.0
1606936465.3438,2.0
1606936465.3458,4.0
1606936465.3478,9.0
1606936465.3498,7.0
1606936465.3518,12.0
1606936465.3538,21.0
1606936465.3558,28.0
1606936465.3578,33.0
1606936465.3598,36.0
1606936465.3618,38.0
1606936465.3638,45.0
1606936465.3658,55.0
1606936465.3678,57.0
1606936465.3698,57.0
1606936465.3718,67.0
1606936465.3738,69.0
1606936465.3759,57.0
1606936465.3778,50.0
1606936465.3798,52.0
1606936465.3819,48.0
1606936465.3839,43.0
1606936465.3859,45.0
1606936465.3878,45.0
1606936465.3898,36.0
1606936465.3918,36.0
1606936465.3938,38.0
1606936465.3958,31.0
1606936465.3978,26.0
1606936465.3998,38.0
1606936465.4018,43.0
1606936465.4038,31.0
1606936465.4058,26.0
1606936465.4078,26.0
1606936465.4098,24.0
1606936465.4118,31.0
1606936465.4139,45.0
1606936465.4159,40.0
1606936465.4178,40.0
1606936465.4198,52.0
1606936465.4218,43.0
1606936465.4238,38.0
1606936465.4259,57.0
1606936465.4278,69.0
1606936465.4298,60.0
1606936465.4318,55.0
1606936465.4338,60.0
1606936465.4358,65.0
1606936465.4379,62.0
1606936465.4398,62.0
1606936465.4418,65.0
1606936465.4438,69.0
1606936465.4458,65.0
1606936465.8414,50.0
1606936465.8424,33.0
1606936465.8449,31.0
1606936465.8475,45.0
1606936465.8494,52.0
1606936465.8514,50.0
1606936465.8534,48.0
1606936465.8554,50.0
1606936465.8574,45.0
1606936465.8594,45.0
1606936465.8614,50.0
1606936465.8633,40.0
1606936465.8654,31.0
1606936465.8674,45.0
1606936465.8693,57.0
1606936465.8714,57.0
1606936465.8734,65.0
1606936465.8754,57.0
1606936465.8773,36.0
1606936465.8793,31.0
1606936465.8813,50.0
1606936465.8833,67.0
1606936465.8853,69.0
1606936465.8873,62.0
1606936465.8893,69.0
1606936465.8914,96.0
1606936465.8933,101.0
1606936465.8953,81.0
1606936465.8974,67.0
1606936465.8993,55.0
1606936465.9013,52.0
1606936465.9033,45.0
1606936465.9053,36.0
1606936465.9074,36.0
1606936465.9093,43.0
1606936465.9113,45.0
1606936465.9133,45.0
1606936465.9154,45.0
1606936465.9174,50.0
1606936465.9193,86.0
1606936465.9213,231.0
1606936465.9233,460.0
1606936465.9254,421.0
1606936465.9274,40.0
1606936465.9293,-74.0
1606936465.9313,108.0
1606936465.9335,69.0
1606936465.9354,-31.0
1606936465.9373,19.0
1606936465.9393,31.0
1606936465.9413,-7.0
1606936465.9433,-2.0
1606936465.9454,0.0
1606936465.9474,-9.0
1606936465.9493,2.0
1606936465.9513,2.0
1606936465.9533,-4.0
1606936465.9553,2.0
1606936465.9574,12.0
1606936465.9593,9.0
1606936465.9613,9.0
1606936465.9633,12.0
1606936465.9653,4.0
1606936465.9673,2.0
1606936465.9693,16.0
1606936465.9713,21.0
1606936465.9733,9.0
1606936465.9753,12.0
1606936465.9773,28.0
1606936465.9793,31.0
1606936465.9813,24.0
1606936465.9833,19.0
1606936465.9853,19.0
1606936466.4115,19.0
1606936466.4123,19.0
1606936466.4142,19.0
1606936466.4162,9.0
1606936466.4182,0.0
1606936466.4202,-7.0
1606936466.4222,-16.0
1606936466.4242,-19.0
1606936466.4262,-21.0
1606936466.4281,-26.0
1606936466.4301,-33.0
1606936466.4321,-40.0
1606936466.4341,-40.0
1606936466.4362,-43.0
1606936466.4381,-48.0
1606936466.4401,-52.0
1606936466.4421,-55.0
1606936466.4441,-45.0
1606936466.4461,-38.0
1606936466.448,-38.0
1606936466.45,-31.0
1606936466.452,-24.0
1606936466.454,-31.0
1606936466.4561,-31.0
1606936466.4582,-24.0
1606936466.4601,-26.0
1606936466.462,-19.0
1606936466.464,-12.0
1606936466.466,-19.0
1606936466.468,-26.0
1606936466.47,-26.0
1606936466.472,-24.0
1606936466.474,-26.0
1606936466.4761,-28.0
1606936466.4781,-28.0
1606936466.48,-33.0
1606936466.4821,-38.0
1606936466.4842,-36.0
1606936466.4861,-38.0
1606936466.488,-45.0
1606936466.49,-50.0
1606936466.492,-52.0
1606936466.494,-50.0
1606936466.4961,-45.0
1606936466.498,-43.0
1606936466.5,-45.0
1606936466.502,-48.0
1606936466.504,-50.0
1606936466.5061,-50.0
1606936466.508,-50.0
1606936466.51,-45.0
1606936466.512,-28.0
1606936466.514,-7.0
1606936466.516,7.0
1606936466.518,4.0
1606936466.5201,-14.0
1606936466.522,-31.0
1606936466.5241,-43.0
1606936466.5261,-52.0
1606936466.5282,-62.0
1606936466.5301,-67.0
1606936466.532,-67.0
1606936466.534,-60.0
1606936466.5361,-52.0
1606936466.538,-55.0
1606936466.54,-57.0
1606936466.542,-62.0
1606936466.5441,-45.0
1606936466.5462,69.0
1606936466.548,289.0
1606936466.55,356.0
1606936466.552,98.0
1606936466.554,-74.0
1606936467.0115,19.0
1606936467.0127,-7.0
1606936467.0154,-110.0
1606936467.0178,-77.0
1606936467.0198,-45.0
1606936467.0217,-81.0
1606936467.0238,-93.0
1606936467.0258,-81.0
1606936467.0277,-74.0
1606936467.0297,-69.0
1606936467.0317,-77.0
1606936467.0337,-81.0
1606936467.0358,-74.0
1606936467.0377,-69.0
1606936467.0397,-69.0
1606936467.0417,-60.0
1606936467.0437,-57.0
1606936467.0457,-67.0
1606936467.0476,-67.0
1606936467.0496,-57.0
1606936467.0516,-55.0
1606936467.0536,-52.0
1606936467.0556,-45.0
1606936467.0576,-40.0
1606936467.0596,-36.0
1606936467.0616,-31.0
1606936467.0636,-31.0
1606936467.0656,-31.0
1606936467.0676,-28.0
1606936467.0696,-26.0
1606936467.0716,-26.0
1606936467.0736,-36.0
1606936467.0756,-45.0
1606936467.0776,-52.0
1606936467.0796,-48.0
1606936467.0817,-45.0
1606936467.0836,-48.0
1606936467.0856,-50.0
1606936467.0876,-55.0
1606936467.0896,-55.0
1606936467.0916,-55.0
1606936467.0936,-57.0
1606936467.0956,-57.0
1606936467.0976,-52.0
1606936467.0996,-48.0
1606936467.1016,-45.0
1606936467.1036,-43.0
1606936467.1056,-38.0
1606936467.1076,-33.0
1606936467.1097,-31.0
1606936467.1116,-28.0
1606936467.1136,-24.0
1606936467.1156,-19.0
1606936467.1177,-19.0
1606936467.1197,-19.0
1606936467.1216,-9.0
1606936467.1236,-4.0
1606936467.1256,-9.0
1606936467.1276,-9.0
1606936467.1296,-4.0
1606936467.1316,0.0
1606936467.1336,-2.0
1606936467.1356,-9.0
1606936467.1376,-9.0
1606936467.1396,-4.0
1606936467.1416,-7.0
1606936467.1436,-7.0
1606936467.1456,-2.0
1606936467.1476,-4.0
1606936467.1496,-12.0
1606936467.1516,-9.0
1606936467.1536,-4.0
1606936467.1556,-7.0
1606936467.5514,-14.0
1606936467.5523,-9.0
1606936467.5548,-4.0
1606936467.5574,-9.0
1606936467.5594,-9.0
1606936467.5614,2.0
1606936467.5635,0.0
1606936467.5654,-7.0
1606936467.5674,-7.0
1606936467.5693,-2.0
1606936467.5713,-7.0
1606936467.5733,-14.0
1606936467.5753,-16.0
1606936467.5773,-9.0
1606936467.5793,-7.0
1606936467.5813,-7.0
1606936467.5833,-7.0
1606936467.5854,-2.0
1606936467.5873,2.0
1606936467.5893,4.0
1606936467.5913,16.0
1606936467.5933,43.0
1606936467.5953,52.0
1606936467.5973,38.0
1606936467.5993,24.0
1606936467.6013,14.0
1606936467.6033,-2.0
1606936467.6053,-16.0
1606936467.6073,-24.0
1606936467.6093,-24.0
1606936467.6113,-19.0
1606936467.6135,-16.0
1606936467.6153,-14.0
1606936467.6173,-9.0
1606936467.6193,-12.0
1606936467.6213,-4.0
1606936467.6233,81.0
1606936467.6253,281.0
1606936467.6273,421.0
1606936467.6293,257.0
1606936467.6313,28.0
1606936467.6333,43.0
1606936467.6353,48.0
1606936467.6374,-43.0
1606936467.6393,-36.0
1606936467.6413,-4.0
1606936467.6433,-28.0
1606936467.6453,-33.0
1606936467.6473,-14.0
1606936467.6493,-19.0
1606936467.6513,-24.0
1606936467.6533,-19.0
1606936467.654,-14.0
1606936467.6563,-14.0
1606936467.6583,-9.0
1606936467.6603,-9.0
1606936467.6623,-7.0
1606936467.6643,-4.0
1606936467.6663,0.0
1606936467.6683,2.0
1606936467.6703,2.0
1606936467.6723,4.0
1606936467.6743,9.0
1606936467.6763,16.0
1606936467.6783,24.0
1606936467.6803,31.0
1606936467.6823,33.0
1606936467.6843,31.0
1606936467.685,28.0
1606936467.6863,26.0
1606936467.6883,24.0
1606936467.6903,24.0
1606936467.6923,21.0
1606936468.0915,14.0
1606936468.0924,7.0
1606936468.0948,4.0
1606936468.0974,4.0
1606936468.0994,4.0
1606936468.1014,7.0
1606936468.1034,7.0
1606936468.1054,9.0
1606936468.1074,4.0
1606936468.1096,-2.0
1606936468.1101,-2.0
1606936468.1124,2.0
1606936468.1144,2.0
1606936468.1164,2.0
1606936468.1183,9.0
1606936468.1204,14.0
1606936468.1223,16.0
1606936468.1243,19.0
1606936468.1264,19.0
1606936468.1284,16.0
1606936468.1303,21.0
1606936468.1323,26.0
1606936468.1343,28.0
1606936468.1364,28.0
1606936468.1383,28.0
1606936468.1404,31.0
1606936468.141,33.0
1606936468.1433,38.0
1606936468.1453,43.0
1606936468.1474,40.0
1606936468.1493,38.0
1606936468.1514,36.0
1606936468.1533,36.0
1606936468.1553,36.0
1606936468.1574,36.0
1606936468.1594,36.0
1606936468.1614,31.0
1606936468.1633,28.0
1606936468.1654,31.0
1606936468.1673,36.0
1606936468.1693,36.0
1606936468.1713,36.0
1606936468.1721,38.0
1606936468.1744,40.0
1606936468.1764,40.0
1606936468.1783,40.0
1606936468.1803,43.0
1606936468.1824,45.0
1606936468.1844,43.0
1606936468.1863,43.0
1606936468.1884,45.0
1606936468.1903,48.0
1606936468.1923,43.0
1606936468.1943,43.0
1606936468.1964,48.0
1606936468.1984,48.0
1606936468.2004,48.0
1606936468.2023,52.0
1606936468.203,52.0
1606936468.2043,52.0
1606936468.2066,60.0
1606936468.2084,62.0
1606936468.2104,62.0
1606936468.2123,77.0
1606936468.2143,101.0
1606936468.2163,101.0
1606936468.2183,81.0
1606936468.2203,69.0
1606936468.2223,65.0
1606936468.2244,52.0
1606936468.2264,38.0
1606936468.2285,33.0
1606936468.2303,38.0
1606936468.6615,38.0
1606936468.6624,40.0
1606936468.6648,45.0
1606936468.6675,45.0
1606936468.6695,40.0
1606936468.6715,67.0
1606936468.6736,183.0
1606936468.6755,378.0
1606936468.6774,409.0
1606936468.6794,161.0
1606936468.6813,31.0
1606936468.6834,91.0
1606936468.6854,43.0
1606936468.6873,-16.0
1606936468.6881,16.0
1606936468.6903,21.0
1606936468.6923,-2.0
1606936468.6943,9.0
1606936468.6964,19.0
1606936468.6983,12.0
1606936468.7003,16.0
1606936468.7023,24.0
1606936468.7043,24.0
1606936468.7064,26.0
1606936468.7083,31.0
1606936468.7103,28.0
1606936468.7123,33.0
1606936468.7143,43.0
1606936468.7163,43.0
1606936468.7183,40.0
1606936468.719,43.0
1606936468.7213,48.0
1606936468.7233,50.0
1606936468.7253,50.0
1606936468.7273,52.0
1606936468.7293,57.0
1606936468.7313,60.0
1606936468.7333,60.0
1606936468.7355,60.0
1606936468.7374,60.0
1606936468.7393,55.0
1606936468.7413,50.0
1606936468.7433,45.0
1606936468.7454,45.0
1606936468.7474,43.0
1606936468.7493,40.0
1606936468.75,40.0
1606936468.7523,38.0
1606936468.7543,36.0
1606936468.7563,38.0
1606936468.7583,40.0
1606936468.7603,43.0
1606936468.7623,40.0
1606936468.7643,33.0
1606936468.7663,33.0
1606936468.7684,36.0
1606936468.7703,38.0
1606936468.7723,40.0
1606936468.7743,48.0
1606936468.7763,48.0
1606936468.7783,45.0
1606936468.7804,48.0
1606936468.781,52.0
1606936468.7823,55.0
1606936468.7843,57.0
1606936468.7864,57.0
1606936468.7883,57.0
1606936468.7903,60.0
1606936468.7923,62.0
1606936468.7943,62.0
1606936468.7964,65.0
1606936468.7983,62.0
1606936468.8003,55.0
1606936469.2016,52.0
1606936469.2025,57.0
1606936469.205,62.0
1606936469.2077,60.0
1606936469.2096,55.0
1606936469.2103,50.0
1606936469.2126,50.0
1606936469.2146,45.0
1606936469.2166,33.0
1606936469.2185,36.0
1606936469.2205,43.0
1606936469.2225,40.0
1606936469.2245,36.0
1606936469.2265,36.0
1606936469.2285,36.0
1606936469.2305,36.0
1606936469.2327,36.0
1606936469.2345,36.0
1606936469.2365,38.0
1606936469.2385,40.0
1606936469.2405,40.0
1606936469.2412,43.0
1606936469.2435,48.0
1606936469.2455,50.0
1606936469.2475,55.0
1606936469.2495,77.0
1606936469.2515,101.0
1606936469.2535,98.0
1606936469.2555,79.0
1606936469.2575,67.0
1606936469.2595,60.0
1606936469.2615,48.0
1606936469.2635,36.0
1606936469.2655,31.0
1606936469.2675,33.0
1606936469.2695,31.0
1606936469.2715,31.0
1606936469.2722,36.0
1606936469.2745,38.0
1606936469.2766,33.0
1606936469.2785,48.0
1606936469.2805,149.0
1606936469.2825,356.0
1606936469.2845,440.0
1606936469.2865,183.0
1606936469.2885,-31.0
1606936469.2905,60.0
1606936469.2925,81.0
1606936469.2945,-12.0
1606936469.2965,4.0
1606936469.2985,31.0
1606936469.3005,4.0
1606936469.3025,4.0
1606936469.3045,19.0
1606936469.3065,16.0
1606936469.3085,14.0
1606936469.3105,21.0
1606936469.3125,24.0
1606936469.3145,21.0
1606936469.3165,24.0
1606936469.3185,26.0
1606936469.3205,26.0
1606936469.3226,31.0
1606936469.3245,36.0
1606936469.3265,40.0
1606936469.3285,40.0
1606936469.3305,38.0
1606936469.3327,43.0
1606936469.3345,48.0
1606936469.3365,45.0
1606936469.3385,40.0
1606936469.3405,43.0
1606936469.3425,43.0
1606936469.7716,43.0
1606936469.7725,40.0
1606936469.7749,43.0
1606936469.7776,38.0
1606936469.7796,24.0
1606936469.7816,14.0
1606936469.7836,14.0
1606936469.7856,14.0
1606936469.7875,14.0
1606936469.7895,14.0
1606936469.7915,12.0
1606936469.7935,9.0
1606936469.7955,9.0
1606936469.7975,9.0
1606936469.7995,9.0
1606936469.8015,7.0
1606936469.8035,7.0
1606936469.8055,9.0
1606936469.8075,14.0
1606936469.8096,16.0
1606936469.8115,19.0
1606936469.8135,19.0
1606936469.8155,24.0
1606936469.8175,26.0
1606936469.8195,31.0
1606936469.8215,33.0
1606936469.8235,38.0
1606936469.8255,40.0
1606936469.8275,38.0
1606936469.8295,40.0
1606936469.8315,43.0
1606936469.8335,43.0
1606936469.8355,40.0
1606936469.8375,43.0
1606936469.8395,43.0
1606936469.8415,40.0
1606936469.8435,36.0
1606936469.8455,36.0
1606936469.8475,36.0
1606936469.8494,33.0
1606936469.8515,31.0
1606936469.8535,33.0
1606936469.8555,33.0
1606936469.8575,33.0
1606936469.8595,36.0
1606936469.8616,38.0
1606936469.8635,36.0
1606936469.8654,36.0
1606936469.8675,36.0
1606936469.8695,38.0
1606936469.8715,40.0
1606936469.8735,40.0
1606936469.8755,38.0
1606936469.8775,43.0
1606936469.8795,45.0
1606936469.8815,43.0
1606936469.8835,43.0
1606936469.8855,45.0
1606936469.8875,45.0
1606936469.8895,43.0
1606936469.8915,45.0
1606936469.8935,48.0
1606936469.8954,43.0
1606936469.8974,40.0
1606936469.8994,45.0
1606936469.9014,48.0
1606936469.9036,57.0
1606936469.9055,84.0
1606936469.9075,96.0
1606936469.9096,79.0
1606936469.9115,62.0
1606936469.9135,55.0
1606936469.9155,48.0
1606936470.3717,36.0
1606936470.3729,26.0
1606936470.3754,24.0
1606936470.378,26.0
1606936470.38,26.0
1606936470.382,24.0
1606936470.3841,19.0
1606936470.3861,14.0
1606936470.388,19.0
1606936470.39,84.0
1606936470.392,257.0
1606936470.394,419.0
1606936470.396,301.0
1606936470.3981,60.0
1606936470.4,50.0
1606936470.402,79.0
1606936470.404,-4.0
1606936470.406,-12.0
1606936470.4079,19.0
1606936470.4099,2.0
1606936470.4119,-4.0
1606936470.4139,7.0
1606936470.416,4.0
1606936470.4181,0.0
1606936470.42,7.0
1606936470.4219,9.0
1606936470.424,7.0
1606936470.4261,4.0
1606936470.4279,7.0
1606936470.43,9.0
1606936470.432,12.0
1606936470.4339,14.0
1606936470.436,19.0
1606936470.4379,21.0
1606936470.4399,26.0
1606936470.4419,31.0
1606936470.4439,36.0
1606936470.4459,38.0
1606936470.4479,38.0
1606936470.4499,40.0
1606936470.4519,40.0
1606936470.4539,40.0
1606936470.4559,40.0
1606936470.4579,38.0
1606936470.4599,36.0
1606936470.4619,31.0
1606936470.4639,26.0
1606936470.466,26.0
1606936470.4679,26.0
1606936470.4699,24.0
1606936470.4719,21.0
1606936470.4739,24.0
1606936470.476,24.0
1606936470.4779,24.0
1606936470.4799,26.0
1606936470.4819,24.0
1606936470.4839,19.0
1606936470.4859,21.0
1606936470.4879,26.0
1606936470.4899,24.0
1606936470.4919,24.0
1606936470.4939,26.0
1606936470.4959,28.0
1606936470.4979,31.0
1606936470.4999,33.0
1606936470.5019,36.0
1606936470.5039,40.0
1606936470.5059,43.0
1606936470.5079,40.0
1606936470.5099,43.0
1606936470.5119,45.0
1606936470.5139,48.0
1606936470.5159,45.0
1606936470.9417,48.0
1606936470.9431,48.0
1606936470.9453,43.0
1606936470.9479,43.0
1606936470.9498,43.0
1606936470.9519,40.0
1606936470.954,43.0
1606936470.9559,40.0
1606936470.9579,38.0
1606936470.9598,38.0
1606936470.9619,33.0
1606936470.9639,26.0
1606936470.966,24.0
1606936470.9679,28.0
1606936470.9699,26.0
1606936470.9719,26.0
1606936470.9739,28.0
1606936470.9759,28.0
1606936470.9778,28.0
1606936470.9798,26.0
1606936470.9818,28.0
1606936470.9838,28.0
1606936470.9859,28.0
1606936470.9878,31.0
1606936470.9898,33.0
1606936470.9918,33.0
1606936470.9938,31.0
1606936470.9959,33.0
1606936470.9978,33.0
1606936470.9999,36.0
1606936471.002,36.0
1606936471.0038,36.0
1606936471.0059,38.0
1606936471.0078,38.0
1606936471.0098,38.0
1606936471.0118,38.0
1606936471.0139,38.0
1606936471.0159,38.0
1606936471.0178,40.0
1606936471.0198,45.0
1606936471.0218,48.0
1606936471.0238,52.0
1606936471.0259,67.0
1606936471.0278,91.0
1606936471.0299,89.0
1606936471.0318,67.0
1606936471.0338,52.0
1606936471.0359,43.0
1606936471.0378,28.0
1606936471.0398,12.0
1606936471.0418,7.0
1606936471.0437,12.0
1606936471.046,14.0
1606936471.0478,16.0
1606936471.0498,16.0
1606936471.0518,16.0
1606936471.0538,16.0
1606936471.0559,48.0
1606936471.0578,175.0
1606936471.0598,378.0
1606936471.0618,395.0
1606936471.0638,146.0
1606936471.0658,28.0
1606936471.0678,79.0
1606936471.0698,24.0
1606936471.0718,-31.0
1606936471.0738,0.0
1606936471.0759,2.0
1606936471.0778,-16.0
1606936471.0798,-9.0
1606936471.0818,-2.0
1606936471.0838,-4.0
1606936471.0858,0.0
1606936471.4814,4.0
1606936471.4823,2.0
1606936471.4835,7.0
1606936471.4855,9.0
1606936471.4875,9.0
1606936471.4895,12.0
1606936471.4915,16.0
1606936471.4935,21.0
1606936471.4955,21.0
1606936471.4974,24.0
1606936471.4994,28.0
1606936471.5014,28.0
1606936471.5034,21.0
1606936471.5055,21.0
1606936471.5074,26.0
1606936471.5094,28.0
1606936471.5114,28.0
1606936471.5134,28.0
1606936471.5154,26.0
1606936471.5174,21.0
1606936471.5194,19.0
1606936471.5214,19.0
1606936471.5234,16.0
1606936471.5254,12.0
1606936471.5274,9.0
1606936471.5294,12.0
1606936471.5314,14.0
1606936471.5334,14.0
1606936471.5354,16.0
1606936471.5374,21.0
1606936471.5396,24.0
1606936471.5415,26.0
1606936471.5434,26.0
1606936471.5454,31.0
1606936471.5474,33.0
1606936471.5495,33.0
1606936471.5514,36.0
1606936471.5534,36.0
1606936471.5554,38.0
1606936471.5574,40.0
1606936471.5594,38.0
1606936471.5614,33.0
1606936471.5634,33.0
1606936471.5654,36.0
1606936471.5674,38.0
1606936471.5694,40.0
1606936471.5714,40.0
1606936471.5734,40.0
1606936471.5754,40.0
1606936471.5774,38.0
1606936471.5794,38.0
1606936471.5814,38.0
1606936471.5834,36.0
1606936471.5854,36.0
1606936471.5874,33.0
1606936471.5894,33.0
1606936471.5914,33.0
1606936471.5934,33.0
1606936471.5954,33.0
1606936471.5974,33.0
1606936471.5994,33.0
1606936471.6014,33.0
1606936471.6034,31.0
1606936471.6054,31.0
1606936471.6074,33.0
1606936471.6094,36.0
1606936471.6114,33.0
1606936471.6134,31.0
1606936471.6154,31.0
1606936471.6174,33.0
1606936471.6194,33.0
1606936471.6214,31.0
1606936471.6234,31.0
1606936472.0216,31.0
1606936472.0225,26.0
1606936472.0249,26.0
1606936472.0276,28.0
1606936472.0296,28.0
1606936472.0316,28.0
1606936472.0336,31.0
1606936472.0356,31.0
1606936472.0377,28.0
1606936472.0396,24.0
1606936472.0415,19.0
1606936472.0435,21.0
1606936472.0455,24.0
1606936472.0475,26.0
1606936472.0495,31.0
1606936472.0515,31.0
1606936472.0534,43.0
1606936472.0555,67.0
1606936472.0575,74.0
1606936472.0595,55.0
1606936472.0615,40.0
1606936472.0634,36.0
1606936472.0654,26.0
1606936472.0675,12.0
1606936472.0695,4.0
1606936472.0714,7.0
1606936472.0735,12.0
1606936472.0754,14.0
1606936472.0774,16.0
1606936472.0794,14.0
1606936472.0814,12.0
1606936472.0834,28.0
1606936472.0854,120.0
1606936472.0875,310.0
1606936472.0894,397.0
1606936472.0914,190.0
1606936472.0935,12.0
1606936472.0954,57.0
1606936472.0974,36.0
1606936472.0995,-40.0
1606936472.1014,-16.0
1606936472.1034,-2.0
1606936472.1055,-26.0
1606936472.1074,-21.0
1606936472.1095,-9.0
1606936472.1114,-12.0
1606936472.1135,-9.0
1606936472.1154,-4.0
1606936472.1175,-2.0
1606936472.1194,-2.0
1606936472.1214,4.0
1606936472.1234,7.0
1606936472.1254,7.0
1606936472.1275,9.0
1606936472.1295,12.0
1606936472.1314,14.0
1606936472.1334,16.0
1606936472.1354,24.0
1606936472.1375,28.0
1606936472.1396,28.0
1606936472.1415,28.0
1606936472.1435,31.0
1606936472.1454,36.0
1606936472.1474,36.0
1606936472.1495,31.0
1606936472.1514,26.0
1606936472.1535,24.0
1606936472.1554,19.0
1606936472.1574,14.0
1606936472.1595,12.0
1606936472.1615,9.0
1606936472.1634,7.0
1606936472.1655,4.0
1606936472.5915,9.0
1606936472.5923,12.0
1606936472.5949,12.0
1606936472.5975,16.0
1606936472.5995,21.0
1606936472.6014,21.0
1606936472.6034,16.0
1606936472.6054,14.0
1606936472.6074,19.0
1606936472.6094,24.0
1606936472.6114,21.0
1606936472.6134,24.0
1606936472.6154,31.0
1606936472.6173,31.0
1606936472.6193,31.0
1606936472.6213,33.0
1606936472.6233,38.0
1606936472.6254,38.0
1606936472.6274,36.0
1606936472.6294,38.0
1606936472.6313,43.0
1606936472.6334,45.0
1606936472.6353,40.0
1606936472.6373,36.0
1606936472.6393,31.0
1606936472.6413,28.0
1606936472.6433,24.0
1606936472.6453,24.0
1606936472.6474,24.0
1606936472.6493,24.0
1606936472.6513,24.0
1606936472.6533,26.0
1606936472.6553,26.0
1606936472.6574,24.0
1606936472.6593,21.0
1606936472.6613,26.0
1606936472.6633,31.0
1606936472.6655,31.0
1606936472.6674,26.0
1606936472.6693,28.0
1606936472.6713,31.0
1606936472.6733,31.0
1606936472.6753,28.0
1606936472.6773,28.0
1606936472.6793,31.0
1606936472.6813,31.0
1606936472.6833,33.0
1606936472.6853,33.0
1606936472.6873,33.0
1606936472.6893,33.0
1606936472.6913,33.0
1606936472.6933,33.0
1606936472.6953,31.0
1606936472.6973,31.0
1606936472.6993,31.0
1606936472.7013,33.0
1606936472.7033,31.0
1606936472.7053,26.0
1606936472.7074,28.0
1606936472.7093,31.0
1606936472.7113,36.0
1606936472.7133,36.0
1606936472.7153,40.0
1606936472.7173,45.0
1606936472.7193,50.0
1606936472.7213,69.0
1606936472.7233,89.0
1606936472.7253,79.0
1606936472.7273,57.0
1606936472.7294,50.0
1606936472.7313,40.0
1606936472.7333,26.0
1606936472.7353,12.0
1606936473.1617,12.0
1606936473.1629,19.0
1606936473.1654,21.0
1606936473.168,19.0
1606936473.1701,24.0
1606936473.172,24.0
1606936473.1742,24.0
1606936473.176,79.0
1606936473.1779,250.0
1606936473.1799,414.0
1606936473.1819,281.0
1606936473.1839,21.0
1606936473.186,28.0
1606936473.1879,77.0
1606936473.1899,-9.0
1606936473.1921,-24.0
1606936473.1939,9.0
1606936473.196,-7.0
1606936473.1979,-19.0
1606936473.1999,-2.0
1606936473.202,0.0
1606936473.2039,-4.0
1606936473.2059,2.0
1606936473.2079,12.0
1606936473.2099,14.0
1606936473.2119,14.0
1606936473.2139,14.0
1606936473.216,19.0
1606936473.2179,21.0
1606936473.2199,26.0
1606936473.2219,31.0
1606936473.2239,36.0
1606936473.2258,40.0
1606936473.2278,43.0
1606936473.2299,43.0
1606936473.2319,45.0
1606936473.2339,52.0
1606936473.2359,57.0
1606936473.2378,55.0
1606936473.2399,52.0
1606936473.2418,50.0
1606936473.2439,50.0
1606936473.2459,48.0
1606936473.2479,43.0
1606936473.2499,33.0
1606936473.2519,33.0
1606936473.2539,28.0
1606936473.2559,26.0
1606936473.2579,31.0
1606936473.26,36.0
1606936473.2619,33.0
1606936473.2639,33.0
1606936473.2659,38.0
1606936473.2679,40.0
1606936473.2699,45.0
1606936473.2719,45.0
1606936473.2739,45.0
1606936473.2759,45.0
1606936473.2779,50.0
1606936473.2799,50.0
1606936473.2819,55.0
1606936473.2839,62.0
1606936473.2859,62.0
1606936473.2878,62.0
1606936473.2899,62.0
1606936473.2918,65.0
1606936473.2941,67.0
1606936473.296,67.0
1606936473.2978,67.0
1606936473.2999,69.0
1606936473.3019,69.0
1606936473.3039,67.0
1606936473.3059,67.0
1606936473.7315,67.0
1606936473.7324,65.0
1606936473.7349,62.0
1606936473.7375,55.0
1606936473.7394,50.0
1606936473.7416,52.0
1606936473.7435,52.0
1606936473.7454,50.0
1606936473.7474,48.0
1606936473.7494,36.0
1606936473.7514,33.0
1606936473.7533,36.0
1606936473.7554,33.0
1606936473.7573,28.0
1606936473.7593,31.0
1606936473.7614,36.0
1606936473.7633,38.0
1606936473.7653,36.0
1606936473.7674,36.0
1606936473.7693,36.0
1606936473.7714,33.0
1606936473.7733,33.0
1606936473.7753,36.0
1606936473.7773,40.0
1606936473.7794,38.0
1606936473.7813,36.0
1606936473.7833,38.0
1606936473.7853,38.0
1606936473.7873,36.0
1606936473.7893,40.0
1606936473.7914,45.0
1606936473.7934,40.0
1606936473.7953,38.0
1606936473.7974,40.0
1606936473.7993,50.0
1606936473.8013,50.0
1606936473.8033,50.0
1606936473.8053,72.0
1606936473.8074,89.0
1606936473.8093,77.0
1606936473.8113,55.0
1606936473.8133,48.0
1606936473.8153,43.0
1606936473.8174,28.0
1606936473.8195,12.0
1606936473.8214,7.0
1606936473.8233,14.0
1606936473.8253,16.0
1606936473.8274,16.0
1606936473.8293,19.0
1606936473.8313,19.0
1606936473.8333,21.0
1606936473.8353,84.0
1606936473.8373,269.0
1606936473.8393,445.0
1606936473.8413,305.0
1606936473.8433,14.0
1606936473.8453,14.0
1606936473.8473,84.0
1606936473.8493,2.0
1606936473.8513,-19.0
1606936473.8533,21.0
1606936473.8553,4.0
1606936473.8573,-9.0
1606936473.8593,9.0
1606936473.8613,12.0
1606936473.8634,9.0
1606936473.8653,14.0
1606936473.8673,16.0
1606936473.8693,14.0
1606936473.8713,14.0
1606936473.8733,16.0
1606936473.8753,19.0
1606936474.2715,24.0
1606936474.2724,26.0
1606936474.2739,31.0
1606936474.2761,28.0
1606936474.2779,28.0
1606936474.2799,33.0
1606936474.2819,36.0
1606936474.2839,38.0
1606936474.2859,40.0
1606936474.2878,40.0
1606936474.2898,33.0
1606936474.2918,28.0
1606936474.2938,28.0
1606936474.2959,26.0
1606936474.2978,19.0
1606936474.2997,14.0
1606936474.3018,12.0
1606936474.3038,7.0
1606936474.3058,4.0
1606936474.3078,4.0
1606936474.3098,7.0
1606936474.3118,9.0
1606936474.3139,12.0
1606936474.3158,14.0
1606936474.3178,16.0
1606936474.3198,16.0
1606936474.3218,14.0
1606936474.3237,16.0
1606936474.3259,21.0
1606936474.3278,19.0
1606936474.3299,19.0
1606936474.3319,24.0
1606936474.3338,26.0
1606936474.3345,28.0
1606936474.3368,31.0
1606936474.3388,36.0
1606936474.3408,36.0
1606936474.3428,36.0
1606936474.3448,38.0
1606936474.3468,43.0
1606936474.3488,45.0
1606936474.3508,43.0
1606936474.3528,43.0
1606936474.3547,43.0
1606936474.3568,40.0
1606936474.3588,38.0
1606936474.3608,38.0
1606936474.3628,38.0
1606936474.3648,36.0
1606936474.3655,33.0
1606936474.3668,31.0
1606936474.3688,33.0
1606936474.3707,31.0
1606936474.3728,28.0
1606936474.3748,28.0
1606936474.3768,31.0
1606936474.3787,28.0
1606936474.3808,28.0
1606936474.3828,28.0
1606936474.3848,31.0
1606936474.3868,31.0
1606936474.3888,28.0
1606936474.3908,26.0
1606936474.3928,28.0
1606936474.3935,28.0
1606936474.3948,26.0
1606936474.3968,28.0
1606936474.3988,28.0
1606936474.4008,24.0
1606936474.4028,21.0
1606936474.4048,19.0
1606936474.4068,21.0
1606936474.4087,24.0
1606936474.8419,21.0
1606936474.8433,21.0
1606936474.8458,24.0
1606936474.8484,26.0
1606936474.8503,24.0
1606936474.851,26.0
1606936474.8534,26.0
1606936474.8553,21.0
1606936474.8572,19.0
1606936474.8592,24.0
1606936474.8613,36.0
1606936474.8632,57.0
1606936474.8652,67.0
1606936474.8672,52.0
1606936474.8693,33.0
1606936474.8712,26.0
1606936474.8732,16.0
1606936474.8752,2.0
1606936474.8772,-7.0
1606936474.8792,-2.0
1606936474.8812,0.0
1606936474.8819,-2.0
1606936474.8832,-2.0
1606936474.8852,0.0
1606936474.8872,-4.0
1606936474.8892,12.0
1606936474.8912,108.0
1606936474.8932,303.0
1606936474.8952,399.0
1606936474.8972,199.0
1606936474.8993,12.0
1606936474.9012,52.0
1606936474.9032,38.0
1606936474.9052,-36.0
1606936474.9072,-19.0
1606936474.9093,-2.0
1606936474.9112,-21.0
1606936474.9119,-16.0
1606936474.9142,-7.0
1606936474.9162,-9.0
1606936474.9182,-7.0
1606936474.9202,2.0
1606936474.9222,2.0
1606936474.9244,0.0
1606936474.9264,4.0
1606936474.9283,9.0
1606936474.9303,9.0
1606936474.9323,12.0
1606936474.9342,16.0
1606936474.9362,21.0
1606936474.9382,24.0
1606936474.9404,26.0
1606936474.9423,26.0
1606936474.9429,28.0
1606936474.9442,31.0
1606936474.9462,31.0
1606936474.9482,36.0
1606936474.9502,36.0
1606936474.9522,31.0
1606936474.9542,28.0
1606936474.9562,26.0
1606936474.9582,16.0
1606936474.9602,4.0
1606936474.9622,2.0
1606936474.9642,2.0
1606936474.9662,0.0
1606936474.9682,0.0
1606936474.9702,2.0
1606936474.9722,4.0
1606936474.9729,7.0
1606936474.9752,14.0
1606936474.9772,19.0
1606936474.9792,21.0
1606936475.3815,24.0
1606936475.3825,26.0
1606936475.3849,28.0
1606936475.3876,31.0
1606936475.3896,31.0
1606936475.3916,33.0
1606936475.3936,36.0
1606936475.3956,36.0
1606936475.3975,33.0
1606936475.3995,28.0
1606936475.4015,31.0
1606936475.4035,31.0
1606936475.4042,28.0
1606936475.4065,31.0
1606936475.4085,36.0
1606936475.4104,36.0
1606936475.4124,36.0
1606936475.4144,33.0
1606936475.4164,33.0
1606936475.4185,31.0
1606936475.4205,31.0
1606936475.4224,28.0
1606936475.4245,28.0
1606936475.4265,28.0
1606936475.4284,28.0
1606936475.4305,26.0
1606936475.4324,28.0
1606936475.4345,28.0
1606936475.4351,26.0
1606936475.4367,26.0
1606936475.4385,28.0
1606936475.4404,28.0
1606936475.4424,26.0
1606936475.4444,26.0
1606936475.4465,31.0
1606936475.4485,31.0
1606936475.4505,28.0
1606936475.4524,28.0
1606936475.4545,31.0
1606936475.4566,31.0
1606936475.4585,31.0
1606936475.4605,31.0
1606936475.4624,26.0
1606936475.4631,24.0
1606936475.4645,24.0
1606936475.4665,24.0
1606936475.4684,24.0
1606936475.4704,24.0
1606936475.4724,24.0
1606936475.4744,24.0
1606936475.4765,26.0
1606936475.4784,28.0
1606936475.4804,28.0
1606936475.4824,28.0
1606936475.4844,24.0
1606936475.4865,26.0
1606936475.4885,31.0
1606936475.4904,36.0
1606936475.4924,52.0
1606936475.4931,74.0
1606936475.4944,65.0
1606936475.4965,38.0
1606936475.4984,31.0
1606936475.5005,26.0
1606936475.5024,9.0
1606936475.5044,-2.0
1606936475.5065,-2.0
1606936475.5085,2.0
1606936475.5105,4.0
1606936475.5124,7.0
1606936475.5145,7.0
1606936475.5164,4.0
1606936475.5184,9.0
1606936475.9515,69.0
1606936475.9523,238.0
1606936475.9548,402.0
1606936475.9575,289.0
1606936475.9595,43.0
1606936475.9614,31.0
1606936475.9635,55.0
1606936475.9657,-33.0
1606936475.9674,-40.0
1606936475.9693,-7.0
1606936475.9713,-26.0
1606936475.9733,-33.0
1606936475.9754,-16.0
1606936475.9773,-12.0
1606936475.9793,-14.0
1606936475.98,-7.0
1606936475.9814,-2.0
1606936475.9833,-2.0
1606936475.9853,2.0
1606936475.9873,7.0
1606936475.9893,9.0
1606936475.9913,12.0
1606936475.9933,14.0
1606936475.9953,16.0
1606936475.9974,24.0
1606936475.9993,26.0
1606936476.0013,28.0
1606936476.0034,31.0
1606936476.0053,33.0
1606936476.0073,36.0
1606936476.0093,36.0
1606936476.0113,36.0
1606936476.0133,36.0
1606936476.0153,33.0
1606936476.0173,28.0
1606936476.0193,19.0
1606936476.0213,16.0
1606936476.0233,14.0
1606936476.0253,12.0
1606936476.0273,9.0
1606936476.0293,7.0
1606936476.0313,7.0
1606936476.0333,12.0
1606936476.0353,16.0
1606936476.0373,21.0
1606936476.0393,26.0
1606936476.0413,28.0
1606936476.0433,28.0
1606936476.0453,26.0
1606936476.0473,28.0
1606936476.0493,33.0
1606936476.0513,36.0
1606936476.0533,36.0
1606936476.0553,36.0
1606936476.0573,40.0
1606936476.0593,45.0
1606936476.0613,45.0
1606936476.0633,45.0
1606936476.0654,48.0
1606936476.0673,50.0
1606936476.0693,50.0
1606936476.0714,50.0
1606936476.0733,52.0
1606936476.0753,50.0
1606936476.0773,48.0
1606936476.0793,45.0
1606936476.0813,43.0
1606936476.0833,38.0
1606936476.0853,38.0
1606936476.0873,38.0
1606936476.0893,36.0
1606936476.0913,33.0
1606936476.0933,31.0
1606936476.4915,33.0
1606936476.4923,33.0
1606936476.4947,31.0
1606936476.4974,28.0
1606936476.4994,33.0
1606936476.5014,36.0
1606936476.5034,31.0
1606936476.5054,21.0
1606936476.5073,21.0
1606936476.5093,28.0
1606936476.5113,26.0
1606936476.5133,21.0
1606936476.5153,21.0
1606936476.5173,24.0
1606936476.5193,24.0
1606936476.5213,26.0
1606936476.5233,24.0
1606936476.5253,24.0
1606936476.5273,24.0
1606936476.5293,24.0
1606936476.5313,26.0
1606936476.5333,33.0
1606936476.5353,31.0
1606936476.5373,26.0
1606936476.5393,31.0
1606936476.5413,31.0
1606936476.5433,26.0
1606936476.5453,26.0
1606936476.5473,31.0
1606936476.5493,36.0
1606936476.5513,40.0
1606936476.5533,50.0
1606936476.5553,77.0
1606936476.5573,84.0
1606936476.5593,60.0
1606936476.5613,43.0
1606936476.5634,43.0
1606936476.5653,33.0
1606936476.5673,14.0
1606936476.5694,2.0
1606936476.5713,0.0
1606936476.5733,2.0
1606936476.5753,7.0
1606936476.5773,12.0
1606936476.5792,12.0
1606936476.5813,7.0
1606936476.5832,24.0
1606936476.5852,132.0
1606936476.5873,334.0
1606936476.5892,392.0
1606936476.5912,154.0
1606936476.5933,2.0
1606936476.5952,72.0
1606936476.5973,43.0
1606936476.5993,-31.0
1606936476.6012,0.0
1606936476.6033,14.0
1606936476.6053,-12.0
1606936476.6073,-7.0
1606936476.6093,7.0
1606936476.6113,7.0
1606936476.6133,7.0
1606936476.6153,12.0
1606936476.6173,16.0
1606936476.6193,16.0
1606936476.6213,16.0
1606936476.6233,19.0
1606936476.6253,24.0
1606936476.6273,26.0
1606936476.6292,24.0
1606936476.6313,26.0
1606936476.6333,38.0
1606936476.6353,43.0
1606936477.0918,43.0
1606936477.0929,48.0
1606936477.0954,50.0
1606936477.0981,45.0
1606936477.1,38.0
1606936477.102,38.0
1606936477.1042,38.0
1606936477.1062,33.0
1606936477.108,31.0
1606936477.11,26.0
1606936477.112,21.0
1606936477.114,21.0
1606936477.116,16.0
1606936477.118,9.0
1606936477.1203,12.0
1606936477.1221,19.0
1606936477.124,19.0
1606936477.1261,16.0
1606936477.128,24.0
1606936477.1299,36.0
1606936477.1319,38.0
1606936477.1339,36.0
1606936477.136,43.0
1606936477.1379,48.0
1606936477.1399,43.0
1606936477.1419,48.0
1606936477.1439,52.0
1606936477.1459,55.0
1606936477.1479,57.0
1606936477.1499,60.0
1606936477.152,60.0
1606936477.1539,65.0
1606936477.156,67.0
1606936477.1579,62.0
1606936477.1599,62.0
1606936477.1619,62.0
1606936477.1639,60.0
1606936477.1659,62.0
1606936477.1679,65.0
1606936477.1699,55.0
1606936477.172,50.0
1606936477.1739,55.0
1606936477.1759,57.0
1606936477.1779,55.0
1606936477.1799,48.0
1606936477.1819,48.0
1606936477.1839,50.0
1606936477.1859,50.0
1606936477.1879,45.0
1606936477.1899,45.0
1606936477.1919,48.0
1606936477.1939,45.0
1606936477.1959,40.0
1606936477.1979,43.0
1606936477.1999,40.0
1606936477.2019,43.0
1606936477.2039,45.0
1606936477.2059,45.0
1606936477.2079,45.0
1606936477.2099,48.0
1606936477.2119,45.0
1606936477.2139,45.0
1606936477.2159,45.0
1606936477.2179,45.0
1606936477.2199,43.0
1606936477.222,43.0
1606936477.224,45.0
1606936477.2259,45.0
1606936477.2279,45.0
1606936477.2299,52.0
1606936477.2319,57.0
1606936477.2339,69.0
1606936477.2359,96.0
1606936477.6615,101.0
1606936477.6623,79.0
1606936477.6648,60.0
1606936477.6674,52.0
1606936477.6694,43.0
1606936477.6714,26.0
1606936477.6734,19.0
1606936477.6754,21.0
1606936477.6774,16.0
1606936477.6793,9.0
1606936477.6813,9.0
1606936477.6833,12.0
1606936477.6854,9.0
1606936477.6873,50.0
1606936477.6893,209.0
1606936477.6913,411.0
1606936477.6934,346.0
1606936477.6953,38.0
1606936477.6974,-26.0
1606936477.6993,74.0
1606936477.7013,12.0
1606936477.7034,-38.0
1606936477.7053,4.0
1606936477.7073,4.0
1606936477.7095,-14.0
1606936477.7113,0.0
1606936477.7133,2.0
1606936477.7153,-7.0
1606936477.7173,0.0
1606936477.7255,4.0
1606936477.7273,4.0
1606936477.7293,12.0
1606936477.7313,14.0
1606936477.7333,14.0
1606936477.7353,16.0
1606936477.7373,24.0
1606936477.7393,28.0
1606936477.7413,28.0
1606936477.7433,31.0
1606936477.7453,33.0
1606936477.7473,33.0
1606936477.7493,33.0
1606936477.7513,40.0
1606936477.7535,43.0
1606936477.7541,40.0
1606936477.7552,40.0
1606936477.7573,38.0
1606936477.7593,36.0
1606936477.7613,31.0
1606936477.7633,26.0
1606936477.7653,19.0
1606936477.7673,16.0
1606936477.7693,12.0
1606936477.7713,14.0
1606936477.7733,19.0
1606936477.7753,19.0
1606936477.7773,16.0
1606936477.7793,19.0
1606936477.7813,28.0
1606936477.7833,31.0
1606936477.784,28.0
1606936477.7853,28.0
1606936477.7873,31.0
1606936477.7893,36.0
1606936477.7913,38.0
1606936477.7934,40.0
1606936477.7953,45.0
1606936477.7973,48.0
1606936477.7993,48.0
1606936477.8013,50.0
1606936477.8033,55.0
1606936477.8053,55.0
1606936477.8073,52.0
1606936478.2015,57.0
1606936478.2024,57.0
1606936478.2048,55.0
1606936478.2061,55.0
1606936478.2075,55.0
1606936478.2095,52.0
1606936478.2115,50.0
1606936478.2136,45.0
1606936478.2155,43.0
1606936478.2174,43.0
1606936478.2194,36.0
1606936478.2214,28.0
1606936478.2234,28.0
1606936478.2254,28.0
1606936478.2274,28.0
1606936478.2294,28.0
1606936478.2314,28.0
1606936478.2334,28.0
1606936478.2354,28.0
1606936478.2361,24.0
1606936478.2383,21.0
1606936478.2405,24.0
1606936478.2424,24.0
1606936478.2444,26.0
1606936478.2464,26.0
1606936478.2484,26.0
1606936478.2503,26.0
1606936478.2524,28.0
1606936478.2544,28.0
1606936478.2564,31.0
1606936478.2583,31.0
1606936478.2604,28.0
1606936478.2623,31.0
1606936478.2644,33.0
1606936478.2664,31.0
1606936478.2671,31.0
1606936478.2693,36.0
1606936478.2714,38.0
1606936478.2734,40.0
1606936478.2753,62.0
1606936478.2774,86.0
1606936478.2793,79.0
1606936478.2813,57.0
1606936478.2833,48.0
1606936478.2854,45.0
1606936478.2874,28.0
1606936478.2893,14.0
1606936478.2913,14.0
1606936478.2933,19.0
1606936478.2953,19.0
1606936478.2974,21.0
1606936478.2981,24.0
1606936478.3004,21.0
1606936478.3023,19.0
1606936478.3043,67.0
1606936478.3064,219.0
1606936478.3083,399.0
1606936478.3103,330.0
1606936478.3123,69.0
1606936478.3143,26.0
1606936478.3163,79.0
1606936478.3184,0.0
1606936478.3204,-28.0
1606936478.3224,7.0
1606936478.3243,-4.0
1606936478.3264,-19.0
1606936478.3283,-4.0
1606936478.3291,-2.0
1606936478.3314,-4.0
1606936478.3333,0.0
1606936478.3353,7.0
1606936478.3374,9.0
1606936478.3395,12.0
1606936478.7416,12.0
1606936478.7424,14.0
1606936478.7448,19.0
1606936478.7476,21.0
1606936478.7495,21.0
1606936478.7515,26.0
1606936478.7536,28.0
1606936478.7555,28.0
1606936478.7561,24.0
1606936478.7574,26.0
1606936478.7594,33.0
1606936478.7614,31.0
1606936478.7634,26.0
1606936478.7654,26.0
1606936478.7674,24.0
1606936478.7694,19.0
1606936478.7714,14.0
1606936478.7734,9.0
1606936478.7754,4.0
1606936478.7774,0.0
1606936478.7794,0.0
1606936478.7814,0.0
1606936478.7834,0.0
1606936478.7854,2.0
1606936478.7861,7.0
1606936478.7884,14.0
1606936478.7904,19.0
1606936478.7924,24.0
1606936478.7944,28.0
1606936478.7964,28.0
1606936478.7984,31.0
1606936478.8004,36.0
1606936478.8024,40.0
1606936478.8044,43.0
1606936478.8064,43.0
1606936478.8084,43.0
1606936478.8104,48.0
1606936478.8124,50.0
1606936478.8144,52.0
1606936478.8164,52.0
1606936478.8171,55.0
1606936478.8184,55.0
1606936478.8204,57.0
1606936478.8224,57.0
1606936478.8244,57.0
1606936478.8264,57.0
1606936478.8284,57.0
1606936478.8304,55.0
1606936478.8324,50.0
1606936478.8344,50.0
1606936478.8366,50.0
1606936478.8384,48.0
1606936478.8404,48.0
1606936478.8424,45.0
1606936478.8444,40.0
1606936478.8464,38.0
1606936478.8471,43.0
1606936478.8484,43.0
1606936478.8504,36.0
1606936478.8524,38.0
1606936478.8544,43.0
1606936478.8564,40.0
1606936478.8584,38.0
1606936478.8604,40.0
1606936478.8624,45.0
1606936478.8644,43.0
1606936478.8664,38.0
1606936478.8684,40.0
1606936478.8704,45.0
1606936478.8724,43.0
1606936478.8744,43.0
1606936478.8764,45.0
1606936478.8771,43.0
1606936479.3713,40.0
1606936479.372,43.0
1606936479.3747,45.0
1606936479.3769,43.0
1606936479.379,38.0
1606936479.381,33.0
1606936479.3831,33.0
1606936479.385,43.0
1606936479.3869,69.0
1606936479.3889,81.0
1606936479.3909,65.0
1606936479.3929,45.0
1606936479.395,40.0
1606936479.3957,31.0
1606936479.3969,14.0
1606936479.399,4.0
1606936479.4009,9.0
1606936479.4029,12.0
1606936479.4049,12.0
1606936479.407,14.0
1606936479.4089,16.0
1606936479.411,14.0
1606936479.4129,26.0
1606936479.4149,103.0
1606936479.4169,289.0
1606936479.4189,409.0
1606936479.4209,233.0
1606936479.423,26.0
1606936479.4251,62.0
1606936479.4257,62.0
1606936479.427,-28.0
1606936479.4289,-16.0
1606936479.431,9.0
1606936479.4329,-16.0
1606936479.4349,-16.0
1606936479.4369,0.0
1606936479.4389,-4.0
1606936479.4409,-4.0
1606936479.443,4.0
1606936479.4449,7.0
1606936479.447,7.0
1606936479.4489,9.0
1606936479.4509,14.0
1606936479.4529,14.0
1606936479.455,14.0
1606936479.4556,16.0
1606936479.4569,21.0
1606936479.459,24.0
1606936479.4609,24.0
1606936479.4629,28.0
1606936479.4649,33.0
1606936479.467,36.0
1606936479.4691,36.0
1606936479.4709,36.0
1606936479.473,33.0
1606936479.4749,33.0
1606936479.4769,31.0
1606936479.479,26.0
1606936479.481,21.0
1606936479.4829,14.0
1606936479.4836,7.0
1606936479.4849,4.0
1606936479.4869,7.0
1606936479.4889,7.0
1606936479.491,9.0
1606936479.4929,14.0
1606936479.4949,19.0
1606936479.497,24.0
1606936479.4989,28.0
1606936479.5009,28.0
1606936479.5029,26.0
1606936479.5049,28.0
1606936479.507,33.0
1606936479.8515,36.0
1606936479.8524,36.0
1606936479.8548,40.0
1606936479.8575,40.0
1606936479.8596,38.0
1606936479.8615,38.0
1606936479.8638,38.0
1606936479.8656,33.0
1606936479.8674,36.0
1606936479.8694,38.0
1606936479.8715,31.0
1606936479.8734,28.0
1606936479.8755,33.0
1606936479.8775,31.0
1606936479.8794,21.0
1606936479.8814,16.0
1606936479.8834,21.0
1606936479.8841,21.0
1606936479.8854,16.0
1606936479.8874,16.0
1606936479.8894,19.0
1606936479.8914,19.0
1606936479.8934,16.0
1606936479.8954,19.0
1606936479.8974,21.0
1606936479.8995,24.0
1606936479.9014,21.0
1606936479.9035,24.0
1606936479.9054,26.0
1606936479.9074,26.0
1606936479.9095,26.0
1606936479.9114,28.0
1606936479.9134,31.0
1606936479.914,28.0
1606936479.9153,28.0
1606936479.9174,31.0
1606936479.9194,31.0
1606936479.9214,28.0
1606936479.9234,26.0
1606936479.9254,31.0
1606936479.9274,33.0
1606936479.9294,33.0
1606936479.9315,33.0
1606936479.9334,38.0
1606936479.9355,40.0
1606936479.9374,38.0
1606936479.9394,38.0
1606936479.9414,43.0
1606936479.9434,50.0
1606936479.944,50.0
1606936479.9454,52.0
1606936479.9474,72.0
1606936479.9493,96.0
1606936479.9514,91.0
1606936479.9533,69.0
1606936479.9553,60.0
1606936479.9573,52.0
1606936479.9596,36.0
1606936479.9614,21.0
1606936479.9634,21.0
1606936479.9654,24.0
1606936479.9674,24.0
1606936479.9694,21.0
1606936479.9714,21.0
1606936479.9734,19.0
1606936479.974,14.0
1606936479.9753,57.0
1606936479.9774,202.0
1606936479.9793,387.0
1606936479.9813,339.0
1606936479.9834,81.0
1606936479.9853,26.0
1606936479.9874,86.0
1606936480.4514,9.0
1606936480.4525,-28.0
1606936480.4549,7.0
1606936480.4575,-9.0
1606936480.4596,-33.0
1606936480.4615,-14.0
1606936480.4622,-9.0
1606936480.4636,-19.0
1606936480.4655,-14.0
1606936480.4675,-4.0
1606936480.4695,0.0
1606936480.4715,-2.0
1606936480.4735,2.0
1606936480.4756,9.0
1606936480.4775,14.0
1606936480.4795,12.0
1606936480.4815,12.0
1606936480.4835,16.0
1606936480.4856,24.0
1606936480.4874,26.0
1606936480.4894,28.0
1606936480.4914,33.0
1606936480.4921,36.0
1606936480.4934,36.0
1606936480.4954,36.0
1606936480.4974,36.0
1606936480.4994,31.0
1606936480.5014,24.0
1606936480.5034,21.0
1606936480.5054,21.0
1606936480.5074,14.0
1606936480.5095,7.0
1606936480.5114,4.0
1606936480.5134,7.0
1606936480.5154,14.0
1606936480.5176,14.0
1606936480.5194,16.0
1606936480.5214,24.0
1606936480.5221,28.0
1606936480.5234,31.0
1606936480.5254,33.0
1606936480.5274,38.0
1606936480.5294,43.0
1606936480.5314,45.0
1606936480.5334,48.0
1606936480.5354,50.0
1606936480.5374,57.0
1606936480.5394,57.0
1606936480.5414,57.0
1606936480.5435,60.0
1606936480.5454,65.0
1606936480.5474,62.0
1606936480.5494,62.0
1606936480.5514,62.0
1606936480.5521,65.0
1606936480.5535,62.0
1606936480.5554,52.0
1606936480.5574,52.0
1606936480.5594,57.0
1606936480.5614,55.0
1606936480.5634,48.0
1606936480.5654,48.0
1606936480.5674,52.0
1606936480.5694,45.0
1606936480.5714,43.0
1606936480.5734,45.0
1606936480.5754,43.0
1606936480.5774,40.0
1606936480.5794,43.0
1606936480.5814,43.0
1606936480.5821,40.0
1606936480.5834,40.0
1606936480.5854,40.0
1606936481.0216,40.0
1606936481.0225,38.0
1606936481.0249,40.0
1606936481.0276,45.0
1606936481.0296,43.0
1606936481.0315,40.0
1606936481.0335,43.0
1606936481.0356,45.0
1606936481.0375,38.0
1606936481.0395,31.0
1606936481.0415,31.0
1606936481.0435,33.0
1606936481.0442,33.0
1606936481.0457,33.0
1606936481.0475,40.0
1606936481.0495,45.0
1606936481.0514,45.0
1606936481.0535,62.0
1606936481.0554,89.0
1606936481.0574,86.0
1606936481.0595,62.0
1606936481.0614,52.0
1606936481.0634,45.0
1606936481.0654,33.0
1606936481.0674,16.0
1606936481.0694,12.0
1606936481.0714,16.0
1606936481.0734,19.0
1606936481.0741,19.0
1606936481.0754,19.0
1606936481.0774,19.0
1606936481.0794,19.0
1606936481.0814,52.0
1606936481.0834,185.0
1606936481.0854,397.0
1606936481.0874,387.0
1606936481.0894,81.0
1606936481.0914,-33.0
1606936481.0935,79.0
1606936481.0954,40.0
1606936481.0974,-28.0
1606936481.0994,9.0
1606936481.1014,14.0
1606936481.1034,-14.0
1606936481.1041,-4.0
1606936481.1054,4.0
1606936481.1074,0.0
1606936481.1095,2.0
1606936481.1114,4.0
1606936481.1134,2.0
1606936481.1154,4.0
1606936481.1174,7.0
1606936481.1195,9.0
1606936481.1214,14.0
1606936481.1234,16.0
1606936481.1255,16.0
1606936481.1274,19.0
1606936481.1294,24.0
1606936481.1314,28.0
1606936481.1334,31.0
1606936481.1341,33.0
1606936481.1354,36.0
1606936481.1374,36.0
1606936481.1394,36.0
1606936481.1416,36.0
1606936481.1435,36.0
1606936481.1454,31.0
1606936481.1474,21.0
1606936481.1494,16.0
1606936481.1514,14.0
1606936481.1534,7.0
1606936481.1554,2.0
1606936481.1574,4.0
1606936481.5617,7.0
1606936481.563,7.0
1606936481.5654,9.0
1606936481.568,14.0
1606936481.57,21.0
1606936481.572,24.0
1606936481.5741,21.0
1606936481.5761,19.0
1606936481.5782,24.0
1606936481.58,19.0
1606936481.582,12.0
1606936481.584,14.0
1606936481.586,24.0
1606936481.588,24.0
1606936481.5899,24.0
1606936481.5919,31.0
1606936481.5927,36.0
1606936481.594,36.0
1606936481.5959,36.0
1606936481.5979,40.0
1606936481.5999,43.0
1606936481.6019,43.0
1606936481.6039,40.0
1606936481.6059,40.0
1606936481.608,40.0
1606936481.6099,36.0
1606936481.6119,33.0
1606936481.6139,36.0
1606936481.6159,31.0
1606936481.6179,24.0
1606936481.6199,24.0
1606936481.6219,26.0
1606936481.6226,24.0
1606936481.6239,21.0
1606936481.6259,24.0
1606936481.6279,26.0
1606936481.6299,24.0
1606936481.6319,21.0
1606936481.6339,21.0
1606936481.636,24.0
1606936481.6379,19.0
1606936481.6399,12.0
1606936481.6421,12.0
1606936481.644,14.0
1606936481.6459,14.0
1606936481.6479,14.0
1606936481.65,14.0
1606936481.6519,14.0
1606936481.6526,16.0
1606936481.6539,16.0
1606936481.6559,19.0
1606936481.6579,21.0
1606936481.6599,26.0
1606936481.6619,31.0
1606936481.6639,33.0
1606936481.6659,52.0
1606936481.6679,74.0
1606936481.6699,69.0
1606936481.6719,48.0
1606936481.6739,40.0
1606936481.676,33.0
1606936481.6779,16.0
1606936481.6799,2.0
1606936481.6819,2.0
1606936481.6826,2.0
1606936481.6839,2.0
1606936481.6859,4.0
1606936481.6879,9.0
1606936481.6899,4.0
1606936481.6919,2.0
1606936481.6939,48.0
1606936481.696,199.0
1606936481.6979,387.0
1606936482.1917,315.0
1606936482.1929,40.0
1606936482.1953,-2.0
1606936482.198,67.0
1606936482.2,-2.0
1606936482.2019,-36.0
1606936482.204,-2.0
1606936482.2048,-21.0
1606936482.2059,-38.0
1606936482.2079,-21.0
1606936482.2099,-19.0
1606936482.2119,-28.0
1606936482.2139,-21.0
1606936482.216,-14.0
1606936482.2179,-16.0
1606936482.2199,-14.0
1606936482.2218,-9.0
1606936482.2239,-7.0
1606936482.2259,-4.0
1606936482.2278,-2.0
1606936482.23,2.0
1606936482.2319,7.0
1606936482.2338,7.0
1606936482.2345,12.0
1606936482.2359,16.0
1606936482.2378,19.0
1606936482.2398,21.0
1606936482.2418,21.0
1606936482.2439,21.0
1606936482.2458,19.0
1606936482.2478,14.0
1606936482.2498,9.0
1606936482.2518,4.0
1606936482.2538,-7.0
1606936482.2558,-14.0
1606936482.2578,-16.0
1606936482.2598,-19.0
1606936482.2618,-19.0
1606936482.2638,-14.0
1606936482.2644,-12.0
1606936482.2659,-4.0
1606936482.2678,2.0
1606936482.2698,4.0
1606936482.2718,7.0
1606936482.2738,12.0
1606936482.2758,14.0
1606936482.2778,19.0
1606936482.2798,24.0
1606936482.2818,24.0
1606936482.2838,26.0
1606936482.2858,31.0
1606936482.2878,33.0
1606936482.2898,38.0
1606936482.2918,38.0
1606936482.2938,38.0
1606936482.2945,38.0
1606936482.2958,40.0
1606936482.2978,43.0
1606936482.2998,43.0
1606936482.3018,43.0
1606936482.3038,43.0
1606936482.3058,40.0
1606936482.3078,38.0
1606936482.3098,38.0
1606936482.3118,36.0
1606936482.3138,28.0
1606936482.3158,24.0
1606936482.3178,26.0
1606936482.3198,28.0
1606936482.3218,24.0
1606936482.3238,24.0
1606936482.3246,26.0
1606936482.3259,24.0
1606936482.6715,21.0
1606936482.6724,21.0
1606936482.6748,24.0
1606936482.6775,24.0
1606936482.6794,26.0
1606936482.6814,24.0
1606936482.6835,24.0
1606936482.6854,24.0
1606936482.6874,19.0
1606936482.6894,14.0
1606936482.6914,16.0
1606936482.6921,14.0
1606936482.6934,9.0
1606936482.6954,4.0
1606936482.6973,9.0
1606936482.6994,9.0
1606936482.7001,0.0
1606936482.7023,-2.0
1606936482.7043,4.0
1606936482.7064,7.0
1606936482.7083,7.0
1606936482.7103,7.0
1606936482.7123,9.0
1606936482.7143,12.0
1606936482.7164,16.0
1606936482.7183,21.0
1606936482.719,24.0
1606936482.7203,45.0
1606936482.7223,65.0
1606936482.7243,52.0
1606936482.7263,33.0
1606936482.7283,28.0
1606936482.7303,19.0
1606936482.7323,4.0
1606936482.7343,-4.0
1606936482.7364,-4.0
1606936482.7383,0.0
1606936482.7403,2.0
1606936482.7423,4.0
1606936482.7443,7.0
1606936482.7464,4.0
1606936482.7484,12.0
1606936482.749,89.0
1606936482.7503,272.0
1606936482.7523,407.0
1606936482.7544,236.0
1606936482.7564,12.0
1606936482.7583,48.0
1606936482.7603,67.0
1606936482.7625,-26.0
1606936482.7644,-21.0
1606936482.7663,4.0
1606936482.7683,-16.0
1606936482.7703,-21.0
1606936482.7723,-4.0
1606936482.7743,-9.0
1606936482.7763,-12.0
1606936482.7783,-2.0
1606936482.779,2.0
1606936482.7803,-2.0
1606936482.7823,2.0
1606936482.7843,9.0
1606936482.7864,12.0
1606936482.7884,14.0
1606936482.7903,16.0
1606936482.7923,19.0
1606936482.7943,21.0
1606936482.7964,28.0
1606936482.7983,31.0
1606936482.8003,33.0
1606936482.8023,36.0
1606936482.8043,38.0
1606936482.8064,38.0
1606936483.2418,38.0
1606936483.2429,38.0
1606936483.2453,31.0
1606936483.248,26.0
1606936483.25,21.0
1606936483.252,12.0
1606936483.2541,2.0
1606936483.256,0.0
1606936483.2581,2.0
1606936483.26,2.0
1606936483.262,2.0
1606936483.264,9.0
1606936483.266,14.0
1606936483.268,19.0
1606936483.27,24.0
1606936483.2721,24.0
1606936483.274,26.0
1606936483.2746,28.0
1606936483.2761,28.0
1606936483.2779,31.0
1606936483.2799,36.0
1606936483.2819,38.0
1606936483.2839,40.0
1606936483.286,43.0
1606936483.2879,48.0
1606936483.2899,50.0
1606936483.2919,50.0
1606936483.2941,52.0
1606936483.296,55.0
1606936483.2979,57.0
1606936483.2999,57.0
1606936483.3019,57.0
1606936483.3039,60.0
1606936483.3045,57.0
1606936483.3059,55.0
1606936483.3079,52.0
1606936483.3099,52.0
1606936483.3119,52.0
1606936483.3139,52.0
1606936483.3159,50.0
1606936483.3179,48.0
1606936483.3199,45.0
1606936483.3219,45.0
1606936483.3239,45.0
1606936483.3259,48.0
1606936483.3279,48.0
1606936483.3299,43.0
1606936483.3319,38.0
1606936483.3339,40.0
1606936483.3345,40.0
1606936483.3359,40.0
1606936483.3379,43.0
1606936483.3398,40.0
1606936483.3419,38.0
1606936483.3439,43.0
1606936483.3459,45.0
1606936483.3479,40.0
1606936483.3499,40.0
1606936483.3519,43.0
1606936483.3539,43.0
1606936483.3559,43.0
1606936483.3579,45.0
1606936483.3599,45.0
1606936483.3619,43.0
1606936483.3639,43.0
1606936483.3645,48.0
1606936483.3659,52.0
1606936483.3679,60.0
1606936483.3699,65.0
1606936483.3719,67.0
1606936483.3739,79.0
1606936483.3759,96.0
1606936483.3779,93.0
1606936483.8117,79.0
1606936483.8127,74.0
1606936483.8151,62.0
1606936483.8178,40.0
1606936483.8198,24.0
1606936483.822,19.0
1606936483.8227,12.0
1606936483.8238,4.0
1606936483.8259,4.0
1606936483.8278,7.0
1606936483.8298,4.0
1606936483.8318,0.0
1606936483.8338,4.0
1606936483.8359,52.0
1606936483.8378,197.0
1606936483.8399,380.0
1606936483.8418,320.0
1606936483.8438,60.0
1606936483.8458,16.0
1606936483.8478,79.0
1606936483.8497,2.0
1606936483.8518,-33.0
1606936483.8524,2.0
1606936483.8538,-7.0
1606936483.8558,-19.0
1606936483.8577,-2.0
1606936483.8598,-4.0
1606936483.8617,-12.0
1606936483.8637,2.0
1606936483.8658,9.0
1606936483.8677,7.0
1606936483.8697,9.0
1606936483.8717,16.0
1606936483.8737,14.0
1606936483.8758,14.0
1606936483.8777,21.0
1606936483.8797,26.0
1606936483.8817,26.0
1606936483.8823,28.0
1606936483.8837,36.0
1606936483.8857,38.0
1606936483.8877,40.0
1606936483.8897,48.0
1606936483.8917,50.0
1606936483.8937,48.0
1606936483.8958,43.0
1606936483.8977,43.0
1606936483.8997,40.0
1606936483.9017,36.0
1606936483.9037,31.0
1606936483.9057,24.0
1606936483.9077,24.0
1606936483.9097,26.0
1606936483.9117,24.0
1606936483.9123,19.0
1606936483.9137,24.0
1606936483.9159,31.0
1606936483.9177,31.0
1606936483.9197,33.0
1606936483.9217,40.0
1606936483.9237,43.0
1606936483.9258,45.0
1606936483.9278,52.0
1606936483.9297,52.0
1606936483.9317,52.0
1606936483.9337,55.0
1606936483.9357,60.0
1606936483.9377,57.0
1606936483.9397,60.0
1606936483.9404,60.0
1606936483.9417,60.0
1606936483.9437,65.0
1606936483.9457,69.0
1606936484.3816,69.0
1606936484.3827,67.0
1606936484.3851,65.0
1606936484.3878,57.0
1606936484.3898,55.0
1606936484.3919,60.0
1606936484.3939,57.0
1606936484.3959,52.0
1606936484.3978,43.0
1606936484.3998,38.0
1606936484.4018,45.0
1606936484.4024,45.0
1606936484.4039,38.0
1606936484.4059,36.0
1606936484.4078,40.0
1606936484.4098,40.0
1606936484.4118,40.0
1606936484.4138,40.0
1606936484.4158,45.0
1606936484.4178,45.0
1606936484.4197,40.0
1606936484.4218,40.0
1606936484.4238,43.0
1606936484.4258,40.0
1606936484.4277,40.0
1606936484.4298,48.0
1606936484.4317,48.0
1606936484.4324,43.0
1606936484.4337,43.0
1606936484.4358,45.0
1606936484.4377,43.0
1606936484.4397,40.0
1606936484.4417,45.0
1606936484.4437,52.0
1606936484.4459,57.0
1606936484.4478,62.0
1606936484.4497,69.0
1606936484.4517,84.0
1606936484.4538,96.0
1606936484.4557,91.0
1606936484.4577,79.0
1606936484.4597,77.0
1606936484.4617,62.0
1606936484.4623,40.0
1606936484.4637,28.0
1606936484.4657,24.0
1606936484.4677,21.0
1606936484.4697,24.0
1606936484.4717,28.0
1606936484.4737,28.0
1606936484.4758,26.0
1606936484.4777,26.0
1606936484.4797,31.0
1606936484.4817,60.0
1606936484.4837,185.0
1606936484.4857,397.0
1606936484.4877,395.0
1606936484.4897,86.0
1606936484.4917,-36.0
1606936484.4923,81.0
1606936484.4937,45.0
1606936484.4957,-33.0
1606936484.4977,7.0
1606936484.4997,14.0
1606936484.5017,-14.0
1606936484.5037,-4.0
1606936484.5057,9.0
1606936484.5077,2.0
1606936484.5097,-2.0
1606936484.5117,4.0
1606936484.5137,9.0
1606936484.5157,12.0
1606936484.5177,14.0
1606936485.0117,16.0
1606936485.0129,16.0
1606936485.0153,21.0
1606936485.017,28.0
1606936485.019,31.0
1606936485.021,33.0
1606936485.023,36.0
1606936485.025,40.0
1606936485.027,40.0
1606936485.029,36.0
1606936485.031,33.0
1606936485.033,38.0
1606936485.0353,36.0
1606936485.037,31.0
1606936485.039,31.0
1606936485.041,31.0
1606936485.0418,26.0
1606936485.043,19.0
1606936485.045,14.0
1606936485.047,12.0
1606936485.049,7.0
1606936485.051,9.0
1606936485.053,14.0
1606936485.055,12.0
1606936485.057,14.0
1606936485.059,21.0
1606936485.061,21.0
1606936485.063,19.0
1606936485.065,21.0
1606936485.0669,24.0
1606936485.0689,26.0
1606936485.0709,28.0
1606936485.0716,31.0
1606936485.073,33.0
1606936485.0749,38.0
1606936485.077,43.0
1606936485.079,45.0
1606936485.0809,48.0
1606936485.083,52.0
1606936485.085,57.0
1606936485.087,60.0
1606936485.0889,60.0
1606936485.0909,60.0
1606936485.0929,57.0
1606936485.0949,52.0
1606936485.0969,52.0
1606936485.0989,52.0
1606936485.1009,50.0
1606936485.1015,45.0
1606936485.1029,45.0
1606936485.1049,43.0
1606936485.107,40.0
1606936485.1089,38.0
1606936485.1109,36.0
1606936485.1129,36.0
1606936485.1149,33.0
1606936485.1169,33.0
1606936485.1189,33.0
1606936485.1209,31.0
1606936485.1229,31.0
1606936485.1249,26.0
1606936485.1269,26.0
1606936485.1289,28.0
1606936485.131,28.0
1606936485.1316,28.0
1606936485.1329,31.0
1606936485.1349,28.0
1606936485.1369,28.0
1606936485.1389,31.0
1606936485.1409,31.0
1606936485.1429,33.0
1606936485.1449,36.0
1606936485.1469,38.0
1606936485.5215,43.0
1606936485.5224,50.0
1606936485.5248,57.0
1606936485.5275,79.0
1606936485.5295,91.0
1606936485.5301,74.0
1606936485.5315,50.0
1606936485.5335,36.0
1606936485.5354,26.0
1606936485.5374,16.0
1606936485.5394,2.0
1606936485.5414,0.0
1606936485.5434,4.0
1606936485.5454,4.0
1606936485.5474,-2.0
1606936485.5494,-4.0
1606936485.5514,-2.0
1606936485.5534,-4.0
1606936485.5555,28.0
1606936485.5574,175.0
1606936485.5594,378.0
1606936485.5599,320.0
1606936485.5613,24.0
1606936485.5633,-33.0
1606936485.5654,57.0
1606936485.5673,-7.0
1606936485.5695,-55.0
1606936485.5714,-14.0
1606936485.5734,-16.0
1606936485.5753,-36.0
1606936485.5773,-24.0
1606936485.5793,-14.0
1606936485.5813,-16.0
1606936485.5833,-12.0
1606936485.5853,-7.0
1606936485.5873,-4.0
1606936485.5893,-2.0
1606936485.5899,2.0
1606936485.5913,2.0
1606936485.5933,7.0
1606936485.5953,12.0
1606936485.5975,12.0
1606936485.5994,12.0
1606936485.6013,14.0
1606936485.6033,21.0
1606936485.6053,24.0
1606936485.6073,24.0
1606936485.6094,28.0
1606936485.6113,31.0
1606936485.6133,28.0
1606936485.6153,28.0
1606936485.6173,28.0
1606936485.6194,24.0
1606936485.6199,12.0
1606936485.6213,4.0
1606936485.6233,4.0
1606936485.6253,2.0
1606936485.6273,0.0
1606936485.6293,2.0
1606936485.6313,4.0
1606936485.6333,2.0
1606936485.6353,4.0
1606936485.6373,9.0
1606936485.6393,16.0
1606936485.6413,16.0
1606936485.6433,16.0
1606936485.6453,19.0
1606936485.6473,21.0
1606936485.6493,24.0
1606936485.6499,26.0
1606936485.6513,28.0
1606936485.6533,31.0
1606936485.6553,33.0
1606936486.0316,36.0
1606936486.0324,40.0
1606936486.0348,40.0
1606936486.0375,40.0
1606936486.0395,43.0
1606936486.0415,43.0
1606936486.0435,43.0
1606936486.0455,40.0
1606936486.0474,36.0
1606936486.0494,36.0
1606936486.0514,36.0
1606936486.0534,26.0
1606936486.054,19.0
1606936486.0554,19.0
1606936486.0574,24.0
1606936486.0594,21.0
1606936486.0614,21.0
1606936486.0634,21.0
1606936486.0654,19.0
1606936486.0676,21.0
1606936486.0694,24.0
1606936486.0714,21.0
1606936486.0734,21.0
1606936486.0755,21.0
1606936486.0774,21.0
1606936486.0794,24.0
1606936486.0814,26.0
1606936486.0834,24.0
1606936486.084,26.0
1606936486.0854,31.0
1606936486.0875,28.0
1606936486.0894,26.0
1606936486.0914,31.0
1606936486.0934,36.0
1606936486.0954,31.0
1606936486.0974,26.0
1606936486.0994,31.0
1606936486.1014,33.0
1606936486.1034,33.0
1606936486.1054,36.0
1606936486.1074,36.0
1606936486.1094,36.0
1606936486.1114,36.0
1606936486.1134,33.0
1606936486.114,36.0
1606936486.1154,40.0
1606936486.1174,40.0
1606936486.1194,45.0
1606936486.1214,60.0
1606936486.1234,81.0
1606936486.1255,84.0
1606936486.1274,62.0
1606936486.1294,48.0
1606936486.1314,43.0
1606936486.1334,31.0
1606936486.1354,16.0
1606936486.1374,9.0
1606936486.1394,12.0
1606936486.1414,12.0
1606936486.1434,14.0
1606936486.144,16.0
1606936486.1454,19.0
1606936486.1474,16.0
1606936486.1494,26.0
1606936486.1514,113.0
1606936486.1534,303.0
1606936486.1554,419.0
1606936486.1574,221.0
1606936486.1594,7.0
1606936486.1614,55.0
1606936486.1636,62.0
1606936486.1655,-31.0
1606936486.1675,-19.0
1606936486.6016,7.0
1606936486.6025,-16.0
1606936486.6049,-16.0
1606936486.6076,-4.0
1606936486.6095,-9.0
1606936486.6116,-16.0
1606936486.6137,-7.0
1606936486.6156,0.0
1606936486.6176,0.0
1606936486.6195,0.0
1606936486.6216,4.0
1606936486.6236,7.0
1606936486.6257,7.0
1606936486.6276,9.0
1606936486.6296,19.0
1606936486.6302,21.0
1606936486.6316,21.0
1606936486.6337,24.0
1606936486.6356,31.0
1606936486.6375,36.0
1606936486.6395,36.0
1606936486.6415,36.0
1606936486.6436,38.0
1606936486.6456,38.0
1606936486.6475,33.0
1606936486.6495,26.0
1606936486.6515,21.0
1606936486.6535,19.0
1606936486.6555,9.0
1606936486.6575,4.0
1606936486.6594,7.0
1606936486.6601,9.0
1606936486.6615,9.0
1606936486.6635,12.0
1606936486.6656,16.0
1606936486.6675,19.0
1606936486.6695,21.0
1606936486.6715,21.0
1606936486.6735,21.0
1606936486.6756,24.0
1606936486.6775,26.0
1606936486.6795,26.0
1606936486.6815,28.0
1606936486.6835,33.0
1606936486.6855,38.0
1606936486.6874,38.0
1606936486.6894,43.0
1606936486.6901,43.0
1606936486.6916,40.0
1606936486.6935,43.0
1606936486.6955,50.0
1606936486.6974,48.0
1606936486.6994,48.0
1606936486.7015,50.0
1606936486.7035,52.0
1606936486.7056,50.0
1606936486.7075,48.0
1606936486.7094,45.0
1606936486.7115,38.0
1606936486.7135,36.0
1606936486.7156,38.0
1606936486.7174,36.0
1606936486.7195,33.0
1606936486.7201,33.0
1606936486.7215,31.0
1606936486.7235,31.0
1606936486.7255,33.0
1606936486.7275,31.0
1606936486.7294,28.0
1606936486.7315,31.0
1606936486.7334,33.0
1606936486.7356,31.0
1606936486.7375,31.0
1606936487.2016,33.0
1606936487.2027,36.0
1606936487.2051,33.0
1606936487.2078,33.0
1606936487.2098,33.0
1606936487.2106,31.0
1606936487.2117,26.0
1606936487.2138,24.0
1606936487.2158,24.0
1606936487.2177,24.0
1606936487.2197,26.0
1606936487.2217,28.0
1606936487.2237,28.0
1606936487.2258,31.0
1606936487.2277,28.0
1606936487.2297,26.0
1606936487.2318,28.0
1606936487.2337,28.0
1606936487.2358,28.0
1606936487.2377,31.0
1606936487.2398,38.0
1606936487.2404,43.0
1606936487.2417,43.0
1606936487.2437,55.0
1606936487.2458,72.0
1606936487.2477,74.0
1606936487.2499,62.0
1606936487.2517,52.0
1606936487.2537,48.0
1606936487.2557,36.0
1606936487.2577,16.0
1606936487.2597,0.0
1606936487.2617,-4.0
1606936487.2637,0.0
1606936487.2657,2.0
1606936487.2677,2.0
1606936487.2696,9.0
1606936487.2703,9.0
1606936487.2716,4.0
1606936487.2736,16.0
1606936487.2757,110.0
1606936487.2776,308.0
1606936487.2796,399.0
1606936487.2817,178.0
1606936487.2837,-12.0
1606936487.2857,50.0
1606936487.2876,43.0
1606936487.2896,-40.0
1606936487.2916,-21.0
1606936487.2936,-2.0
1606936487.2957,-26.0
1606936487.2976,-21.0
1606936487.2996,-7.0
1606936487.3002,-9.0
1606936487.3016,-9.0
1606936487.3036,-2.0
1606936487.3057,-2.0
1606936487.3076,0.0
1606936487.3096,7.0
1606936487.3116,9.0
1606936487.3136,9.0
1606936487.3157,12.0
1606936487.3176,16.0
1606936487.3196,19.0
1606936487.3216,21.0
1606936487.3236,26.0
1606936487.3257,28.0
1606936487.3276,33.0
1606936487.3296,36.0
1606936487.3302,36.0
1606936487.3316,40.0
1606936487.3336,40.0
1606936487.3357,36.0
1606936487.7416,33.0
1606936487.7424,33.0
1606936487.7449,28.0
1606936487.7475,21.0
1606936487.7498,16.0
1606936487.7516,12.0
1606936487.7536,7.0
1606936487.7556,9.0
1606936487.7575,9.0
1606936487.7594,9.0
1606936487.7601,12.0
1606936487.7615,12.0
1606936487.7635,12.0
1606936487.7656,16.0
1606936487.7675,16.0
1606936487.7695,19.0
1606936487.7715,24.0
1606936487.7735,26.0
1606936487.7756,26.0
1606936487.7775,31.0
1606936487.7795,33.0
1606936487.7815,33.0
1606936487.7835,33.0
1606936487.7855,36.0
1606936487.7874,38.0
1606936487.7894,40.0
1606936487.7901,38.0
1606936487.7914,40.0
1606936487.7934,50.0
1606936487.7955,50.0
1606936487.7974,45.0
1606936487.7994,43.0
1606936487.8015,40.0
1606936487.8034,40.0
1606936487.8055,40.0
1606936487.8074,40.0
1606936487.8094,40.0
1606936487.8114,38.0
1606936487.8135,38.0
1606936487.8154,38.0
1606936487.8174,36.0
1606936487.818,36.0
1606936487.8194,38.0
1606936487.8214,38.0
1606936487.8234,36.0
1606936487.8255,31.0
1606936487.8275,33.0
1606936487.8294,33.0
1606936487.8314,33.0
1606936487.8334,38.0
1606936487.8354,38.0
1606936487.8374,36.0
1606936487.8394,38.0
1606936487.8414,45.0
1606936487.8434,45.0
1606936487.8456,43.0
1606936487.8475,40.0
1606936487.848,45.0
1606936487.8494,45.0
1606936487.8514,38.0
1606936487.8534,40.0
1606936487.8555,45.0
1606936487.8574,45.0
1606936487.8594,43.0
1606936487.8614,45.0
1606936487.8634,43.0
1606936487.8655,43.0
1606936487.8674,48.0
1606936487.8694,50.0
1606936487.8714,57.0
1606936487.8734,62.0
1606936487.8754,67.0
1606936487.8774,77.0
1606936488.3417,86.0
1606936488.3428,89.0
1606936488.3451,77.0
1606936488.3478,72.0
1606936488.3498,62.0
1606936488.3518,43.0
1606936488.3539,28.0
1606936488.3559,19.0
1606936488.3578,9.0
1606936488.3598,4.0
1606936488.3618,4.0
1606936488.3638,14.0
1606936488.3659,19.0
1606936488.3678,12.0
1606936488.3698,7.0
1606936488.3718,43.0
1606936488.3725,180.0
1606936488.3738,387.0
1606936488.3759,368.0
1606936488.3778,65.0
1606936488.3798,-33.0
1606936488.3817,74.0
1606936488.3838,26.0
1606936488.3858,-36.0
1606936488.3878,7.0
1606936488.3898,9.0
1606936488.3918,-12.0
1606936488.3938,2.0
1606936488.3957,9.0
1606936488.3978,2.0
1606936488.3998,7.0
1606936488.4018,12.0
1606936488.4024,12.0
1606936488.404,16.0
1606936488.4058,19.0
1606936488.4077,21.0
1606936488.4097,26.0
1606936488.4117,28.0
1606936488.4137,33.0
1606936488.4158,38.0
1606936488.4177,40.0
1606936488.4197,43.0
1606936488.4217,48.0
1606936488.4238,48.0
1606936488.4257,50.0
1606936488.4277,55.0
1606936488.4298,55.0
1606936488.4318,55.0
1606936488.4323,52.0
1606936488.4337,45.0
1606936488.4358,43.0
1606936488.4377,45.0
1606936488.4398,40.0
1606936488.4417,36.0
1606936488.4437,33.0
1606936488.4457,28.0
1606936488.4477,26.0
1606936488.4497,28.0
1606936488.4517,36.0
1606936488.4537,38.0
1606936488.4557,36.0
1606936488.4577,33.0
1606936488.4597,33.0
1606936488.4617,33.0
1606936488.4623,33.0
1606936488.4637,38.0
1606936488.4658,40.0
1606936488.4677,38.0
1606936488.4697,38.0
1606936488.4717,45.0
1606936488.4737,50.0
1606936488.4757,50.0
1606936488.4777,50.0
1606936488.8516,55.0
1606936488.8525,55.0
1606936488.855,55.0
1606936488.8577,57.0
1606936488.8583,60.0
1606936488.8596,55.0
1606936488.8616,55.0
1606936488.8638,52.0
1606936488.8657,48.0
1606936488.8676,36.0
1606936488.8696,28.0
1606936488.8718,26.0
1606936488.8736,28.0
1606936488.8756,21.0
1606936488.8776,12.0
1606936488.8796,14.0
1606936488.8816,19.0
1606936488.8836,16.0
1606936488.8856,14.0
1606936488.8876,16.0
1606936488.8882,16.0
1606936488.8896,16.0
1606936488.8916,19.0
1606936488.8936,21.0
1606936488.8957,21.0
1606936488.8975,16.0
1606936488.8996,16.0
1606936488.9015,21.0
1606936488.9035,21.0
1606936488.9056,16.0
1606936488.9075,16.0
1606936488.9095,16.0
1606936488.9116,19.0
1606936488.9135,21.0
1606936488.9156,24.0
1606936488.9175,21.0
1606936488.9181,21.0
1606936488.9195,19.0
1606936488.9215,21.0
1606936488.9236,26.0
1606936488.9256,24.0
1606936488.9275,24.0
1606936488.9295,28.0
1606936488.9315,36.0
1606936488.9336,38.0
1606936488.9356,57.0
1606936488.9375,79.0
1606936488.9395,67.0
1606936488.9415,38.0
1606936488.9435,31.0
1606936488.9456,28.0
1606936488.9475,14.0
1606936488.9482,0.0
1606936488.9495,-4.0
1606936488.9515,0.0
1606936488.9535,0.0
1606936488.9556,0.0
1606936488.9575,7.0
1606936488.9595,7.0
1606936488.9615,9.0
1606936488.9635,77.0
1606936488.9656,264.0
1606936488.9677,423.0
1606936488.9696,264.0
1606936488.9716,-19.0
1606936488.9735,-2.0
1606936488.9756,67.0
1606936488.9775,-16.0
1606936488.9781,-33.0
1606936488.9795,7.0
1606936488.9815,-9.0
1606936488.9836,-21.0
1606936488.9856,-4.0
1606936489.4235,-7.0
1606936489.4245,-14.0
1606936489.4256,-7.0
1606936489.4275,-4.0
1606936489.4296,-7.0
1606936489.4308,-4.0
1606936489.4325,-4.0
1606936489.4345,-9.0
1606936489.4353,-4.0
1606936489.4365,2.0
1606936489.4385,2.0
1606936489.4405,2.0
1606936489.4427,7.0
1606936489.4446,9.0
1606936489.4467,12.0
1606936489.4485,16.0
1606936489.4505,19.0
1606936489.4527,19.0
1606936489.4545,21.0
1606936489.4566,21.0
1606936489.4585,21.0
1606936489.4605,19.0
1606936489.4625,12.0
1606936489.4645,4.0
1606936489.4651,4.0
1606936489.4665,2.0
1606936489.4685,-2.0
1606936489.4705,-2.0
1606936489.4725,2.0
1606936489.4745,0.0
1606936489.4765,0.0
1606936489.4785,4.0
1606936489.4805,9.0
1606936489.4824,9.0
1606936489.4845,7.0
1606936489.4865,7.0
1606936489.4885,12.0
1606936489.4905,14.0
1606936489.4926,14.0
1606936489.4945,14.0
1606936489.4953,19.0
1606936489.4965,21.0
1606936489.4984,21.0
1606936489.5004,26.0
1606936489.5024,31.0
1606936489.5044,31.0
1606936489.5065,28.0
1606936489.5084,31.0
1606936489.5104,33.0
1606936489.5124,33.0
1606936489.5145,33.0
1606936489.5165,36.0
1606936489.5184,33.0
1606936489.5204,31.0
1606936489.5224,31.0
1606936489.5244,28.0
1606936489.5251,28.0
1606936489.5265,26.0
1606936489.5286,24.0
1606936489.5305,24.0
1606936489.5324,24.0
1606936489.5344,24.0
1606936489.5364,21.0
1606936489.5384,21.0
1606936489.5405,24.0
1606936489.5424,26.0
1606936489.5445,21.0
1606936489.5465,14.0
1606936489.5484,16.0
1606936489.5504,21.0
1606936489.5525,19.0
1606936489.5544,19.0
1606936489.5551,21.0
1606936489.9617,21.0
1606936489.9626,19.0
1606936489.9647,19.0
1606936489.9666,19.0
1606936489.9685,16.0
1606936489.9705,14.0
1606936489.9725,16.0
1606936489.9745,16.0
1606936489.9765,9.0
1606936489.9785,4.0
1606936489.9805,7.0
1606936489.9825,9.0
1606936489.9845,7.0
1606936489.9865,12.0
1606936489.9884,16.0
1606936489.989,14.0
1606936489.9904,9.0
1606936489.9924,12.0
1606936489.9947,21.0
1606936489.9965,24.0
1606936489.9985,24.0
1606936490.0004,43.0
1606936490.0025,67.0
1606936490.0044,62.0
1606936490.0064,40.0
1606936490.0084,31.0
1606936490.0104,28.0
1606936490.0124,14.0
1606936490.0144,-2.0
1606936490.0164,-4.0
1606936490.0171,2.0
1606936490.0184,4.0
1606936490.0204,4.0
1606936490.0224,9.0
1606936490.0244,7.0
1606936490.0264,9.0
1606936490.0284,65.0
1606936490.0304,226.0
1606936490.0324,404.0
1606936490.0344,317.0
1606936490.0364,55.0
1606936490.0384,24.0
1606936490.0404,74.0
1606936490.0424,-4.0
1606936490.0444,-28.0
1606936490.0464,7.0
1606936490.047,-4.0
1606936490.0484,-19.0
1606936490.0504,-2.0
1606936490.0524,2.0
1606936490.0544,-2.0
1606936490.0564,0.0
1606936490.0584,4.0
1606936490.0604,4.0
1606936490.0624,7.0
1606936490.0644,12.0
1606936490.0664,14.0
1606936490.0684,16.0
1606936490.0704,12.0
1606936490.0724,7.0
1606936490.0744,16.0
1606936490.0764,26.0
1606936490.077,24.0
1606936490.0784,24.0
1606936490.0804,28.0
1606936490.0824,33.0
1606936490.0844,33.0
1606936490.0864,33.0
1606936490.0884,31.0
1606936490.0906,28.0
1606936490.0924,24.0
1606936490.0944,16.0
1606936490.0964,14.0
1606936490.5619,12.0
1606936490.5631,9.0
1606936490.5649,4.0
1606936490.5672,2.0
1606936490.5692,2.0
1606936490.5712,0.0
1606936490.5732,-4.0
1606936490.5752,0.0
1606936490.5772,9.0
1606936490.5792,9.0
1606936490.5812,9.0
1606936490.5832,12.0
1606936490.5852,16.0
1606936490.5872,19.0
1606936490.5892,19.0
1606936490.5912,24.0
1606936490.5932,26.0
1606936490.5952,26.0
1606936490.5958,28.0
1606936490.5971,31.0
1606936490.5992,33.0
1606936490.6005,36.0
1606936490.6022,36.0
1606936490.6041,36.0
1606936490.6062,36.0
1606936490.6082,36.0
1606936490.6102,36.0
1606936490.6122,36.0
1606936490.6141,28.0
1606936490.6162,28.0
1606936490.6181,31.0
1606936490.6201,33.0
1606936490.6221,28.0
1606936490.6241,24.0
1606936490.6247,24.0
1606936490.6261,26.0
1606936490.6281,26.0
1606936490.6301,24.0
1606936490.6321,24.0
1606936490.6341,21.0
1606936490.6362,19.0
1606936490.6381,21.0
1606936490.6401,24.0
1606936490.6421,24.0
1606936490.6441,19.0
1606936490.6461,19.0
1606936490.6481,21.0
1606936490.6503,24.0
1606936490.6521,21.0
1606936490.6541,21.0
1606936490.6547,19.0
1606936490.6561,12.0
1606936490.6581,7.0
1606936490.6602,12.0
1606936490.6621,14.0
1606936490.6641,12.0
1606936490.6662,12.0
1606936490.6681,14.0
1606936490.6701,14.0
1606936490.6722,12.0
1606936490.6741,7.0
1606936490.6761,9.0
1606936490.6781,12.0
1606936490.6801,12.0
1606936490.6821,12.0
1606936490.6841,14.0
1606936490.6847,14.0
1606936490.6861,19.0
1606936490.6881,21.0
1606936490.6901,19.0
1606936490.6921,33.0
1606936490.6941,57.0
1606936490.6962,60.0
1606936491.1019,40.0
1606936491.1031,28.0
1606936491.1056,21.0
1606936491.1082,9.0
1606936491.1102,-2.0
1606936491.1122,-7.0
1606936491.1144,-2.0
1606936491.1163,0.0
1606936491.1182,-2.0
1606936491.1188,-2.0
1606936491.1202,-4.0
1606936491.1222,-12.0
1606936491.1242,33.0
1606936491.1262,180.0
1606936491.1282,368.0
1606936491.1302,330.0
1606936491.1322,65.0
1606936491.1342,2.0
1606936491.1361,69.0
1606936491.1381,-7.0
1606936491.1401,-50.0
1606936491.1421,-7.0
1606936491.1441,-14.0
1606936491.1462,-33.0
1606936491.1481,-19.0
1606936491.1489,-12.0
1606936491.1502,-19.0
1606936491.1523,-12.0
1606936491.1541,-2.0
1606936491.1561,-4.0
1606936491.1581,-4.0
1606936491.1601,2.0
1606936491.1621,4.0
1606936491.1641,2.0
1606936491.1662,7.0
1606936491.1681,12.0
1606936491.1701,16.0
1606936491.1721,16.0
1606936491.1741,19.0
1606936491.1761,24.0
1606936491.1781,28.0
1606936491.1787,28.0
1606936491.1801,28.0
1606936491.1821,26.0
1606936491.1841,21.0
1606936491.1861,16.0
1606936491.1881,16.0
1606936491.1901,14.0
1606936491.1921,12.0
1606936491.1941,7.0
1606936491.1961,2.0
1606936491.1981,0.0
1606936491.2001,0.0
1606936491.2021,-2.0
1606936491.2041,-2.0
1606936491.2061,2.0
1606936491.2081,4.0
1606936491.2087,7.0
1606936491.2101,14.0
1606936491.2121,16.0
1606936491.2142,19.0
1606936491.2161,21.0
1606936491.2181,24.0
1606936491.2201,24.0
1606936491.2221,26.0
1606936491.2241,26.0
1606936491.2261,26.0
1606936491.2281,31.0
1606936491.2301,33.0
1606936491.2321,33.0
1606936491.2341,36.0
1606936491.2361,40.0
1606936491.2381,43.0
1606936491.6717,38.0
1606936491.6726,38.0
1606936491.675,40.0
1606936491.6769,40.0
1606936491.6787,40.0
1606936491.6807,36.0
1606936491.6827,36.0
1606936491.6847,31.0
1606936491.6867,24.0
1606936491.6887,19.0
1606936491.6907,16.0
1606936491.6927,16.0
1606936491.6946,14.0
1606936491.6966,14.0
1606936491.6972,16.0
1606936491.6988,14.0
1606936491.7006,14.0
1606936491.7026,16.0
1606936491.7046,19.0
1606936491.7067,14.0
1606936491.7086,16.0
1606936491.7106,24.0
1606936491.7126,24.0
1606936491.7146,14.0
1606936491.7167,16.0
1606936491.7186,16.0
1606936491.7207,16.0
1606936491.7226,19.0
1606936491.7246,19.0
1606936491.7252,21.0
1606936491.7266,24.0
1606936491.7286,21.0
1606936491.7306,19.0
1606936491.7326,21.0
1606936491.7346,26.0
1606936491.7365,24.0
1606936491.7386,19.0
1606936491.7406,16.0
1606936491.7427,16.0
1606936491.7446,14.0
1606936491.7466,16.0
1606936491.7485,21.0
1606936491.7505,26.0
1606936491.7525,31.0
1606936491.7546,45.0
1606936491.7551,62.0
1606936491.7566,55.0
1606936491.7585,36.0
1606936491.7606,26.0
1606936491.7625,16.0
1606936491.7645,7.0
1606936491.7666,-2.0
1606936491.7686,-7.0
1606936491.7705,-4.0
1606936491.7727,0.0
1606936491.7746,2.0
1606936491.7766,7.0
1606936491.7785,7.0
1606936491.7806,16.0
1606936491.7825,93.0
1606936491.7846,291.0
1606936491.7851,428.0
1606936491.7865,228.0
1606936491.7885,-31.0
1606936491.7905,24.0
1606936491.7926,77.0
1606936491.7946,-24.0
1606936491.7966,-24.0
1606936491.7985,19.0
1606936491.8005,-2.0
1606936491.8025,-14.0
1606936491.8046,4.0
1606936491.8066,2.0
1606936492.2417,-2.0
1606936492.243,2.0
1606936492.2455,4.0
1606936492.2466,4.0
1606936492.2481,12.0
1606936492.2501,16.0
1606936492.2521,12.0
1606936492.2542,14.0
1606936492.256,21.0
1606936492.2581,14.0
1606936492.2601,12.0
1606936492.2621,26.0
1606936492.2641,28.0
1606936492.2662,24.0
1606936492.2681,31.0
1606936492.2701,36.0
1606936492.2722,33.0
1606936492.2741,31.0
1606936492.2761,31.0
1606936492.2766,33.0
1606936492.278,36.0
1606936492.28,28.0
1606936492.282,19.0
1606936492.284,14.0
1606936492.2861,12.0
1606936492.288,7.0
1606936492.29,9.0
1606936492.292,16.0
1606936492.294,14.0
1606936492.2961,9.0
1606936492.298,9.0
1606936492.3,14.0
1606936492.3022,14.0
1606936492.304,9.0
1606936492.306,12.0
1606936492.3066,16.0
1606936492.308,19.0
1606936492.31,21.0
1606936492.312,24.0
1606936492.314,26.0
1606936492.316,26.0
1606936492.318,28.0
1606936492.32,33.0
1606936492.322,38.0
1606936492.324,40.0
1606936492.326,40.0
1606936492.328,40.0
1606936492.33,40.0
1606936492.332,43.0
1606936492.334,43.0
1606936492.336,40.0
1606936492.3366,38.0
1606936492.338,38.0
1606936492.34,36.0
1606936492.342,33.0
1606936492.344,31.0
1606936492.346,28.0
1606936492.348,28.0
1606936492.35,28.0
1606936492.352,24.0
1606936492.354,21.0
1606936492.356,24.0
1606936492.358,24.0
1606936492.36,24.0
1606936492.362,21.0
1606936492.364,19.0
1606936492.366,19.0
1606936492.3666,19.0
1606936492.368,19.0
1606936492.37,16.0
1606936492.372,16.0
1606936492.374,16.0
1606936492.376,14.0
1606936492.7817,14.0
1606936492.7826,14.0
1606936492.785,14.0
1606936492.7867,16.0
1606936492.7887,16.0
1606936492.7907,9.0
1606936492.7927,2.0
1606936492.7947,2.0
1606936492.7953,4.0
1606936492.7966,2.0
1606936492.7989,-4.0
1606936492.8007,-2.0
1606936492.8026,2.0
1606936492.8046,7.0
1606936492.8067,19.0
1606936492.8086,45.0
1606936492.8106,43.0
1606936492.8126,16.0
1606936492.8146,7.0
1606936492.8167,4.0
1606936492.8186,-9.0
1606936492.8206,-28.0
1606936492.8226,-33.0
1606936492.8246,-28.0
1606936492.8254,-28.0
1606936492.8266,-28.0
1606936492.8286,-24.0
1606936492.8306,-21.0
1606936492.8326,-24.0
1606936492.8346,12.0
1606936492.8367,151.0
1606936492.8386,354.0
1606936492.8406,337.0
1606936492.8427,60.0
1606936492.8446,-33.0
1606936492.8467,45.0
1606936492.8486,-4.0
1606936492.8506,-60.0
1606936492.8526,-21.0
1606936492.8546,-19.0
1606936492.8628,-43.0
1606936492.8646,-31.0
1606936492.8666,-19.0
1606936492.8686,-24.0
1606936492.8706,-19.0
1606936492.8726,-12.0
1606936492.8746,-12.0
1606936492.8766,-9.0
1606936492.8786,-7.0
1606936492.8806,-4.0
1606936492.8826,-4.0
1606936492.8846,0.0
1606936492.8866,7.0
1606936492.8886,9.0
1606936492.8906,9.0
1606936492.8912,14.0
1606936492.8926,14.0
1606936492.8946,16.0
1606936492.8966,21.0
1606936492.8986,24.0
1606936492.9006,24.0
1606936492.9028,21.0
1606936492.9046,21.0
1606936492.9066,21.0
1606936492.9086,14.0
1606936492.9106,9.0
1606936492.9126,7.0
1606936492.9146,4.0
1606936492.9166,2.0
1606936492.9186,2.0
1606936492.9206,2.0
1606936492.9212,2.0
1606936492.9226,2.0
1606936493.3217,7.0
1606936493.3227,12.0
1606936493.325,14.0
1606936493.3278,14.0
1606936493.3298,16.0
1606936493.3317,19.0
1606936493.3337,21.0
1606936493.3357,14.0
1606936493.3377,14.0
1606936493.3397,19.0
1606936493.3417,21.0
1606936493.3438,19.0
1606936493.3458,21.0
1606936493.3477,28.0
1606936493.3484,26.0
1606936493.3497,21.0
1606936493.3517,21.0
1606936493.3537,26.0
1606936493.3557,26.0
1606936493.3577,24.0
1606936493.3597,28.0
1606936493.3617,28.0
1606936493.3637,26.0
1606936493.3657,26.0
1606936493.3676,28.0
1606936493.3697,26.0
1606936493.3716,24.0
1606936493.3736,24.0
1606936493.3757,24.0
1606936493.3777,24.0
1606936493.3783,24.0
1606936493.3797,24.0
1606936493.3817,24.0
1606936493.3836,26.0
1606936493.3857,24.0
1606936493.3876,21.0
1606936493.3896,24.0
1606936493.3916,26.0
1606936493.3937,24.0
1606936493.3958,26.0
1606936493.3977,26.0
1606936493.3996,26.0
1606936493.4016,26.0
1606936493.4036,28.0
1606936493.4057,31.0
1606936493.4077,31.0
1606936493.4083,26.0
1606936493.4096,24.0
1606936493.4116,26.0
1606936493.4137,26.0
1606936493.4157,24.0
1606936493.4176,24.0
1606936493.4196,26.0
1606936493.4217,26.0
1606936493.4237,26.0
1606936493.4256,26.0
1606936493.4276,28.0
