,hr,rr,ecg,gsr,temperature
1603019422.8501,78.0,762.5,98.0,347.7691616106214,36.88
1603019422.853,78.0,762.5,171.0,347.79736252551584,36.88
1603019422.8555,78.0,762.5,1055.0,347.8245127356825,36.88
1603019422.858,78.0,762.5,2669.0,347.8506122411213,36.88
1603019422.86,78.0,762.5,3873.0,347.87566104183236,36.88
1603019422.8619,78.0,762.5,4555.0,347.89965913781555,36.88
1603019422.864,78.0,762.5,5316.0,347.92260652907095,36.88
1603019422.8658,78.0,762.5,6067.0,347.94450321559856,36.88
1603019422.8679,78.0,762.5,6626.0,347.9653491973983,36.88
1603019422.8698,78.0,762.5,7137.0,347.9851444744703,36.88
1603019422.8718,78.0,762.5,7621.0,348.00388904681444,36.88
1603019422.8739,78.0,762.5,8028.0,348.0215829144308,36.88
1603019422.8759,78.0,762.5,8414.0,348.03822607731934,36.88
1603019422.8779,78.0,762.5,8787.0,348.05381853548005,36.88
1603019422.8799,78.0,762.5,9093.0,348.06836028891297,36.88
1603019422.8818,78.0,762.5,9343.0,348.08185133761805,36.88
1603019422.8838,78.0,762.5,9625.0,348.09429168159534,36.88
1603019422.8858,78.0,762.5,9924.0,348.10568132084484,36.88
1603019422.8879,78.0,762.5,10167.0,348.1160202553665,36.88
1603019422.8898,78.0,762.5,10379.0,348.12530848516036,36.88
1603019422.8919,78.0,762.5,10594.0,348.1335460102264,36.88
1603019422.8938,78.0,762.5,10794.0,348.1407328305646,36.88
1603019422.8958,78.0,762.5,10953.0,348.14686894617506,36.88
1603019422.8979,78.0,762.5,11107.0,348.15195435705766,36.88
1603019422.8998,78.0,762.5,11283.0,348.1559890632124,36.88
1603019422.9017,78.0,762.5,11461.0,348.15897306463944,36.88
1603019422.9038,78.0,762.5,11591.0,348.1609063613386,36.88
1603019422.9058,78.0,762.5,11699.0,348.16178895330995,36.88
1603019422.9078,78.0,762.5,11808.0,348.1616208405535,36.88
1603019422.9097,78.0,762.5,11878.0,348.16040202306925,36.88
1603019422.9117,78.0,762.5,11928.0,348.15813250085716,36.88
1603019422.9137,78.0,762.5,12003.0,348.1548122739173,36.88
1603019422.9157,78.0,762.5,12063.0,348.1504413422496,36.88
1603019422.9177,78.0,762.5,12085.0,348.1450197058541,36.88
1603019422.9197,78.0,762.5,12111.0,348.13854736473075,36.88
1603019422.9218,78.0,762.5,12162.0,348.13102431887967,36.88
1603019422.9237,78.0,762.5,12174.0,348.1224505683007,36.88
1603019422.9257,78.0,762.5,12162.0,348.11282611299396,36.88
1603019422.9277,78.0,762.5,12217.0,348.1021509529594,36.88
1603019422.9297,78.0,762.5,12289.0,348.09042508819704,36.88
1603019422.9317,78.0,762.5,12285.0,348.07764851870684,36.88
1603019422.9337,78.0,762.5,12265.0,348.06382124448885,36.88
1603019422.9358,78.0,762.5,12282.0,348.048943265543,36.88
1603019422.9378,78.0,762.5,12299.0,348.0330145818694,36.88
1603019422.9397,78.0,762.5,12309.0,348.016035193468,36.88
1603019422.9418,78.0,762.5,12289.0,347.99800510033873,36.88
1603019422.9437,78.0,762.5,12268.0,347.9789243024817,36.88
1603019422.9457,78.0,762.5,12280.0,347.9587927998968,36.88
1603019422.9477,78.0,762.5,12261.0,347.9376105925841,36.88
1603019422.9497,78.0,762.5,12193.0,347.91537768054366,36.88
1603019422.9525,78.0,762.5,12176.0,347.89209406372555,36.88
1603019422.9538,78.0,762.5,12196.0,347.86163082322673,36.88
1603019422.9557,78.0,762.5,12157.0,347.8299150302882,36.88
1603019422.9577,78.0,762.5,12087.0,347.797004943163,36.88
1603019422.9597,78.0,762.5,12065.0,347.7629588201041,36.88
1603019422.9617,78.0,762.5,12051.0,347.7278349193645,36.88
1603019422.9637,78.0,762.5,11986.0,347.69169149919725,36.88
1603019422.9657,78.0,762.5,11919.0,347.6545868178554,36.88
1603019422.9677,78.0,762.5,11868.0,347.6165791335918,36.88
1603019422.9698,78.0,762.5,11817.0,347.5777267046596,36.88
1603019422.9717,78.0,762.5,11760.0,347.53808778931176,36.88
1603019422.9736,78.0,762.5,11687.0,347.4977206458013,36.88
1603019422.9756,78.0,762.5,11613.0,347.4566835323812,36.88
1603019422.9776,78.0,762.5,11576.0,347.41503470730447,36.88
1603019422.9797,78.0,762.5,11543.0,347.3728324288242,36.88
1603019422.9817,78.0,762.5,11470.0,347.33013495519333,36.88
1603019422.9837,78.0,762.5,11396.0,347.2870005446649,36.88
1603019422.9857,78.0,762.5,11328.0,347.2434874554919,36.88
1603019422.9879,78.0,762.5,11258.0,347.19965394592737,36.88
1603019422.9894,78.0,762.5,11193.0,347.1555582742243,36.88
1603019422.9917,78.0,762.5,11128.0,347.11125869863565,36.88
1603019422.9936,78.0,762.5,11049.0,347.06681347741454,36.88
1603019422.9956,78.0,762.5,10950.0,347.0222808688139,36.88
1603019423.3875,78.0,762.5,10854.0,346.9777191310867,36.88
1603019423.3884,78.0,762.5,10777.0,346.93318652248604,36.88
1603019423.3909,78.0,762.5,10702.0,346.8887413012649,36.88
1603019423.3935,78.0,762.5,10637.0,346.8444417256763,36.88
1603019423.3954,78.0,762.5,10579.0,346.8003460539732,36.88
1603019423.3974,78.0,762.5,10500.0,346.7565125444087,36.88
1603019423.3997,78.0,762.5,10420.0,346.7129994552357,36.88
1603019423.4015,78.0,762.5,10362.0,346.6698650447073,36.88
1603019423.4034,78.0,762.5,10285.0,346.6271675710764,36.88
1603019423.4054,78.0,762.5,10191.0,346.58496529259617,36.88
1603019423.4074,78.0,762.5,10122.0,346.5433164675195,36.88
1603019423.4095,78.0,762.5,10037.0,346.50227935409947,36.88
1603019423.4114,78.0,762.5,9902.0,346.461912210589,36.88
1603019423.4134,78.0,762.5,9796.0,346.42227329524115,36.88
1603019423.4155,78.0,762.5,9729.0,346.383420866309,36.88
1603019423.4174,78.0,762.5,9640.0,346.34541318204543,36.88
1603019423.4194,78.0,762.5,9546.0,346.3083085007035,36.88
1603019423.4214,78.0,762.5,9481.0,346.27216508053624,36.88
1603019423.4234,78.0,762.5,9404.0,346.2370411797967,36.88
1603019423.4254,78.0,762.5,9278.0,346.20299505673773,36.88
1603019423.4274,78.0,762.5,9165.0,346.17008496961256,36.88
1603019423.4294,78.0,762.5,9211.0,346.138369176674,36.88
1603019423.4315,78.0,762.5,9406.0,346.1079059361752,36.88
1603019423.4334,78.0,762.5,9413.0,346.07875350636914,36.88
1603019423.4354,78.0,762.5,8946.0,346.0509701455088,36.88
1603019423.4374,78.0,762.5,8430.0,346.0246141118472,36.88
1603019423.4394,78.0,762.5,8483.0,345.99974366363733,36.88
1603019423.447,78.0,762.5,8708.0,345.9764170591322,36.88
1603019423.4486,78.0,762.5,8575.0,345.95469255658486,36.88
1603019423.4504,78.0,762.5,8409.0,345.9346284142483,36.88
1603019423.4524,78.0,762.5,8392.0,345.9162828903755,36.88
1603019423.4544,78.0,762.5,8312.0,345.89971424321953,36.88
1603019423.4564,78.0,762.5,8206.0,345.8849807310334,36.88
1603019423.4584,78.0,762.5,8151.0,345.87214061207004,36.88
1603019423.4604,78.0,762.5,8074.0,345.8612521445825,36.88
1603019423.4624,78.0,762.5,7985.0,345.85237358682383,36.88
1603019423.4645,78.0,762.5,7915.0,345.845563197047,36.88
1603019423.4664,78.0,762.5,7826.0,345.840879233505,36.88
1603019423.4684,78.0,762.5,7730.0,345.8383799544509,36.88
1603019423.4704,78.0,762.5,7669.0,345.8381236181376,36.88
1603019423.4724,78.0,762.5,7621.0,345.8401684828183,36.88
1603019423.4743,78.0,762.5,7544.0,345.8445728067458,36.88
1603019423.4763,78.0,762.5,7462.0,345.85139484817324,36.88
1603019423.4783,78.0,762.5,7385.0,345.8606928653536,36.88
1603019423.4805,78.0,762.5,7298.0,345.8725251165399,36.88
1603019423.4824,78.0,762.5,7207.0,345.8869498599851,36.88
1603019423.4843,78.0,762.5,7135.0,345.9040253539423,36.88
1603019423.4863,78.0,762.5,7082.0,345.9238098566644,36.88
1603019423.4883,78.0,762.5,7019.0,345.9463616264045,36.88
1603019423.4904,78.0,762.5,6954.0,345.9717389214155,36.88
1603019423.4923,78.0,762.5,6891.0,345.99999999995055,36.88
1603019423.4945,78.0,762.5,6833.0,345.99999999995055,36.88
1603019423.4964,78.0,762.5,6790.0,345.99999999995055,36.88
1603019423.4985,78.0,762.5,6723.0,345.99999999995055,36.88
1603019423.5004,78.0,762.5,6612.0,345.99999999995055,36.88
1603019423.5023,78.0,762.5,6540.0,345.99999999995055,36.88
1603019423.5043,78.0,762.5,6489.0,345.99999999995055,36.88
1603019423.5064,78.0,762.5,6397.0,345.99999999995055,36.88
1603019423.5083,78.0,762.5,6308.0,345.99999999995055,36.88
1603019423.5104,78.0,762.5,6231.0,345.99999999995055,36.88
1603019423.5123,78.0,762.5,6142.0,345.99999999995055,36.88
1603019423.5144,78.0,762.5,6053.0,345.99999999995055,36.88
1603019423.5163,78.0,762.5,5952.0,345.99999999995055,36.88
1603019423.5184,78.0,762.5,5846.0,345.99999999995055,36.88
1603019423.5205,78.0,762.5,5769.0,345.99999999995055,36.88
1603019423.5224,78.0,762.5,5708.0,345.99999999995055,36.88
1603019423.5243,78.0,762.5,5631.0,345.99999999995055,36.88
1603019423.5264,78.0,762.5,5559.0,345.99999999995055,36.88
1603019423.5284,78.0,762.5,5499.0,345.99999999995055,36.88
1603019423.5305,78.0,762.5,5410.0,345.99999999995055,36.88
1603019423.5324,78.0,762.5,5323.0,345.99999999995055,36.88
1603019423.5344,78.0,762.5,5280.0,345.99999999995055,36.88
1603019423.5363,78.0,762.5,5253.0,345.99999999995055,36.88
1603019423.958,79.0,753.0,5193.0,345.99999999995055,36.88
1603019423.9592,79.0,753.0,5123.0,345.99999999995055,36.88
1603019423.9618,79.0,753.0,5065.0,345.99999999995055,36.88
1603019423.9643,79.0,753.0,4998.0,345.99999999995055,36.88
1603019423.9663,79.0,753.0,4933.0,345.99999999995055,36.88
1603019423.9683,79.0,753.0,4904.0,345.99999999995055,36.88
1603019423.9706,79.0,753.0,4868.0,345.99999999995055,36.88
1603019423.9723,79.0,753.0,4788.0,345.99999999995055,36.88
1603019423.9743,79.0,753.0,4721.0,345.99999999995055,36.88
1603019423.9765,79.0,753.0,4685.0,345.99999999995055,36.88
1603019423.9783,79.0,753.0,4625.0,345.99999999995055,36.88
1603019423.9803,79.0,753.0,4567.0,345.99999999995055,36.88
1603019423.9823,79.0,753.0,4521.0,345.99999999995055,36.88
1603019423.9843,79.0,753.0,4468.0,345.99999999995055,36.88
1603019423.9863,79.0,753.0,4408.0,345.99999999995055,36.88
1603019423.9883,79.0,753.0,4357.0,345.99999999995055,36.88
1603019423.9903,79.0,753.0,4304.0,345.99999999995055,36.88
1603019423.9923,79.0,753.0,4239.0,345.99999999995055,36.88
1603019423.9944,79.0,753.0,4186.0,345.99999999995055,36.88
1603019423.9963,79.0,753.0,4145.0,345.99999999995055,36.88
1603019423.9983,79.0,753.0,4092.0,345.99999999995055,36.88
1603019424.0003,79.0,753.0,4051.0,345.99999999995055,36.88
1603019424.0023,79.0,753.0,4020.0,345.99999999995055,36.88
1603019424.0043,79.0,753.0,3972.0,345.99999999995055,36.88
1603019424.0063,79.0,753.0,3909.0,345.99999999995055,36.88
1603019424.0083,79.0,753.0,3858.0,345.99999999995055,36.88
1603019424.0104,79.0,753.0,3827.0,345.99999999995055,36.88
1603019424.0122,79.0,753.0,3796.0,345.99999999995055,36.88
1603019424.0142,79.0,753.0,3736.0,345.99999999995055,36.88
1603019424.0162,79.0,753.0,3666.0,345.99999999995055,36.88
1603019424.0183,79.0,753.0,3620.0,345.99999999995055,36.88
1603019424.0202,79.0,753.0,3581.0,345.99999999995055,36.88
1603019424.0222,79.0,753.0,3560.0,345.99999999995055,36.88
1603019424.0242,79.0,753.0,3550.0,345.99999999995055,36.88
1603019424.0263,79.0,753.0,3514.0,345.99999999995055,36.88
1603019424.0282,79.0,753.0,3456.0,345.99999999995055,36.88
1603019424.0303,79.0,753.0,3406.0,345.99999999995055,36.88
1603019424.0322,79.0,753.0,3362.0,345.99999999995055,36.88
1603019424.0342,79.0,753.0,3321.0,345.99999999995055,36.88
1603019424.0362,79.0,753.0,3276.0,345.99999999995055,36.88
1603019424.0382,79.0,753.0,3239.0,345.99999999995055,36.88
1603019424.0402,79.0,753.0,3198.0,345.99999999995055,36.88
1603019424.0423,79.0,753.0,3138.0,345.99999999995055,36.88
1603019424.0442,79.0,753.0,3090.0,345.99999999995055,36.88
1603019424.0462,79.0,753.0,3073.0,345.99999999995055,36.88
1603019424.0482,79.0,753.0,3066.0,345.99999999995055,36.88
1603019424.0503,79.0,753.0,3039.0,345.99999999995055,36.88
1603019424.0522,79.0,753.0,2989.0,345.99999999995055,36.88
1603019424.0542,79.0,753.0,2924.0,345.99999999995055,36.88
1603019424.0563,79.0,753.0,2926.0,345.99999999995055,36.88
1603019424.0583,79.0,753.0,3097.0,345.99999999995055,36.88
1603019424.0603,79.0,753.0,3280.0,345.99999999995055,36.88
1603019424.0622,79.0,753.0,3049.0,345.99999999995055,36.88
1603019424.0642,79.0,753.0,2507.0,345.99999999995055,36.88
1603019424.0663,79.0,753.0,2404.0,345.99999999995055,36.88
1603019424.0682,79.0,753.0,2697.0,345.99999999995055,36.88
1603019424.0702,79.0,753.0,2717.0,345.99999999995055,36.88
1603019424.0724,79.0,753.0,2582.0,345.99999999995055,36.88
1603019424.0742,79.0,753.0,2616.0,345.99999999995055,36.88
1603019424.0763,79.0,753.0,2625.0,345.99999999995055,36.88
1603019424.0782,79.0,753.0,2541.0,345.99999999995055,36.88
1603019424.0802,79.0,753.0,2505.0,345.99999999995055,36.88
1603019424.0822,79.0,753.0,2522.0,345.99999999995055,36.88
1603019424.0842,79.0,753.0,2505.0,345.99999999995055,36.88
1603019424.0862,79.0,753.0,2454.0,345.99999999995055,36.88
1603019424.0882,79.0,753.0,2406.0,345.99999999995055,36.88
1603019424.0902,79.0,753.0,2379.0,345.99999999995055,36.88
1603019424.0923,79.0,753.0,2370.0,345.99999999995055,36.88
1603019424.0942,79.0,753.0,2351.0,345.99999999995055,36.88
1603019424.0962,79.0,753.0,2324.0,345.99999999995055,36.88
1603019424.0982,79.0,753.0,2305.0,345.99999999995055,36.88
1603019424.1002,79.0,753.0,2293.0,345.99999999995055,36.88
1603019424.1022,79.0,753.0,2269.0,345.99999999995055,36.88
1603019424.4971,79.0,753.0,2247.0,345.99999999995055,36.88
1603019424.4979,79.0,753.0,2235.0,345.99999999995055,36.88
1603019424.5004,79.0,753.0,2208.0,345.99999999995055,36.88
1603019424.503,79.0,753.0,2184.0,345.99999999995055,36.88
1603019424.5051,79.0,753.0,2180.0,345.99999999995055,36.88
1603019424.507,79.0,753.0,2177.0,345.99999999995055,36.88
1603019424.5091,79.0,753.0,2163.0,345.99999999995055,36.88
1603019424.511,79.0,753.0,2134.0,345.99999999995055,36.88
1603019424.5129,79.0,753.0,2117.0,345.99999999995055,36.88
1603019424.5149,79.0,753.0,2105.0,345.99999999995055,36.88
1603019424.517,79.0,753.0,2071.0,345.99999999995055,36.88
1603019424.519,79.0,753.0,2030.0,345.99999999995055,36.88
1603019424.521,79.0,753.0,2001.0,345.99999999995055,36.88
1603019424.523,79.0,753.0,1970.0,345.99999999995055,36.88
1603019424.5249,79.0,753.0,1929.0,345.99999999995055,36.88
1603019424.5269,79.0,753.0,1883.0,345.99999999995055,36.88
1603019424.529,79.0,753.0,1842.0,345.99999999995055,36.88
1603019424.531,79.0,753.0,1813.0,345.99999999995055,36.88
1603019424.5329,79.0,753.0,1763.0,345.99999999995055,36.88
1603019424.5349,79.0,753.0,1707.0,345.99999999995055,36.88
1603019424.537,79.0,753.0,1683.0,345.99999999995055,36.88
1603019424.5389,79.0,753.0,1664.0,345.99999999995055,36.88
1603019424.541,79.0,753.0,1630.0,345.99999999995055,36.88
1603019424.5429,79.0,753.0,1609.0,345.98586946068303,36.88
1603019424.5449,79.0,753.0,1601.0,345.9731808131775,36.88
1603019424.5469,79.0,753.0,1585.0,345.9619049283075,36.88
1603019424.5489,79.0,753.0,1551.0,345.9520126769464,36.88
1603019424.5509,79.0,753.0,1519.0,345.9434749299678,36.88
1603019424.553,79.0,753.0,1507.0,345.93626255824523,36.88
1603019424.555,79.0,753.0,1510.0,345.9303464326521,36.88
1603019424.5569,79.0,753.0,1495.0,345.9256974240619,36.88
1603019424.5589,79.0,753.0,1469.0,345.9222864033482,36.88
1603019424.561,79.0,753.0,1442.0,345.9200842413844,36.88
1603019424.5629,79.0,753.0,1438.0,345.9190618090441,36.88
1603019424.5649,79.0,753.0,1442.0,345.9191899772007,36.88
1603019424.5671,79.0,753.0,1418.0,345.9204396167278,36.88
1603019424.569,79.0,753.0,1399.0,345.9227815984988,36.88
1603019424.571,79.0,753.0,1399.0,345.92618679338716,36.88
1603019424.573,79.0,753.0,1387.0,345.93062607226653,36.88
1603019424.5749,79.0,753.0,1365.0,345.93607030601027,36.88
1603019424.5769,79.0,753.0,1341.0,345.94249036549195,36.88
1603019424.5789,79.0,753.0,1322.0,345.94985712158507,36.88
1603019424.581,79.0,753.0,1332.0,345.95814144516305,36.88
1603019424.5829,79.0,753.0,1327.0,345.96731420709943,36.88
1603019424.5849,79.0,753.0,1286.0,345.9773462782677,36.88
1603019424.587,79.0,753.0,1264.0,345.98820852954134,36.88
1603019424.5889,79.0,753.0,1274.0,345.99987183179394,36.88
1603019424.591,79.0,753.0,1262.0,346.0123070558989,36.88
1603019424.5929,79.0,753.0,1245.0,346.0254850727297,36.88
1603019424.5949,79.0,753.0,1255.0,346.03937675315984,36.88
1603019424.5969,79.0,753.0,1238.0,346.0539529680629,36.88
1603019424.5989,79.0,753.0,1185.0,346.0691845883123,36.88
1603019424.6009,79.0,753.0,1158.0,346.0850424847815,36.88
1603019424.603,79.0,753.0,1173.0,346.10149752834417,36.88
1603019424.6049,79.0,753.0,1177.0,346.1185205898736,36.88
1603019424.6069,79.0,753.0,1158.0,346.13608254024336,36.88
1603019424.6089,79.0,753.0,1144.0,346.154154250327,36.88
1603019424.611,79.0,753.0,1151.0,346.17270659099796,36.88
1603019424.6129,79.0,753.0,1139.0,346.19171043312974,36.88
1603019424.6149,79.0,753.0,1110.0,346.2111366475958,36.88
1603019424.6169,79.0,753.0,1108.0,346.23095610526974,36.88
1603019424.6189,79.0,753.0,1108.0,346.251139677025,36.88
1603019424.621,79.0,753.0,1083.0,346.27165823373497,36.88
1603019424.623,79.0,753.0,1062.0,346.2924826462733,36.88
1603019424.6249,79.0,753.0,1059.0,346.31358378551346,36.88
1603019424.6269,79.0,753.0,1064.0,346.33493252232887,36.88
1603019424.6289,79.0,753.0,1059.0,346.3564997275931,36.88
1603019424.6309,79.0,753.0,1057.0,346.37825627217956,36.88
1603019424.6329,79.0,753.0,1055.0,346.4001730269618,36.88
1603019424.635,79.0,753.0,1030.0,346.42222086281333,36.88
1603019424.637,79.0,753.0,1014.0,346.4443706506076,36.88
1603019424.6389,79.0,753.0,1002.0,346.4665932612182,36.88
1603019424.641,79.0,753.0,973.0,346.4888595655185,36.88
1603019425.0379,79.0,751.0,961.0,346.5111404343821,36.88
1603019425.0387,79.0,751.0,977.0,346.53340673868246,36.88
1603019425.0412,79.0,751.0,970.0,346.55562934929304,36.88
1603019425.0438,79.0,751.0,934.0,346.57777913708736,36.88
1603019425.0458,79.0,751.0,925.0,346.5998269729389,36.88
1603019425.048,79.0,751.0,934.0,346.62174372772114,36.88
1603019425.0499,79.0,751.0,917.0,346.6435002723077,36.88
1603019425.0517,79.0,751.0,886.0,346.6650674775719,36.88
1603019425.0537,79.0,751.0,867.0,346.6864162143873,36.88
1603019425.0557,79.0,751.0,929.0,346.70751735362745,36.88
1603019425.0577,79.0,751.0,1134.0,346.7283417661658,36.88
1603019425.0597,79.0,751.0,1291.0,346.7488603228758,36.88
1603019425.0617,79.0,751.0,1021.0,346.769043894631,36.88
1603019425.0639,79.0,751.0,549.0,346.78886335230493,36.88
1603019425.0658,79.0,751.0,570.0,346.80828956677107,36.88
1603019425.0677,79.0,751.0,879.0,346.82729340890285,36.88
1603019425.0697,79.0,751.0,867.0,346.8458457495738,36.88
1603019425.0718,79.0,751.0,753.0,346.86391745965744,36.88
1603019425.0737,79.0,751.0,797.0,346.8814794100272,36.88
1603019425.0757,79.0,751.0,811.0,346.8985024715567,36.88
1603019425.0777,79.0,751.0,773.0,346.9149575151193,36.88
1603019425.0797,79.0,751.0,773.0,346.9308154115885,36.88
1603019425.0818,79.0,751.0,782.0,346.94604703183796,36.88
1603019425.0837,79.0,751.0,787.0,346.96062324674097,36.88
1603019425.0857,79.0,751.0,794.0,346.9745149271712,36.88
1603019425.0877,79.0,751.0,787.0,346.987692944002,36.88
1603019425.0897,79.0,751.0,768.0,347.0001281681069,36.88
1603019425.0918,79.0,751.0,766.0,347.01179147035947,36.88
1603019425.0937,79.0,751.0,770.0,347.0226537216331,36.88
1603019425.0957,79.0,751.0,766.0,347.03268579280143,36.88
1603019425.0978,79.0,751.0,761.0,347.0418585547378,36.88
1603019425.0997,79.0,751.0,766.0,347.0501428783158,36.88
1603019425.1018,79.0,751.0,761.0,347.05750963440886,36.88
1603019425.1037,79.0,751.0,744.0,347.06392969389054,36.88
1603019425.1057,79.0,751.0,739.0,347.06937392763433,36.88
1603019425.1077,79.0,751.0,753.0,347.07381320651365,36.88
1603019425.1097,79.0,751.0,751.0,347.0772184014021,36.88
1603019425.1117,79.0,751.0,741.0,347.0795603831731,36.88
1603019425.1137,79.0,751.0,753.0,347.0808100227001,36.88
1603019425.1158,79.0,751.0,746.0,347.0809381908567,36.88
1603019425.1177,79.0,751.0,732.0,347.07991575851645,36.88
1603019425.1197,79.0,751.0,766.0,347.07771359655266,36.88
1603019425.1217,79.0,751.0,790.0,347.07430257583894,36.88
1603019425.1237,79.0,751.0,761.0,347.06965356724874,36.88
1603019425.1257,79.0,751.0,744.0,347.06373744165563,36.88
1603019425.1277,79.0,751.0,763.0,347.056525069933,36.88
1603019425.1297,79.0,751.0,746.0,347.04798732295444,36.88
1603019425.1318,79.0,751.0,686.0,347.0380950715934,36.88
1603019425.1337,79.0,751.0,647.0,347.02681918672334,36.88
1603019425.1357,79.0,751.0,638.0,347.01413053921783,36.88
1603019425.1377,79.0,751.0,616.0,346.9999999999503,36.88
1603019425.1397,79.0,751.0,582.0,346.9999999999503,36.88
1603019425.1418,79.0,751.0,570.0,346.9999999999503,36.88
1603019425.1437,79.0,751.0,561.0,346.9999999999503,36.88
1603019425.1457,79.0,751.0,522.0,346.9999999999503,36.88
1603019425.1478,79.0,751.0,498.0,346.9999999999503,36.88
1603019425.1497,79.0,751.0,515.0,346.9999999999503,36.88
1603019425.1518,79.0,751.0,527.0,346.9999999999503,36.88
1603019425.1537,79.0,751.0,517.0,346.9999999999503,36.88
1603019425.1557,79.0,751.0,515.0,346.9999999999503,36.88
1603019425.1577,79.0,751.0,508.0,346.9999999999503,36.88
1603019425.1597,79.0,751.0,486.0,346.9999999999503,36.88
1603019425.1617,79.0,751.0,484.0,346.9999999999503,36.88
1603019425.1638,79.0,751.0,498.0,346.9999999999503,36.88
1603019425.1659,79.0,751.0,501.0,346.9999999999503,36.88
1603019425.1677,79.0,751.0,488.0,346.9999999999503,36.88
1603019425.1697,79.0,751.0,476.0,346.9999999999503,36.88
1603019425.1717,79.0,751.0,484.0,346.9999999999503,36.88
1603019425.1737,79.0,751.0,503.0,346.9999999999503,36.88
1603019425.1757,79.0,751.0,515.0,346.9999999999503,36.88
1603019425.1777,79.0,751.0,496.0,346.9999999999503,36.88
1603019425.1797,79.0,751.0,460.0,346.9999999999503,36.88
1603019425.1818,79.0,751.0,462.0,346.9999999999503,36.88
1603019425.6074,79.0,751.0,479.0,346.9999999999503,36.88
1603019425.6081,79.0,751.0,479.0,346.9999999999503,36.88
1603019425.6107,79.0,751.0,474.0,346.9999999999503,36.88
1603019425.6132,79.0,751.0,467.0,346.9999999999503,36.88
1603019425.6152,79.0,751.0,455.0,346.9999999999503,36.88
1603019425.6172,79.0,751.0,450.0,346.9999999999503,36.88
1603019425.6192,79.0,751.0,448.0,346.9999999999503,36.88
1603019425.6212,79.0,751.0,433.0,346.9999999999503,36.88
1603019425.6231,79.0,751.0,428.0,346.9999999999503,36.88
1603019425.6251,79.0,751.0,433.0,346.9999999999503,36.88
1603019425.6272,79.0,751.0,431.0,346.9999999999503,36.88
1603019425.6292,79.0,751.0,421.0,346.9999999999503,36.88
1603019425.6312,79.0,751.0,414.0,346.9999999999503,36.88
1603019425.6331,79.0,751.0,419.0,346.9999999999503,36.88
1603019425.6351,79.0,751.0,431.0,346.9999999999503,36.88
1603019425.6371,79.0,751.0,423.0,346.9999999999503,36.88
1603019425.6391,79.0,751.0,409.0,346.9999999999503,36.88
1603019425.6412,79.0,751.0,404.0,346.9999999999503,36.88
1603019425.6432,79.0,751.0,407.0,346.9999999999503,36.88
1603019425.6451,79.0,751.0,414.0,346.9999999999503,36.88
1603019425.6471,79.0,751.0,419.0,346.9999999999503,36.88
1603019425.6491,79.0,751.0,404.0,346.9999999999503,36.88
1603019425.6512,79.0,751.0,395.0,346.9999999999503,36.88
1603019425.6531,79.0,751.0,404.0,346.9999999999503,36.88
1603019425.6551,79.0,751.0,411.0,346.9999999999503,36.88
1603019425.6571,79.0,751.0,404.0,346.9999999999503,36.88
1603019425.6593,79.0,751.0,402.0,346.9999999999503,36.88
1603019425.6613,79.0,751.0,419.0,346.9999999999503,36.88
1603019425.6632,79.0,751.0,428.0,346.9999999999503,36.88
1603019425.6651,79.0,751.0,404.0,346.9999999999503,36.88
1603019425.6672,79.0,751.0,378.0,346.9999999999503,36.88
1603019425.6692,79.0,751.0,383.0,346.9999999999503,36.88
1603019425.6712,79.0,751.0,392.0,346.9999999999503,36.88
1603019425.6731,79.0,751.0,383.0,346.9999999999503,36.88
1603019425.6752,79.0,751.0,373.0,346.9999999999503,36.88
1603019425.6772,79.0,751.0,368.0,346.9999999999503,36.88
1603019425.6791,79.0,751.0,366.0,346.9999999999503,36.88
1603019425.6811,79.0,751.0,358.0,346.9999999999503,36.88
1603019425.6831,79.0,751.0,356.0,346.9999999999503,36.88
1603019425.6851,79.0,751.0,370.0,346.9999999999503,36.88
1603019425.6871,79.0,751.0,373.0,346.9999999999503,36.88
1603019425.6892,79.0,751.0,339.0,346.9999999999503,36.88
1603019425.6914,79.0,751.0,303.0,346.9999999999503,36.88
1603019425.6932,79.0,751.0,375.0,346.9999999999503,36.88
1603019425.6952,79.0,751.0,609.0,346.9999999999503,36.88
1603019425.6972,79.0,751.0,794.0,346.9999999999503,36.88
1603019425.6991,79.0,751.0,556.0,346.9999999999503,36.88
1603019425.7012,79.0,751.0,67.0,346.9999999999503,36.88
1603019425.7031,79.0,751.0,21.0,346.9999999999503,36.88
1603019425.7052,79.0,751.0,330.0,346.9999999999503,36.88
1603019425.7072,79.0,751.0,380.0,346.9999999999503,36.88
1603019425.7092,79.0,751.0,284.0,346.9999999999503,36.88
1603019425.7112,79.0,751.0,310.0,346.9999999999503,36.88
1603019425.7131,79.0,751.0,346.0,346.9999999999503,36.88
1603019425.7151,79.0,751.0,344.0,346.9999999999503,36.88
1603019425.7172,79.0,751.0,339.0,346.9999999999503,36.88
1603019425.7192,79.0,751.0,334.0,346.9999999999503,36.88
1603019425.7213,79.0,751.0,337.0,346.9999999999503,36.88
1603019425.7231,79.0,751.0,330.0,346.9999999999503,36.88
1603019425.7252,79.0,751.0,320.0,346.9999999999503,36.88
1603019425.7271,79.0,751.0,332.0,346.9999999999503,36.88
1603019425.7292,79.0,751.0,334.0,346.9999999999503,36.88
1603019425.7312,79.0,751.0,322.0,346.9999999999503,36.88
1603019425.7331,79.0,751.0,327.0,346.9999999999503,36.88
1603019425.7351,79.0,751.0,317.0,346.9999999999503,36.88
1603019425.7372,79.0,751.0,303.0,346.9999999999503,36.88
1603019425.7391,79.0,751.0,337.0,346.9999999999503,36.88
1603019425.7413,79.0,751.0,373.0,346.9999999999503,36.88
1603019425.7431,79.0,751.0,363.0,346.9999999999503,36.88
1603019425.7451,79.0,751.0,356.0,346.9999999999503,36.88
1603019425.7471,79.0,751.0,375.0,346.9999999999503,36.88
1603019425.7491,79.0,751.0,370.0,346.9999999999503,36.88
1603019425.7512,79.0,751.0,351.0,346.9999999999503,36.88
1603019426.2079,79.0,1562.0,370.0,346.9999999999503,36.88
1603019426.2088,79.0,1562.0,392.0,346.9999999999503,36.88
1603019426.2113,79.0,1562.0,375.0,346.9999999999503,36.88
1603019426.2138,79.0,1562.0,375.0,346.9999999999503,36.88
1603019426.2158,79.0,1562.0,387.0,346.9999999999503,36.88
1603019426.2178,79.0,1562.0,366.0,346.9999999999503,36.88
1603019426.22,79.0,1562.0,342.0,346.9999999999503,36.88
1603019426.2218,79.0,1562.0,342.0,346.9999999999503,36.88
1603019426.2238,79.0,1562.0,322.0,346.9999999999503,36.88
1603019426.2258,79.0,1562.0,289.0,346.9999999999503,36.88
1603019426.2278,79.0,1562.0,274.0,346.9999999999503,36.88
1603019426.2298,79.0,1562.0,257.0,346.9999999999503,36.88
1603019426.2318,79.0,1562.0,228.0,346.9999999999503,36.88
1603019426.2338,79.0,1562.0,221.0,346.9999999999503,36.88
1603019426.2358,79.0,1562.0,224.0,346.9999999999503,36.88
1603019426.2379,79.0,1562.0,216.0,346.9999999999503,36.88
1603019426.2397,79.0,1562.0,202.0,346.9999999999503,36.88
1603019426.2418,79.0,1562.0,202.0,346.9999999999503,36.88
1603019426.2438,79.0,1562.0,207.0,346.9999999999503,36.88
1603019426.2458,79.0,1562.0,204.0,346.9999999999503,36.88
1603019426.2479,79.0,1562.0,197.0,346.9999999999503,36.88
1603019426.2499,79.0,1562.0,197.0,346.9999999999503,36.88
1603019426.2518,79.0,1562.0,204.0,346.9999999999503,36.88
1603019426.2539,79.0,1562.0,202.0,347.04239161775286,36.88
1603019426.2558,79.0,1562.0,195.0,347.08045756026945,36.88
1603019426.2578,79.0,1562.0,207.0,347.11428521487954,36.88
1603019426.2598,79.0,1562.0,219.0,347.14396196896274,36.88
1603019426.2618,79.0,1562.0,216.0,347.1695752098985,36.88
1603019426.2638,79.0,1562.0,221.0,347.19121232506626,36.88
1603019426.2657,79.0,1562.0,236.0,347.2089607018457,36.88
1603019426.2678,79.0,1562.0,226.0,347.22290772761625,36.88
1603019426.2699,79.0,1562.0,219.0,347.2331407897574,36.88
1603019426.2717,79.0,1562.0,228.0,347.2397472756487,36.88
1603019426.2738,79.0,1562.0,231.0,347.24281457266966,36.88
1603019426.2758,79.0,1562.0,221.0,347.24243006819984,36.88
1603019426.2778,79.0,1562.0,238.0,347.2386811496186,36.88
1603019426.2798,79.0,1562.0,257.0,347.2316552043057,36.88
1603019426.2818,79.0,1562.0,233.0,347.2214396196404,36.88
1603019426.2838,79.0,1562.0,209.0,347.20812178300235,36.88
1603019426.2858,79.0,1562.0,211.0,347.1917890817711,36.88
1603019426.2878,79.0,1562.0,228.0,347.17252890332605,36.88
1603019426.2897,79.0,1562.0,236.0,347.1504286350468,36.88
1603019426.2918,79.0,1562.0,209.0,347.12557566431286,36.88
1603019426.2938,79.0,1562.0,197.0,347.0980573785037,36.88
1603019426.2958,79.0,1562.0,216.0,347.06796116499885,36.88
1603019426.2978,79.0,1562.0,228.0,347.0353744111778,36.88
1603019426.2997,79.0,1562.0,228.0,347.0003845044202,36.88
1603019426.3018,79.0,1562.0,224.0,346.9630788321054,36.88
1603019426.3038,79.0,1562.0,221.0,346.923544781613,36.88
1603019426.3057,79.0,1562.0,238.0,346.88186974032243,36.88
1603019426.3078,79.0,1562.0,233.0,346.8381410956133,36.88
1603019426.3097,79.0,1562.0,199.0,346.7924462348651,36.88
1603019426.3118,79.0,1562.0,197.0,346.7448725454573,36.88
1603019426.3138,79.0,1562.0,216.0,346.6955074147695,36.88
1603019426.3158,79.0,1562.0,216.0,346.64443823018115,36.88
1603019426.3177,79.0,1562.0,207.0,346.59175237907175,36.88
1603019426.3199,79.0,1562.0,195.0,346.5375372488209,36.88
1603019426.3218,79.0,1562.0,195.0,346.481880226808,36.88
1603019426.3238,79.0,1562.0,211.0,346.4248687004127,36.88
1603019426.3258,79.0,1562.0,216.0,346.3665900570144,36.88
1603019426.3278,79.0,1562.0,228.0,346.3071316839926,36.88
1603019426.3298,79.0,1562.0,245.0,346.2465809687269,36.88
1603019426.3318,79.0,1562.0,236.0,346.1850252985968,36.88
1603019426.3338,79.0,1562.0,221.0,346.1225520609818,36.88
1603019426.3359,79.0,1562.0,228.0,346.0592486432614,36.88
1603019426.3378,79.0,1562.0,226.0,345.9952024328151,36.88
1603019426.3397,79.0,1562.0,211.0,345.9305008170225,36.88
1603019426.3418,79.0,1562.0,209.0,345.865231183263,36.88
1603019426.3438,79.0,1562.0,209.0,345.7994809189162,36.88
1603019426.3458,79.0,1562.0,199.0,345.73333741136156,36.88
1603019426.3478,79.0,1562.0,195.0,345.66688804797866,36.88
1603019426.35,79.0,1562.0,195.0,345.6002202161469,36.88
1603019426.3518,79.0,1562.0,202.0,345.5334213032459,36.88
1603019426.7481,79.0,833.0,199.0,345.4665786966552,36.88
1603019426.7487,79.0,833.0,178.0,345.3997797837542,36.88
1603019426.7504,79.0,833.0,178.0,345.3331119519225,36.88
1603019426.7524,79.0,833.0,252.0,345.26666258853953,36.88
1603019426.7543,79.0,833.0,452.0,345.2005190809849,36.88
1603019426.7565,79.0,833.0,633.0,345.13476881663814,36.88
1603019426.7584,79.0,833.0,428.0,345.06949918287864,36.88
1603019426.7604,79.0,833.0,-86.0,345.00479756708603,36.88
1603019426.7624,79.0,833.0,-199.0,344.94075135663974,36.88
1603019426.7644,79.0,833.0,134.0,344.8774479389194,36.88
1603019426.7663,79.0,833.0,240.0,344.8149747013044,36.88
1603019426.7684,79.0,833.0,137.0,344.75341903117425,36.88
1603019426.7704,79.0,833.0,178.0,344.6928683159086,36.88
1603019426.7723,79.0,833.0,226.0,344.6334099428868,36.88
1603019426.7743,79.0,833.0,190.0,344.5751312994885,36.88
1603019426.7763,79.0,833.0,185.0,344.51811977309313,36.88
1603019426.7784,79.0,833.0,211.0,344.46246275108024,36.88
1603019426.7805,79.0,833.0,219.0,344.40824762082934,36.88
1603019426.7824,79.0,833.0,216.0,344.35556176972,36.88
1603019426.7843,79.0,833.0,224.0,344.30449258513164,36.88
1603019426.7863,79.0,833.0,228.0,344.2551274544438,36.88
1603019426.7883,79.0,833.0,226.0,344.20755376503604,36.88
1603019426.7904,79.0,833.0,221.0,344.16185890428784,36.88
1603019426.7923,79.0,833.0,221.0,344.1181302595787,36.88
1603019426.7944,79.0,833.0,226.0,344.0764552182882,36.88
1603019426.7963,79.0,833.0,238.0,344.03692116779575,36.88
1603019426.7985,79.0,833.0,243.0,343.99961549548095,36.88
1603019426.8004,79.0,833.0,240.0,343.96462558872327,36.88
1603019426.8023,79.0,833.0,248.0,343.9320388349023,36.88
1603019426.8043,79.0,833.0,262.0,343.90194262139744,36.88
1603019426.8064,79.0,833.0,267.0,343.8744243355883,36.88
1603019426.8083,79.0,833.0,267.0,343.84957136485434,36.88
1603019426.8103,79.0,833.0,281.0,343.82747109657504,36.88
1603019426.8123,79.0,833.0,301.0,343.80821091813004,36.88
1603019426.8144,79.0,833.0,317.0,343.79187821689874,36.88
1603019426.8163,79.0,833.0,317.0,343.7785603802607,36.88
1603019426.8183,79.0,833.0,320.0,343.76834479559545,36.88
1603019426.8203,79.0,833.0,330.0,343.76131885028246,36.88
1603019426.8223,79.0,833.0,310.0,343.7575699317013,36.88
1603019426.8243,79.0,833.0,301.0,343.75718542723143,36.88
1603019426.8263,79.0,833.0,308.0,343.7602527242524,36.88
1603019426.8283,79.0,833.0,293.0,343.7668592101437,36.88
1603019426.8305,79.0,833.0,252.0,343.77709227228485,36.88
1603019426.8323,79.0,833.0,219.0,343.7910392980554,36.88
1603019426.8343,79.0,833.0,195.0,343.80878767483483,36.88
1603019426.8363,79.0,833.0,175.0,343.83042479000267,36.88
1603019426.8383,79.0,833.0,158.0,343.8560380309384,36.88
1603019426.8403,79.0,833.0,146.0,343.88571478502155,36.88
1603019426.8423,79.0,833.0,134.0,343.9195424396317,36.88
1603019426.8445,79.0,833.0,130.0,343.95760838214824,36.88
1603019426.8464,79.0,833.0,127.0,343.99999999995083,36.88
1603019426.8484,79.0,833.0,125.0,343.99999999995083,36.88
1603019426.8504,79.0,833.0,120.0,343.99999999995083,36.88
1603019426.8523,79.0,833.0,130.0,343.99999999995083,36.88
1603019426.8543,79.0,833.0,146.0,343.99999999995083,36.88
1603019426.8564,79.0,833.0,151.0,343.99999999995083,36.88
1603019426.8583,79.0,833.0,139.0,343.99999999995083,36.88
1603019426.8604,79.0,833.0,132.0,343.99999999995083,36.88
1603019426.8623,79.0,833.0,142.0,343.99999999995083,36.88
1603019426.8644,79.0,833.0,158.0,343.99999999995083,36.88
1603019426.8664,79.0,833.0,168.0,343.99999999995083,36.88
1603019426.8684,79.0,833.0,168.0,343.99999999995083,36.88
1603019426.8704,79.0,833.0,163.0,343.99999999995083,36.88
1603019426.8724,79.0,833.0,163.0,343.99999999995083,36.88
1603019426.8743,79.0,833.0,168.0,343.99999999995083,36.88
1603019426.8763,79.0,833.0,168.0,343.99999999995083,36.88
1603019426.8783,79.0,833.0,166.0,343.99999999995083,36.88
1603019426.8805,79.0,833.0,163.0,343.99999999995083,36.88
1603019426.8823,79.0,833.0,161.0,343.99999999995083,36.88
1603019426.8843,79.0,833.0,163.0,343.99999999995083,36.88
1603019426.8863,79.0,833.0,168.0,343.99999999995083,36.88
1603019426.8883,79.0,833.0,156.0,343.99999999995083,36.88
1603019426.8904,79.0,833.0,149.0,343.99999999995083,36.88
1603019427.3178,79.0,833.0,154.0,343.99999999995083,36.88
1603019427.3187,79.0,833.0,161.0,343.99999999995083,36.88
1603019427.3211,79.0,833.0,163.0,343.99999999995083,36.88
1603019427.3238,79.0,833.0,168.0,343.99999999995083,36.88
1603019427.3258,79.0,833.0,168.0,343.99999999995083,36.88
1603019427.3278,79.0,833.0,171.0,343.99999999995083,36.88
1603019427.3299,79.0,833.0,168.0,343.99999999995083,36.88
1603019427.3317,79.0,833.0,156.0,343.99999999995083,36.88
1603019427.3337,79.0,833.0,139.0,343.99999999995083,36.88
1603019427.3357,79.0,833.0,139.0,343.99999999995083,36.88
1603019427.3378,79.0,833.0,149.0,343.99999999995083,36.88
1603019427.3398,79.0,833.0,151.0,343.99999999995083,36.88
1603019427.3418,79.0,833.0,151.0,343.99999999995083,36.88
1603019427.3438,79.0,833.0,146.0,343.99999999995083,36.88
1603019427.3444,79.0,833.0,149.0,343.99999999995083,36.88
1603019427.3467,79.0,833.0,154.0,343.99999999995083,36.88
1603019427.3487,79.0,833.0,156.0,343.99999999995083,36.88
1603019427.3507,79.0,833.0,163.0,343.99999999995083,36.88
1603019427.3526,79.0,833.0,175.0,343.99999999995083,36.88
1603019427.3547,79.0,833.0,183.0,343.99999999995083,36.88
1603019427.3567,79.0,833.0,180.0,343.99999999995083,36.88
1603019427.3588,79.0,833.0,168.0,343.99999999995083,36.88
1603019427.3607,79.0,833.0,166.0,343.99999999995083,36.88
1603019427.3627,79.0,833.0,168.0,344.16956647116103,36.88
1603019427.3647,79.0,833.0,168.0,344.3218302412273,36.88
1603019427.3667,79.0,833.0,166.0,344.4571408596678,36.88
1603019427.3687,79.0,833.0,161.0,344.57584787600047,36.88
1603019427.3709,79.0,833.0,154.0,344.67830083974343,36.88
1603019427.3727,79.0,833.0,156.0,344.7648493004147,36.88
1603019427.3748,79.0,833.0,158.0,344.8358428075324,36.88
1603019427.3754,79.0,833.0,161.0,344.89163091061454,36.88
1603019427.3767,79.0,833.0,149.0,344.9325631591792,36.88
1603019427.3787,79.0,833.0,168.0,344.95898910274445,36.88
1603019427.3807,79.0,833.0,349.0,344.9712582908283,36.88
1603019427.3827,79.0,833.0,580.0,344.96972027294885,36.88
1603019427.3847,79.0,833.0,440.0,344.9547245986241,36.88
1603019427.3867,79.0,833.0,-79.0,344.9266208173722,36.88
1603019427.3887,79.0,833.0,-250.0,344.8857584787112,36.88
1603019427.3907,79.0,833.0,93.0,344.8324871321591,36.88
1603019427.3927,79.0,833.0,226.0,344.7671563272339,36.88
1603019427.3947,79.0,833.0,105.0,344.6901156134538,36.88
1603019427.3967,79.0,833.0,144.0,344.6017145403368,36.88
1603019427.3987,79.0,833.0,207.0,344.50230265740095,36.88
1603019427.4007,79.0,833.0,163.0,344.39222951416434,36.88
1603019427.4027,79.0,833.0,154.0,344.27184466014495,36.88
1603019427.4046,79.0,833.0,173.0,344.1414976448609,36.88
1603019427.4054,79.0,833.0,168.0,344.0015380178303,36.88
1603019427.4078,79.0,833.0,180.0,343.8523153285711,36.88
1603019427.4097,79.0,833.0,204.0,343.6941791266014,36.88
1603019427.4118,79.0,833.0,185.0,343.5274789614393,36.88
1603019427.4137,79.0,833.0,168.0,343.3525643826028,36.88
1603019427.4157,79.0,833.0,183.0,343.16978493960994,36.88
1603019427.4177,79.0,833.0,185.0,342.97949018197886,36.88
1603019427.4197,79.0,833.0,175.0,342.7820296592276,36.88
1603019427.4217,79.0,833.0,192.0,342.57775292087416,36.88
1603019427.4237,79.0,833.0,211.0,342.36700951643667,36.88
1603019427.4257,79.0,833.0,202.0,342.15014899543314,36.88
1603019427.4277,79.0,833.0,192.0,341.9275209073817,36.88
1603019427.4297,79.0,833.0,211.0,341.69947480180025,36.88
1603019427.4317,79.0,833.0,221.0,341.466360228207,36.88
1603019427.4337,79.0,833.0,228.0,341.22852673612,36.88
1603019427.4357,79.0,833.0,245.0,340.9863238750572,36.88
1603019427.4364,79.0,833.0,257.0,340.7401011945368,36.88
1603019427.4389,79.0,833.0,257.0,340.4902082440767,36.88
1603019427.4408,79.0,833.0,260.0,340.2369945731951,36.88
1603019427.4427,79.0,833.0,257.0,339.98080973141,36.88
1603019427.4447,79.0,833.0,267.0,339.7220032682394,36.88
1603019427.4467,79.0,833.0,272.0,339.46092473320147,36.88
1603019427.4487,79.0,833.0,260.0,339.1979236758142,36.88
1603019427.4508,79.0,833.0,240.0,338.9333496455956,36.88
1603019427.4526,79.0,833.0,231.0,338.6675521920639,36.88
1603019427.4546,79.0,833.0,214.0,338.400880864737,36.88
1603019427.4567,79.0,833.0,190.0,338.13368521313305,36.88
1603019427.8574,79.0,843.0,173.0,337.8663147867701,36.88
1603019427.8581,79.0,843.0,156.0,337.5991191351661,36.88
1603019427.8597,79.0,843.0,139.0,337.33244780783923,36.88
1603019427.8621,79.0,843.0,127.0,337.0666503543075,36.88
1603019427.8641,79.0,843.0,110.0,336.802076324089,36.88
1603019427.8665,79.0,843.0,101.0,336.53907526670173,36.88
1603019427.8682,79.0,843.0,108.0,336.2779967316638,36.88
1603019427.8702,79.0,843.0,108.0,336.0191902684933,36.88
1603019427.8721,79.0,843.0,96.0,335.76300542670816,36.88
1603019427.874,79.0,843.0,89.0,335.50979175582654,36.88
1603019427.8761,79.0,843.0,101.0,335.25989880536645,36.88
1603019427.8781,79.0,843.0,113.0,335.01367612484603,36.88
1603019427.8801,79.0,843.0,101.0,334.77147326378326,36.88
1603019427.8822,79.0,843.0,103.0,334.5336397716962,36.88
1603019427.8841,79.0,843.0,127.0,334.30052519810295,36.88
1603019427.8862,79.0,843.0,122.0,334.0724790925215,36.88
1603019427.8881,79.0,843.0,120.0,333.84985100447005,36.88
1603019427.89,79.0,843.0,127.0,333.63299048346653,36.88
1603019427.8908,79.0,843.0,127.0,333.42224707902903,36.88
1603019427.8921,79.0,843.0,130.0,333.2179703406756,36.88
1603019427.8941,79.0,843.0,142.0,333.02050981792434,36.88
1603019427.896,79.0,843.0,137.0,332.83021506029326,36.88
1603019427.8981,79.0,843.0,139.0,332.64743561730046,36.88
1603019427.9001,79.0,843.0,146.0,332.71274020601174,36.88
1603019427.9021,79.0,843.0,134.0,332.76174704844357,36.88
1603019427.9041,79.0,843.0,118.0,332.7953008892645,36.88
1603019427.9061,79.0,843.0,118.0,332.81424647314327,36.88
1603019427.9081,79.0,843.0,130.0,332.8194285447485,36.88
1603019427.9101,79.0,843.0,134.0,332.8116918487488,36.88
1603019427.9121,79.0,843.0,130.0,332.79188112981285,36.88
1603019427.9141,79.0,843.0,137.0,332.76084113260924,36.88
1603019427.9161,79.0,843.0,146.0,332.71941660180664,36.88
1603019427.9182,79.0,843.0,139.0,332.6684522820737,36.88
1603019427.9201,79.0,843.0,134.0,332.6087929180791,36.88
1603019427.9207,79.0,843.0,142.0,332.54128325449136,36.88
1603019427.9221,79.0,843.0,144.0,332.4667680359792,36.88
1603019427.9241,79.0,843.0,139.0,332.3860920072113,36.88
1603019427.9261,79.0,843.0,144.0,332.30009991285624,36.88
1603019427.9281,79.0,843.0,146.0,332.2096364975827,36.88
1603019427.9301,79.0,843.0,137.0,332.1155465060593,36.88
1603019427.9321,79.0,843.0,137.0,332.01867468295467,36.88
1603019427.9341,79.0,843.0,142.0,331.91986577293744,36.88
1603019427.9362,79.0,843.0,142.0,331.81996452067636,36.88
1603019427.9382,79.0,843.0,137.0,331.7198156708399,36.88
1603019427.9401,79.0,843.0,139.0,331.6202639680968,36.88
1603019427.9421,79.0,843.0,158.0,331.5221541571157,36.88
1603019427.9441,79.0,843.0,180.0,331.4263309825653,36.88
1603019427.9461,79.0,843.0,180.0,331.33363918911414,36.88
1603019427.948,79.0,843.0,156.0,331.24492352143085,36.88
1603019427.9488,79.0,843.0,144.0,331.1610287241842,36.88
1603019427.9501,79.0,843.0,154.0,331.08279954204266,36.88
1603019427.9522,79.0,843.0,146.0,330.82386199780285,36.88
1603019427.9541,79.0,843.0,137.0,330.55427775782545,36.88
1603019427.956,79.0,843.0,139.0,330.2745420172612,36.88
1603019427.9581,79.0,843.0,142.0,329.98514997126046,36.88
1603019427.9601,79.0,843.0,132.0,329.686596814974,36.88
1603019427.9622,79.0,843.0,130.0,329.37937774355237,36.88
1603019427.9641,79.0,843.0,132.0,329.06398795214614,36.88
1603019427.9661,79.0,843.0,130.0,328.7409226359058,36.88
1603019427.9681,79.0,843.0,134.0,328.410676989982,36.88
1603019427.9701,79.0,843.0,130.0,328.0737462095254,36.88
1603019427.9721,79.0,843.0,132.0,327.7306254896864,36.88
1603019427.9741,79.0,843.0,264.0,327.3818100256158,36.88
1603019427.9761,79.0,843.0,501.0,327.027795012464,36.88
1603019427.9781,79.0,843.0,472.0,326.6690756453817,36.88
1603019427.9788,79.0,843.0,14.0,326.3061471195195,36.88
1603019427.98,79.0,843.0,-264.0,325.93950463002784,36.88
1603019427.9821,79.0,843.0,-4.0,325.56964337205744,36.88
1603019427.984,79.0,843.0,190.0,325.19705854075886,36.88
1603019427.9861,79.0,843.0,98.0,324.82224533128266,36.88
1603019427.9881,79.0,843.0,101.0,324.4456989387794,36.88
1603019427.9901,79.0,843.0,173.0,324.0679145583997,36.88
1603019427.9921,79.0,843.0,156.0,323.68938738529414,36.88
1603019428.4278,79.0,843.0,142.0,323.31061261461326,36.88
1603019428.4288,79.0,843.0,161.0,322.93208544150764,36.88
1603019428.4312,79.0,843.0,151.0,322.5543010611279,36.88
1603019428.4338,79.0,843.0,137.0,322.17775466862463,36.88
1603019428.4358,79.0,843.0,149.0,321.8029414591483,36.88
1603019428.4377,79.0,843.0,154.0,321.43035662784973,36.88
1603019428.4398,79.0,843.0,137.0,321.0604953698793,36.88
1603019428.4406,79.0,843.0,130.0,320.6938528803877,36.88
1603019428.4427,79.0,843.0,139.0,320.33092435452545,36.88
1603019428.4447,79.0,843.0,156.0,319.9722049874432,36.88
1603019428.4468,79.0,843.0,163.0,319.61818997429145,36.88
1603019428.4487,79.0,843.0,154.0,319.2693745102208,36.88
1603019428.4507,79.0,843.0,163.0,318.9262537903819,36.88
1603019428.4527,79.0,843.0,195.0,318.58932300992524,36.88
1603019428.4547,79.0,843.0,190.0,318.25907736400154,36.88
1603019428.4567,79.0,843.0,178.0,317.9360120477612,36.88
1603019428.4587,79.0,843.0,202.0,317.620622256355,36.88
1603019428.4607,79.0,843.0,219.0,317.31340318493324,36.88
1603019428.4629,79.0,843.0,204.0,317.01485002864683,36.88
1603019428.4647,79.0,843.0,204.0,316.72545798264616,36.88
1603019428.4667,79.0,843.0,231.0,316.44572224208184,36.88
1603019428.4687,79.0,843.0,243.0,316.1761380021045,36.88
1603019428.4708,79.0,843.0,233.0,315.9172004578646,36.88
1603019428.4714,79.0,843.0,226.0,315.66940480451296,36.88
1603019428.4737,79.0,843.0,226.0,315.4332462371999,36.88
1603019428.4757,79.0,843.0,228.0,315.2092199510762,36.88
1603019428.4777,79.0,843.0,226.0,314.9978211412923,36.88
1603019428.4798,79.0,843.0,202.0,314.7995450029989,36.88
1603019428.4818,79.0,843.0,171.0,314.6148867313465,36.88
1603019428.4837,79.0,843.0,154.0,314.44434152148574,36.88
1603019428.4857,79.0,843.0,132.0,314.2884045685672,36.88
1603019428.4877,79.0,843.0,113.0,314.1475710677414,36.88
1603019428.4898,79.0,843.0,108.0,314.02233621415894,36.88
1603019428.4917,79.0,843.0,101.0,313.9131952029704,36.88
1603019428.4939,79.0,843.0,86.0,313.8206432293265,36.88
1603019428.4958,79.0,843.0,74.0,313.74517548837764,36.88
1603019428.4977,79.0,843.0,74.0,313.6872871752745,36.88
1603019428.4997,79.0,843.0,86.0,313.64747348516767,36.88
1603019428.5018,79.0,843.0,91.0,313.62622961320767,36.88
1603019428.5024,79.0,843.0,84.0,313.6240507545451,36.88
1603019428.5047,79.0,843.0,91.0,313.64143210433053,36.88
1603019428.5067,79.0,843.0,110.0,313.67886885771463,36.88
1603019428.5087,79.0,843.0,108.0,313.73685620984793,36.88
1603019428.5107,79.0,843.0,86.0,313.8158893558809,36.88
1603019428.5128,79.0,843.0,93.0,313.91646349096436,36.88
1603019428.5147,79.0,843.0,113.0,314.0390738102486,36.88
1603019428.5167,79.0,843.0,122.0,314.18421550888456,36.88
1603019428.5187,79.0,843.0,113.0,314.35238378202246,36.88
1603019428.5208,79.0,843.0,96.0,314.54407382481315,36.88
1603019428.5228,79.0,843.0,96.0,314.75978083240705,36.88
1603019428.5247,79.0,843.0,118.0,314.99999999995487,36.88
1603019428.5267,79.0,843.0,127.0,314.99999999995487,36.88
1603019428.5287,79.0,843.0,130.0,314.99999999995487,36.88
1603019428.5308,79.0,843.0,130.0,314.99999999995487,36.88
1603019428.5327,79.0,843.0,110.0,314.99999999995487,36.88
1603019428.5334,79.0,843.0,98.0,314.99999999995487,36.88
1603019428.5357,79.0,843.0,118.0,314.99999999995487,36.88
1603019428.5377,79.0,843.0,125.0,314.99999999995487,36.88
1603019428.5397,79.0,843.0,110.0,314.99999999995487,36.88
1603019428.5418,79.0,843.0,110.0,314.99999999995487,36.88
1603019428.5437,79.0,843.0,115.0,314.99999999995487,36.88
1603019428.5458,79.0,843.0,115.0,314.99999999995487,36.88
1603019428.5477,79.0,843.0,130.0,314.99999999995487,36.88
1603019428.5497,79.0,843.0,134.0,314.99999999995487,36.88
1603019428.5517,79.0,843.0,115.0,314.99999999995487,36.88
1603019428.5537,79.0,843.0,115.0,314.99999999995487,36.88
1603019428.5557,79.0,843.0,137.0,314.99999999995487,36.88
1603019428.5577,79.0,843.0,134.0,314.99999999995487,36.88
1603019428.5597,79.0,843.0,113.0,314.99999999995487,36.88
1603019428.5617,79.0,843.0,122.0,314.99999999995487,36.88
1603019428.5638,79.0,843.0,139.0,314.99999999995487,36.88
1603019428.5644,79.0,843.0,130.0,314.99999999995487,36.88
1603019428.5668,79.0,843.0,122.0,314.99999999995487,36.88
1603019428.967,78.0,835.0,125.0,314.99999999995487,36.88
1603019428.9676,78.0,835.0,130.0,314.99999999995487,36.88
1603019428.9701,78.0,835.0,142.0,314.99999999995487,36.88
1603019428.9727,78.0,835.0,158.0,314.99999999995487,36.88
1603019428.9748,78.0,835.0,158.0,314.99999999995487,36.88
1603019428.9767,78.0,835.0,137.0,314.99999999995487,36.88
1603019428.9787,78.0,835.0,122.0,314.99999999995487,36.88
1603019428.9807,78.0,835.0,120.0,314.99999999995487,36.88
1603019428.9827,78.0,835.0,113.0,314.99999999995487,36.88
1603019428.9847,78.0,835.0,113.0,314.99999999995487,36.88
1603019428.9867,78.0,835.0,115.0,314.99999999995487,36.88
1603019428.9887,78.0,835.0,113.0,314.99999999995487,36.88
1603019428.991,78.0,835.0,110.0,314.99999999995487,36.88
1603019428.9927,78.0,835.0,113.0,314.99999999995487,36.88
1603019428.9947,78.0,835.0,120.0,314.99999999995487,36.88
1603019428.9966,78.0,835.0,115.0,314.99999999995487,36.88
1603019428.9986,78.0,835.0,105.0,314.99999999995487,36.88
1603019429.0007,78.0,835.0,103.0,314.99999999995487,36.88
1603019429.0027,78.0,835.0,154.0,314.99999999995487,36.88
1603019429.0046,78.0,835.0,356.0,314.99999999995487,36.88
1603019429.0066,78.0,835.0,537.0,314.99999999995487,36.88
1603019429.0087,78.0,835.0,281.0,314.99999999995487,36.88
1603019429.0107,78.0,835.0,-207.0,314.99999999995487,36.88
1603019429.0127,78.0,835.0,-209.0,315.2543497067702,36.88
1603019429.0146,78.0,835.0,118.0,315.48274536186966,36.88
1603019429.0167,78.0,835.0,154.0,315.68571128953033,36.88
1603019429.0186,78.0,835.0,62.0,315.8637718140294,36.88
1603019429.0206,78.0,835.0,125.0,316.01745125964385,36.88
1603019429.0226,78.0,835.0,163.0,316.14727395065074,36.88
1603019429.0247,78.0,835.0,130.0,316.2537642113273,36.88
1603019429.0266,78.0,835.0,130.0,316.33744636595054,36.88
1603019429.0286,78.0,835.0,142.0,316.3988447387975,36.88
1603019429.0307,78.0,835.0,132.0,316.43848365414533,36.88
1603019429.0326,78.0,835.0,130.0,316.45688743627113,36.88
1603019429.0346,78.0,835.0,127.0,316.454580409452,36.88
1603019429.0366,78.0,835.0,122.0,316.43208689796484,36.88
1603019429.0387,78.0,835.0,142.0,316.389931226087,36.88
1603019429.0407,78.0,835.0,158.0,316.3286377180955,36.88
1603019429.0426,78.0,835.0,127.0,316.2487306982672,36.88
1603019429.0446,78.0,835.0,110.0,316.1507344908796,36.88
1603019429.0466,78.0,835.0,144.0,316.0351734202094,36.88
1603019429.0486,78.0,835.0,168.0,315.9025718105339,36.88
1603019429.0507,78.0,835.0,161.0,315.7534539861301,36.88
1603019429.0526,78.0,835.0,161.0,315.5883442712751,36.88
1603019429.0546,78.0,835.0,171.0,315.40776699024605,36.88
1603019429.0568,78.0,835.0,173.0,315.21224646732,36.88
1603019429.0586,78.0,835.0,178.0,315.002307026774,36.88
1603019429.0607,78.0,835.0,192.0,314.7784729928852,36.88
1603019429.0626,78.0,835.0,204.0,314.5412686899307,36.88
1603019429.0646,78.0,835.0,219.0,314.2912184421875,36.88
1603019429.0666,78.0,835.0,236.0,314.0288465739328,36.88
1603019429.0686,78.0,835.0,233.0,313.7546774094435,36.88
1603019429.0706,78.0,835.0,216.0,313.4692352729969,36.88
1603019429.0727,78.0,835.0,211.0,313.17304448887,36.88
1603019429.0747,78.0,835.0,219.0,312.86662938133986,36.88
1603019429.0766,78.0,835.0,211.0,312.5505142746837,36.88
1603019429.0786,78.0,835.0,199.0,312.2252234931784,36.88
1603019429.0807,78.0,835.0,187.0,311.89128136110116,36.88
1603019429.0826,78.0,835.0,166.0,311.549212202729,36.88
1603019429.0846,78.0,835.0,132.0,311.1995403423392,36.88
1603019429.0867,78.0,835.0,103.0,310.8427901042086,36.88
1603019429.0886,78.0,835.0,93.0,310.4794858126145,36.88
1603019429.0908,78.0,835.0,91.0,310.1101517918338,36.88
1603019429.0928,78.0,835.0,86.0,309.7353123661437,36.88
1603019429.0947,78.0,835.0,74.0,309.3554918598212,36.88
1603019429.0966,78.0,835.0,62.0,308.97121459714356,36.88
1603019429.0986,78.0,835.0,69.0,308.58300490238776,36.88
1603019429.1007,78.0,835.0,81.0,308.1913870998309,36.88
1603019429.1026,78.0,835.0,91.0,307.79688551375,36.88
1603019429.1046,78.0,835.0,93.0,307.4000244684222,36.88
1603019429.1067,78.0,835.0,84.0,307.0013282881246,36.88
1603019429.1086,78.0,835.0,79.0,306.60132129713435,36.88
1603019429.1107,78.0,835.0,91.0,306.2005278197284,36.88
1603019429.5673,78.0,835.0,105.0,305.7994721801839,36.88
1603019429.5682,78.0,835.0,108.0,305.398678702778,36.88
1603019429.5708,78.0,835.0,103.0,304.99867171178767,36.88
1603019429.5733,78.0,835.0,98.0,304.5999755314901,36.88
1603019429.5752,78.0,835.0,98.0,304.2031144861623,36.88
1603019429.5772,78.0,835.0,103.0,303.8086129000814,36.88
1603019429.5793,78.0,835.0,98.0,303.4169950975245,36.88
1603019429.5812,78.0,835.0,93.0,303.0287854027687,36.88
1603019429.5832,78.0,835.0,91.0,302.644508140091,36.88
1603019429.5853,78.0,835.0,91.0,302.2646876337686,36.88
1603019429.5872,78.0,835.0,103.0,301.8898482080785,36.88
1603019429.5892,78.0,835.0,118.0,301.52051418729786,36.88
1603019429.5912,78.0,835.0,108.0,301.1572098957037,36.88
1603019429.5932,78.0,835.0,98.0,300.80045965757313,36.88
1603019429.5952,78.0,835.0,101.0,300.4507877971833,36.88
1603019429.5972,78.0,835.0,103.0,300.1087186388112,36.88
1603019429.5992,78.0,835.0,101.0,299.77477650673393,36.88
1603019429.6012,78.0,835.0,101.0,299.44948572522867,36.88
1603019429.6033,78.0,835.0,103.0,299.13337061857237,36.88
1603019429.6052,78.0,835.0,105.0,298.8269555110423,36.88
1603019429.6072,78.0,835.0,113.0,298.5307647269154,36.88
1603019429.6092,78.0,835.0,118.0,298.24532259046873,36.88
1603019429.6112,78.0,835.0,101.0,297.97115342597954,36.88
1603019429.6131,78.0,835.0,86.0,297.8924785682025,36.88
1603019429.6151,78.0,835.0,103.0,297.8073807380311,36.88
1603019429.6171,78.0,835.0,122.0,297.7167629383871,36.88
1603019429.6193,78.0,835.0,120.0,297.62152817219203,36.88
1603019429.6212,78.0,835.0,103.0,297.5225794423676,36.88
1603019429.6232,78.0,835.0,89.0,297.42081975183544,36.88
1603019429.6252,78.0,835.0,89.0,297.31715210351723,36.88
1603019429.6272,78.0,835.0,101.0,297.2124795003346,36.88
1603019429.6291,78.0,835.0,113.0,297.1077049452092,36.88
1603019429.6312,78.0,835.0,122.0,297.0037314410627,36.88
1603019429.6331,78.0,835.0,125.0,296.90146199081676,36.88
1603019429.6353,78.0,835.0,127.0,296.8017995973929,36.88
1603019429.6371,78.0,835.0,125.0,296.705647263713,36.88
1603019429.6392,78.0,835.0,122.0,296.6139079926985,36.88
1603019429.6412,78.0,835.0,127.0,296.5274847872712,36.88
1603019429.6431,78.0,835.0,118.0,296.44728065035264,36.88
1603019429.6452,78.0,835.0,98.0,296.37419858486453,36.88
1603019429.6471,78.0,835.0,101.0,296.30914159372855,36.88
1603019429.6493,78.0,835.0,118.0,296.2530126798663,36.88
1603019429.6513,78.0,835.0,120.0,296.2067148461995,36.88
1603019429.6532,78.0,835.0,110.0,296.17115109564963,36.88
1603019429.6551,78.0,835.0,110.0,296.1472244311385,36.88
1603019429.6572,78.0,835.0,113.0,296.1358378555878,36.88
1603019429.6591,78.0,835.0,105.0,296.137894371919,36.88
1603019429.6612,78.0,835.0,108.0,296.15429698305394,36.88
1603019429.6631,78.0,835.0,226.0,296.1859486919141,36.88
1603019429.6651,78.0,835.0,472.0,296.2337525014213,36.88
1603019429.6672,78.0,835.0,505.0,296.29861141449703,36.88
1603019429.6692,78.0,835.0,40.0,296.10060035125485,36.88
1603019429.6712,78.0,835.0,-325.0,295.8944476971545,36.88
1603019429.6732,78.0,835.0,-72.0,295.6805321308406,36.88
1603019429.6751,78.0,835.0,183.0,295.4592323309578,36.88
1603019429.6772,78.0,835.0,89.0,295.2309269761505,36.88
1603019429.6791,78.0,835.0,67.0,294.99599474506334,36.88
1603019429.6812,78.0,835.0,146.0,294.7548143163409,36.88
1603019429.6831,78.0,835.0,127.0,294.5077643686277,36.88
1603019429.6852,78.0,835.0,103.0,294.2552235805684,36.88
1603019429.6871,78.0,835.0,144.0,293.99757063080745,36.88
1603019429.6891,78.0,835.0,149.0,293.73518419798944,36.88
1603019429.6912,78.0,835.0,113.0,293.4684429607589,36.88
1603019429.6931,78.0,835.0,108.0,293.19772559776055,36.88
1603019429.6951,78.0,835.0,137.0,292.9234107876388,36.88
1603019429.6971,78.0,835.0,154.0,292.64587720903825,36.88
1603019429.6991,78.0,835.0,146.0,292.36550354060347,36.88
1603019429.7013,78.0,835.0,149.0,292.08266846097905,36.88
1603019429.7031,78.0,835.0,158.0,291.79775064880954,36.88
1603019429.7051,78.0,835.0,158.0,291.5111287827395,36.88
1603019429.7071,78.0,835.0,151.0,291.22318154141345,36.88
1603019429.7091,78.0,835.0,151.0,290.93428760347604,36.88
1603019429.7112,78.0,835.0,166.0,290.64482564757174,36.88
1603019430.1672,77.0,804.0,183.0,290.35517435234516,36.88
1603019430.1682,77.0,804.0,180.0,290.06571239644086,36.88
1603019430.1708,77.0,804.0,171.0,289.7768184585034,36.88
1603019430.1734,77.0,804.0,187.0,289.48887121717735,36.88
1603019430.1753,77.0,804.0,199.0,289.2022493511073,36.88
1603019430.1774,77.0,804.0,195.0,288.91733153893773,36.88
1603019430.1794,77.0,804.0,207.0,288.6344964593133,36.88
1603019430.1814,77.0,804.0,228.0,288.35412279087853,36.88
1603019430.1832,77.0,804.0,226.0,288.076589212278,36.88
1603019430.1853,77.0,804.0,202.0,287.80227440215623,36.88
1603019430.1872,77.0,804.0,190.0,287.53155703915786,36.88
1603019430.1892,77.0,804.0,183.0,287.2648158019274,36.88
1603019430.1913,77.0,804.0,173.0,287.0024293691094,36.88
1603019430.1932,77.0,804.0,158.0,286.7447764193484,36.88
1603019430.1953,77.0,804.0,149.0,286.4922356312891,36.88
1603019430.1973,77.0,804.0,132.0,286.24518568357587,36.88
1603019430.1992,77.0,804.0,110.0,286.00400525485344,36.88
1603019430.2013,77.0,804.0,91.0,285.7690730237663,36.88
1603019430.2032,77.0,804.0,65.0,285.540767668959,36.88
1603019430.2055,77.0,804.0,38.0,285.3194678690761,36.88
1603019430.2073,77.0,804.0,28.0,285.10555230276225,36.88
1603019430.2092,77.0,804.0,36.0,284.8993996486619,36.88
1603019430.2112,77.0,804.0,36.0,284.7013885854197,36.88
1603019430.2133,77.0,804.0,38.0,284.51189779168016,36.88
1603019430.2152,77.0,804.0,52.0,284.33130594608787,36.88
1603019430.2172,77.0,804.0,55.0,284.1599917272873,36.88
1603019430.2192,77.0,804.0,45.0,283.99833381392324,36.88
1603019430.2213,77.0,804.0,50.0,283.84671088464,36.88
1603019430.2232,77.0,804.0,57.0,283.70550161808234,36.88
1603019430.2253,77.0,804.0,60.0,283.5750846928947,36.88
1603019430.2272,77.0,804.0,72.0,283.45583878772163,36.88
1603019430.2293,77.0,804.0,89.0,283.3481425812078,36.88
1603019430.2313,77.0,804.0,93.0,283.2523747519977,36.88
1603019430.2332,77.0,804.0,86.0,283.16891397873593,36.88
1603019430.2352,77.0,804.0,86.0,283.09813894006703,36.88
1603019430.2372,77.0,804.0,93.0,283.04042831463556,36.88
1603019430.2392,77.0,804.0,93.0,282.9961607810861,36.88
1603019430.2412,77.0,804.0,98.0,282.9657150180632,36.88
1603019430.2432,77.0,804.0,105.0,282.9494697042114,36.88
1603019430.2453,77.0,804.0,103.0,282.94780351817536,36.88
1603019430.2472,77.0,804.0,84.0,282.96109513859955,36.88
1603019430.2492,77.0,804.0,72.0,282.9897232441285,36.88
1603019430.2512,77.0,804.0,89.0,283.0340665134069,36.88
1603019430.2532,77.0,804.0,91.0,283.0945036250792,36.88
1603019430.2552,77.0,804.0,81.0,283.17141325779005,36.88
1603019430.2572,77.0,804.0,91.0,283.26517409018396,36.88
1603019430.2592,77.0,804.0,101.0,283.3761648009055,36.88
1603019430.2613,77.0,804.0,101.0,283.50476406859923,36.88
1603019430.2633,77.0,804.0,101.0,283.65135057190975,36.88
1603019430.2652,77.0,804.0,101.0,283.8163029894816,36.88
1603019430.2672,77.0,804.0,101.0,283.9999999999593,36.88
1603019430.2692,77.0,804.0,98.0,283.9999999999593,36.88
1603019430.2712,77.0,804.0,98.0,283.9999999999593,36.88
1603019430.2732,77.0,804.0,101.0,283.9999999999593,36.88
1603019430.2752,77.0,804.0,98.0,283.9999999999593,36.88
1603019430.2773,77.0,804.0,89.0,283.9999999999593,36.88
1603019430.2793,77.0,804.0,91.0,283.9999999999593,36.88
1603019430.2812,77.0,804.0,96.0,283.9999999999593,36.88
1603019430.2832,77.0,804.0,103.0,283.9999999999593,36.88
1603019430.2852,77.0,804.0,122.0,283.9999999999593,36.88
1603019430.2872,77.0,804.0,125.0,283.9999999999593,36.88
1603019430.2893,77.0,804.0,118.0,283.9999999999593,36.88
1603019430.2912,77.0,804.0,130.0,283.9999999999593,36.88
1603019430.2932,77.0,804.0,137.0,283.9999999999593,36.88
1603019430.2953,77.0,804.0,120.0,283.9999999999593,36.88
1603019430.2972,77.0,804.0,108.0,283.9999999999593,36.88
1603019430.2992,77.0,804.0,110.0,283.9999999999593,36.88
1603019430.3012,77.0,804.0,108.0,283.9999999999593,36.88
1603019430.3032,77.0,804.0,103.0,283.9999999999593,36.88
1603019430.3052,77.0,804.0,113.0,283.9999999999593,36.88
1603019430.3074,77.0,804.0,118.0,283.9999999999593,36.88
1603019430.3092,77.0,804.0,115.0,283.9999999999593,36.88
1603019430.3113,77.0,804.0,115.0,283.9999999999593,36.88
1603019430.6775,77.0,804.0,105.0,283.9999999999593,36.88
1603019430.6782,77.0,804.0,144.0,283.9999999999593,36.88
1603019430.6806,77.0,804.0,349.0,283.9999999999593,36.88
1603019430.6833,77.0,804.0,561.0,283.9999999999593,36.88
1603019430.6853,77.0,804.0,332.0,283.9999999999593,36.88
1603019430.6873,77.0,804.0,-209.0,283.9999999999593,36.88
1603019430.6893,77.0,804.0,-286.0,283.9999999999593,36.88
1603019430.6914,77.0,804.0,86.0,283.9999999999593,36.88
1603019430.6933,77.0,804.0,187.0,283.9999999999593,36.88
1603019430.6953,77.0,804.0,74.0,283.9999999999593,36.88
1603019430.6973,77.0,804.0,113.0,283.9999999999593,36.88
1603019430.6993,77.0,804.0,149.0,283.9999999999593,36.88
1603019430.7013,77.0,804.0,103.0,283.9999999999593,36.88
1603019430.7032,77.0,804.0,110.0,283.9999999999593,36.88
1603019430.7052,77.0,804.0,130.0,283.9999999999593,36.88
1603019430.7073,77.0,804.0,103.0,283.9999999999593,36.88
1603019430.7092,77.0,804.0,98.0,283.9999999999593,36.88
1603019430.7112,77.0,804.0,125.0,283.9999999999593,36.88
1603019430.7133,77.0,804.0,132.0,283.9999999999593,36.88
1603019430.7152,77.0,804.0,122.0,283.9999999999593,36.88
1603019430.7172,77.0,804.0,127.0,283.9999999999593,36.88
1603019430.7193,77.0,804.0,149.0,283.9999999999593,36.88
1603019430.7213,77.0,804.0,156.0,283.9999999999593,36.88
1603019430.7233,77.0,804.0,139.0,284.09891377483194,36.88
1603019430.7253,77.0,804.0,137.0,284.1877343073706,36.88
1603019430.7272,77.0,804.0,151.0,284.26666550146086,36.88
1603019430.7292,77.0,804.0,163.0,284.33591126098827,36.88
1603019430.7313,77.0,804.0,175.0,284.3956754898383,36.88
1603019430.7332,77.0,804.0,183.0,284.4461620918966,36.88
1603019430.7353,77.0,804.0,185.0,284.48757497104856,36.88
1603019430.7372,77.0,804.0,195.0,284.52011803117983,36.88
1603019430.7392,77.0,804.0,204.0,284.5439951761759,36.88
1603019430.7414,77.0,804.0,204.0,284.55941030992227,36.88
1603019430.7432,77.0,804.0,209.0,284.5665673363045,36.88
1603019430.7452,77.0,804.0,216.0,284.56567015920814,36.88
1603019430.7472,77.0,804.0,219.0,284.55692268251875,36.88
1603019430.7492,77.0,804.0,216.0,284.54052881012177,36.88
1603019430.7513,77.0,804.0,202.0,284.51669244590283,36.88
1603019430.7533,77.0,804.0,187.0,284.48561749374744,36.88
1603019430.7553,77.0,804.0,185.0,284.4475078575411,36.88
1603019430.7573,77.0,804.0,161.0,284.40256744116937,36.88
1603019430.7592,77.0,804.0,122.0,284.3510001485178,36.88
1603019430.7612,77.0,804.0,98.0,284.2930098834719,36.88
1603019430.7632,77.0,804.0,77.0,284.2288005499172,36.88
1603019430.7652,77.0,804.0,72.0,284.1585760517392,36.88
1603019430.7672,77.0,804.0,79.0,284.0825402928235,36.88
1603019430.7692,77.0,804.0,60.0,284.00089717705566,36.88
1603019430.7713,77.0,804.0,43.0,283.9138506083211,36.88
1603019430.7736,77.0,804.0,57.0,283.8216044905055,36.88
1603019430.7753,77.0,804.0,62.0,283.7243627274942,36.88
1603019430.7773,77.0,804.0,55.0,283.6223292231729,36.88
1603019430.7792,77.0,804.0,60.0,283.51570788142715,36.88
1603019430.7812,77.0,804.0,65.0,283.40470260614234,36.88
1603019430.7832,77.0,804.0,65.0,283.2895173012041,36.88
1603019430.7852,77.0,804.0,77.0,283.17035587049793,36.88
1603019430.7872,77.0,804.0,89.0,283.0474222179094,36.88
1603019430.7893,77.0,804.0,89.0,282.920920247324,36.88
1603019430.7913,77.0,804.0,84.0,282.7910538626273,36.88
1603019430.7932,77.0,804.0,86.0,282.6580269677048,36.88
1603019430.7952,77.0,804.0,101.0,282.5220434664421,36.88
1603019430.7972,77.0,804.0,108.0,282.38330726272466,36.88
1603019430.7992,77.0,804.0,96.0,282.24202226043803,36.88
1603019430.8013,77.0,804.0,93.0,282.0983923634677,36.88
1603019430.8032,77.0,804.0,105.0,281.95262147569935,36.88
1603019430.8053,77.0,804.0,101.0,281.8049135010184,36.88
1603019430.8073,77.0,804.0,101.0,281.65547234331046,36.88
1603019430.8093,77.0,804.0,113.0,281.504501906461,36.88
1603019430.8113,77.0,804.0,110.0,281.3522060943555,36.88
1603019430.8133,77.0,804.0,101.0,281.19878881087965,36.88
1603019430.8152,77.0,804.0,103.0,281.0444539599188,36.88
1603019430.8172,77.0,804.0,108.0,280.88940544535865,36.88
1603019430.8192,77.0,804.0,98.0,280.7338471710847,36.88
1603019430.8213,77.0,804.0,89.0,280.57798304098236,36.88
1603019431.2476,77.0,808.0,91.0,280.4220169589373,36.88
1603019431.2485,77.0,808.0,96.0,280.26615282883506,36.88
1603019431.251,77.0,808.0,96.0,280.11059455456103,36.88
1603019431.2537,77.0,808.0,105.0,279.95554604000085,36.88
1603019431.2556,77.0,808.0,113.0,279.80121118904003,36.88
1603019431.2576,77.0,808.0,103.0,279.6477939055642,36.88
1603019431.2596,77.0,808.0,91.0,279.4954980934587,36.88
1603019431.2615,77.0,808.0,81.0,279.3445276566092,36.88
1603019431.2635,77.0,808.0,72.0,279.1950864989012,36.88
1603019431.2655,77.0,808.0,67.0,279.0473785242203,36.88
1603019431.2676,77.0,808.0,77.0,278.9016076364519,36.88
1603019431.2696,77.0,808.0,98.0,278.75797773948165,36.88
1603019431.2715,77.0,808.0,118.0,278.6166927371951,36.88
1603019431.2735,77.0,808.0,125.0,278.47795653347765,36.88
1603019431.2755,77.0,808.0,127.0,278.3419730322149,36.88
1603019431.2775,77.0,808.0,127.0,278.2089461372924,36.88
1603019431.2795,77.0,808.0,113.0,278.0790797525957,36.88
1603019431.2815,77.0,808.0,91.0,277.9525777820103,36.88
1603019431.2836,77.0,808.0,89.0,277.82964412942175,36.88
1603019431.2855,77.0,808.0,96.0,277.7104826987156,36.88
1603019431.2874,77.0,808.0,89.0,277.59529739377734,36.88
1603019431.2894,77.0,808.0,89.0,277.4842921184926,36.88
1603019431.2915,77.0,808.0,103.0,277.37767077674675,36.88
1603019431.2935,77.0,808.0,101.0,277.3462899687631,36.88
1603019431.2955,77.0,808.0,101.0,277.31249144327944,36.88
1603019431.2974,77.0,808.0,105.0,277.276624749814,36.88
1603019431.2997,77.0,808.0,118.0,277.23903943788474,36.88
1603019431.3016,77.0,808.0,228.0,277.20008505700974,36.88
1603019431.3035,77.0,808.0,457.0,277.1601111567071,36.88
1603019431.3055,77.0,808.0,501.0,277.11946728649485,36.88
1603019431.3075,77.0,808.0,79.0,277.07850299589103,36.88
1603019431.3095,77.0,808.0,-305.0,277.0375678344137,36.88
1603019431.3115,77.0,808.0,-105.0,276.99701135158097,36.88
1603019431.3134,77.0,808.0,168.0,276.95718309691085,36.88
1603019431.3155,77.0,808.0,103.0,276.9184326199214,36.88
1603019431.3176,77.0,808.0,77.0,276.8811094701307,36.88
1603019431.3195,77.0,808.0,151.0,276.84556319705683,36.88
1603019431.3215,77.0,808.0,127.0,276.81214335021775,36.88
1603019431.3235,77.0,808.0,96.0,276.7811994791316,36.88
1603019431.3254,77.0,808.0,122.0,276.75308113331647,36.88
1603019431.3274,77.0,808.0,130.0,276.72813786229034,36.88
1603019431.3295,77.0,808.0,122.0,276.7067192155713,36.88
1603019431.3315,77.0,808.0,127.0,276.68917474267744,36.88
1603019431.3335,77.0,808.0,132.0,276.67585399312674,36.88
1603019431.3355,77.0,808.0,132.0,276.66710651643734,36.88
1603019431.3374,77.0,808.0,134.0,276.66328186212723,36.88
1603019431.3394,77.0,808.0,139.0,276.6647295797145,36.88
1603019431.3415,77.0,808.0,146.0,276.67179921871724,36.88
1603019431.3435,77.0,808.0,149.0,276.6848403286535,36.88
1603019431.3454,77.0,808.0,151.0,276.7042024590413,36.88
1603019431.3475,77.0,808.0,163.0,276.7302351593987,36.88
1603019431.3496,77.0,808.0,171.0,276.6540770581517,36.88
1603019431.3515,77.0,808.0,175.0,276.5747875758054,36.88
1603019431.3535,77.0,808.0,187.0,276.4925123579924,36.88
1603019431.3555,77.0,808.0,197.0,276.4073970503451,36.88
1603019431.3574,77.0,808.0,190.0,276.3195872984961,36.88
1603019431.3594,77.0,808.0,195.0,276.229228748078,36.88
1603019431.3614,77.0,808.0,216.0,276.13646704472325,36.88
1603019431.3634,77.0,808.0,216.0,276.0414478340643,36.88
1603019431.3654,77.0,808.0,207.0,275.9443167617338,36.88
1603019431.3675,77.0,808.0,211.0,275.8452194733642,36.88
1603019431.3695,77.0,808.0,219.0,275.74430161458804,36.88
1603019431.3715,77.0,808.0,214.0,275.6417088310378,36.88
1603019431.3735,77.0,808.0,197.0,275.53758676834616,36.88
1603019431.3755,77.0,808.0,190.0,275.4320810721455,36.88
1603019431.3775,77.0,808.0,171.0,275.32533738806836,36.88
1603019431.3795,77.0,808.0,127.0,275.2175013617473,36.88
1603019431.3816,77.0,808.0,101.0,275.1087186388148,36.88
1603019431.3835,77.0,808.0,108.0,274.99913486490345,36.88
1603019431.3854,77.0,808.0,91.0,274.8888956856457,36.88
1603019431.3874,77.0,808.0,57.0,274.77814674667417,36.88
1603019431.3894,77.0,808.0,50.0,274.6670336936213,36.88
1603019431.3915,77.0,808.0,60.0,274.55570217211965,36.88
1603019431.7876,77.0,808.0,45.0,274.44429782780173,36.88
1603019431.7883,77.0,808.0,21.0,274.3329663063001,36.88
1603019431.7895,77.0,808.0,28.0,274.2218532532472,36.88
1603019431.7915,77.0,808.0,50.0,274.1111043142757,36.88
1603019431.7937,77.0,808.0,62.0,274.000865135018,36.88
1603019431.7955,77.0,808.0,62.0,273.8912813611066,36.88
1603019431.7974,77.0,808.0,60.0,273.78249863817416,36.88
1603019431.7995,77.0,808.0,72.0,273.6746626118531,36.88
1603019431.8015,77.0,808.0,72.0,273.5679189277759,36.88
1603019431.8034,77.0,808.0,62.0,273.4624132315752,36.88
1603019431.8054,77.0,808.0,74.0,273.35829116888357,36.88
1603019431.8074,77.0,808.0,81.0,273.2556983853334,36.88
1603019431.8094,77.0,808.0,65.0,273.15478052655726,36.88
1603019431.8114,77.0,808.0,57.0,273.05568323818767,36.88
1603019431.8134,77.0,808.0,79.0,272.95855216585716,36.88
1603019431.8154,77.0,808.0,96.0,272.86353295519825,36.88
1603019431.8174,77.0,808.0,86.0,272.7707712518434,36.88
1603019431.8194,77.0,808.0,74.0,272.6804127014253,36.88
1603019431.8215,77.0,808.0,79.0,272.59260294957636,36.88
1603019431.8234,77.0,808.0,91.0,272.5074876419291,36.88
1603019431.8254,77.0,808.0,91.0,272.42521242411607,36.88
1603019431.8274,77.0,808.0,86.0,272.3459229417698,36.88
1603019431.8294,77.0,808.0,81.0,272.2697648405228,36.88
1603019431.8315,77.0,808.0,77.0,272.19688376600755,36.88
1603019431.8335,77.0,808.0,74.0,272.1274253638567,36.88
1603019431.8354,77.0,808.0,77.0,272.06153527970264,36.88
1603019431.8374,77.0,808.0,81.0,271.99935915917797,36.88
1603019431.8394,77.0,808.0,93.0,271.9410426479152,36.88
1603019431.8414,77.0,808.0,103.0,271.88673139154685,36.88
1603019431.8434,77.0,808.0,101.0,271.83657103570545,36.88
1603019431.8454,77.0,808.0,89.0,271.7907072260235,36.88
1603019431.8474,77.0,808.0,79.0,271.7492856081336,36.88
1603019431.8494,77.0,808.0,86.0,271.7124518276682,36.88
1603019431.8515,77.0,808.0,91.0,271.6803515302598,36.88
1603019431.8534,77.0,808.0,89.0,271.653130361541,36.88
1603019431.8554,77.0,808.0,93.0,271.6309339671443,36.88
1603019431.8574,77.0,808.0,110.0,271.6139079927022,36.88
1603019431.8594,77.0,808.0,122.0,271.6021980838472,36.88
1603019431.8614,77.0,808.0,130.0,271.59594988621194,36.88
1603019431.8634,77.0,808.0,127.0,271.5953090454288,36.88
1603019431.8654,77.0,808.0,110.0,271.6004212071304,36.88
1603019431.8674,77.0,808.0,105.0,271.61143201694927,36.88
1603019431.8694,77.0,808.0,115.0,271.6284871205179,36.88
1603019431.8715,77.0,808.0,110.0,271.65173216346875,36.88
1603019431.8734,77.0,808.0,96.0,271.6813127914345,36.88
1603019431.8754,77.0,808.0,98.0,271.71737465004753,36.88
1603019431.8774,77.0,808.0,101.0,271.7600633849404,36.88
1603019431.8794,77.0,808.0,103.0,271.80952464174567,36.88
1603019431.8814,77.0,808.0,115.0,271.8659040660959,36.88
1603019431.8835,77.0,808.0,122.0,271.9293473036235,36.88
1603019431.8854,77.0,808.0,101.0,271.9999999999611,36.88
1603019431.8875,77.0,808.0,84.0,271.9999999999611,36.88
1603019431.8895,77.0,808.0,197.0,271.9999999999611,36.88
1603019431.8915,77.0,808.0,452.0,271.9999999999611,36.88
1603019431.8934,77.0,808.0,522.0,271.9999999999611,36.88
1603019431.8957,77.0,808.0,113.0,271.9999999999611,36.88
1603019431.8975,77.0,808.0,-296.0,271.9999999999611,36.88
1603019431.8994,77.0,808.0,-113.0,271.9999999999611,36.88
1603019431.9015,77.0,808.0,166.0,271.9999999999611,36.88
1603019431.9035,77.0,808.0,98.0,271.9999999999611,36.88
1603019431.9054,77.0,808.0,52.0,271.9999999999611,36.88
1603019431.9075,77.0,808.0,137.0,271.9999999999611,36.88
1603019431.9094,77.0,808.0,127.0,271.9999999999611,36.88
1603019431.9114,77.0,808.0,98.0,271.9999999999611,36.88
1603019431.9135,77.0,808.0,120.0,271.9999999999611,36.88
1603019431.9154,77.0,808.0,125.0,271.9999999999611,36.88
1603019431.9174,77.0,808.0,127.0,271.9999999999611,36.88
1603019431.9194,77.0,808.0,139.0,271.9999999999611,36.88
1603019431.9215,77.0,808.0,118.0,271.9999999999611,36.88
1603019431.9234,77.0,808.0,105.0,271.9999999999611,36.88
1603019431.9254,77.0,808.0,130.0,271.9999999999611,36.88
1603019431.9274,77.0,808.0,144.0,271.9999999999611,36.88
1603019431.9295,77.0,808.0,139.0,271.9999999999611,36.88
1603019432.3274,77.0,808.0,137.0,271.9999999999611,36.88
1603019432.3281,77.0,808.0,144.0,271.9999999999611,36.88
1603019432.3306,77.0,808.0,156.0,271.9999999999611,36.88
1603019432.3332,77.0,808.0,163.0,271.9999999999611,36.88
1603019432.3352,77.0,808.0,173.0,271.9999999999611,36.88
1603019432.3373,77.0,808.0,171.0,271.9999999999611,36.88
1603019432.3392,77.0,808.0,154.0,271.9999999999611,36.88
1603019432.3412,77.0,808.0,158.0,271.9999999999611,36.88
1603019432.3432,77.0,808.0,190.0,271.9999999999611,36.88
1603019432.3451,77.0,808.0,207.0,271.9999999999611,36.88
1603019432.3472,77.0,808.0,199.0,271.9999999999611,36.88
1603019432.3492,77.0,808.0,204.0,271.9999999999611,36.88
1603019432.3511,77.0,808.0,216.0,271.9999999999611,36.88
1603019432.3531,77.0,808.0,209.0,271.9999999999611,36.88
1603019432.3551,77.0,808.0,190.0,271.9999999999611,36.88
1603019432.3572,77.0,808.0,183.0,271.9999999999611,36.88
1603019432.3591,77.0,808.0,173.0,271.9999999999611,36.88
1603019432.3611,77.0,808.0,139.0,271.9999999999611,36.88
1603019432.3632,77.0,808.0,105.0,271.9999999999611,36.88
1603019432.3651,77.0,808.0,89.0,271.9999999999611,36.88
1603019432.3671,77.0,808.0,79.0,271.9999999999611,36.88
1603019432.3691,77.0,808.0,77.0,271.9999999999611,36.88
1603019432.3712,77.0,808.0,69.0,271.9999999999611,36.88
1603019432.3732,77.0,808.0,48.0,272.1554359319038,36.88
1603019432.3752,77.0,808.0,33.0,272.29501105446457,36.88
1603019432.3771,77.0,808.0,33.0,272.419045788035,36.88
1603019432.3791,77.0,808.0,40.0,272.52786055300663,36.88
1603019432.3812,77.0,808.0,36.0,272.62177576977103,36.88
1603019432.3832,77.0,808.0,33.0,272.7011118587197,36.88
1603019432.3851,77.0,808.0,43.0,272.7661892402443,36.88
1603019432.3871,77.0,808.0,50.0,272.8173283347362,36.88
1603019432.3891,77.0,808.0,50.0,272.85484956258716,36.88
1603019432.3912,77.0,808.0,60.0,272.8790733441886,36.88
1603019432.3933,77.0,808.0,72.0,272.8903200999321,36.88
1603019432.3952,77.0,808.0,74.0,272.8889102502093,36.88
1603019432.3971,77.0,808.0,79.0,272.87516421541164,36.88
1603019432.3991,77.0,808.0,81.0,272.84940241593074,36.88
1603019432.4012,77.0,808.0,67.0,272.8119452721581,36.88
1603019432.4031,77.0,808.0,60.0,272.7631132044853,36.88
1603019432.4051,77.0,808.0,72.0,272.7032266333039,36.88
1603019432.4072,77.0,808.0,81.0,272.6326059790055,36.88
1603019432.4091,77.0,808.0,81.0,272.5515716619816,36.88
1603019432.4111,77.0,808.0,84.0,272.46044410262374,36.88
1603019432.4131,77.0,808.0,86.0,272.35954372132346,36.88
1603019432.4152,77.0,808.0,91.0,272.2491909384724,36.88
1603019432.4172,77.0,808.0,89.0,272.129706174462,36.88
1603019432.4191,77.0,808.0,79.0,272.0014098496839,36.88
1603019432.4211,77.0,808.0,74.0,271.86462238452964,36.88
1603019432.4231,77.0,808.0,74.0,271.71966419939076,36.88
1603019432.4251,77.0,808.0,74.0,271.56685571465886,36.88
1603019432.4271,77.0,808.0,84.0,271.4065173507254,36.88
1603019432.4291,77.0,808.0,86.0,271.23896952798196,36.88
1603019432.4312,77.0,808.0,72.0,271.0645326668201,36.88
1603019432.4332,77.0,808.0,65.0,270.8835271876315,36.88
1603019432.4351,77.0,808.0,62.0,270.6962735108075,36.88
1603019432.4371,77.0,808.0,67.0,270.5030920567398,36.88
1603019432.4391,77.0,808.0,89.0,270.3043032458199,36.88
1603019432.4412,77.0,808.0,79.0,270.1002274984394,36.88
1603019432.4431,77.0,808.0,43.0,269.89118523498973,36.88
1603019432.4451,77.0,808.0,48.0,269.6774968758626,36.88
1603019432.4472,77.0,808.0,81.0,269.45948284144947,36.88
1603019432.4491,77.0,808.0,96.0,269.2374635521419,36.88
1603019432.4512,77.0,808.0,93.0,269.0117594283315,36.88
1603019432.4531,77.0,808.0,103.0,268.78269089040975,36.88
1603019432.4552,77.0,808.0,115.0,268.5505783587683,36.88
1603019432.4571,77.0,808.0,105.0,268.3157422537986,36.88
1603019432.4592,77.0,808.0,91.0,268.0785029958922,36.88
1603019432.4611,77.0,808.0,81.0,267.8391810054408,36.88
1603019432.4631,77.0,808.0,86.0,267.59809670283585,36.88
1603019432.4652,77.0,808.0,91.0,267.3555705084689,36.88
1603019432.4672,77.0,808.0,93.0,267.1119228427315,36.88
1603019432.4691,77.0,808.0,93.0,266.86747412601517,36.88
1603019432.4711,77.0,808.0,89.0,266.62254477871153,36.88
1603019432.9278,77.0,784.0,74.0,266.37745522121213,36.88
1603019432.9287,77.0,784.0,72.0,266.1325258739085,36.88
1603019432.9297,77.0,784.0,65.0,265.88807715719224,36.88
1603019432.9317,77.0,784.0,57.0,265.6444294914548,36.88
1603019432.9337,77.0,784.0,161.0,265.4019032970878,36.88
1603019432.9357,77.0,784.0,419.0,265.16081899448284,36.88
1603019432.9377,77.0,784.0,510.0,264.9214970040314,36.88
1603019432.9398,77.0,784.0,105.0,264.684257746125,36.88
1603019432.9416,77.0,784.0,-344.0,264.4494216411553,36.88
1603019432.9437,77.0,784.0,-204.0,264.21730910951385,36.88
1603019432.9456,77.0,784.0,120.0,263.98824057159214,36.88
1603019432.9479,77.0,784.0,101.0,263.7625364477817,36.88
1603019432.9497,77.0,784.0,40.0,263.5405171584742,36.88
1603019432.9516,77.0,784.0,105.0,263.3225031240611,36.88
1603019432.9536,77.0,784.0,105.0,263.1088147649339,36.88
1603019432.9556,77.0,784.0,77.0,262.89977250148434,36.88
1603019432.9576,77.0,784.0,96.0,262.6956967541038,36.88
1603019432.9596,77.0,784.0,96.0,262.4969079431839,36.88
1603019432.9616,77.0,784.0,89.0,262.3037264891162,36.88
1603019432.9636,77.0,784.0,110.0,262.1164728122922,36.88
1603019432.9657,77.0,784.0,125.0,261.93546733310353,36.88
1603019432.9676,77.0,784.0,120.0,261.76103047194175,36.88
1603019432.9696,77.0,784.0,115.0,261.59348264919834,36.88
1603019432.9717,77.0,784.0,115.0,261.5037969816024,36.88
1603019432.9736,77.0,784.0,132.0,261.41443173439814,36.88
1603019432.9756,77.0,784.0,151.0,261.3258529736094,36.88
1603019432.9776,77.0,784.0,146.0,261.2385267652605,36.88
1603019432.9796,77.0,784.0,122.0,261.15291917537525,36.88
1603019432.9816,77.0,784.0,130.0,261.06949626997795,36.88
1603019432.9836,77.0,784.0,161.0,260.98872411509257,36.88
1603019432.9856,77.0,784.0,173.0,260.9110687767432,36.88
1603019432.9876,77.0,784.0,173.0,260.836996320954,36.88
1603019432.9896,77.0,784.0,183.0,260.76697281374885,36.88
1603019432.9917,77.0,784.0,195.0,260.70146432115206,36.88
1603019432.9936,77.0,784.0,199.0,260.64093690918753,36.88
1603019432.9956,77.0,784.0,199.0,260.5858566438795,36.88
1603019432.9976,77.0,784.0,211.0,260.5366895912519,36.88
1603019432.9996,77.0,784.0,219.0,260.4939018173289,36.88
1603019433.0016,77.0,784.0,209.0,260.4579593881345,36.88
1603019433.0036,77.0,784.0,202.0,260.4293283696929,36.88
1603019433.0056,77.0,784.0,187.0,260.40847482802803,36.88
1603019433.0076,77.0,784.0,158.0,260.39586482916405,36.88
1603019433.0096,77.0,784.0,144.0,260.39196443912505,36.88
1603019433.0116,77.0,784.0,149.0,260.3972397239351,36.88
1603019433.0136,77.0,784.0,134.0,260.41215674961825,36.88
1603019433.0156,77.0,784.0,93.0,260.4371815821986,36.88
1603019433.0176,77.0,784.0,57.0,260.4727802877002,36.88
1603019433.0196,77.0,784.0,38.0,260.5194189321472,36.88
1603019433.0217,77.0,784.0,31.0,260.57756358156354,36.88
1603019433.0236,77.0,784.0,24.0,260.6476803019735,36.88
1603019433.0256,77.0,784.0,16.0,260.73023515940093,36.88
1603019433.0277,77.0,784.0,16.0,260.6540770581539,36.88
1603019433.0296,77.0,784.0,24.0,260.57478757580765,36.88
1603019433.0316,77.0,784.0,28.0,260.4925123579946,36.88
1603019433.0336,77.0,784.0,28.0,260.40739705034736,36.88
1603019433.0356,77.0,784.0,28.0,260.3195872984984,36.88
1603019433.0376,77.0,784.0,26.0,260.2292287480803,36.88
1603019433.0396,77.0,784.0,38.0,260.13646704472546,36.88
1603019433.0416,77.0,784.0,55.0,260.04144783406656,36.88
1603019433.0436,77.0,784.0,50.0,259.94431676173605,36.88
1603019433.0456,77.0,784.0,43.0,259.84521947336646,36.88
1603019433.0476,77.0,784.0,50.0,259.7443016145903,36.88
1603019433.0498,77.0,784.0,55.0,259.64170883104015,36.88
1603019433.0516,77.0,784.0,65.0,259.53758676834843,36.88
1603019433.0536,77.0,784.0,81.0,259.43208107214775,36.88
1603019433.0556,77.0,784.0,77.0,259.32533738807064,36.88
1603019433.0576,77.0,784.0,67.0,259.21750136174956,36.88
1603019433.0596,77.0,784.0,79.0,259.1087186388171,36.88
1603019433.0616,77.0,784.0,84.0,258.9991348649057,36.88
1603019433.0636,77.0,784.0,67.0,258.88889568564804,36.88
1603019433.0656,77.0,784.0,60.0,258.7781467466765,36.88
1603019433.0676,77.0,784.0,69.0,258.66703369362364,36.88
1603019433.0696,77.0,784.0,74.0,258.555702172122,36.88
1603019433.4976,77.0,784.0,69.0,258.44429782780406,36.88
1603019433.4985,77.0,784.0,65.0,258.3329663063024,36.88
1603019433.501,77.0,784.0,67.0,258.22185325324955,36.88
1603019433.5036,77.0,784.0,72.0,258.111104314278,36.88
1603019433.5056,77.0,784.0,72.0,258.0008651350203,36.88
1603019433.5076,77.0,784.0,77.0,257.89128136110895,36.88
1603019433.5096,77.0,784.0,81.0,257.7824986381765,36.88
1603019433.5115,77.0,784.0,79.0,257.6746626118554,36.88
1603019433.5135,77.0,784.0,57.0,257.56791892777824,36.88
1603019433.5155,77.0,784.0,28.0,257.46241323157756,36.88
1603019433.5175,77.0,784.0,36.0,257.3582911688859,36.88
1603019433.5195,77.0,784.0,57.0,257.2556983853357,36.88
1603019433.5215,77.0,784.0,72.0,257.15478052655953,36.88
1603019433.5235,77.0,784.0,98.0,257.05568323818994,36.88
1603019433.5255,77.0,784.0,115.0,256.95855216585943,36.88
1603019433.5275,77.0,784.0,98.0,256.86353295520047,36.88
1603019433.5295,77.0,784.0,84.0,256.7707712518457,36.88
1603019433.5315,77.0,784.0,91.0,256.68041270142754,36.88
1603019433.5335,77.0,784.0,91.0,256.5926029495786,36.88
1603019433.5355,77.0,784.0,77.0,256.50748764193133,36.88
1603019433.5375,77.0,784.0,65.0,256.4252124241183,36.88
1603019433.5395,77.0,784.0,74.0,256.345922941772,36.88
1603019433.5415,77.0,784.0,81.0,256.269764840525,36.88
1603019433.5434,77.0,784.0,79.0,256.21101430527733,36.88
1603019433.5455,77.0,784.0,81.0,256.154244550632,36.88
1603019433.5475,77.0,784.0,86.0,256.09963035134797,36.88
1603019433.5494,77.0,784.0,74.0,256.04734648218437,36.88
1603019433.5515,77.0,784.0,67.0,255.99756771790024,36.88
1603019433.5535,77.0,784.0,173.0,255.95046883325446,36.88
1603019433.5554,77.0,784.0,428.0,255.90622460300622,36.88
1603019433.5574,77.0,784.0,529.0,255.86500980191445,36.88
1603019433.5595,77.0,784.0,132.0,255.82699920473826,36.88
1603019433.5615,77.0,784.0,-346.0,255.79236758623657,36.88
1603019433.5635,77.0,784.0,-226.0,255.76128972116854,36.88
1603019433.5654,77.0,784.0,110.0,255.7339403842931,36.88
1603019433.5674,77.0,784.0,108.0,255.71049435036932,36.88
1603019433.5695,77.0,784.0,45.0,255.6911263941562,36.88
1603019433.5715,77.0,784.0,113.0,255.67601129041284,36.88
1603019433.5735,77.0,784.0,120.0,255.6653238138982,36.88
1603019433.5755,77.0,784.0,93.0,255.65923873937132,36.88
1603019433.5777,77.0,784.0,115.0,255.65793084159125,36.88
1603019433.5795,77.0,784.0,118.0,255.66157489531705,36.88
1603019433.5816,77.0,784.0,96.0,255.67034567530763,36.88
1603019433.5834,77.0,784.0,103.0,255.68441795632216,36.88
1603019433.5855,77.0,784.0,105.0,255.70396651311958,36.88
1603019433.5875,77.0,784.0,105.0,255.72916612045893,36.88
1603019433.5895,77.0,784.0,122.0,255.7601915530993,36.88
1603019433.5915,77.0,784.0,134.0,255.79721758579964,36.88
1603019433.5935,77.0,784.0,134.0,255.840418993319,36.88
1603019433.5955,77.0,784.0,134.0,255.88997055041645,36.88
1603019433.5975,77.0,784.0,137.0,255.946047031851,36.88
1603019433.5995,77.0,784.0,146.0,255.93081541160163,36.88
1603019433.6002,77.0,784.0,158.0,255.9149575151324,36.88
1603019433.6014,77.0,784.0,158.0,255.89850247156974,36.88
1603019433.6035,77.0,784.0,161.0,255.88147941004033,36.88
1603019433.6055,77.0,784.0,175.0,255.8639174596705,36.88
1603019433.6075,77.0,784.0,192.0,255.8458457495869,36.88
1603019433.6094,77.0,784.0,199.0,255.82729340891595,36.88
1603019433.6115,77.0,784.0,199.0,255.80828956678417,36.88
1603019433.6134,77.0,784.0,207.0,255.78886335231803,36.88
1603019433.6155,77.0,784.0,216.0,255.7690438946441,36.88
1603019433.6175,77.0,784.0,211.0,255.74886032288887,36.88
1603019433.6195,77.0,784.0,202.0,255.72834176617883,36.88
1603019433.6215,77.0,784.0,202.0,255.7075173536405,36.88
1603019433.6234,77.0,784.0,202.0,255.6864162144004,36.88
1603019433.6255,77.0,784.0,192.0,255.66506747758498,36.88
1603019433.6275,77.0,784.0,168.0,255.64350027232078,36.88
1603019433.6295,77.0,784.0,134.0,255.62174372773427,36.88
1603019433.6302,77.0,784.0,108.0,255.59982697295197,36.88
1603019433.6315,77.0,784.0,84.0,255.5777791371004,36.88
1603019433.6335,77.0,784.0,67.0,255.5556293493061,36.88
1603019433.6355,77.0,784.0,62.0,255.5334067386955,36.88
1603019433.6375,77.0,784.0,57.0,255.51114043439517,36.88
1603019434.0375,77.0,772.0,36.0,255.48885956553158,36.88
1603019434.0383,77.0,772.0,14.0,255.46659326123125,36.88
1603019434.0395,77.0,772.0,12.0,255.4443706506207,36.88
1603019434.0415,77.0,772.0,26.0,255.42222086282638,36.88
1603019434.0435,77.0,772.0,45.0,255.40017302697484,36.88
1603019434.0455,77.0,772.0,48.0,255.37825627219254,36.88
1603019434.0475,77.0,772.0,38.0,255.35649972760606,36.88
1603019434.0495,77.0,772.0,31.0,255.33493252234186,36.88
1603019434.0503,77.0,772.0,36.0,255.31358378552645,36.88
1603019434.0515,77.0,772.0,43.0,255.2924826462863,36.88
1603019434.0535,77.0,772.0,31.0,255.27165823374796,36.88
1603019434.0556,77.0,772.0,21.0,255.25113967703797,36.88
1603019434.0575,77.0,772.0,50.0,255.23095610528273,36.88
1603019434.0595,77.0,772.0,67.0,255.2111366476088,36.88
1603019434.0615,77.0,772.0,52.0,255.19171043314273,36.88
1603019434.0635,77.0,772.0,57.0,255.17270659101095,36.88
1603019434.0655,77.0,772.0,72.0,255.15415425033999,36.88
1603019434.0675,77.0,772.0,57.0,255.13608254025635,36.88
1603019434.0697,77.0,772.0,60.0,255.11852058988657,36.88
1603019434.0715,77.0,772.0,81.0,255.1014975283571,36.88
1603019434.0734,77.0,772.0,69.0,255.0850424847945,36.88
1603019434.0754,77.0,772.0,48.0,255.06918458832527,36.88
1603019434.0774,77.0,772.0,60.0,255.05395296807583,36.88
1603019434.0795,77.0,772.0,60.0,255.03937675317283,36.88
1603019434.0802,77.0,772.0,36.0,255.0254850727426,36.88
1603019434.0815,77.0,772.0,36.0,255.0123070559118,36.88
1603019434.0834,77.0,772.0,67.0,254.99987183180687,36.88
1603019434.0855,77.0,772.0,86.0,254.98820852955433,36.88
1603019434.0875,77.0,772.0,74.0,254.9773462782807,36.88
1603019434.0895,77.0,772.0,67.0,254.96731420711237,36.88
1603019434.0915,77.0,772.0,72.0,254.95814144517598,36.88
1603019434.0935,77.0,772.0,62.0,254.949857121598,36.88
1603019434.0955,77.0,772.0,65.0,254.94249036550494,36.88
1603019434.0975,77.0,772.0,77.0,254.93607030602325,36.88
1603019434.0994,77.0,772.0,67.0,254.93062607227947,36.88
1603019434.1015,77.0,772.0,55.0,254.92618679340015,36.88
1603019434.1035,77.0,772.0,52.0,254.9227815985117,36.88
1603019434.1055,77.0,772.0,55.0,254.92043961674077,36.88
1603019434.1075,77.0,772.0,84.0,254.91918997721368,36.88
1603019434.1095,77.0,772.0,113.0,254.91906180905707,36.88
1603019434.1102,77.0,772.0,110.0,254.9200842413974,36.88
1603019434.1125,77.0,772.0,93.0,254.92228640336114,36.88
1603019434.1145,77.0,772.0,86.0,254.92569742407485,36.88
1603019434.1165,77.0,772.0,79.0,254.93034643266506,36.88
1603019434.1185,77.0,772.0,69.0,254.93626255825822,36.88
1603019434.1204,77.0,772.0,77.0,254.9434749299808,36.88
1603019434.1224,77.0,772.0,86.0,254.9520126769594,36.88
1603019434.1245,77.0,772.0,81.0,254.96190492832042,36.88
1603019434.1265,77.0,772.0,74.0,254.9731808131905,36.88
1603019434.1285,77.0,772.0,79.0,254.98586946069602,36.88
1603019434.1305,77.0,772.0,93.0,254.99999999996353,36.88
1603019434.1325,77.0,772.0,91.0,254.99999999996353,36.88
1603019434.1345,77.0,772.0,69.0,254.99999999996353,36.88
1603019434.1365,77.0,772.0,79.0,254.99999999996353,36.88
1603019434.1385,77.0,772.0,204.0,254.99999999996353,36.88
1603019434.1391,77.0,772.0,436.0,254.99999999996353,36.88
1603019434.1405,77.0,772.0,486.0,254.99999999996353,36.88
1603019434.1424,77.0,772.0,57.0,254.99999999996353,36.88
1603019434.1445,77.0,772.0,-354.0,254.99999999996353,36.88
1603019434.1465,77.0,772.0,-149.0,254.99999999996353,36.88
1603019434.1485,77.0,772.0,156.0,254.99999999996353,36.88
1603019434.1505,77.0,772.0,101.0,254.99999999996353,36.88
1603019434.1525,77.0,772.0,55.0,254.99999999996353,36.88
1603019434.1545,77.0,772.0,125.0,254.99999999996353,36.88
1603019434.1565,77.0,772.0,113.0,254.99999999996353,36.88
1603019434.1585,77.0,772.0,77.0,254.99999999996353,36.88
1603019434.1604,77.0,772.0,98.0,254.99999999996353,36.88
1603019434.1625,77.0,772.0,118.0,254.99999999996353,36.88
1603019434.1645,77.0,772.0,113.0,254.99999999996353,36.88
1603019434.1666,77.0,772.0,120.0,254.99999999996353,36.88
1603019434.1685,77.0,772.0,127.0,254.99999999996353,36.88
1603019434.1691,77.0,772.0,120.0,254.99999999996353,36.88
1603019434.1704,77.0,772.0,125.0,254.99999999996353,36.88
1603019434.6076,77.0,772.0,146.0,254.99999999996353,36.88
1603019434.6085,77.0,772.0,139.0,254.99999999996353,36.88
1603019434.611,77.0,772.0,122.0,254.99999999996353,36.88
1603019434.6137,77.0,772.0,139.0,254.99999999996353,36.88
1603019434.6157,77.0,772.0,158.0,254.99999999996353,36.88
1603019434.6175,77.0,772.0,161.0,254.99999999996353,36.88
1603019434.6196,77.0,772.0,146.0,254.99999999996353,36.88
1603019434.6215,77.0,772.0,144.0,254.99999999996353,36.88
1603019434.6235,77.0,772.0,166.0,254.99999999996353,36.88
1603019434.6255,77.0,772.0,185.0,254.99999999996353,36.88
1603019434.6275,77.0,772.0,180.0,254.99999999996353,36.88
1603019434.6295,77.0,772.0,175.0,254.99999999996353,36.88
1603019434.6315,77.0,772.0,185.0,254.99999999996353,36.88
1603019434.6334,77.0,772.0,199.0,254.99999999996353,36.88
1603019434.6341,77.0,772.0,209.0,254.99999999996353,36.88
1603019434.6354,77.0,772.0,202.0,254.99999999996353,36.88
1603019434.6374,77.0,772.0,192.0,254.99999999996353,36.88
1603019434.6394,77.0,772.0,187.0,254.99999999996353,36.88
1603019434.6415,77.0,772.0,173.0,254.99999999996353,36.88
1603019434.6434,77.0,772.0,154.0,254.99999999996353,36.88
1603019434.6454,77.0,772.0,142.0,254.99999999996353,36.88
1603019434.6474,77.0,772.0,110.0,254.99999999996353,36.88
1603019434.6495,77.0,772.0,72.0,254.99999999996353,36.88
1603019434.6516,77.0,772.0,57.0,255.05652215703358,36.88
1603019434.6536,77.0,772.0,48.0,255.1072767470557,36.88
1603019434.6555,77.0,772.0,28.0,255.15238028653587,36.88
1603019434.6575,77.0,772.0,14.0,255.19194929198008,36.88
1603019434.6595,77.0,772.0,14.0,255.22610027989438,36.88
1603019434.6615,77.0,772.0,26.0,255.25494976678485,36.88
1603019434.6636,77.0,772.0,28.0,255.27861426915737,36.88
1603019434.6642,77.0,772.0,14.0,255.29721030351809,36.88
1603019434.6655,77.0,772.0,14.0,255.310854386373,36.88
1603019434.6675,77.0,772.0,38.0,255.31966303422806,36.88
1603019434.6695,77.0,772.0,48.0,255.32375276358934,36.88
1603019434.6715,77.0,772.0,40.0,255.32324009096286,36.88
1603019434.6734,77.0,772.0,48.0,255.3182415328546,36.88
1603019434.6754,77.0,772.0,50.0,255.30887360577069,36.88
1603019434.6774,77.0,772.0,38.0,255.29525282621697,36.88
1603019434.6795,77.0,772.0,38.0,255.27749571069958,36.88
1603019434.6815,77.0,772.0,65.0,255.25571877572455,36.88
1603019434.6835,77.0,772.0,74.0,255.23003853779787,36.88
1603019434.6854,77.0,772.0,57.0,255.2005715134255,36.88
1603019434.6874,77.0,772.0,45.0,255.16743421911357,36.88
1603019434.6894,77.0,772.0,50.0,255.13074317136804,36.88
1603019434.6914,77.0,772.0,65.0,255.0906148866949,36.88
1603019434.6934,77.0,772.0,72.0,255.0471658816002,36.88
1603019434.6941,77.0,772.0,65.0,255.00051267259002,36.88
1603019434.6956,77.0,772.0,62.0,254.95077177617028,36.88
1603019434.6975,77.0,772.0,72.0,254.89805970884706,36.88
1603019434.6994,77.0,772.0,65.0,254.84249298712635,36.88
1603019434.7015,77.0,772.0,43.0,254.78418812751417,36.88
1603019434.7035,77.0,772.0,50.0,254.72326164651653,36.88
1603019434.7054,77.0,772.0,79.0,254.6598300606395,36.88
1603019434.7074,77.0,772.0,81.0,254.5940098863891,36.88
1603019434.7094,77.0,772.0,69.0,254.52591764027127,36.88
1603019434.7114,77.0,772.0,69.0,254.45566983879215,36.88
1603019434.7134,77.0,772.0,72.0,254.38338299845762,36.88
1603019434.7155,77.0,772.0,72.0,254.30917363577376,36.88
1603019434.7175,77.0,772.0,72.0,254.23315826724664,36.88
1603019434.7194,77.0,772.0,72.0,254.1554534093822,36.88
1603019434.7214,77.0,772.0,79.0,254.07617557868653,36.88
1603019434.7234,77.0,772.0,74.0,253.99544129166563,36.88
1603019434.7241,77.0,772.0,57.0,253.91336706482545,36.88
1603019434.7254,77.0,772.0,62.0,253.83006941467212,36.88
1603019434.7274,77.0,772.0,89.0,253.74566485771155,36.88
1603019434.7294,77.0,772.0,93.0,253.66026991044984,36.88
1603019434.7315,77.0,772.0,89.0,253.57400108939302,36.88
1603019434.7334,77.0,772.0,105.0,253.48697491104704,36.88
1603019434.7354,77.0,772.0,115.0,253.39930789191797,36.88
1603019434.7374,77.0,772.0,118.0,253.31111654851176,36.88
1603019434.7395,77.0,772.0,118.0,253.22251739733454,36.88
1603019434.7415,77.0,772.0,105.0,253.13362695489226,36.88
1603019434.7434,77.0,772.0,84.0,253.04456173769094,36.88
1603019435.1474,77.0,772.0,79.0,252.95543826223664,36.88
1603019435.1482,77.0,772.0,77.0,252.86637304503532,36.88
1603019435.1506,77.0,772.0,67.0,252.77748260259304,36.88
1603019435.1532,77.0,772.0,74.0,252.6888834514158,36.88
1603019435.1552,77.0,772.0,93.0,252.6006921080096,36.88
1603019435.1572,77.0,772.0,89.0,252.5130250888805,36.88
1603019435.1593,77.0,772.0,81.0,252.42599891053453,36.88
1603019435.1612,77.0,772.0,69.0,252.33973008947768,36.88
1603019435.1632,77.0,772.0,77.0,252.25433514221598,36.88
1603019435.1652,77.0,772.0,236.0,252.16993058525546,36.88
1603019435.1672,77.0,772.0,486.0,252.0866329351021,36.88
1603019435.1692,77.0,772.0,414.0,252.00455870826195,36.88
1603019435.1712,77.0,772.0,-93.0,251.92382442124105,36.88
1603019435.1732,77.0,772.0,-339.0,251.84454659054535,36.88
1603019435.1752,77.0,772.0,-31.0,251.76684173268094,36.88
1603019435.1772,77.0,772.0,154.0,251.6908263641538,36.88
1603019435.1792,77.0,772.0,45.0,251.61661700146996,36.88
1603019435.1799,77.0,772.0,52.0,251.54433016113546,36.88
1603019435.1822,77.0,772.0,130.0,251.4740823596563,36.88
1603019435.1842,77.0,772.0,113.0,251.4059901135385,36.88
1603019435.1862,77.0,772.0,84.0,251.34016993928807,36.88
1603019435.1882,77.0,772.0,81.0,251.27673835341105,36.88
1603019435.1901,77.0,772.0,81.0,251.21581187241344,36.88
1603019435.1922,77.0,772.0,93.0,251.28468186620893,36.88
1603019435.1942,77.0,772.0,105.0,251.34331297203795,36.88
1603019435.1964,77.0,772.0,101.0,251.3920838685451,36.88
1603019435.1982,77.0,772.0,108.0,251.43137323437486,36.88
1603019435.2003,77.0,772.0,122.0,251.46155974817185,36.88
1603019435.2022,77.0,772.0,113.0,251.48302208858064,36.88
1603019435.2042,77.0,772.0,113.0,251.4961389342458,36.88
1603019435.2062,77.0,772.0,142.0,251.50128896381187,36.88
1603019435.2081,77.0,772.0,151.0,251.49885085592342,36.88
1603019435.2103,77.0,772.0,142.0,251.489203289225,36.88
1603019435.2108,77.0,772.0,151.0,251.4727249423612,36.88
1603019435.2123,77.0,772.0,158.0,251.44979449397655,36.88
1603019435.2142,77.0,772.0,151.0,251.42079062271563,36.88
1603019435.2162,77.0,772.0,156.0,251.38609200722303,36.88
1603019435.2181,77.0,772.0,175.0,251.34607732614327,36.88
1603019435.2203,77.0,772.0,185.0,251.30112525812095,36.88
1603019435.2221,77.0,772.0,190.0,251.2516144818006,36.88
1603019435.2241,77.0,772.0,197.0,251.19792367582681,36.88
1603019435.2262,77.0,772.0,207.0,251.1404315188441,36.88
1603019435.2281,77.0,772.0,216.0,251.07951668949713,36.88
1603019435.2302,77.0,772.0,214.0,251.01555786643036,36.88
1603019435.2321,77.0,772.0,197.0,250.94893372828838,36.88
1603019435.2341,77.0,772.0,185.0,250.8800229537158,36.88
1603019435.2361,77.0,772.0,180.0,250.80920422135713,36.88
1603019435.2381,77.0,772.0,166.0,250.73685620985697,36.88
1603019435.2402,77.0,772.0,134.0,250.66335759785986,36.88
1603019435.2421,77.0,772.0,101.0,250.58908706401036,36.88
1603019435.2443,77.0,772.0,84.0,250.51442328695305,36.88
1603019435.2463,77.0,772.0,65.0,250.37733870470842,36.88
1603019435.2482,77.0,772.0,38.0,250.23461763648513,36.88
1603019435.2503,77.0,772.0,31.0,250.08652224442167,36.88
1603019435.2522,77.0,772.0,48.0,249.9333146906566,36.88
1603019435.2542,77.0,772.0,48.0,249.77525713732848,36.88
1603019435.2561,77.0,772.0,26.0,249.61261174657585,36.88
1603019435.2581,77.0,772.0,31.0,249.44564068053722,36.88
1603019435.2602,77.0,772.0,50.0,249.27460610135117,36.88
1603019435.2621,77.0,772.0,38.0,249.09977017115625,36.88
1603019435.2641,77.0,772.0,28.0,248.92139505209096,36.88
1603019435.2661,77.0,772.0,40.0,248.73974290629388,36.88
1603019435.2681,77.0,772.0,43.0,248.55507589590354,36.88
1603019435.2702,77.0,772.0,43.0,248.3676561830585,36.88
1603019435.2721,77.0,772.0,50.0,248.17774592989727,36.88
1603019435.2741,77.0,772.0,55.0,247.98560729855845,36.88
1603019435.2761,77.0,772.0,67.0,247.79150245118052,36.88
1603019435.2781,77.0,772.0,77.0,247.59569354990205,36.88
1603019435.2802,77.0,772.0,72.0,247.3984427568616,36.88
1603019435.2821,77.0,772.0,67.0,247.20001223419771,36.88
1603019435.2841,77.0,772.0,65.0,247.00066414404893,36.88
1603019435.2861,77.0,772.0,57.0,246.80066064855376,36.88
1603019435.2881,77.0,772.0,67.0,246.60026390985078,36.88
1603019435.7178,77.0,772.0,79.0,246.39973609007856,36.88
1603019435.7186,77.0,772.0,67.0,246.1993393513756,36.88
1603019435.7199,77.0,772.0,57.0,245.99933585588047,36.88
1603019435.722,77.0,772.0,74.0,245.7999877657317,36.88
1603019435.7239,77.0,772.0,79.0,245.6015572430678,36.88
1603019435.7258,77.0,772.0,60.0,245.40430645002735,36.88
1603019435.7278,77.0,772.0,52.0,245.2084975487489,36.88
1603019435.7298,77.0,772.0,57.0,245.014392701371,36.88
1603019435.7318,77.0,772.0,45.0,244.82225407003216,36.88
1603019435.7338,77.0,772.0,45.0,244.63234381687096,36.88
1603019435.7358,77.0,772.0,62.0,244.44492410402592,36.88
1603019435.7378,77.0,772.0,50.0,244.26025709363557,36.88
1603019435.7398,77.0,772.0,40.0,244.0786049478385,36.88
1603019435.7418,77.0,772.0,67.0,243.90022982877323,36.88
1603019435.7438,77.0,772.0,79.0,243.7253938985783,36.88
1603019435.7458,77.0,772.0,60.0,243.55435931939223,36.88
1603019435.7478,77.0,772.0,57.0,243.3873882533536,36.88
1603019435.7498,77.0,772.0,69.0,243.22474286260095,36.88
1603019435.7518,77.0,772.0,72.0,243.06668530927283,36.88
1603019435.7538,77.0,772.0,67.0,242.91347775550778,36.88
1603019435.7558,77.0,772.0,57.0,242.76538236344433,36.88
1603019435.7577,77.0,772.0,48.0,242.622661295221,36.88
1603019435.7597,77.0,772.0,69.0,242.4855767129764,36.88
1603019435.7618,77.0,772.0,110.0,242.35439077884902,36.88
1603019435.7637,77.0,772.0,113.0,242.22936565497744,36.88
1603019435.7658,77.0,772.0,91.0,242.11076350350018,36.88
1603019435.7678,77.0,772.0,93.0,241.99884648655578,36.88
1603019435.7698,77.0,772.0,96.0,241.8938767662828,36.88
1603019435.7718,77.0,772.0,72.0,241.79611650481976,36.88
1603019435.7737,77.0,772.0,57.0,241.70582786430523,36.88
1603019435.7757,77.0,772.0,72.0,241.62327300687775,36.88
1603019435.7777,77.0,772.0,77.0,241.54871409467586,36.88
1603019435.7797,77.0,772.0,69.0,241.48241328983812,36.88
1603019435.7818,77.0,772.0,79.0,241.42463275450305,36.88
1603019435.7837,77.0,772.0,89.0,241.3756346508092,36.88
1603019435.7857,77.0,772.0,89.0,241.3356811408951,36.88
1603019435.7877,77.0,772.0,81.0,241.3050343868993,36.88
1603019435.7898,77.0,772.0,69.0,241.28395655096037,36.88
1603019435.7917,77.0,772.0,125.0,241.27270979521685,36.88
1603019435.7937,77.0,772.0,344.0,241.27155628180725,36.88
1603019435.7957,77.0,772.0,517.0,241.28075817287015,36.88
1603019435.7977,77.0,772.0,240.0,241.30057763054407,36.88
1603019435.7997,77.0,772.0,-248.0,241.33127681696755,36.88
1603019435.8018,77.0,772.0,-231.0,241.37311789427915,36.88
1603019435.8037,77.0,772.0,91.0,241.42636302461742,36.88
1603019435.8057,77.0,772.0,108.0,241.4912743701209,36.88
1603019435.8077,77.0,772.0,33.0,241.5681140929281,36.88
1603019435.8098,77.0,772.0,108.0,241.65714435517765,36.88
1603019435.8117,77.0,772.0,120.0,241.75862731900799,36.88
1603019435.8138,77.0,772.0,79.0,241.87282514655772,36.88
1603019435.8157,77.0,772.0,105.0,241.99999999996538,36.88
1603019435.8177,77.0,772.0,115.0,241.99999999996538,36.88
1603019435.8197,77.0,772.0,96.0,241.99999999996538,36.88
1603019435.8218,77.0,772.0,108.0,241.99999999996538,36.88
1603019435.8239,77.0,772.0,120.0,241.99999999996538,36.88
1603019435.8258,77.0,772.0,125.0,241.99999999996538,36.88
1603019435.8277,77.0,772.0,127.0,241.99999999996538,36.88
1603019435.8297,77.0,772.0,118.0,241.99999999996538,36.88
1603019435.8317,77.0,772.0,110.0,241.99999999996538,36.88
1603019435.8337,77.0,772.0,118.0,241.99999999996538,36.88
1603019435.8357,77.0,772.0,125.0,241.99999999996538,36.88
1603019435.8378,77.0,772.0,130.0,241.99999999996538,36.88
1603019435.8398,77.0,772.0,134.0,241.99999999996538,36.88
1603019435.8417,77.0,772.0,137.0,241.99999999996538,36.88
1603019435.8438,77.0,772.0,142.0,241.99999999996538,36.88
1603019435.8458,77.0,772.0,158.0,241.99999999996538,36.88
1603019435.8479,77.0,772.0,175.0,241.99999999996538,36.88
1603019435.8497,77.0,772.0,178.0,241.99999999996538,36.88
1603019435.8518,77.0,772.0,185.0,241.99999999996538,36.88
1603019435.8537,77.0,772.0,197.0,241.99999999996538,36.88
1603019435.8557,77.0,772.0,204.0,241.99999999996538,36.88
1603019435.8577,77.0,772.0,204.0,241.99999999996538,36.88
1603019435.8597,77.0,772.0,197.0,241.99999999996538,36.88
1603019436.3176,78.0,764.0,197.0,241.99999999996538,36.88
1603019436.3185,78.0,764.0,202.0,241.99999999996538,36.88
1603019436.321,78.0,764.0,180.0,241.99999999996538,36.88
1603019436.3235,78.0,764.0,146.0,241.99999999996538,36.88
1603019436.3255,78.0,764.0,125.0,241.99999999996538,36.88
1603019436.3275,78.0,764.0,98.0,241.99999999996538,36.88
1603019436.3296,78.0,764.0,62.0,241.99999999996538,36.88
1603019436.3316,78.0,764.0,38.0,241.99999999996538,36.88
1603019436.3335,78.0,764.0,14.0,241.99999999996538,36.88
1603019436.3355,78.0,764.0,-4.0,241.99999999996538,36.88
1603019436.3375,78.0,764.0,2.0,241.99999999996538,36.88
1603019436.3396,78.0,764.0,14.0,241.99999999996538,36.88
1603019436.3415,78.0,764.0,7.0,241.99999999996538,36.88
1603019436.3435,78.0,764.0,0.0,241.99999999996538,36.88
1603019436.3455,78.0,764.0,7.0,241.99999999996538,36.88
1603019436.3475,78.0,764.0,9.0,241.99999999996538,36.88
1603019436.3495,78.0,764.0,9.0,241.99999999996538,36.88
1603019436.3516,78.0,764.0,9.0,241.99999999996538,36.88
1603019436.3535,78.0,764.0,2.0,241.99999999996538,36.88
1603019436.3555,78.0,764.0,12.0,241.99999999996538,36.88
1603019436.3575,78.0,764.0,31.0,241.99999999996538,36.88
1603019436.3595,78.0,764.0,28.0,241.99999999996538,36.88
1603019436.3615,78.0,764.0,21.0,241.99999999996538,36.88
1603019436.3634,78.0,764.0,28.0,242.0282610785004,36.88
1603019436.3655,78.0,764.0,38.0,242.05363837351146,36.88
1603019436.3675,78.0,764.0,45.0,242.07619014325152,36.88
1603019436.3695,78.0,764.0,50.0,242.09597464597366,36.88
1603019436.3715,78.0,764.0,52.0,242.1130501399308,36.88
1603019436.3734,78.0,764.0,52.0,242.127474883376,36.88
1603019436.3755,78.0,764.0,52.0,242.1393071345623,36.88
1603019436.3775,78.0,764.0,62.0,242.14860515174266,36.88
1603019436.3795,78.0,764.0,74.0,242.1554271931701,36.88
1603019436.3817,78.0,764.0,69.0,242.15983151709764,36.88
1603019436.3835,78.0,764.0,60.0,242.16187638177828,36.88
1603019436.3854,78.0,764.0,57.0,242.16162004546504,36.88
1603019436.3874,78.0,764.0,52.0,242.15912076641092,36.88
1603019436.3895,78.0,764.0,48.0,242.15443680286893,36.88
1603019436.3914,78.0,764.0,52.0,242.1476264130921,36.88
1603019436.3934,78.0,764.0,52.0,242.1387478553334,36.88
1603019436.3954,78.0,764.0,52.0,242.1278593878459,36.88
1603019436.3975,78.0,764.0,62.0,242.11501926888252,36.88
1603019436.3994,78.0,764.0,77.0,242.10028575669637,36.88
1603019436.4015,78.0,764.0,72.0,242.0837171095404,36.88
1603019436.4034,78.0,764.0,62.0,242.06537158566763,36.88
1603019436.4054,78.0,764.0,62.0,242.04530744333107,36.88
1603019436.4074,78.0,764.0,67.0,242.0235829407837,36.88
1603019436.4094,78.0,764.0,67.0,242.00025633627862,36.88
1603019436.4117,78.0,764.0,77.0,241.97538588806876,36.88
1603019436.4135,78.0,764.0,89.0,241.94902985440714,36.88
1603019436.4154,78.0,764.0,79.0,241.9212464935468,36.88
1603019436.4174,78.0,764.0,57.0,241.8920940637407,36.88
1603019436.4195,78.0,764.0,50.0,241.86163082324188,36.88
1603019436.4215,78.0,764.0,72.0,241.82991503030337,36.88
1603019436.4234,78.0,764.0,98.0,241.79700494317817,36.88
1603019436.4254,78.0,764.0,108.0,241.76295882011928,36.88
1603019436.4274,78.0,764.0,98.0,241.7278349193797,36.88
1603019436.4294,78.0,764.0,93.0,241.69169149921242,36.88
1603019436.4315,78.0,764.0,93.0,241.6545868178705,36.88
1603019436.4334,78.0,764.0,96.0,241.61657913360693,36.88
1603019436.4354,78.0,764.0,89.0,241.57772670467472,36.88
1603019436.4374,78.0,764.0,74.0,241.53808778932688,36.88
1603019436.4395,78.0,764.0,60.0,241.4977206458164,36.88
1603019436.4415,78.0,764.0,55.0,241.45668353239634,36.88
1603019436.4435,78.0,764.0,65.0,241.41503470731965,36.88
1603019436.4454,78.0,764.0,77.0,241.3728324288394,36.88
1603019436.4474,78.0,764.0,84.0,241.33013495520856,36.88
1603019436.4494,78.0,764.0,101.0,241.28700054468013,36.88
1603019436.4515,78.0,764.0,86.0,241.24348745550714,36.88
1603019436.4534,78.0,764.0,84.0,241.1996539459426,36.88
1603019436.4554,78.0,764.0,255.0,241.15555827423952,36.88
1603019436.4574,78.0,764.0,508.0,241.1112586986509,36.88
1603019436.4594,78.0,764.0,395.0,241.06681347742972,36.88
1603019436.4615,78.0,764.0,-158.0,241.02228086882906,36.88
1603019436.8575,78.0,793.0,-399.0,240.97771913110188,36.88
1603019436.8582,78.0,793.0,-45.0,240.93318652250122,36.88
1603019436.8607,78.0,793.0,144.0,240.88874130128008,36.88
1603019436.8633,78.0,793.0,26.0,240.84444172569147,36.88
1603019436.8653,78.0,793.0,52.0,240.8003460539884,36.88
1603019436.8673,78.0,793.0,127.0,240.75651254442386,36.88
1603019436.8693,78.0,793.0,89.0,240.71299945525087,36.88
1603019436.8713,78.0,793.0,81.0,240.66986504472246,36.88
1603019436.8733,78.0,793.0,98.0,240.62716757109158,36.88
1603019436.8752,78.0,793.0,84.0,240.58496529261132,36.88
1603019436.8775,78.0,793.0,89.0,240.54331646753465,36.88
1603019436.8793,78.0,793.0,101.0,240.50227935411462,36.88
1603019436.8812,78.0,793.0,91.0,240.46191221060414,36.88
1603019436.8832,78.0,793.0,96.0,240.4222732952563,36.88
1603019436.8852,78.0,793.0,110.0,240.3834208663241,36.88
1603019436.8873,78.0,793.0,98.0,240.34541318206053,36.88
1603019436.8892,78.0,793.0,93.0,240.3083085007186,36.88
1603019436.8912,78.0,793.0,108.0,240.2721650805514,36.88
1603019436.8932,78.0,793.0,115.0,240.23704117981177,36.88
1603019436.8952,78.0,793.0,115.0,240.20299505675288,36.88
1603019436.8972,78.0,793.0,120.0,240.17008496962765,36.88
1603019436.8993,78.0,793.0,125.0,240.13836917668917,36.88
1603019436.9013,78.0,793.0,134.0,240.10790593619035,36.88
1603019436.9032,78.0,793.0,156.0,240.06462296711678,36.88
1603019436.9052,78.0,793.0,175.0,240.02415095875088,36.88
1603019436.9072,78.0,793.0,185.0,239.98651904021924,36.88
1603019436.9092,78.0,793.0,190.0,239.9517563406483,36.88
1603019436.9113,78.0,793.0,195.0,239.9198919891646,36.88
1603019436.9132,78.0,793.0,199.0,239.89095511489464,36.88
1603019436.9152,78.0,793.0,190.0,239.86497484696494,36.88
1603019436.9173,78.0,793.0,187.0,239.84198031450202,36.88
1603019436.9192,78.0,793.0,195.0,239.8220006466323,36.88
1603019436.9212,78.0,793.0,180.0,239.80506497248237,36.88
1603019436.9232,78.0,793.0,154.0,239.79120242117872,36.88
1603019436.9252,78.0,793.0,139.0,239.7804421218478,36.88
1603019436.9272,78.0,793.0,122.0,239.7728132036162,36.88
1603019436.9293,78.0,793.0,101.0,239.76834479561032,36.88
1603019436.9313,78.0,793.0,72.0,239.76706602695677,36.88
1603019436.9332,78.0,793.0,36.0,239.76900602678197,36.88
1603019436.9352,78.0,793.0,19.0,239.77419392421248,36.88
1603019436.9372,78.0,793.0,12.0,239.78265884837484,36.88
1603019436.9392,78.0,793.0,0.0,239.79442992839543,36.88
1603019436.9413,78.0,793.0,-2.0,239.80953629340084,36.88
1603019436.9432,78.0,793.0,2.0,239.82800707251764,36.88
1603019436.9452,78.0,793.0,4.0,239.84987139487217,36.88
1603019436.9472,78.0,793.0,12.0,239.87515838959106,36.88
1603019436.9492,78.0,793.0,16.0,239.9038971858008,36.88
1603019436.9513,78.0,793.0,19.0,239.9361169126278,36.88
1603019436.9532,78.0,793.0,33.0,239.97184669919872,36.88
1603019436.9552,78.0,793.0,38.0,240.01111567463997,36.88
1603019436.9572,78.0,793.0,31.0,240.053952968078,36.88
1603019436.9592,78.0,793.0,28.0,240.06918458832743,36.88
1603019436.9612,78.0,793.0,38.0,240.08504248479667,36.88
1603019436.9632,78.0,793.0,48.0,240.10149752835926,36.88
1603019436.9652,78.0,793.0,52.0,240.11852058988873,36.88
1603019436.9672,78.0,793.0,62.0,240.1360825402585,36.88
1603019436.9692,78.0,793.0,67.0,240.15415425034215,36.88
1603019436.9712,78.0,793.0,57.0,240.1727065910131,36.88
1603019436.9732,78.0,793.0,52.0,240.1917104331449,36.88
1603019436.9752,78.0,793.0,65.0,240.21113664761097,36.88
1603019436.9772,78.0,793.0,65.0,240.2309561052849,36.88
1603019436.9794,78.0,793.0,55.0,240.25113967704013,36.88
1603019436.9813,78.0,793.0,65.0,240.27165823375017,36.88
1603019436.9832,78.0,793.0,69.0,240.2924826462885,36.88
1603019436.9852,78.0,793.0,55.0,240.31358378552866,36.88
1603019436.9872,78.0,793.0,50.0,240.33493252234408,36.88
1603019436.9892,78.0,793.0,57.0,240.35649972760828,36.88
1603019436.9912,78.0,793.0,60.0,240.3782562721948,36.88
1603019436.9932,78.0,793.0,62.0,240.40017302697706,36.88
1603019436.9952,78.0,793.0,67.0,240.4222208628286,36.88
1603019436.9972,78.0,793.0,65.0,240.44437065062291,36.88
1603019436.9992,78.0,793.0,57.0,240.4665932612335,36.88
1603019437.0012,78.0,793.0,50.0,240.48885956553383,36.88
1603019437.4275,78.0,793.0,48.0,240.5111404343974,36.88
1603019437.4284,78.0,793.0,60.0,240.53340673869772,36.88
1603019437.4309,78.0,793.0,57.0,240.55562934930828,36.88
1603019437.4335,78.0,793.0,48.0,240.5777791371026,36.88
1603019437.4355,78.0,793.0,65.0,240.59982697295413,36.88
1603019437.4375,78.0,793.0,86.0,240.62174372773643,36.88
1603019437.4396,78.0,793.0,72.0,240.6435002723229,36.88
1603019437.4414,78.0,793.0,43.0,240.66506747758712,36.88
1603019437.4436,78.0,793.0,45.0,240.68641621440253,36.88
1603019437.4454,78.0,793.0,62.0,240.70751735364263,36.88
1603019437.4474,78.0,793.0,57.0,240.72834176618096,36.88
1603019437.4494,78.0,793.0,72.0,240.748860322891,36.88
1603019437.4515,78.0,793.0,96.0,240.76904389464625,36.88
1603019437.4534,78.0,793.0,96.0,240.78886335232016,36.88
1603019437.4555,78.0,793.0,84.0,240.80828956678624,36.88
1603019437.4574,78.0,793.0,84.0,240.82729340891802,36.88
1603019437.4594,78.0,793.0,81.0,240.845845749589,36.88
1603019437.4614,78.0,793.0,69.0,240.86391745967262,36.88
1603019437.4635,78.0,793.0,65.0,240.8814794100424,36.88
1603019437.4654,78.0,793.0,74.0,240.89850247157187,36.88
1603019437.4674,78.0,793.0,74.0,240.91495751513446,36.88
1603019437.4694,78.0,793.0,55.0,240.9308154116037,36.88
1603019437.4715,78.0,793.0,60.0,240.94604703185314,36.88
1603019437.4734,78.0,793.0,81.0,240.96062324675614,36.88
1603019437.4754,78.0,793.0,86.0,240.9745149271863,36.88
1603019437.4774,78.0,793.0,74.0,240.9876929440171,36.88
1603019437.4794,78.0,793.0,77.0,241.00012816812205,36.88
1603019437.4814,78.0,793.0,195.0,241.01179147037465,36.88
1603019437.4834,78.0,793.0,438.0,241.02265372164828,36.88
1603019437.4857,78.0,793.0,472.0,241.03268579281655,36.88
1603019437.4875,78.0,793.0,28.0,241.04185855475293,36.88
1603019437.4894,78.0,793.0,-349.0,241.05014287833097,36.88
1603019437.4914,78.0,793.0,-118.0,241.05750963442404,36.88
1603019437.4934,78.0,793.0,154.0,241.06392969390572,36.88
1603019437.4954,78.0,793.0,67.0,241.06937392764945,36.88
1603019437.4974,78.0,793.0,36.0,241.07381320652883,36.88
1603019437.4994,78.0,793.0,115.0,241.0772184014172,36.88
1603019437.5014,78.0,793.0,93.0,241.0795603831882,36.88
1603019437.5034,78.0,793.0,62.0,241.0808100227153,36.88
1603019437.5056,78.0,793.0,98.0,241.0809381908719,36.88
1603019437.5074,78.0,793.0,108.0,241.07991575853157,36.88
1603019437.5094,78.0,793.0,96.0,241.07771359656783,36.88
1603019437.5114,78.0,793.0,113.0,241.07430257585412,36.88
1603019437.5134,78.0,793.0,127.0,241.0696535672639,36.88
1603019437.5154,78.0,793.0,110.0,241.0637374416708,36.88
1603019437.5174,78.0,793.0,108.0,241.05652506994818,36.88
1603019437.5194,78.0,793.0,113.0,241.04798732296962,36.88
1603019437.5214,78.0,793.0,103.0,241.03809507160855,36.88
1603019437.5234,78.0,793.0,110.0,241.02681918673852,36.88
1603019437.5254,78.0,793.0,132.0,241.01413053923295,36.88
1603019437.5274,78.0,793.0,137.0,240.99999999996544,36.88
1603019437.5294,78.0,793.0,144.0,240.99999999996544,36.88
1603019437.5314,78.0,793.0,158.0,240.99999999996544,36.88
1603019437.5334,78.0,793.0,156.0,240.99999999996544,36.88
1603019437.5355,78.0,793.0,146.0,240.99999999996544,36.88
1603019437.5374,78.0,793.0,158.0,240.99999999996544,36.88
1603019437.5394,78.0,793.0,173.0,240.99999999996544,36.88
1603019437.5414,78.0,793.0,171.0,240.99999999996544,36.88
1603019437.5434,78.0,793.0,171.0,240.99999999996544,36.88
1603019437.5454,78.0,793.0,180.0,240.99999999996544,36.88
1603019437.5474,78.0,793.0,180.0,240.99999999996544,36.88
1603019437.5494,78.0,793.0,183.0,240.99999999996544,36.88
1603019437.5514,78.0,793.0,190.0,240.99999999996544,36.88
1603019437.5534,78.0,793.0,180.0,240.99999999996544,36.88
1603019437.5554,78.0,793.0,156.0,240.99999999996544,36.88
1603019437.5574,78.0,793.0,149.0,240.99999999996544,36.88
1603019437.5594,78.0,793.0,142.0,240.99999999996544,36.88
1603019437.5614,78.0,793.0,110.0,240.99999999996544,36.88
1603019437.5634,78.0,793.0,67.0,240.99999999996544,36.88
1603019437.5654,78.0,793.0,40.0,240.99999999996544,36.88
1603019437.5674,78.0,793.0,38.0,240.99999999996544,36.88
1603019437.5694,78.0,793.0,31.0,240.99999999996544,36.88
1603019437.5714,78.0,793.0,26.0,240.99999999996544,36.88
1603019437.9672,78.0,808.0,24.0,240.99999999996544,36.88
1603019437.9681,78.0,808.0,16.0,240.99999999996544,36.88
1603019437.9707,78.0,808.0,14.0,240.99999999996544,36.88
1603019437.9732,78.0,808.0,28.0,240.99999999996544,36.88
1603019437.9752,78.0,808.0,38.0,240.99999999996544,36.88
1603019437.9772,78.0,808.0,31.0,240.99999999996544,36.88
1603019437.9792,78.0,808.0,36.0,240.99999999996544,36.88
1603019437.9811,78.0,808.0,57.0,240.99999999996544,36.88
1603019437.9831,78.0,808.0,65.0,240.99999999996544,36.88
1603019437.9851,78.0,808.0,45.0,240.99999999996544,36.88
1603019437.9872,78.0,808.0,31.0,240.99999999996544,36.88
1603019437.9891,78.0,808.0,36.0,240.99999999996544,36.88
1603019437.9911,78.0,808.0,45.0,240.99999999996544,36.88
1603019437.9931,78.0,808.0,43.0,240.99999999996544,36.88
1603019437.9951,78.0,808.0,48.0,240.99999999996544,36.88
1603019437.9971,78.0,808.0,60.0,240.99999999996544,36.88
1603019437.9991,78.0,808.0,62.0,240.99999999996544,36.88
1603019438.0013,78.0,808.0,57.0,240.99999999996544,36.88
1603019438.0032,78.0,808.0,55.0,240.99999999996544,36.88
1603019438.0051,78.0,808.0,60.0,240.99999999996544,36.88
1603019438.0071,78.0,808.0,67.0,240.99999999996544,36.88
1603019438.0091,78.0,808.0,77.0,240.99999999996544,36.88
1603019438.0111,78.0,808.0,79.0,240.99999999996544,36.88
1603019438.0131,78.0,808.0,69.0,240.9434778428954,36.88
1603019438.0151,78.0,808.0,60.0,240.89272325287328,36.88
1603019438.0171,78.0,808.0,50.0,240.84761971339316,36.88
1603019438.0191,78.0,808.0,55.0,240.8080507079489,36.88
1603019438.0211,78.0,808.0,67.0,240.7738997200346,36.88
1603019438.0231,78.0,808.0,77.0,240.74505023314413,36.88
1603019438.0251,78.0,808.0,72.0,240.7213857307716,36.88
1603019438.0271,78.0,808.0,60.0,240.7027896964109,36.88
1603019438.0291,78.0,808.0,69.0,240.68914561355598,36.88
1603019438.0311,78.0,808.0,84.0,240.68033696570092,36.88
1603019438.0331,78.0,808.0,72.0,240.67624723633963,36.88
1603019438.0351,78.0,808.0,74.0,240.67675990896612,36.88
1603019438.0371,78.0,808.0,89.0,240.68175846707436,36.88
1603019438.0391,78.0,808.0,77.0,240.6911263941583,36.88
1603019438.0411,78.0,808.0,65.0,240.704747173712,36.88
1603019438.0431,78.0,808.0,74.0,240.7225042892294,36.88
1603019438.0451,78.0,808.0,81.0,240.74428122420443,36.88
1603019438.0471,78.0,808.0,77.0,240.7699614621311,36.88
1603019438.0492,78.0,808.0,74.0,240.79942848650347,36.88
1603019438.0512,78.0,808.0,79.0,240.8325657808154,36.88
1603019438.0531,78.0,808.0,89.0,240.86925682856094,36.88
1603019438.0551,78.0,808.0,101.0,240.90938511323407,36.88
1603019438.0571,78.0,808.0,118.0,240.95283411832872,36.88
1603019438.0591,78.0,808.0,113.0,240.99948732733895,36.88
1603019438.0611,78.0,808.0,96.0,241.0492282237587,36.88
1603019438.0631,78.0,808.0,98.0,241.10194029108192,36.88
1603019438.0651,78.0,808.0,96.0,241.15750701280263,36.88
1603019438.0671,78.0,808.0,57.0,241.2158118724148,36.88
1603019438.0691,78.0,808.0,50.0,241.27673835341238,36.88
1603019438.0711,78.0,808.0,84.0,241.3401699392894,36.88
1603019438.0731,78.0,808.0,89.0,241.40599011353987,36.88
1603019438.0751,78.0,808.0,74.0,241.47408235965764,36.88
1603019438.0771,78.0,808.0,77.0,241.54433016113683,36.88
1603019438.0791,78.0,808.0,79.0,241.61661700147135,36.88
1603019438.0812,78.0,808.0,74.0,241.69082636415516,36.88
1603019438.0831,78.0,808.0,67.0,241.76684173268234,36.88
1603019438.0851,78.0,808.0,65.0,241.8445465905467,36.88
1603019438.0872,78.0,808.0,156.0,241.92382442124244,36.88
1603019438.0891,78.0,808.0,385.0,242.00455870826335,36.88
1603019438.0911,78.0,808.0,488.0,242.08663293510347,36.88
1603019438.0931,78.0,808.0,144.0,242.16993058525685,36.88
1603019438.0951,78.0,808.0,-286.0,242.25433514221737,36.88
1603019438.0971,78.0,808.0,-185.0,242.33973008947908,36.88
1603019438.0991,78.0,808.0,115.0,242.4259989105359,36.88
1603019438.1011,78.0,808.0,93.0,242.51302508888188,36.88
1603019438.1033,78.0,808.0,28.0,242.600692108011,36.88
1603019438.1051,78.0,808.0,93.0,242.68888345141715,36.88
1603019438.1071,78.0,808.0,103.0,242.77748260259443,36.88
1603019438.1091,78.0,808.0,81.0,242.8663730450367,36.88
1603019438.1111,78.0,808.0,103.0,242.95543826223803,36.88
1603019438.537,78.0,808.0,101.0,243.04456173769233,36.88
1603019438.5379,78.0,808.0,74.0,243.13362695489366,36.88
1603019438.5404,78.0,808.0,89.0,243.22251739733593,36.88
1603019438.5429,78.0,808.0,115.0,243.31111654851316,36.88
1603019438.545,78.0,808.0,115.0,243.39930789191936,36.88
1603019438.547,78.0,808.0,110.0,243.48697491104843,36.88
1603019438.549,78.0,808.0,105.0,243.57400108939441,36.88
1603019438.551,78.0,808.0,93.0,243.6602699104513,36.88
1603019438.5529,78.0,808.0,89.0,243.745664857713,36.88
1603019438.5549,78.0,808.0,96.0,243.83006941467352,36.88
1603019438.5569,78.0,808.0,110.0,243.9133670648269,36.88
1603019438.5589,78.0,808.0,127.0,243.99544129166702,36.88
1603019438.5609,78.0,808.0,132.0,244.07617557868798,36.88
1603019438.5629,78.0,808.0,132.0,244.15545340938365,36.88
1603019438.5649,78.0,808.0,134.0,244.2331582672481,36.88
1603019438.5669,78.0,808.0,127.0,244.3091736357752,36.88
1603019438.5689,78.0,808.0,137.0,244.383382998459,36.88
1603019438.571,78.0,808.0,168.0,244.45566983879354,36.88
1603019438.5729,78.0,808.0,178.0,244.52591764027272,36.88
1603019438.5749,78.0,808.0,166.0,244.5940098863905,36.88
1603019438.5769,78.0,808.0,173.0,244.65983006064096,36.88
1603019438.5789,78.0,808.0,185.0,244.72326164651798,36.88
1603019438.5809,78.0,808.0,185.0,244.78418812751556,36.88
1603019438.5828,78.0,808.0,195.0,244.82836244786023,36.88
1603019438.5849,78.0,808.0,190.0,244.87124052207542,36.88
1603019438.5869,78.0,808.0,144.0,244.91267670452856,36.88
1603019438.5889,78.0,808.0,105.0,244.9525253495873,36.88
1603019438.591,78.0,808.0,105.0,244.9906408116189,36.88
1603019438.593,78.0,808.0,96.0,245.026877444991,36.88
1603019438.595,78.0,808.0,65.0,245.06108960407096,36.88
1603019438.5969,78.0,808.0,40.0,245.09313164322634,36.88
1603019438.5988,78.0,808.0,31.0,245.12285791682456,36.88
1603019438.6009,78.0,808.0,24.0,245.15012277923313,36.88
1603019438.6028,78.0,808.0,19.0,245.17478058481947,36.88
1603019438.6048,78.0,808.0,28.0,245.19668568795117,36.88
1603019438.6069,78.0,808.0,45.0,245.2156924429956,36.88
1603019438.6089,78.0,808.0,36.0,245.23165520432025,36.88
1603019438.6108,78.0,808.0,16.0,245.24442832629268,36.88
1603019438.6129,78.0,808.0,33.0,245.25386616328024,36.88
1603019438.6148,78.0,808.0,48.0,245.2598230696505,36.88
1603019438.6168,78.0,808.0,31.0,245.2621533997709,36.88
1603019438.6189,78.0,808.0,31.0,245.2607115080089,36.88
1603019438.6209,78.0,808.0,45.0,245.25535174873198,36.88
1603019438.6229,78.0,808.0,43.0,245.24592847630765,36.88
1603019438.6249,78.0,808.0,43.0,245.2322960451034,36.88
1603019438.6268,78.0,808.0,50.0,245.21430880948662,36.88
1603019438.629,78.0,808.0,48.0,245.19182112382487,36.88
