Time,ECG
1607019446.9697,-731
1607019446.9723,1057
1607019446.9749,3797
1607019446.9775,6249
1607019446.9797,7625
1607019446.9819,8725
1607019446.9838,9883
1607019446.9853,10707
1607019446.9873,11337
1607019446.9893,11957
1607019446.9913,12442
1607019446.9935,12808
1607019446.9959,13171
1607019446.9982,13480
1607019447.0004,13699
1607019447.0026,13896
1607019447.0044,14089
1607019447.0064,14234
1607019447.0083,14340
1607019447.0103,14445
1607019447.0123,14547
1607019447.0143,14611
1607019447.0163,14649
1607019447.0183,14695
1607019447.0203,14733
1607019447.0223,14737
1607019447.0242,14723
1607019447.0262,14702
1607019447.0282,14657
1607019447.0303,14580
1607019447.0324,14483
1607019447.0342,14371
1607019447.0362,14250
1607019447.0383,14112
1607019447.0402,13989
1607019447.0422,13901
1607019447.0442,13830
1607019447.0462,13749
1607019447.0482,13677
1607019447.0502,13623
1607019447.0522,13561
1607019447.0542,13506
1607019447.0562,13440
1607019447.0582,13361
1607019447.0602,13307
1607019447.0622,13236
1607019447.0642,13133
1607019447.0662,13064
1607019447.0682,13012
1607019447.0702,12938
1607019447.0725,12841
1607019447.0743,12751
1607019447.0762,12670
1607019447.0782,12580
1607019447.0802,12489
1607019447.0822,12416
1607019447.0842,12333
1607019447.0862,12223
1607019447.0882,12131
1607019447.0902,12059
1607019447.0922,11971
1607019447.0942,11874
1607019447.0962,11791
1607019447.0981,11703
1607019447.1002,11605
1607019447.1022,11517
1607019447.1042,11430
1607019447.1062,11342
1607019447.1082,11249
1607019447.1102,11151
1607019447.1123,11061
1607019447.1142,10985
1607019447.1163,10890
1607019447.5081,10790
1607019447.5090,10705
1607019447.5115,10617
1607019447.5141,10512
1607019447.5161,10417
1607019447.5181,10336
1607019447.5202,10256
1607019447.5221,10168
1607019447.5241,10075
1607019447.5261,9992
1607019447.5281,9916
1607019447.5301,9811
1607019447.5321,9702
1607019447.5342,9633
1607019447.5361,9550
1607019447.5381,9438
1607019447.5401,9348
1607019447.5421,9277
1607019447.5440,9191
1607019447.5460,9103
1607019447.5480,9032
1607019447.5500,8975
1607019447.5520,8911
1607019447.5541,8830
1607019447.5560,8744
1607019447.5580,8659
1607019447.5600,8559
1607019447.5620,8447
1607019447.5642,8359
1607019447.5661,8286
1607019447.5680,8202
1607019447.5701,8126
1607019447.5720,8062
1607019447.5741,7979
1607019447.5760,7882
1607019447.5780,7789
1607019447.5800,7665
1607019447.5820,7525
1607019447.5840,7563
1607019447.5860,7953
1607019447.5880,8614
1607019447.5900,8923
1607019447.5920,7972
1607019447.5940,6499
1607019447.5960,6325
1607019447.5980,6972
1607019447.6000,7019
1607019447.6020,6810
1607019447.6040,6841
1607019447.6060,6827
1607019447.6080,6713
1607019447.6100,6665
1607019447.6120,6627
1607019447.6140,6556
1607019447.6160,6501
1607019447.6180,6461
1607019447.6200,6408
1607019447.6220,6351
1607019447.6240,6299
1607019447.6260,6256
1607019447.6280,6218
1607019447.6300,6180
1607019447.6320,6133
1607019447.6340,6090
1607019447.6360,6066
1607019447.6380,6026
1607019447.6400,5978
1607019447.6420,5943
1607019447.6440,5902
1607019447.6460,5850
1607019447.6480,5793
1607019447.6500,5726
1607019447.6520,5648
1607019448.0788,5551
1607019448.0798,5427
1607019448.0822,5287
1607019448.0849,5137
1607019448.0870,4992
1607019448.0889,4871
1607019448.0912,4781
1607019448.0930,4707
1607019448.0949,4629
1607019448.0968,4555
1607019448.0989,4510
1607019448.1008,4479
1607019448.1029,4436
1607019448.1048,4393
1607019448.1068,4355
1607019448.1088,4317
1607019448.1108,4272
1607019448.1129,4234
1607019448.1148,4196
1607019448.1169,4156
1607019448.1188,4113
1607019448.1208,4070
1607019448.1229,4027
1607019448.1248,3987
1607019448.1268,3947
1607019448.1288,3899
1607019448.1308,3859
1607019448.1328,3818
1607019448.1348,3771
1607019448.1368,3723
1607019448.1388,3690
1607019448.1408,3647
1607019448.1429,3597
1607019448.1448,3557
1607019448.1469,3526
1607019448.1488,3486
1607019448.1508,3438
1607019448.1528,3400
1607019448.1548,3369
1607019448.1568,3331
1607019448.1588,3295
1607019448.1608,3262
1607019448.1628,3231
1607019448.1648,3193
1607019448.1668,3158
1607019448.1688,3129
1607019448.1708,3096
1607019448.1729,3058
1607019448.1748,3027
1607019448.1768,2994
1607019448.1788,2958
1607019448.1808,2922
1607019448.1829,2891
1607019448.1848,2870
1607019448.1868,2863
1607019448.1888,2861
1607019448.1908,2844
1607019448.1930,2808
1607019448.1948,2763
1607019448.1968,2718
1607019448.1988,2668
1607019448.2007,2625
1607019448.2028,2594
1607019448.2048,2568
1607019448.2068,2547
1607019448.2088,2518
1607019448.2108,2490
1607019448.2129,2466
1607019448.2148,2430
1607019448.2168,2359
1607019448.2188,2247
1607019448.2208,2228
1607019448.2228,2504
1607019448.6485,3153
1607019448.6495,3825
1607019448.6520,3535
1607019448.6547,2126
1607019448.6566,1349
1607019448.6587,1867
1607019448.6663,2231
1607019448.6676,2050
1607019448.6697,2031
1607019448.6718,2110
1607019448.6737,2050
1607019448.6756,2024
1607019448.6776,2055
1607019448.6797,2034
1607019448.6816,2012
1607019448.6836,2017
1607019448.6855,2010
1607019448.6876,1998
1607019448.6897,1993
1607019448.6916,1991
1607019448.6936,1986
1607019448.6956,1988
1607019448.6974,1993
1607019448.6995,2000
1607019448.7015,2005
1607019448.7035,2010
1607019448.7055,2022
1607019448.7075,2034
1607019448.7095,2031
1607019448.7115,2017
1607019448.7135,2005
1607019448.7155,1986
1607019448.7175,1946
1607019448.7195,1893
1607019448.7215,1820
1607019448.7237,1725
1607019448.7255,1611
1607019448.7275,1504
1607019448.7295,1423
1607019448.7315,1368
1607019448.7335,1325
1607019448.7355,1297
1607019448.7375,1278
1607019448.7395,1266
1607019448.7414,1257
1607019448.7435,1249
1607019448.7455,1245
1607019448.7475,1238
1607019448.7495,1228
1607019448.7515,1223
1607019448.7535,1219
1607019448.7555,1211
1607019448.7575,1204
1607019448.7595,1197
1607019448.7615,1188
1607019448.7635,1181
1607019448.7655,1171
1607019448.7675,1164
1607019448.7695,1157
1607019448.7715,1145
1607019448.7735,1133
1607019448.7755,1123
1607019448.7775,1114
1607019448.7795,1102
1607019448.7815,1088
1607019448.7835,1076
1607019448.7855,1062
1607019448.7875,1050
1607019448.7895,1040
1607019448.7915,1031
1607019448.7935,1021
1607019448.7955,1014
1607019448.7975,1002
1607019449.1887,995
1607019449.1895,988
1607019449.1920,979
1607019449.1946,969
1607019449.1966,962
1607019449.1986,952
1607019449.2007,938
1607019449.2026,926
1607019449.2045,919
1607019449.2065,910
1607019449.2085,893
1607019449.2105,883
1607019449.2125,900
1607019449.2147,924
1607019449.2166,933
1607019449.2185,924
1607019449.2205,910
1607019449.2225,886
1607019449.2245,857
1607019449.2265,836
1607019449.2285,824
1607019449.2305,812
1607019449.2325,803
1607019449.2345,800
1607019449.2365,798
1607019449.2385,793
1607019449.2405,781
1607019449.2425,741
1607019449.2445,658
1607019449.2465,615
1607019449.2485,807
1607019449.2505,1363
1607019449.2525,2100
1607019449.2545,2171
1607019449.2565,1009
1607019449.2585,-23
1607019449.2605,282
1607019449.2625,784
1607019449.2645,658
1607019449.2665,584
1607019449.2685,708
1607019449.2705,696
1607019449.2725,660
1607019449.2745,703
1607019449.2767,720
1607019449.2786,705
1607019449.2805,717
1607019449.2825,734
1607019449.2845,739
1607019449.2865,746
1607019449.2886,758
1607019449.2905,774
1607019449.2925,791
1607019449.2945,803
1607019449.2965,817
1607019449.2985,841
1607019449.3005,864
1607019449.3025,883
1607019449.3045,902
1607019449.3065,919
1607019449.3085,929
1607019449.3105,931
1607019449.3125,922
1607019449.3145,902
1607019449.3167,872
1607019449.3186,817
1607019449.3205,739
1607019449.3225,651
1607019449.3245,560
1607019449.3265,480
1607019449.3285,422
1607019449.3305,389
1607019449.3325,370
1607019449.7285,361
1607019449.7294,361
1607019449.7319,365
1607019449.7345,365
1607019449.7365,370
1607019449.7385,380
1607019449.7406,384
1607019449.7425,380
1607019449.7445,377
1607019449.7465,382
1607019449.7485,387
1607019449.7505,389
1607019449.7525,392
1607019449.7544,392
1607019449.7564,384
1607019449.7584,382
1607019449.7604,384
1607019449.7624,384
1607019449.7644,382
1607019449.7664,380
1607019449.7684,380
1607019449.7704,380
1607019449.7724,375
1607019449.7744,370
1607019449.7764,373
1607019449.7784,375
1607019449.7805,370
1607019449.7824,368
1607019449.7845,365
1607019449.7865,361
1607019449.7884,358
1607019449.7904,358
1607019449.7924,358
1607019449.7944,356
1607019449.7964,351
1607019449.7984,349
1607019449.8004,349
1607019449.8024,354
1607019449.8044,377
1607019449.8064,408
1607019449.8084,418
1607019449.8104,403
1607019449.8126,387
1607019449.8144,368
1607019449.8164,346
1607019449.8184,339
1607019449.8204,335
1607019449.8224,330
1607019449.8244,337
1607019449.8264,344
1607019449.8284,339
1607019449.8305,335
1607019449.8324,325
1607019449.8344,278
1607019449.8364,192
1607019449.8384,201
1607019449.8404,494
1607019449.8424,1143
1607019449.8444,1820
1607019449.8464,1565
1607019449.8484,218
1607019449.8504,-522
1607019449.8524,11
1607019449.8544,394
1607019449.8564,223
1607019449.8584,223
1607019449.8604,337
1607019449.8624,308
1607019449.8644,297
1607019449.8664,346
1607019449.8684,354
1607019449.8704,351
1607019449.8724,373
1607019450.3289,389
1607019450.3298,399
1607019450.3323,418
1607019450.3350,432
1607019450.3369,439
1607019450.3389,453
1607019450.3410,477
1607019450.3430,499
1607019450.3450,518
1607019450.3469,541
1607019450.3489,570
1607019450.3509,601
1607019450.3529,622
1607019450.3549,632
1607019450.3569,636
1607019450.3589,629
1607019450.3609,605
1607019450.3629,565
1607019450.3648,503
1607019450.3669,415
1607019450.3690,318
1607019450.3709,232
1607019450.3730,163
1607019450.3748,121
1607019450.3768,99
1607019450.3788,87
1607019450.3808,76
1607019450.3828,64
1607019450.3848,59
1607019450.3868,83
1607019450.3888,130
1607019450.3908,144
1607019450.3928,133
1607019450.3948,140
1607019450.3968,149
1607019450.3988,149
1607019450.4008,156
1607019450.4028,161
1607019450.4048,154
1607019450.4068,144
1607019450.4088,156
1607019450.4108,187
1607019450.4129,194
1607019450.4148,173
1607019450.4168,173
1607019450.4188,180
1607019450.4208,173
1607019450.4228,173
1607019450.4248,180
1607019450.4268,180
1607019450.4288,178
1607019450.4308,175
1607019450.4328,166
1607019450.4348,156
1607019450.4368,161
1607019450.4388,163
1607019450.4408,156
1607019450.4428,163
1607019450.4448,192
1607019450.4468,223
1607019450.4488,240
1607019450.4508,235
1607019450.4528,213
1607019450.4548,185
1607019450.4568,168
1607019450.4588,199
1607019450.4608,225
1607019450.4629,206
1607019450.4648,190
1607019450.4668,185
1607019450.4688,182
1607019450.4710,185
1607019450.4730,180
1607019450.8980,154
1607019450.8987,85
1607019450.9005,7
1607019450.9025,95
1607019450.9045,556
1607019450.9065,1340
1607019450.9084,1836
1607019450.9105,1069
1607019450.9125,-425
1607019450.9144,-727
1607019450.9164,-16
1607019450.9184,199
1607019450.9204,49
1607019450.9224,106
1607019450.9244,190
1607019450.9264,180
1607019450.9284,187
1607019450.9304,199
1607019450.9324,194
1607019450.9344,213
1607019450.9364,247
1607019450.9384,261
1607019450.9404,273
1607019450.9424,297
1607019450.9444,320
1607019450.9464,330
1607019450.9484,344
1607019450.9504,368
1607019450.9524,389
1607019450.9544,425
1607019450.9564,472
1607019450.9585,499
1607019450.9604,510
1607019450.9624,529
1607019450.9644,544
1607019450.9664,544
1607019450.9685,522
1607019450.9704,487
1607019450.9724,441
1607019450.9744,373
1607019450.9764,275
1607019450.9784,166
1607019450.9804,73
1607019450.9824,19
1607019450.9844,-19
1607019450.9864,-40
1607019450.9884,-47
1607019450.9904,-47
1607019450.9924,-21
1607019450.9946,4
1607019450.9965,-4
1607019450.9984,7
1607019451.0004,47
1607019451.0024,45
1607019451.0044,30
1607019451.0064,49
1607019451.0084,52
1607019451.0104,49
1607019451.0124,64
1607019451.0144,68
1607019451.0164,71
1607019451.0184,76
1607019451.0206,78
1607019451.0224,83
1607019451.0244,78
1607019451.0264,71
1607019451.0284,78
1607019451.0305,80
1607019451.0324,73
1607019451.0344,78
1607019451.0364,80
1607019451.0384,78
1607019451.0404,83
1607019451.4383,92
1607019451.4393,83
1607019451.4418,66
1607019451.4444,71
1607019451.4463,85
1607019451.4483,87
1607019451.4503,99
1607019451.4524,142
1607019451.4543,175
1607019451.4563,180
1607019451.4583,154
1607019451.4603,99
1607019451.4623,66
1607019451.4643,85
1607019451.4663,106
1607019451.4683,102
1607019451.4690,106
1607019451.4713,125
1607019451.4734,123
1607019451.4753,90
1607019451.4773,57
1607019451.4793,11
1607019451.4813,-40
1607019451.4833,71
1607019451.4852,577
1607019451.4873,1406
1607019451.4893,1770
1607019451.4914,762
1607019451.4934,-584
1607019451.4952,-529
1607019451.4972,123
1607019451.4993,106
1607019451.4999,-26
1607019451.5013,99
1607019451.5033,123
1607019451.5053,73
1607019451.5073,114
1607019451.5093,140
1607019451.5113,130
1607019451.5133,156
1607019451.5153,187
1607019451.5173,197
1607019451.5193,211
1607019451.5213,223
1607019451.5233,240
1607019451.5253,270
1607019451.5273,297
1607019451.5293,306
1607019451.5299,327
1607019451.5313,375
1607019451.5333,415
1607019451.5352,425
1607019451.5373,441
1607019451.5393,458
1607019451.5413,453
1607019451.5433,430
1607019451.5453,413
1607019451.5472,387
1607019451.5493,332
1607019451.5512,261
1607019451.5533,166
1607019451.5552,73
1607019451.5573,19
1607019451.5593,-21
1607019451.5599,-54
1607019451.5613,-66
1607019451.5633,-87
1607019451.5653,-92
1607019451.5673,-59
1607019451.5693,-33
1607019451.5713,-33
1607019451.5733,-35
1607019451.5753,-30
1607019451.9785,-11
1607019451.9795,11
1607019451.9819,14
1607019451.9846,14
1607019451.9852,23
1607019451.9868,30
1607019451.9886,35
1607019451.9906,30
1607019451.9925,19
1607019451.9944,14
1607019451.9964,30
1607019451.9984,54
1607019452.0004,57
1607019452.0025,45
1607019452.0045,49
1607019452.0065,59
1607019452.0084,45
1607019452.0104,38
1607019452.0127,59
1607019452.0144,76
1607019452.0151,54
1607019452.0164,47
1607019452.0184,73
1607019452.0204,90
1607019452.0224,66
1607019452.0246,52
1607019452.0265,66
1607019452.0284,83
1607019452.0305,76
1607019452.0324,64
1607019452.0344,64
1607019452.0364,71
1607019452.0384,80
1607019452.0404,106
1607019452.0424,144
1607019452.0444,149
1607019452.0451,137
1607019452.0464,137
1607019452.0484,121
1607019452.0504,99
1607019452.0524,102
1607019452.0544,102
1607019452.0564,87
1607019452.0584,95
1607019452.0604,109
1607019452.0624,104
1607019452.0644,99
1607019452.0664,80
1607019452.0684,7
1607019452.0704,-64
1607019452.0725,7
1607019452.0745,361
1607019452.0751,1081
1607019452.0764,1682
1607019452.0784,1109
1607019452.0805,-266
1607019452.0827,-613
1607019452.0845,-11
1607019452.0865,128
1607019452.0885,-49
1607019452.0904,42
1607019452.0925,125
1607019452.0945,64
1607019452.0965,73
1607019452.0984,130
1607019452.1005,137
1607019452.1025,140
1607019452.1045,156
1607019452.1052,156
1607019452.1065,171
1607019452.1084,206
1607019452.1105,218
1607019452.1126,225
1607019452.5788,266
1607019452.5800,285
1607019452.5825,285
1607019452.5851,327
1607019452.5871,377
1607019452.5891,373
1607019452.5911,375
1607019452.5931,411
1607019452.5951,422
1607019452.5971,408
1607019452.5991,408
1607019452.5998,406
1607019452.6011,358
1607019452.6031,280
1607019452.6050,209
1607019452.6070,125
1607019452.6090,28
1607019452.6110,-40
1607019452.6131,-64
1607019452.6150,-68
1607019452.6171,-78
1607019452.6190,-83
1607019452.6211,-71
1607019452.6230,-64
1607019452.6250,-68
1607019452.6270,-52
1607019452.6290,-16
1607019452.6296,-9
1607019452.6310,-26
1607019452.6330,-16
1607019452.6350,4
1607019452.6370,9
1607019452.6390,7
1607019452.6410,14
1607019452.6432,26
1607019452.6450,30
1607019452.6470,30
1607019452.6490,38
1607019452.6510,47
1607019452.6530,40
1607019452.6550,35
1607019452.6570,40
1607019452.6590,40
1607019452.6596,35
1607019452.6610,33
1607019452.6630,42
1607019452.6650,59
1607019452.6670,57
1607019452.6690,42
1607019452.6710,45
1607019452.6730,49
1607019452.6750,49
1607019452.6770,52
1607019452.6790,59
1607019452.6809,61
1607019452.6830,54
1607019452.6850,61
1607019452.6870,76
1607019452.6890,76
1607019452.6896,71
1607019452.6910,73
1607019452.6930,80
1607019452.6950,83
1607019452.6970,78
1607019452.6990,80
1607019452.7011,85
1607019452.7030,85
1607019452.7050,85
1607019452.7070,90
1607019452.7090,90
1607019452.7110,92
1607019452.7130,95
1607019452.7150,90
1607019453.1183,90
1607019453.1191,99
1607019453.1215,99
1607019453.1242,95
1607019453.1262,99
1607019453.1282,90
1607019453.1303,73
1607019453.1321,76
1607019453.1341,80
1607019453.1361,73
1607019453.1381,73
1607019453.1401,97
1607019453.1423,114
1607019453.1441,85
1607019453.1461,42
1607019453.1481,35
1607019453.1501,83
1607019453.1521,128
1607019453.1541,99
1607019453.1561,61
1607019453.1581,95
1607019453.1601,121
1607019453.1621,104
1607019453.1641,128
1607019453.1661,168
1607019453.1681,137
1607019453.1701,92
1607019453.1721,99
1607019453.1741,102
1607019453.1761,80
1607019453.1781,66
1607019453.1801,76
1607019453.1821,95
1607019453.1841,95
1607019453.1861,83
1607019453.1881,71
1607019453.1901,9
1607019453.1921,-87
1607019453.1941,-71
1607019453.1961,232
1607019453.1981,945
1607019453.2001,1758
1607019453.2021,1518
1607019453.2041,33
1607019453.2061,-767
1607019453.2081,-228
1607019453.2101,137
1607019453.2121,-11
1607019453.2141,-28
1607019453.2162,38
1607019453.2181,35
1607019453.2201,49
1607019453.2221,92
1607019453.2241,102
1607019453.2261,90
1607019453.2281,123
1607019453.2301,190
1607019453.2321,175
1607019453.2341,137
1607019453.2361,190
1607019453.2381,230
1607019453.2401,230
1607019453.2421,259
1607019453.2443,275
1607019453.2461,311
1607019453.2481,375
1607019453.2501,399
1607019453.2521,394
1607019453.2541,387
1607019453.2561,420
1607019453.2581,501
1607019453.2601,510
1607019453.2621,444
1607019453.6888,425
1607019453.6900,396
1607019453.6924,285
1607019453.6951,209
1607019453.6971,171
1607019453.6990,49
1607019453.7010,-54
1607019453.7030,-73
1607019453.7050,-90
1607019453.7071,-90
1607019453.7090,-73
1607019453.7110,-92
1607019453.7130,-106
1607019453.7150,-68
1607019453.7171,-30
1607019453.7190,-23
1607019453.7210,-23
1607019453.7231,-30
1607019453.7251,-23
1607019453.7270,-4
1607019453.7290,-7
1607019453.7310,9
1607019453.7331,35
1607019453.7350,2
1607019453.7371,-11
1607019453.7390,19
1607019453.7410,21
1607019453.7430,16
1607019453.7450,30
1607019453.7470,16
1607019453.7490,-11
1607019453.7510,4
1607019453.7530,57
1607019453.7550,45
1607019453.7571,-4
1607019453.7590,11
1607019453.7610,64
1607019453.7629,66
1607019453.7650,26
1607019453.7670,14
1607019453.7690,26
1607019453.7712,38
1607019453.7730,52
1607019453.7750,59
1607019453.7770,61
1607019453.7790,47
1607019453.7810,52
1607019453.7830,76
1607019453.7850,54
1607019453.7869,40
1607019453.7889,52
1607019453.7909,33
1607019453.7930,71
1607019453.7949,125
1607019453.7969,66
1607019453.7989,26
1607019453.8009,80
1607019453.8030,90
1607019453.8050,40
1607019453.8069,42
1607019453.8090,97
1607019453.8109,104
1607019453.8129,64
1607019453.8149,57
1607019453.8170,83
1607019453.8190,73
1607019453.8210,40
1607019453.8230,64
1607019453.8249,118
1607019453.8269,104
1607019453.8289,57
1607019453.8309,66
1607019453.8330,66
1607019454.2583,59
1607019454.2592,90
1607019454.2617,73
1607019454.2643,11
1607019454.2663,59
1607019454.2683,171
1607019454.2703,171
1607019454.2723,109
1607019454.2742,99
1607019454.2762,125
1607019454.2782,125
1607019454.2802,68
1607019454.2822,28
1607019454.2843,54
1607019454.2862,76
1607019454.2882,57
1607019454.2902,73
1607019454.2922,87
1607019454.2942,59
1607019454.2965,26
1607019454.2983,-35
1607019454.3002,-142
1607019454.3022,-95
1607019454.3042,370
1607019454.3062,1271
1607019454.3082,1960
1607019454.3102,1302
1607019454.3122,-254
1607019454.3142,-686
1607019454.3162,-66
1607019454.3182,40
1607019454.3202,-156
1607019454.3222,-2
1607019454.3242,102
1607019454.3262,0
1607019454.3282,2
1607019454.3302,80
1607019454.3322,80
1607019454.3342,64
1607019454.3362,73
1607019454.3382,114
1607019454.3402,161
1607019454.3422,161
1607019454.3442,159
1607019454.3462,204
1607019454.3482,220
1607019454.3502,216
1607019454.3522,268
1607019454.3542,306
1607019454.3562,285
1607019454.3582,327
1607019454.3602,399
1607019454.3622,396
1607019454.3642,396
1607019454.3662,439
1607019454.3682,437
1607019454.3702,358
1607019454.3722,335
1607019454.3742,363
1607019454.3762,261
1607019454.3782,102
1607019454.3802,59
1607019454.3822,7
1607019454.3842,-99
1607019454.3862,-118
1607019454.3882,-80
1607019454.3902,-116
1607019454.3922,-144
1607019454.3942,-97
1607019454.3962,-85
1607019454.3983,-109
1607019454.4002,-76
1607019454.4022,-47
1607019454.7984,-66
1607019454.7991,-61
1607019454.8005,-54
1607019454.8025,-64
1607019454.8044,-30
1607019454.8064,-2
1607019454.8084,-14
1607019454.8104,-14
1607019454.8126,-26
1607019454.8144,-49
1607019454.8164,-7
1607019454.8185,11
1607019454.8205,-49
1607019454.8225,-42
1607019454.8244,9
1607019454.8264,-16
1607019454.8284,-49
1607019454.8306,-54
1607019454.8325,-40
1607019454.8345,23
1607019454.8365,30
1607019454.8385,-23
1607019454.8404,-26
1607019454.8425,-23
1607019454.8444,-52
1607019454.8464,-21
1607019454.8484,45
1607019454.8504,33
1607019454.8525,-14
1607019454.8545,-26
1607019454.8564,0
1607019454.8584,49
1607019454.8604,52
1607019454.8625,19
1607019454.8644,4
1607019454.8664,28
1607019454.8685,59
1607019454.8705,42
1607019454.8724,30
1607019454.8744,52
1607019454.8764,40
1607019454.8784,23
1607019454.8804,33
1607019454.8824,38
1607019454.8845,45
1607019454.8865,59
1607019454.8884,45
1607019454.8904,26
1607019454.8927,35
1607019454.8944,52
1607019454.8964,47
1607019454.8984,40
1607019454.9004,59
1607019454.9025,54
1607019454.9044,33
1607019454.9064,61
1607019454.9084,68
1607019454.9104,38
1607019454.9125,49
1607019454.9144,57
1607019454.9164,45
1607019454.9185,80
1607019454.9204,125
1607019454.9224,118
1607019454.9245,106
1607019454.9264,106
1607019454.9284,92
1607019454.9304,59
1607019454.9324,30
1607019454.9344,35
1607019454.9365,76
1607019454.9384,80
1607019454.9404,49
1607019455.3687,54
1607019455.3697,66
1607019455.3722,40
1607019455.3747,-26
1607019455.3767,-109
1607019455.3787,-87
1607019455.3808,263
1607019455.3827,1017
1607019455.3847,1691
1607019455.3868,1257
1607019455.3887,-135
1607019455.3907,-689
1607019455.3928,-149
1607019455.3947,66
1607019455.3967,-111
1607019455.3987,-42
1607019455.4007,52
1607019455.4028,2
1607019455.4047,21
1607019455.4067,61
1607019455.4087,38
1607019455.4107,47
1607019455.4127,92
1607019455.4147,109
1607019455.4167,109
1607019455.4187,130
1607019455.4209,161
1607019455.4227,178
1607019455.4247,182
1607019455.4266,213
1607019455.4286,249
1607019455.4306,242
1607019455.4326,275
1607019455.4347,339
1607019455.4368,335
1607019455.4386,325
1607019455.4407,382
1607019455.4428,415
1607019455.4446,384
1607019455.4466,363
1607019455.4486,351
1607019455.4506,292
1607019455.4528,199
1607019455.4546,109
1607019455.4566,49
1607019455.4586,-2
1607019455.4606,-71
1607019455.4626,-121
1607019455.4646,-137
1607019455.4666,-142
1607019455.4687,-144
1607019455.4706,-135
1607019455.4727,-121
1607019455.4746,-114
1607019455.4766,-111
1607019455.4786,-99
1607019455.4806,-85
1607019455.4827,-78
1607019455.4847,-73
1607019455.4867,-64
1607019455.4886,-59
1607019455.4906,-54
1607019455.4927,-42
1607019455.4946,-38
1607019455.4966,-33
1607019455.4986,-28
1607019455.5007,-26
1607019455.5027,-23
1607019455.5046,-23
1607019455.5066,-26
1607019455.5086,-28
1607019455.5106,-23
1607019455.5127,-16
1607019455.9078,-14
1607019455.9085,-11
1607019455.9096,-14
1607019455.9116,-16
1607019455.9139,-11
1607019455.9156,-9
1607019455.9177,-11
1607019455.9198,-11
1607019455.9216,-11
1607019455.9237,-11
1607019455.9256,-11
1607019455.9276,-9
1607019455.9296,-4
1607019455.9316,0
1607019455.9336,0
1607019455.9357,4
1607019455.9376,9
1607019455.9396,11
1607019455.9416,14
1607019455.9436,11
1607019455.9456,9
1607019455.9476,16
1607019455.9496,21
1607019455.9517,19
1607019455.9537,16
1607019455.9556,26
1607019455.9576,30
1607019455.9596,26
1607019455.9616,23
1607019455.9636,26
1607019455.9656,33
1607019455.9677,42
1607019455.9696,73
1607019455.9716,104
1607019455.9736,99
1607019455.9756,85
1607019455.9776,78
1607019455.9796,57
1607019455.9816,38
1607019455.9836,38
1607019455.9856,35
1607019455.9876,28
1607019455.9896,28
1607019455.9916,33
1607019455.9936,40
1607019455.9956,49
1607019455.9976,38
1607019455.9996,-33
1607019456.0017,-116
1607019456.0036,-45
1607019456.0056,368
1607019456.0076,1116
1607019456.0096,1689
1607019456.0116,1074
1607019456.0136,-430
1607019456.0157,-864
1607019456.0176,-171
1607019456.0197,85
1607019456.0216,-71
1607019456.0236,-4
1607019456.0256,73
1607019456.0276,33
1607019456.0295,47
1607019456.0316,87
1607019456.0336,83
1607019456.0356,85
1607019456.0376,114
1607019456.0396,130
1607019456.0415,144
1607019456.0436,163
1607019456.0455,178
1607019456.0476,194
1607019456.0496,223
1607019456.4784,249
1607019456.4793,268
1607019456.4816,294
1607019456.4844,330
1607019456.4864,363
1607019456.4884,384
1607019456.4904,401
1607019456.4923,422
1607019456.4943,439
1607019456.4963,434
1607019456.4983,413
1607019456.5003,382
1607019456.5024,325
1607019456.5043,232
1607019456.5063,121
1607019456.5083,19
1607019456.5103,-68
1607019456.5123,-128
1607019456.5143,-163
1607019456.5163,-178
1607019456.5183,-182
1607019456.5203,-180
1607019456.5223,-171
1607019456.5243,-156
1607019456.5263,-142
1607019456.5283,-133
1607019456.5303,-121
1607019456.5323,-106
1607019456.5343,-99
1607019456.5363,-95
1607019456.5383,-80
1607019456.5402,-68
1607019456.5423,-68
1607019456.5444,-64
1607019456.5463,-52
1607019456.5482,-49
1607019456.5503,-45
1607019456.5523,-38
1607019456.5542,-35
1607019456.5562,-38
1607019456.5582,-38
1607019456.5602,-38
1607019456.5622,-35
1607019456.5642,-33
1607019456.5662,-30
1607019456.5683,-30
1607019456.5703,-28
1607019456.5722,-26
1607019456.5742,-23
1607019456.5763,-21
1607019456.5782,-21
1607019456.5802,-21
1607019456.5824,-19
1607019456.5843,-14
1607019456.5863,-11
1607019456.5882,-16
1607019456.5902,-21
1607019456.5922,-11
1607019456.5942,-2
1607019456.5962,-7
1607019456.5982,-11
1607019456.6002,2
1607019456.6023,35
1607019456.6042,66
1607019456.6062,71
1607019456.6082,66
1607019456.6102,59
1607019456.6122,33
1607019456.6142,11
1607019456.6163,7
1607019456.6183,7
1607019456.6203,4
1607019456.6225,7
1607019457.0784,14
1607019457.0793,21
1607019457.0817,23
1607019457.0844,14
1607019457.0864,-28
1607019457.0884,-116
1607019457.0904,-152
1607019457.0925,80
1607019457.0944,739
1607019457.0964,1563
1607019457.0984,1556
1607019457.1009,220
1607019457.1024,-824
1607019457.1044,-425
1607019457.1063,68
1607019457.1083,-71
1607019457.1103,-99
1607019457.1124,35
1607019457.1144,14
1607019457.1163,-7
1607019457.1184,47
1607019457.1204,64
1607019457.1224,57
1607019457.1244,80
1607019457.1264,106
1607019457.1284,116
1607019457.1304,128
1607019457.1324,149
1607019457.1344,173
1607019457.1364,194
1607019457.1383,216
1607019457.1403,237
1607019457.1424,263
1607019457.1443,292
1607019457.1463,323
1607019457.1483,354
1607019457.1504,377
1607019457.1524,399
1607019457.1543,413
1607019457.1563,415
1607019457.1583,399
1607019457.1603,365
1607019457.1623,308
1607019457.1643,223
1607019457.1663,118
1607019457.1684,19
1607019457.1703,-52
1607019457.1723,-102
1607019457.1743,-144
1607019457.1763,-168
1607019457.1783,-173
1607019457.1803,-168
1607019457.1823,-163
1607019457.1844,-159
1607019457.1865,-149
1607019457.1883,-137
1607019457.1903,-128
1607019457.1923,-118
1607019457.1943,-111
1607019457.1963,-99
1607019457.1983,-90
1607019457.2003,-85
1607019457.2026,-80
1607019457.2043,-71
1607019457.2063,-64
1607019457.2083,-59
1607019457.2103,-54
1607019457.2123,-49
1607019457.2143,-45
1607019457.2164,-45
1607019457.2184,-47
1607019457.2203,-42
1607019457.2224,-35
1607019457.6184,-33
1607019457.6194,-38
1607019457.6218,-35
1607019457.6235,-28
1607019457.6254,-30
1607019457.6274,-28
1607019457.6294,-21
1607019457.6315,-21
1607019457.6335,-19
1607019457.6355,-14
1607019457.6374,-9
1607019457.6394,-14
1607019457.6414,-21
1607019457.6434,-19
1607019457.6454,-19
1607019457.6474,-23
1607019457.6494,-19
1607019457.6515,-4
1607019457.6534,16
1607019457.6554,47
1607019457.6574,68
1607019457.6594,64
1607019457.6614,49
1607019457.6634,38
1607019457.6654,23
1607019457.6674,11
1607019457.6694,9
1607019457.6714,9
1607019457.6734,11
1607019457.6754,11
1607019457.6774,16
1607019457.6794,19
1607019457.6814,7
1607019457.6834,-35
1607019457.6854,-109
1607019457.6874,-130
1607019457.6894,95
1607019457.6914,717
1607019457.6934,1485
1607019457.6953,1421
1607019457.6976,130
1607019457.6994,-781
1607019457.7014,-354
1607019457.7034,71
1607019457.7053,-90
1607019457.7074,-106
1607019457.7093,28
1607019457.7113,16
1607019457.7134,-2
1607019457.7153,47
1607019457.7174,64
1607019457.7194,35
1607019457.7213,42
1607019457.7234,78
1607019457.7253,95
1607019457.7273,116
1607019457.7293,159
1607019457.7299,178
1607019457.7313,182
1607019457.7334,201
1607019457.7354,209
1607019457.7373,211
1607019457.7393,263
1607019457.7413,327
1607019457.7434,342
1607019457.7453,363
1607019457.7474,387
1607019457.7493,358
1607019457.7514,346
1607019457.7534,387
1607019457.7553,382
1607019457.7573,304
1607019457.7593,218
1607019458.1579,140
1607019458.1588,30
1607019458.1611,-71
1607019458.1629,-90
1607019458.1648,-80
1607019458.1668,-123
1607019458.1689,-152
1607019458.1708,-140
1607019458.1729,-125
1607019458.1749,-123
1607019458.1768,-128
1607019458.1788,-123
1607019458.1808,-80
1607019458.1814,-59
1607019458.1828,-80
1607019458.1848,-90
1607019458.1868,-76
1607019458.1888,-59
1607019458.1909,-47
1607019458.1928,-52
1607019458.1947,-52
1607019458.1968,-28
1607019458.1988,-28
1607019458.2008,-42
1607019458.2028,-33
1607019458.2048,-30
1607019458.2068,-54
1607019458.2088,-49
1607019458.2108,-11
1607019458.2113,-2
1607019458.2128,-21
1607019458.2147,-16
1607019458.2167,-7
1607019458.2188,-19
1607019458.2207,-30
1607019458.2228,-30
1607019458.2249,-21
1607019458.2267,-16
1607019458.2287,-14
1607019458.2308,-2
1607019458.2328,-7
1607019458.2348,-40
1607019458.2368,-33
1607019458.2388,16
1607019458.2407,38
1607019458.2414,49
1607019458.2428,80
1607019458.2447,64
1607019458.2467,23
1607019458.2487,38
1607019458.2508,47
1607019458.2529,-2
1607019458.2548,0
1607019458.2567,23
1607019458.2587,-7
1607019458.2607,-2
1607019458.2628,47
1607019458.2647,38
1607019458.2667,4
1607019458.2688,-26
1607019458.2707,-114
1607019458.2714,-166
1607019458.2728,23
1607019458.2747,548
1607019458.2767,1278
1607019458.2787,1506
1607019458.2807,522
1607019458.2828,-646
1607019458.2849,-553
1607019458.2870,14
1607019458.2888,-2
1607019458.2908,-106
1607019458.2928,23
1607019458.7283,52
1607019458.7295,2
1607019458.7308,49
1607019458.7326,66
1607019458.7334,38
1607019458.7346,68
1607019458.7366,99
1607019458.7386,104
1607019458.7406,114
1607019458.7426,123
1607019458.7446,149
1607019458.7466,190
1607019458.7486,216
1607019458.7507,216
1607019458.7526,209
1607019458.7546,232
1607019458.7566,294
1607019458.7586,342
1607019458.7606,337
1607019458.7626,339
1607019458.7631,382
1607019458.7645,392
1607019458.7666,356
1607019458.7686,342
1607019458.7705,316
1607019458.7726,237
1607019458.7745,149
1607019458.7766,61
1607019458.7773,-19
1607019458.7788,-71
1607019458.7793,-95
1607019458.7816,-123
1607019458.7836,-147
1607019458.7855,-123
1607019458.7876,-116
1607019458.7894,-142
1607019458.7916,-109
1607019458.7935,-61
1607019458.7955,-80
1607019458.7975,-97
1607019458.7996,-73
1607019458.8015,-54
1607019458.8035,-49
1607019458.8056,-49
1607019458.8076,-47
1607019458.8082,-35
1607019458.8106,-28
1607019458.8127,-35
1607019458.8146,-35
1607019458.8162,-21
1607019458.8176,-23
1607019458.8196,-19
1607019458.8216,-4
1607019458.8237,-11
1607019458.8255,-26
1607019458.8276,-40
1607019458.8295,-23
1607019458.8315,14
1607019458.8335,7
1607019458.8355,-2
1607019458.8361,-2
1607019458.8375,-28
1607019458.8395,-19
1607019458.8416,16
1607019458.8435,9
1607019458.8456,-4
1607019458.8475,7
1607019458.8495,11
1607019458.8515,16
1607019458.8537,14
1607019458.8556,2
1607019458.8576,-7
1607019458.8595,-11
1607019459.2680,4
1607019459.2686,47
1607019459.2703,52
1607019459.2721,40
1607019459.2740,80
1607019459.2760,109
1607019459.2780,59
1607019459.2800,14
1607019459.2820,38
1607019459.2840,26
1607019459.2860,-21
1607019459.2880,-4
1607019459.2900,21
1607019459.2920,9
1607019459.2926,11
1607019459.2940,33
1607019459.2960,28
1607019459.2980,-40
1607019459.3000,-149
1607019459.3020,-102
1607019459.3040,299
1607019459.3059,1038
1607019459.3080,1644
1607019459.3100,1138
1607019459.3119,-297
1607019459.3141,-834
1607019459.3160,-225
1607019459.3180,73
1607019459.3200,-80
1607019459.3219,-59
1607019459.3226,23
1607019459.3239,-14
1607019459.3259,-19
1607019459.3279,52
1607019459.3300,87
1607019459.3320,68
1607019459.3340,80
1607019459.3361,106
1607019459.3380,106
1607019459.3400,125
1607019459.3420,166
1607019459.3440,185
1607019459.3460,187
1607019459.3480,211
1607019459.3500,251
1607019459.3520,273
1607019459.3540,287
1607019459.3560,327
1607019459.3580,361
1607019459.3600,368
1607019459.3620,392
1607019459.3640,415
1607019459.3660,396
1607019459.3680,377
1607019459.3700,368
1607019459.3720,304
1607019459.3740,213
1607019459.3760,123
1607019459.3780,14
1607019459.3800,-61
1607019459.3820,-97
1607019459.3840,-137
1607019459.3860,-154
1607019459.3880,-142
1607019459.3900,-144
1607019459.3920,-149
1607019459.3941,-140
1607019459.3960,-123
1607019459.3980,-90
1607019459.4000,-83
1607019459.4020,-92
1607019459.4040,-73
1607019459.4060,-59
1607019459.8681,-83
1607019459.8694,-83
1607019459.8718,-40
1607019459.8748,-23
1607019459.8764,-40
1607019459.8784,-45
1607019459.8805,-61
1607019459.8825,-78
1607019459.8845,-35
1607019459.8865,-14
1607019459.8884,-49
1607019459.8904,-40
1607019459.8925,-26
1607019459.8944,-68
1607019459.8964,-54
1607019459.8984,16
1607019459.9005,9
1607019459.9025,-28
1607019459.9044,-23
1607019459.9064,-35
1607019459.9086,-45
1607019459.9104,-14
1607019459.9124,16
1607019459.9144,16
1607019459.9164,0
1607019459.9184,-4
1607019459.9204,-2
1607019459.9224,-21
1607019459.9244,-35
1607019459.9266,-4
1607019459.9284,76
1607019459.9304,128
1607019459.9324,85
1607019459.9345,45
1607019459.9364,38
1607019459.9384,14
1607019459.9404,19
1607019459.9424,52
1607019459.9444,47
1607019459.9464,7
1607019459.9484,4
1607019459.9503,30
1607019459.9525,19
1607019459.9543,4
1607019459.9564,14
1607019459.9583,-61
1607019459.9603,-156
1607019459.9624,-2
1607019459.9644,560
1607019459.9663,1385
1607019459.9684,1713
1607019459.9704,677
1607019459.9724,-724
1607019459.9743,-715
1607019459.9766,-47
1607019459.9784,-7
1607019459.9803,-102
1607019459.9824,23
1607019459.9844,47
1607019459.9864,7
1607019459.9883,42
1607019459.9903,66
1607019459.9924,61
1607019459.9943,71
1607019459.9963,90
1607019459.9983,106
1607019460.0004,109
1607019460.0025,130
1607019460.0043,182
1607019460.0063,194
1607019460.0083,187
1607019460.0104,216
1607019460.0124,256
1607019460.4686,275
1607019460.4696,280
1607019460.4721,316
1607019460.4747,363
1607019460.4767,373
1607019460.4787,375
1607019460.4809,387
1607019460.4827,373
1607019460.4847,332
1607019460.4867,278
1607019460.4886,197
1607019460.4906,114
1607019460.4927,35
1607019460.4946,-57
1607019460.4966,-123
1607019460.4986,-159
1607019460.5007,-171
1607019460.5028,-156
1607019460.5046,-173
1607019460.5066,-182
1607019460.5086,-159
1607019460.5106,-168
1607019460.5127,-159
1607019460.5146,-114
1607019460.5166,-106
1607019460.5186,-116
1607019460.5206,-92
1607019460.5226,-68
1607019460.5246,-73
1607019460.5266,-76
1607019460.5286,-66
1607019460.5306,-64
1607019460.5328,-83
1607019460.5346,-95
1607019460.5366,-52
1607019460.5386,-14
1607019460.5406,-35
1607019460.5426,-52
1607019460.5446,-28
1607019460.5465,-19
1607019460.5486,-42
1607019460.5507,-49
1607019460.5527,-28
1607019460.5546,-21
1607019460.5566,-47
1607019460.5586,-57
1607019460.5606,-26
1607019460.5626,-2
1607019460.5646,-4
1607019460.5666,4
1607019460.5686,4
1607019460.5706,-16
1607019460.5725,-16
1607019460.5746,-9
1607019460.5766,-9
1607019460.5786,-7
1607019460.5806,-7
1607019460.5826,-11
1607019460.5847,-2
1607019460.5866,23
1607019460.5886,54
1607019460.5906,71
1607019460.5926,66
1607019460.5946,52
1607019460.5966,38
1607019460.5986,21
1607019460.6007,7
1607019460.6027,4
1607019460.6046,2
1607019460.6066,0
1607019460.6086,-2
1607019460.6106,-4
1607019460.6126,2
1607019460.9779,14
1607019460.9786,-23
1607019460.9810,-118
1607019460.9837,-144
1607019460.9858,61
1607019460.9877,615
1607019460.9898,1361
1607019460.9917,1449
1607019460.9938,294
1607019460.9957,-739
1607019460.9979,-434
1607019460.9997,61
1607019461.0018,-52
1607019461.0037,-116
1607019461.0057,2
1607019461.0077,-7
1607019461.0096,-33
1607019461.0117,21
1607019461.0137,42
1607019461.0157,35
1607019461.0178,52
1607019461.0197,71
1607019461.0218,80
1607019461.0237,92
1607019461.0257,114
1607019461.0277,133
1607019461.0296,147
1607019461.0317,171
1607019461.0337,197
1607019461.0357,220
1607019461.0377,247
1607019461.0396,270
1607019461.0416,297
1607019461.0437,320
1607019461.0456,337
1607019461.0476,346
1607019461.0497,346
1607019461.0517,335
1607019461.0538,308
1607019461.0556,268
1607019461.0577,204
1607019461.0596,114
1607019461.0617,23
1607019461.0637,-49
1607019461.0656,-99
1607019461.0677,-135
1607019461.0697,-154
1607019461.0716,-156
1607019461.0737,-152
1607019461.0756,-147
1607019461.0776,-135
1607019461.0796,-123
1607019461.0816,-116
1607019461.0837,-106
1607019461.0858,-95
1607019461.0876,-83
1607019461.0896,-76
1607019461.0916,-73
1607019461.0936,-73
1607019461.0956,-64
1607019461.0977,-54
1607019461.0998,-52
1607019461.1017,-54
1607019461.1037,-54
1607019461.1056,-54
1607019461.1076,-49
1607019461.1096,-45
1607019461.1116,-45
1607019461.1137,-49
1607019461.1157,-49
1607019461.1178,-40
1607019461.1197,-35
1607019461.1216,-40
1607019461.5482,-40
1607019461.5491,-35
1607019461.5517,-33
1607019461.5543,-35
1607019461.5562,-33
1607019461.5582,-26
1607019461.5603,-26
1607019461.5622,-33
1607019461.5642,-38
1607019461.5661,-26
1607019461.5682,-16
1607019461.5702,-21
1607019461.5722,-23
1607019461.5741,-23
1607019461.5761,-23
1607019461.5781,-16
1607019461.5801,-9
1607019461.5821,7
1607019461.5842,35
1607019461.5862,61
1607019461.5881,66
1607019461.5901,57
1607019461.5921,47
1607019461.5941,23
1607019461.5961,9
1607019461.5981,11
1607019461.6002,11
1607019461.6022,11
1607019461.6041,16
1607019461.6061,21
1607019461.6081,19
1607019461.6101,7
1607019461.6122,-30
1607019461.6142,-109
1607019461.6161,-149
1607019461.6182,40
1607019461.6201,624
1607019461.6223,1451
1607019461.6242,1644
1607019461.6263,453
1607019461.6281,-788
1607019461.6302,-551
1607019461.6321,47
1607019461.6341,-38
1607019461.6362,-118
1607019461.6381,19
1607019461.6401,11
1607019461.6421,-30
1607019461.6441,30
1607019461.6461,68
1607019461.6481,52
1607019461.6501,66
1607019461.6523,90
1607019461.6541,95
1607019461.6561,111
1607019461.6581,142
1607019461.6601,159
1607019461.6621,168
1607019461.6642,190
1607019461.6661,223
1607019461.6682,254
1607019461.6701,280
1607019461.6721,306
1607019461.6741,337
1607019461.6761,363
1607019461.6781,380
1607019461.6802,394
1607019461.6822,399
1607019461.6842,389
1607019461.6863,363
1607019461.6883,311
1607019461.6901,230
1607019461.6921,128
1607019462.0880,26
1607019462.0888,-57
1607019462.0912,-111
1607019462.0939,-147
1607019462.0958,-168
1607019462.0978,-180
1607019462.1000,-185
1607019462.1019,-173
1607019462.1039,-159
1607019462.1058,-156
1607019462.1078,-152
1607019462.1097,-133
1607019462.1118,-118
1607019462.1138,-111
1607019462.1159,-97
1607019462.1179,-80
1607019462.1198,-83
1607019462.1220,-83
1607019462.1238,-66
1607019462.1258,-57
1607019462.1278,-61
1607019462.1299,-59
1607019462.1319,-52
1607019462.1338,-52
1607019462.1359,-52
1607019462.1379,-54
1607019462.1398,-49
1607019462.1418,-45
1607019462.1438,-42
1607019462.1457,-45
1607019462.1478,-45
1607019462.1497,-42
1607019462.1518,-40
1607019462.1537,-38
1607019462.1557,-33
1607019462.1577,-35
1607019462.1597,-35
1607019462.1617,-28
1607019462.1638,-21
1607019462.1657,-21
1607019462.1679,-26
1607019462.1698,-28
1607019462.1718,-21
1607019462.1737,-21
1607019462.1757,-19
1607019462.1777,9
1607019462.1797,49
1607019462.1817,66
1607019462.1838,52
1607019462.1859,30
1607019462.1877,16
1607019462.1897,4
1607019462.1917,-9
1607019462.1937,-14
1607019462.1957,-9
1607019462.1977,-4
1607019462.1997,-2
1607019462.2018,-4
1607019462.2037,-4
1607019462.2057,-9
1607019462.2078,-57
1607019462.2097,-147
1607019462.2118,-154
1607019462.2138,142
1607019462.2158,834
1607019462.2179,1592
1607019462.2198,1394
1607019462.2217,-30
1607019462.2240,-905
1607019462.2258,-384
1607019462.2277,52
1607019462.2297,-92
1607019462.2318,-90
1607019462.6581,26
1607019462.6590,-2
1607019462.6615,-19
1607019462.6642,28
1607019462.6660,38
1607019462.6681,30
1607019462.6701,47
1607019462.6720,66
1607019462.6740,78
1607019462.6761,95
1607019462.6780,114
1607019462.6800,125
1607019462.6820,149
1607019462.6840,180
1607019462.6861,204
1607019462.6881,223
1607019462.6900,240
1607019462.6920,263
1607019462.6940,292
1607019462.6960,320
1607019462.6980,335
1607019462.7000,337
1607019462.7021,335
1607019462.7040,318
1607019462.7060,282
1607019462.7080,228
1607019462.7100,152
1607019462.7120,59
1607019462.7140,-30
1607019462.7160,-99
1607019462.7181,-144
1607019462.7200,-171
1607019462.7220,-180
1607019462.7240,-182
1607019462.7260,-185
1607019462.7280,-175
1607019462.7300,-161
1607019462.7320,-149
1607019462.7340,-137
1607019462.7361,-128
1607019462.7380,-118
1607019462.7400,-109
1607019462.7420,-102
1607019462.7440,-99
1607019462.7460,-90
1607019462.7480,-83
1607019462.7502,-80
1607019462.7521,-73
1607019462.7540,-71
1607019462.7560,-71
1607019462.7580,-61
1607019462.7600,-54
1607019462.7620,-57
1607019462.7640,-59
1607019462.7660,-54
1607019462.7681,-49
1607019462.7700,-47
1607019462.7720,-42
1607019462.7740,-40
1607019462.7760,-45
1607019462.7780,-45
1607019462.7800,-35
1607019462.7820,-23
1607019462.7840,-19
1607019462.7861,-21
1607019462.7880,-23
1607019462.7900,-19
1607019462.7920,-11
1607019462.7940,-11
1607019462.7960,-14
1607019462.7980,-16
1607019462.8000,-11
1607019462.8021,-9
1607019463.1981,-7
1607019463.1989,-2
1607019463.2015,26
1607019463.2094,57
1607019463.2110,66
1607019463.2130,57
1607019463.2149,52
1607019463.2169,30
1607019463.2190,0
1607019463.2210,-11
1607019463.2229,-7
1607019463.2249,-7
1607019463.2268,-7
1607019463.2288,2
1607019463.2309,7
1607019463.2329,9
1607019463.2350,2
1607019463.2369,-38
1607019463.2389,-118
1607019463.2408,-140
1607019463.2429,87
1607019463.2448,677
1607019463.2469,1406
1607019463.2489,1385
1607019463.2512,178
1607019463.2529,-748
1607019463.2548,-370
1607019463.2568,71
1607019463.2589,-71
1607019463.2608,-104
1607019463.2629,28
1607019463.2649,14
1607019463.2669,-16
1607019463.2690,28
1607019463.2709,52
1607019463.2729,42
1607019463.2749,52
1607019463.2768,73
1607019463.2788,90
1607019463.2809,99
1607019463.2829,111
1607019463.2850,135
1607019463.2869,154
1607019463.2889,175
1607019463.2908,199
1607019463.2929,223
1607019463.2949,242
1607019463.2969,263
1607019463.2989,299
1607019463.3009,327
1607019463.3030,335
1607019463.3049,337
1607019463.3069,342
1607019463.3089,332
1607019463.3108,301
1607019463.3129,251
1607019463.3149,187
1607019463.3168,102
1607019463.3189,11
1607019463.3209,-54
1607019463.3229,-102
1607019463.3248,-140
1607019463.3268,-156
1607019463.3288,-159
1607019463.3309,-156
1607019463.3329,-152
1607019463.3349,-142
1607019463.3369,-133
1607019463.3389,-118
1607019463.3408,-104
1607019463.3429,-99
1607019463.3449,-104
1607019463.3468,-97
1607019463.7980,-80
1607019463.7990,-73
1607019463.8018,-71
1607019463.8041,-64
1607019463.8060,-61
1607019463.8080,-64
1607019463.8102,-61
1607019463.8121,-54
1607019463.8140,-52
1607019463.8160,-47
1607019463.8182,-45
1607019463.8200,-47
1607019463.8220,-40
1607019463.8240,-30
1607019463.8259,-30
1607019463.8280,-38
1607019463.8300,-35
1607019463.8320,-30
1607019463.8340,-26
1607019463.8360,-19
1607019463.8380,-19
1607019463.8399,-19
1607019463.8419,-11
1607019463.8439,-7
1607019463.8459,-7
1607019463.8479,-4
1607019463.8500,0
1607019463.8520,-4
1607019463.8539,-11
1607019463.8560,-9
1607019463.8579,-4
1607019463.8599,-2
1607019463.8619,-2
1607019463.8639,-9
1607019463.8659,-9
1607019463.8680,0
1607019463.8700,11
1607019463.8719,30
1607019463.8739,59
1607019463.8759,76
1607019463.8779,64
1607019463.8799,47
1607019463.8819,38
1607019463.8840,23
1607019463.8860,9
1607019463.8879,9
1607019463.8899,9
1607019463.8919,16
1607019463.8939,30
1607019463.8959,28
1607019463.8979,23
1607019463.8999,16
1607019463.9020,-33
1607019463.9041,-111
1607019463.9060,-83
1607019463.9079,228
1607019463.9099,895
1607019463.9119,1594
1607019463.9141,1297
1607019463.9159,-128
1607019463.9181,-855
1607019463.9199,-275
1607019463.9219,83
1607019463.9240,-95
1607019463.9259,-78
1607019463.9279,28
1607019463.9299,0
1607019463.9320,4
1607019463.9340,54
1607019463.9360,54
1607019463.9380,59
1607019463.9399,87
1607019463.9407,104
1607019464.3376,114
1607019464.3383,128
1607019464.3407,152
1607019464.3435,178
1607019464.3453,192
1607019464.3474,206
1607019464.3495,235
1607019464.3501,266
1607019464.3525,292
1607019464.3543,311
1607019464.3563,332
1607019464.3583,354
1607019464.3604,368
1607019464.3625,375
1607019464.3644,377
1607019464.3664,368
1607019464.3684,339
1607019464.3704,285
1607019464.3724,204
1607019464.3743,104
1607019464.3763,7
1607019464.3783,-71
1607019464.3803,-118
1607019464.3810,-147
1607019464.3823,-171
1607019464.3843,-178
1607019464.3863,-168
1607019464.3883,-159
1607019464.3903,-149
1607019464.3923,-140
1607019464.3944,-128
1607019464.3965,-118
1607019464.3983,-104
1607019464.4003,-90
1607019464.4024,-85
1607019464.4043,-83
1607019464.4063,-68
1607019464.4083,-61
1607019464.4103,-66
1607019464.4110,-59
1607019464.4123,-49
1607019464.4143,-49
1607019464.4163,-52
1607019464.4183,-47
1607019464.4203,-40
1607019464.4224,-40
1607019464.4243,-40
1607019464.4263,-33
1607019464.4283,-33
1607019464.4303,-40
1607019464.4323,-38
1607019464.4343,-28
1607019464.4364,-23
1607019464.4383,-26
1607019464.4403,-30
1607019464.4410,-28
1607019464.4423,-21
1607019464.4443,-19
1607019464.4463,-16
1607019464.4483,-16
1607019464.4503,-9
1607019464.4524,-4
1607019464.4543,-7
1607019464.4563,-9
1607019464.4583,-2
1607019464.4603,-2
1607019464.4623,-7
1607019464.4643,-9
1607019464.4663,-9
1607019464.4683,-4
1607019464.4703,11
1607019464.4710,40
1607019464.4723,61
1607019464.9075,61
1607019464.9084,52
1607019464.9096,40
1607019464.9115,26
1607019464.9135,11
1607019464.9155,4
1607019464.9175,-2
1607019464.9196,-7
1607019464.9215,-7
1607019464.9237,0
1607019464.9255,4
1607019464.9262,4
1607019464.9284,-19
1607019464.9304,-97
1607019464.9325,-171
1607019464.9346,-71
1607019464.9365,373
1607019464.9384,1157
1607019464.9404,1677
1607019464.9425,895
1607019464.9444,-548
1607019464.9464,-748
1607019464.9484,-90
1607019464.9505,-4
1607019464.9525,-156
1607019464.9544,-49
1607019464.9564,7
1607019464.9571,-40
1607019464.9584,-11
1607019464.9604,30
1607019464.9624,26
1607019464.9644,35
1607019464.9664,64
1607019464.9685,76
1607019464.9705,85
1607019464.9725,104
1607019464.9744,125
1607019464.9764,147
1607019464.9784,171
1607019464.9804,192
1607019464.9825,216
1607019464.9845,244
1607019464.9865,268
1607019464.9871,289
1607019464.9884,313
1607019464.9904,337
1607019464.9925,351
1607019464.9944,356
1607019464.9964,349
1607019464.9984,327
1607019465.0004,292
1607019465.0026,235
1607019465.0044,154
1607019465.0064,59
1607019465.0084,-26
1607019465.0104,-90
1607019465.0124,-130
1607019465.0144,-154
1607019465.0164,-163
1607019465.0171,-163
1607019465.0187,-156
1607019465.0205,-149
1607019465.0225,-137
1607019465.0244,-125
1607019465.0265,-114
1607019465.0284,-102
1607019465.0304,-95
1607019465.0325,-90
1607019465.0345,-80
1607019465.0365,-76
1607019465.0385,-68
1607019465.0404,-59
1607019465.0425,-54
1607019465.4482,-57
1607019465.4491,-54
1607019465.4516,-49
1607019465.4542,-52
1607019465.4562,-52
1607019465.4582,-49
1607019465.4602,-54
1607019465.4622,-59
1607019465.4641,-59
1607019465.4661,-61
1607019465.4682,-59
1607019465.4702,-54
1607019465.4722,-52
1607019465.4741,-49
1607019465.4761,-42
1607019465.4781,-35
1607019465.4801,-35
1607019465.4808,-35
1607019465.4832,-30
1607019465.4852,-28
1607019465.4871,-26
1607019465.4891,-21
1607019465.4911,-16
1607019465.4931,-16
1607019465.4951,-19
1607019465.4971,-14
1607019465.4991,-9
1607019465.5012,-9
1607019465.5032,-11
1607019465.5051,-7
1607019465.5071,-4
1607019465.5091,-4
1607019465.5111,-7
1607019465.5118,-9
1607019465.5131,-7
1607019465.5151,-9
1607019465.5171,-11
1607019465.5192,0
1607019465.5213,26
1607019465.5232,49
1607019465.5251,66
1607019465.5271,66
1607019465.5291,49
1607019465.5311,30
1607019465.5331,19
1607019465.5352,9
1607019465.5371,7
1607019465.5391,4
1607019465.5411,2
1607019465.5418,4
1607019465.5431,7
1607019465.5451,7
1607019465.5471,0
1607019465.5491,-45
1607019465.5512,-125
1607019465.5532,-130
1607019465.5551,118
1607019465.5571,743
1607019465.5591,1508
1607019465.5611,1411
1607019465.5631,85
1607019465.5651,-777
1607019465.5671,-304
1607019465.5692,83
1607019465.5711,-109
1607019465.5731,-114
1607019465.5751,14
1607019465.5771,-16
1607019465.5791,-30
1607019465.5811,26
1607019465.5831,35
1607019465.5852,28
1607019465.5871,47
1607019466.0176,66
1607019466.0195,78
1607019466.0204,95
1607019466.0220,114
1607019466.0239,133
1607019466.0260,147
1607019466.0279,161
1607019466.0299,185
1607019466.0319,216
1607019466.0339,242
1607019466.0361,266
1607019466.0379,294
1607019466.0399,318
1607019466.0419,332
1607019466.0439,344
1607019466.0459,349
1607019466.0481,339
1607019466.0499,313
1607019466.0521,270
1607019466.0540,206
1607019466.0559,125
1607019466.0579,40
1607019466.0599,-35
1607019466.0619,-92
1607019466.0639,-125
1607019466.0659,-144
1607019466.0681,-154
1607019466.0700,-156
1607019466.0719,-149
1607019466.0738,-140
1607019466.0758,-128
1607019466.0779,-116
1607019466.0799,-106
1607019466.0819,-95
1607019466.0839,-87
1607019466.0860,-80
1607019466.0879,-73
1607019466.0899,-68
1607019466.0919,-66
1607019466.0939,-59
1607019466.0959,-57
1607019466.0979,-54
1607019466.0999,-49
1607019466.1020,-45
1607019466.1040,-42
1607019466.1059,-45
1607019466.1079,-42
1607019466.1099,-38
1607019466.1119,-38
1607019466.1139,-35
1607019466.1159,-30
1607019466.1181,-30
1607019466.1202,-33
1607019466.1219,-33
1607019466.1239,-28
1607019466.1259,-28
1607019466.1279,-33
1607019466.1299,-30
1607019466.1319,-26
1607019466.1339,-26
1607019466.1359,-23
1607019466.1379,-23
1607019466.1399,-21
1607019466.1419,-21
1607019466.1438,-23
1607019466.1459,-26
1607019466.1479,-19
1607019466.1501,-14
1607019466.1520,-11
1607019466.1540,-11
1607019466.1559,-9
1607019466.1579,-7
1607019466.1599,-9
1607019466.5583,-9
1607019466.5596,2
1607019466.5620,23
1607019466.5646,47
1607019466.5667,59
1607019466.5687,54
1607019466.5708,38
1607019466.5727,14
1607019466.5746,-4
1607019466.5766,-11
1607019466.5786,-14
1607019466.5806,-14
1607019466.5827,-11
1607019466.5849,-7
1607019466.5867,-2
1607019466.5887,-4
1607019466.5906,-9
1607019466.5927,-49
1607019466.5947,-130
1607019466.5978,-116
1607019466.5986,178
1607019466.6006,815
1607019466.6028,1478
1607019466.6047,1226
1607019466.6066,-102
1607019466.6086,-812
1607019466.6106,-268
1607019466.6127,83
1607019466.6145,-102
1607019466.6166,-85
1607019466.6186,35
1607019466.6206,0
1607019466.6226,-9
1607019466.6246,47
1607019466.6266,57
1607019466.6285,49
1607019466.6306,71
1607019466.6326,92
1607019466.6347,104
1607019466.6366,116
1607019466.6385,133
1607019466.6405,154
1607019466.6426,180
1607019466.6446,201
1607019466.6465,223
1607019466.6487,247
1607019466.6507,273
1607019466.6527,301
1607019466.6546,327
1607019466.6565,346
1607019466.6585,361
1607019466.6605,370
1607019466.6626,370
1607019466.6646,356
1607019466.6666,332
1607019466.6687,289
1607019466.6705,216
1607019466.6726,123
1607019466.6745,33
1607019466.6765,-42
1607019466.6785,-97
1607019466.6806,-128
1607019466.6826,-144
1607019466.6847,-156
1607019466.6867,-159
1607019466.6886,-147
1607019466.6906,-137
1607019466.6926,-125
1607019466.6945,-109
1607019466.6965,-99
1607019466.6985,-97
1607019466.7006,-87
1607019466.7027,-73
1607019467.1582,-66
1607019467.1591,-64
1607019467.1616,-64
1607019467.1643,-59
1607019467.1662,-61
1607019467.1682,-64
1607019467.1704,-59
1607019467.1723,-52
1607019467.1741,-47
1607019467.1761,-45
1607019467.1781,-42
1607019467.1801,-42
1607019467.1822,-47
1607019467.1842,-45
1607019467.1862,-42
1607019467.1881,-47
1607019467.1901,-45
1607019467.1922,-30
1607019467.1941,-21
1607019467.1961,-30
1607019467.1982,-33
1607019467.2001,-23
1607019467.2023,-16
1607019467.2043,-21
1607019467.2062,-21
1607019467.2081,-14
1607019467.2101,-9
1607019467.2122,-11
1607019467.2141,-16
1607019467.2161,-16
1607019467.2182,-11
1607019467.2201,-4
1607019467.2222,9
1607019467.2241,35
1607019467.2261,54
1607019467.2281,54
1607019467.2301,47
1607019467.2321,35
1607019467.2342,14
1607019467.2362,-2
1607019467.2381,-4
1607019467.2401,-9
1607019467.2422,-11
1607019467.2441,-7
1607019467.2461,-2
1607019467.2487,2
1607019467.2501,2
1607019467.2522,-26
1607019467.2541,-99
1607019467.2561,-149
1607019467.2581,14
1607019467.2602,539
1607019467.2623,1299
1607019467.2642,1549
1607019467.2662,489
1607019467.2682,-796
1607019467.2701,-670
1607019467.2722,-16
1607019467.2741,-19
1607019467.2761,-116
1607019467.2781,11
1607019467.2801,33
1607019467.2821,-9
1607019467.2842,30
1607019467.2862,64
1607019467.2881,54
1607019467.2901,66
1607019467.2922,90
1607019467.2941,99
1607019467.2961,109
1607019467.2981,133
1607019467.3001,152
1607019467.3023,168
1607019467.7280,187
1607019467.7292,209
1607019467.7315,235
1607019467.7341,263
1607019467.7361,294
1607019467.7380,318
1607019467.7402,337
1607019467.7421,358
1607019467.7440,363
1607019467.7460,351
1607019467.7480,337
1607019467.7501,325
1607019467.7521,285
1607019467.7540,218
1607019467.7560,135
1607019467.7580,45
1607019467.7600,-38
1607019467.7621,-99
1607019467.7640,-135
1607019467.7660,-154
1607019467.7681,-166
1607019467.7701,-166
1607019467.7720,-154
1607019467.7740,-140
1607019467.7760,-133
1607019467.7780,-125
1607019467.7800,-114
1607019467.7820,-99
1607019467.7840,-92
1607019467.7860,-85
1607019467.7880,-78
1607019467.7900,-73
1607019467.7920,-76
1607019467.7940,-73
1607019467.7960,-64
1607019467.7980,-57
1607019467.8000,-57
1607019467.8021,-54
1607019467.8040,-49
1607019467.8060,-49
1607019467.8080,-49
1607019467.8100,-47
1607019467.8120,-49
1607019467.8140,-54
1607019467.8159,-52
1607019467.8181,-47
1607019467.8200,-42
1607019467.8220,-38
1607019467.8240,-40
1607019467.8260,-40
1607019467.8280,-35
1607019467.8300,-33
1607019467.8322,-33
1607019467.8340,-33
1607019467.8360,-33
1607019467.8380,-33
1607019467.8399,-33
1607019467.8420,-21
1607019467.8440,4
1607019467.8460,35
1607019467.8480,52
1607019467.8501,45
1607019467.8521,33
1607019467.8540,19
1607019467.8560,-2
1607019467.8580,-14
1607019467.8599,-11
1607019467.8620,-11
1607019467.8640,-14
1607019467.8660,-14
1607019467.8681,-11
1607019467.8700,-11
1607019467.8720,-19
1607019468.2677,-61
1607019468.2686,-149
1607019468.2711,-161
1607019468.2738,90
1607019468.2757,717
1607019468.2776,1478
1607019468.2798,1409
1607019468.2817,104
1607019468.2836,-805
1607019468.2857,-361
1607019468.2876,59
1607019468.2896,-116
1607019468.2916,-133
1607019468.2936,0
1607019468.2956,-28
1607019468.2977,-42
1607019468.2996,14
1607019468.3017,23
1607019468.3036,19
1607019468.3056,42
1607019468.3076,64
1607019468.3096,73
1607019468.3116,92
1607019468.3137,109
1607019468.3156,123
1607019468.3177,147
1607019468.3196,173
1607019468.3216,199
1607019468.3236,220
1607019468.3256,247
1607019468.3278,270
1607019468.3296,297
1607019468.3316,320
1607019468.3336,337
1607019468.3357,342
1607019468.3376,335
1607019468.3396,320
1607019468.3416,292
1607019468.3436,242
1607019468.3456,173
1607019468.3477,90
1607019468.3496,4
1607019468.3517,-66
1607019468.3536,-114
1607019468.3557,-142
1607019468.3576,-156
1607019468.3596,-161
1607019468.3616,-154
1607019468.3636,-144
1607019468.3656,-137
1607019468.3677,-123
1607019468.3696,-109
1607019468.3716,-99
1607019468.3736,-95
1607019468.3756,-90
1607019468.3776,-87
1607019468.3796,-78
1607019468.3816,-68
1607019468.3836,-64
1607019468.3857,-61
1607019468.3876,-57
1607019468.3896,-52
1607019468.3916,-49
1607019468.3936,-45
1607019468.3956,-42
1607019468.3977,-40
1607019468.3996,-38
1607019468.4017,-38
1607019468.4036,-38
1607019468.4056,-33
1607019468.4076,-28
1607019468.4096,-28
1607019468.4116,-28
1607019468.8376,-26
1607019468.8386,-23
1607019468.8411,-21
1607019468.8437,-21
1607019468.8456,-23
1607019468.8477,-23
1607019468.8497,-21
1607019468.8517,-26
1607019468.8538,-21
1607019468.8556,4
1607019468.8576,38
1607019468.8596,47
1607019468.8616,35
1607019468.8636,23
1607019468.8656,7
1607019468.8676,-14
1607019468.8696,-19
1607019468.8716,-16
1607019468.8736,-16
1607019468.8756,-16
1607019468.8776,-11
1607019468.8796,-7
1607019468.8816,-4
1607019468.8836,-16
1607019468.8857,-68
1607019468.8876,-149
1607019468.8896,-128
1607019468.8916,175
1607019468.8936,843
1607019468.8956,1513
1607019468.8976,1176
1607019468.8996,-182
1607019468.9023,-781
1607019468.9036,-213
1607019468.9056,61
1607019468.9076,-135
1607019468.9096,-97
1607019468.9116,14
1607019468.9136,-26
1607019468.9156,-26
1607019468.9177,26
1607019468.9196,30
1607019468.9216,26
1607019468.9236,49
1607019468.9256,66
1607019468.9276,76
1607019468.9296,92
1607019468.9316,114
1607019468.9336,130
1607019468.9357,149
1607019468.9376,171
1607019468.9396,192
1607019468.9416,216
1607019468.9436,244
1607019468.9456,273
1607019468.9476,299
1607019468.9496,318
1607019468.9516,330
1607019468.9536,337
1607019468.9557,332
1607019468.9576,313
1607019468.9596,282
1607019468.9616,232
1607019468.9636,161
1607019468.9656,76
1607019468.9676,-9
1607019468.9696,-78
1607019468.9716,-114
1607019468.9736,-133
1607019468.9755,-142
1607019468.9776,-142
1607019468.9796,-135
1607019468.9816,-135
1607019469.3779,-125
1607019469.3786,-109
1607019469.3812,-99
1607019469.3837,-92
1607019469.3858,-83
1607019469.3877,-83
1607019469.3898,-78
1607019469.3917,-68
1607019469.3936,-68
1607019469.3956,-73
1607019469.3978,-68
1607019469.3996,-61
1607019469.4017,-57
1607019469.4036,-57
1607019469.4056,-57
1607019469.4076,-52
1607019469.4096,-47
1607019469.4116,-40
1607019469.4136,-45
1607019469.4156,-54
1607019469.4177,-52
1607019469.4197,-45
1607019469.4216,-45
1607019469.4236,-42
1607019469.4258,-35
1607019469.4276,-35
1607019469.4296,-35
1607019469.4316,-35
1607019469.4337,-38
1607019469.4357,-38
1607019469.4376,-33
1607019469.4396,-19
1607019469.4416,9
1607019469.4436,38
1607019469.4457,52
1607019469.4479,47
1607019469.4496,28
1607019469.4519,7
1607019469.4537,-7
1607019469.4557,-11
1607019469.4576,-16
1607019469.4596,-21
1607019469.4616,-16
1607019469.4636,-9
1607019469.4656,-9
1607019469.4677,-7
1607019469.4697,-9
1607019469.4717,-57
1607019469.4736,-142
1607019469.4756,-142
1607019469.4776,125
1607019469.4796,760
1607019469.4816,1480
1607019469.4837,1297
1607019469.4857,-49
1607019469.4876,-850
1607019469.4896,-325
1607019469.4916,80
1607019469.4936,-97
1607019469.4956,-102
1607019469.4977,23
1607019469.4997,-2
1607019469.5017,-21
1607019469.5036,23
1607019469.5056,40
1607019469.5076,45
1607019469.5097,64
1607019469.5116,76
1607019469.5137,85
1607019469.5156,104
1607019469.5177,116
1607019469.5197,130
1607019469.5216,152
1607019469.9178,178
1607019469.9187,199
1607019469.9211,218
1607019469.9237,244
1607019469.9257,273
1607019469.9277,294
1607019469.9298,308
1607019469.9317,320
1607019469.9337,325
1607019469.9357,318
1607019469.9376,304
1607019469.9397,278
1607019469.9417,228
1607019469.9436,152
1607019469.9456,68
1607019469.9479,-11
1607019469.9498,-85
1607019469.9517,-133
1607019469.9536,-154
1607019469.9556,-163
1607019469.9576,-171
1607019469.9596,-168
1607019469.9616,-154
1607019469.9636,-135
1607019469.9656,-123
1607019469.9677,-116
1607019469.9697,-106
1607019469.9716,-97
1607019469.9736,-99
1607019469.9756,-99
1607019469.9776,-90
1607019469.9796,-76
1607019469.9816,-64
1607019469.9837,-59
1607019469.9857,-66
1607019469.9876,-64
1607019469.9896,-61
1607019469.9916,-59
1607019469.9937,-57
1607019469.9956,-52
1607019469.9977,-54
1607019469.9997,-54
1607019470.0017,-47
1607019470.0036,-40
1607019470.0056,-40
1607019470.0077,-42
1607019470.0096,-33
1607019470.0116,-33
1607019470.0136,-38
1607019470.0156,-33
1607019470.0177,-26
1607019470.0197,-30
1607019470.0216,-33
1607019470.0237,-30
1607019470.0257,-30
1607019470.0276,-11
1607019470.0296,21
1607019470.0316,45
1607019470.0337,49
1607019470.0357,42
1607019470.0376,23
1607019470.0396,2
1607019470.0416,-9
1607019470.0436,-16
1607019470.0457,-16
1607019470.0478,-9
1607019470.0499,-7
1607019470.0517,-9
1607019470.0536,-9
1607019470.0556,-4
1607019470.0576,-21
1607019470.0596,-92
1607019470.0616,-166
1607019470.5181,-47
1607019470.5191,444
1607019470.5216,1214
1607019470.5241,1601
1607019470.5262,696
1607019470.5281,-705
1607019470.5301,-791
1607019470.5321,-102
1607019470.5341,-11
1607019470.5360,-133
1607019470.5381,-23
1607019470.5400,11
1607019470.5421,-30
1607019470.5440,7
1607019470.5460,40
1607019470.5480,26
1607019470.5500,40
1607019470.5521,71
1607019470.5547,78
1607019470.5560,85
1607019470.5580,109
1607019470.5600,130
1607019470.5621,147
1607019470.5641,163
1607019470.5660,190
1607019470.5681,223
1607019470.5700,244
1607019470.5721,263
1607019470.5741,289
1607019470.5760,313
1607019470.5767,327
1607019470.5791,335
1607019470.5811,335
1607019470.5831,323
1607019470.5850,297
1607019470.5870,259
1607019470.5890,194
1607019470.5910,109
1607019470.5931,21
1607019470.5950,-52
1607019470.5970,-106
1607019470.5991,-140
1607019470.6010,-159
1607019470.6031,-171
1607019470.6052,-171
1607019470.6071,-161
1607019470.6077,-149
1607019470.6101,-135
1607019470.6121,-121
1607019470.6141,-111
1607019470.6160,-111
1607019470.6181,-106
1607019470.6200,-95
1607019470.6221,-87
1607019470.6240,-85
1607019470.6261,-78
1607019470.6280,-71
1607019470.6300,-66
1607019470.6321,-64
1607019470.6340,-61
1607019470.6360,-59
1607019470.6380,-59
1607019470.6387,-57
1607019470.6410,-57
1607019470.6431,-54
1607019470.6450,-52
1607019470.6470,-49
1607019470.6491,-47
1607019470.6510,-45
1607019470.6531,-45
1607019470.6550,-47
1607019470.6570,-47
1607019470.6590,-40
1607019471.0879,-42
1607019471.0887,-45
1607019471.0911,-40
1607019471.0924,-40
1607019471.0938,-40
1607019471.0958,-26
1607019471.0978,4
1607019471.0999,33
1607019471.1018,35
1607019471.1037,23
1607019471.1057,11
1607019471.1077,-2
1607019471.1097,-21
1607019471.1118,-28
1607019471.1137,-26
1607019471.1157,-23
1607019471.1177,-23
1607019471.1197,-16
1607019471.1217,-11
1607019471.1224,-9
1607019471.1248,-19
1607019471.1267,-64
1607019471.1289,-154
1607019471.1308,-168
1607019471.1328,95
1607019471.1348,753
1607019471.1367,1523
1607019471.1387,1394
1607019471.1407,49
1607019471.1428,-805
1607019471.1448,-327
1607019471.1467,68
1607019471.1487,-106
1607019471.1507,-111
1607019471.1528,14
1607019471.1534,-19
1607019471.1557,-30
1607019471.1577,26
1607019471.1597,33
1607019471.1618,28
1607019471.1637,54
1607019471.1657,71
1607019471.1677,73
1607019471.1697,87
1607019471.1717,106
1607019471.1737,125
1607019471.1757,147
1607019471.1777,171
1607019471.1797,194
1607019471.1817,218
1607019471.1837,242
1607019471.1844,266
1607019471.1867,292
1607019471.1887,316
1607019471.1907,325
1607019471.1927,327
1607019471.1947,325
1607019471.1967,308
1607019471.1989,275
1607019471.2007,225
1607019471.2028,156
1607019471.2047,73
1607019471.2067,-9
1607019471.2087,-76
1607019471.2107,-118
1607019471.2128,-144
1607019471.2134,-159
1607019471.2157,-163
1607019471.2177,-156
1607019471.2197,-149
1607019471.2218,-140
1607019471.2237,-123
1607019471.2257,-111
1607019471.6282,-106
1607019471.6290,-104
1607019471.6314,-97
1607019471.6341,-87
1607019471.6360,-83
1607019471.6380,-80
1607019471.6388,-76
1607019471.6411,-71
1607019471.6431,-68
1607019471.6451,-66
1607019471.6470,-66
1607019471.6490,-64
1607019471.6510,-59
1607019471.6530,-59
1607019471.6550,-54
1607019471.6570,-52
1607019471.6590,-52
1607019471.6610,-49
1607019471.6630,-47
1607019471.6650,-42
1607019471.6670,-42
1607019471.6690,-40
1607019471.6697,-35
1607019471.6710,-35
1607019471.6730,-33
1607019471.6750,-30
1607019471.6770,-26
1607019471.6790,-23
1607019471.6811,-26
1607019471.6832,-26
1607019471.6851,-23
1607019471.6871,-19
1607019471.6892,-9
1607019471.6910,11
1607019471.6931,42
1607019471.6950,54
1607019471.6970,45
1607019471.6990,30
1607019471.6998,16
1607019471.7021,2
1607019471.7040,-7
1607019471.7060,-4
1607019471.7080,-2
1607019471.7100,-7
1607019471.7121,-4
1607019471.7140,0
1607019471.7160,2
1607019471.7180,-7
1607019471.7200,-66
1607019471.7220,-156
1607019471.7240,-125
1607019471.7262,206
1607019471.7281,912
1607019471.7299,1568
1607019471.7306,1143
1607019471.7320,-230
1607019471.7340,-743
1607019471.7360,-159
1607019471.7380,64
1607019471.7400,-135
1607019471.7420,-83
1607019471.7440,19
1607019471.7460,-26
1607019471.7480,-21
1607019471.7500,28
1607019471.7520,28
1607019471.7540,26
1607019471.7560,52
1607019471.7580,64
1607019471.7600,71
1607019471.7607,92
1607019471.7630,111
1607019471.7650,125
1607019472.1982,144
1607019472.1991,171
1607019472.2016,192
1607019472.2043,213
1607019472.2062,242
1607019472.2091,268
1607019472.2103,282
1607019472.2122,292
1607019472.2141,306
1607019472.2161,316
1607019472.2181,308
1607019472.2201,289
1607019472.2221,261
1607019472.2241,209
1607019472.2261,140
1607019472.2281,57
1607019472.2301,-23
1607019472.2321,-85
1607019472.2341,-128
1607019472.2361,-152
1607019472.2381,-161
1607019472.2401,-161
1607019472.2421,-156
1607019472.2441,-149
1607019472.2461,-144
1607019472.2482,-135
1607019472.2501,-125
1607019472.2521,-116
1607019472.2541,-104
1607019472.2563,-95
1607019472.2582,-95
1607019472.2601,-92
1607019472.2621,-83
1607019472.2641,-78
1607019472.2661,-73
1607019472.2681,-66
1607019472.2701,-64
1607019472.2721,-61
1607019472.2741,-61
1607019472.2761,-57
1607019472.2781,-52
1607019472.2801,-52
1607019472.2821,-52
1607019472.2841,-47
1607019472.2861,-47
1607019472.2881,-49
1607019472.2901,-47
1607019472.2921,-42
1607019472.2941,-42
1607019472.2961,-45
1607019472.2981,-45
1607019472.3001,-42
1607019472.3021,-38
1607019472.3041,-35
1607019472.3061,-30
1607019472.3081,-26
1607019472.3101,-26
1607019472.3121,-28
1607019472.3141,-30
1607019472.3161,-28
1607019472.3182,-26
1607019472.3202,-23
1607019472.3222,-28
1607019472.3242,-23
1607019472.3261,-16
1607019472.3281,-14
1607019472.3301,4
1607019472.3321,42
1607019472.3341,61
1607019472.3361,49
1607019472.3381,33
1607019472.3401,19
1607019472.3421,0
1607019472.7377,-9
1607019472.7386,-2
1607019472.7410,-2
1607019472.7437,-7
1607019472.7456,-4
1607019472.7476,4
1607019472.7497,7
1607019472.7518,-19
1607019472.7537,-87
1607019472.7556,-171
1607019472.7576,-116
1607019472.7596,251
1607019472.7616,974
1607019472.7636,1577
1607019472.7656,1040
1607019472.7676,-370
1607019472.7696,-793
1607019472.7716,-152
1607019472.7736,52
1607019472.7756,-142
1607019472.7776,-78
1607019472.7796,14
1607019472.7816,-33
1607019472.7836,-21
1607019472.7856,28
1607019472.7876,26
1607019472.7897,30
1607019472.7916,64
1607019472.7936,78
1607019472.7956,80
1607019472.7976,99
1607019472.7996,123
1607019472.8016,140
1607019472.8036,159
1607019472.8056,182
1607019472.8076,204
1607019472.8096,228
1607019472.8116,256
1607019472.8136,285
1607019472.8156,306
1607019472.8176,316
1607019472.8196,316
1607019472.8216,318
1607019472.8236,313
1607019472.8256,294
1607019472.8276,268
1607019472.8296,220
1607019472.8316,140
1607019472.8336,47
1607019472.8356,-26
1607019472.8376,-85
1607019472.8396,-130
1607019472.8416,-161
1607019472.8436,-175
1607019472.8456,-175
1607019472.8476,-168
1607019472.8495,-159
1607019472.8516,-144
1607019472.8538,-135
1607019472.8557,-128
1607019472.8576,-116
1607019472.8596,-106
1607019472.8616,-104
1607019472.8636,-95
1607019472.8657,-87
1607019472.8676,-87
1607019472.8696,-85
1607019472.8716,-78
1607019472.8736,-76
1607019472.8756,-71
1607019472.8777,-66
1607019472.8796,-66
1607019472.8816,-64
1607019473.3076,-64
1607019473.3086,-68
1607019473.3110,-66
1607019473.3137,-57
1607019473.3156,-59
1607019473.3176,-71
1607019473.3197,-73
1607019473.3216,-64
1607019473.3236,-59
1607019473.3256,-61
1607019473.3276,-61
1607019473.3296,-59
1607019473.3316,-59
1607019473.3336,-54
1607019473.3356,-45
1607019473.3376,-42
1607019473.3396,-45
1607019473.3416,-42
1607019473.3436,-35
1607019473.3456,-35
1607019473.3476,-42
1607019473.3497,-42
1607019473.3517,-35
1607019473.3538,-30
1607019473.3556,-33
1607019473.3576,-35
1607019473.3596,-33
1607019473.3616,-35
1607019473.3636,-28
1607019473.3656,2
1607019473.3676,33
1607019473.3696,49
1607019473.3716,42
1607019473.3735,21
1607019473.3755,-4
1607019473.3775,-19
1607019473.3798,-19
1607019473.3816,-19
1607019473.3836,-21
1607019473.3856,-21
1607019473.3875,-14
1607019473.3896,-11
1607019473.3916,-11
1607019473.3936,-33
1607019473.3956,-106
1607019473.3976,-171
1607019473.3995,-26
1607019473.4015,480
1607019473.4036,1247
1607019473.4056,1570
1607019473.4076,586
1607019473.4096,-760
1607019473.4116,-734
1607019473.4136,-59
1607019473.4156,-9
1607019473.4176,-128
1607019473.4195,-21
1607019473.4216,14
1607019473.4236,-23
1607019473.4256,9
1607019473.4276,40
1607019473.4296,42
1607019473.4315,57
1607019473.4336,71
1607019473.4356,73
1607019473.4375,83
1607019473.4396,104
1607019473.4415,123
1607019473.4435,144
1607019473.4442,175
1607019473.4456,194
1607019473.4476,201
1607019473.4496,223
1607019473.9077,251
1607019473.9086,273
1607019473.9104,292
1607019473.9124,311
1607019473.9145,320
1607019473.9165,318
1607019473.9185,304
1607019473.9204,275
1607019473.9224,242
1607019473.9244,190
1607019473.9251,116
1607019473.9263,30
1607019473.9284,-47
1607019473.9303,-109
1607019473.9326,-147
1607019473.9344,-166
1607019473.9363,-173
1607019473.9383,-171
1607019473.9403,-163
1607019473.9423,-154
1607019473.9443,-147
1607019473.9463,-135
1607019473.9483,-128
1607019473.9503,-121
1607019473.9524,-109
1607019473.9543,-97
1607019473.9550,-97
1607019473.9563,-99
1607019473.9583,-90
1607019473.9603,-83
1607019473.9623,-83
1607019473.9644,-78
1607019473.9664,-71
1607019473.9684,-73
1607019473.9704,-76
1607019473.9725,-71
1607019473.9744,-64
1607019473.9764,-61
1607019473.9784,-66
1607019473.9803,-66
1607019473.9824,-61
1607019473.9843,-59
1607019473.9850,-54
1607019473.9863,-49
1607019473.9883,-47
1607019473.9904,-52
1607019473.9924,-52
1607019473.9944,-45
1607019473.9963,-38
1607019473.9983,-35
1607019474.0003,-35
1607019474.0023,-35
1607019474.0043,-33
1607019474.0063,-28
1607019474.0083,-26
1607019474.0103,-23
1607019474.0123,-26
1607019474.0143,-28
1607019474.0150,-23
1607019474.0164,-16
1607019474.0183,-11
1607019474.0204,-16
1607019474.0224,-21
1607019474.0243,-23
1607019474.0264,-21
1607019474.0285,-23
1607019474.0304,-23
1607019474.0324,-14
1607019474.0343,7
1607019474.0364,33
1607019474.0383,47
1607019474.0403,45
1607019474.0423,30
1607019474.4481,14
1607019474.4490,-2
1607019474.4515,-9
1607019474.4541,-11
1607019474.4561,-9
1607019474.4582,-7
1607019474.4602,-2
1607019474.4621,0
1607019474.4640,-2
1607019474.4660,-14
1607019474.4681,-76
1607019474.4700,-168
1607019474.4721,-128
1607019474.4740,230
1607019474.4760,950
1607019474.4780,1573
1607019474.4800,1071
1607019474.4807,-316
1607019474.4821,-755
1607019474.4840,-161
1607019474.4860,19
1607019474.4880,-163
1607019474.4900,-90
1607019474.4920,-4
1607019474.4940,-52
1607019474.4961,-38
1607019474.4980,11
1607019474.5000,11
1607019474.5020,16
1607019474.5040,42
1607019474.5060,54
1607019474.5080,64
1607019474.5087,85
1607019474.5100,104
1607019474.5121,118
1607019474.5140,140
1607019474.5160,166
1607019474.5180,187
1607019474.5200,206
1607019474.5220,232
1607019474.5240,261
1607019474.5260,280
1607019474.5280,297
1607019474.5302,308
1607019474.5321,316
1607019474.5341,311
1607019474.5361,294
1607019474.5380,263
1607019474.5386,216
1607019474.5400,147
1607019474.5421,64
1607019474.5440,-14
1607019474.5460,-78
1607019474.5480,-125
1607019474.5500,-154
1607019474.5520,-166
1607019474.5540,-168
1607019474.5560,-166
1607019474.5580,-159
1607019474.5600,-149
1607019474.5620,-135
1607019474.5640,-128
1607019474.5660,-123
1607019474.5680,-114
1607019474.5687,-104
1607019474.5700,-97
1607019474.5720,-95
1607019474.5740,-87
1607019474.5760,-83
1607019474.5780,-78
1607019474.5800,-73
1607019474.5820,-68
1607019474.5840,-61
1607019475.0177,-61
1607019475.0185,-61
1607019475.0209,-57
1607019475.0236,-57
1607019475.0242,-57
1607019475.0256,-54
1607019475.0275,-52
1607019475.0296,-54
1607019475.0315,-61
1607019475.0336,-61
1607019475.0355,-57
1607019475.0375,-57
1607019475.0395,-64
1607019475.0415,-61
1607019475.0435,-52
1607019475.0455,-47
1607019475.0475,-52
1607019475.0496,-54
1607019475.0516,-47
1607019475.0535,-42
1607019475.0542,-45
1607019475.0557,-40
1607019475.0576,-35
1607019475.0595,-35
1607019475.0615,-35
1607019475.0635,-30
1607019475.0655,-26
1607019475.0675,-28
1607019475.0695,-30
1607019475.0715,-30
1607019475.0735,-30
1607019475.0755,-28
1607019475.0775,-21
1607019475.0795,-4
1607019475.0815,23
1607019475.0835,47
1607019475.0842,47
1607019475.0855,33
1607019475.0875,19
1607019475.0895,0
1607019475.0915,-19
1607019475.0935,-23
1607019475.0955,-16
1607019475.0975,-19
1607019475.0995,-21
1607019475.1015,-19
1607019475.1035,-11
1607019475.1055,-14
1607019475.1075,-52
1607019475.1095,-130
1607019475.1115,-163
1607019475.1135,16
1607019475.1141,553
1607019475.1155,1306
1607019475.1175,1442
1607019475.1195,325
1607019475.1215,-722
1607019475.1235,-434
1607019475.1255,66
1607019475.1275,-66
1607019475.1295,-142
1607019475.1315,-7
1607019475.1335,-9
1607019475.1355,-45
1607019475.1375,7
1607019475.1395,28
1607019475.1415,19
1607019475.1435,40
1607019475.1442,66
1607019475.1455,76
1607019475.1475,90
1607019475.1495,109
1607019475.1517,128
1607019475.5581,144
1607019475.5590,163
1607019475.5614,187
1607019475.5641,209
1607019475.5660,230
1607019475.5680,251
1607019475.5701,270
1607019475.5721,294
1607019475.5740,311
1607019475.5760,313
1607019475.5780,311
1607019475.5787,304
1607019475.5800,282
1607019475.5820,242
1607019475.5840,187
1607019475.5860,111
1607019475.5880,23
1607019475.5900,-52
1607019475.5920,-106
1607019475.5940,-142
1607019475.5961,-163
1607019475.5980,-173
1607019475.6000,-171
1607019475.6020,-156
1607019475.6040,-149
1607019475.6060,-152
1607019475.6080,-142
1607019475.6087,-118
1607019475.6100,-106
1607019475.6120,-109
1607019475.6140,-111
1607019475.6159,-99
1607019475.6180,-85
1607019475.6200,-78
1607019475.6220,-78
1607019475.6240,-80
1607019475.6259,-76
1607019475.6280,-66
1607019475.6300,-64
1607019475.6320,-68
1607019475.6340,-68
1607019475.6359,-66
1607019475.6379,-57
1607019475.6386,-52
1607019475.6400,-61
1607019475.6420,-66
1607019475.6440,-57
1607019475.6459,-52
1607019475.6480,-57
1607019475.6499,-54
1607019475.6522,-45
1607019475.6540,-45
1607019475.6560,-49
1607019475.6580,-45
1607019475.6600,-38
1607019475.6620,-33
1607019475.6639,-35
1607019475.6659,-38
1607019475.6680,-35
1607019475.6686,-28
1607019475.6699,-23
1607019475.6719,-23
1607019475.6740,-23
1607019475.6760,-19
1607019475.6779,-21
1607019475.6800,-28
1607019475.6820,-35
1607019475.6840,-38
1607019475.6860,-35
1607019475.6879,-28
1607019475.6900,-14
1607019475.6920,4
1607019475.6940,21
1607019476.0978,28
1607019476.0985,26
1607019476.1009,16
1607019476.1037,-2
1607019476.1056,-21
1607019476.1076,-23
1607019476.1097,-21
1607019476.1116,-26
1607019476.1136,-26
1607019476.1155,-19
1607019476.1176,-14
1607019476.1195,-16
1607019476.1215,-45
1607019476.1235,-116
1607019476.1255,-154
1607019476.1275,30
1607019476.1282,572
1607019476.1295,1325
1607019476.1315,1508
1607019476.1335,380
1607019476.1355,-845
1607019476.1376,-622
1607019476.1396,16
1607019476.1415,-33
1607019476.1436,-130
1607019476.1455,0
1607019476.1475,14
1607019476.1496,-26
1607019476.1518,19
1607019476.1536,42
1607019476.1555,35
1607019476.1575,52
1607019476.1582,73
1607019476.1595,87
1607019476.1615,106
1607019476.1635,121
1607019476.1655,140
1607019476.1675,166
1607019476.1695,185
1607019476.1716,199
1607019476.1735,225
1607019476.1755,254
1607019476.1775,273
1607019476.1795,297
1607019476.1815,323
1607019476.1835,342
1607019476.1855,346
1607019476.1875,349
1607019476.1882,342
1607019476.1896,318
1607019476.1916,275
1607019476.1936,218
1607019476.1955,140
1607019476.1975,45
1607019476.1996,-42
1607019476.2016,-99
1607019476.2036,-130
1607019476.2055,-152
1607019476.2076,-166
1607019476.2095,-168
1607019476.2115,-159
1607019476.2135,-149
1607019476.2155,-142
1607019476.2163,-135
1607019476.2175,-128
1607019476.2195,-116
1607019476.2215,-106
1607019476.2235,-97
1607019476.2255,-92
1607019476.2276,-85
1607019476.2295,-83
1607019476.2315,-78
1607019476.2335,-71
1607019476.6680,-64
1607019476.6691,-61
1607019476.6715,-64
1607019476.6741,-64
1607019476.6761,-71
1607019476.6768,-73
1607019476.6785,-66
1607019476.6802,-64
1607019476.6821,-68
1607019476.6842,-66
1607019476.6861,-59
1607019476.6881,-57
1607019476.6901,-54
1607019476.6922,-52
1607019476.6941,-45
1607019476.6960,-42
1607019476.6980,-45
1607019476.7000,-47
1607019476.7021,-40
1607019476.7041,-35
1607019476.7060,-35
1607019476.7066,-38
1607019476.7080,-35
1607019476.7100,-35
1607019476.7121,-40
1607019476.7140,-40
1607019476.7160,-38
1607019476.7180,-35
1607019476.7200,-21
1607019476.7221,9
1607019476.7240,38
1607019476.7260,38
1607019476.7280,23
1607019476.7300,11
1607019476.7321,-4
1607019476.7340,-19
1607019476.7360,-23
1607019476.7367,-21
1607019476.7380,-16
1607019476.7400,-11
1607019476.7420,-11
1607019476.7440,-9
1607019476.7460,-9
1607019476.7480,-42
1607019476.7500,-125
1607019476.7521,-171
1607019476.7540,19
1607019476.7560,591
1607019476.7580,1380
1607019476.7600,1518
1607019476.7621,349
1607019476.7640,-767
1607019476.7660,-487
1607019476.7667,54
1607019476.7680,-57
1607019476.7700,-135
1607019476.7720,-4
1607019476.7742,-11
1607019476.7761,-45
1607019476.7780,7
1607019476.7800,30
1607019476.7821,26
1607019476.7840,45
1607019476.7860,64
1607019476.7880,73
1607019476.7900,90
1607019476.7920,111
1607019476.7940,125
1607019476.7960,149
1607019476.7967,171
1607019476.7980,192
1607019476.8000,216
1607019476.8021,244
1607019477.2679,268
1607019477.2689,292
1607019477.2713,313
1607019477.2740,330
1607019477.2760,339
1607019477.2780,330
1607019477.2800,313
1607019477.2820,289
1607019477.2839,244
1607019477.2859,175
1607019477.2866,95
1607019477.2879,9
1607019477.2899,-66
1607019477.2920,-116
1607019477.2939,-147
1607019477.2959,-166
1607019477.2979,-173
1607019477.2999,-171
1607019477.3019,-163
1607019477.3039,-154
1607019477.3059,-142
1607019477.3079,-130
1607019477.3099,-121
1607019477.3119,-111
1607019477.3138,-104
1607019477.3159,-99
1607019477.3165,-92
1607019477.3179,-85
1607019477.3199,-80
1607019477.3219,-76
1607019477.3238,-66
1607019477.3259,-61
1607019477.3279,-61
1607019477.3299,-59
1607019477.3319,-57
1607019477.3340,-52
1607019477.3359,-52
1607019477.3378,-52
1607019477.3399,-49
1607019477.3420,-52
1607019477.3439,-57
1607019477.3459,-54
1607019477.3465,-49
1607019477.3479,-47
1607019477.3499,-45
1607019477.3519,-42
1607019477.3539,-40
1607019477.3559,-38
1607019477.3579,-38
1607019477.3598,-40
1607019477.3619,-38
1607019477.3639,-33
1607019477.3658,-30
1607019477.3678,-30
1607019477.3698,-28
1607019477.3719,-28
1607019477.3738,-30
1607019477.3759,-28
1607019477.3765,-21
1607019477.3779,-7
1607019477.3798,21
1607019477.3819,45
1607019477.3839,42
1607019477.3859,26
1607019477.3879,14
1607019477.3898,2
1607019477.3919,-14
1607019477.3938,-21
1607019477.3959,-21
1607019477.3979,-19
1607019477.3999,-16
1607019477.4019,-11
1607019477.4038,-11
1607019477.8076,-14
1607019477.8085,-45
1607019477.8109,-128
1607019477.8137,-173
1607019477.8156,11
1607019477.8176,560
1607019477.8197,1316
1607019477.8216,1451
1607019477.8235,337
1607019477.8255,-734
1607019477.8275,-468
1607019477.8295,54
1607019477.8315,-57
1607019477.8337,-137
1607019477.8356,-7
1607019477.8375,-4
1607019477.8395,-35
1607019477.8402,16
1607019477.8426,38
1607019477.8445,30
1607019477.8465,49
1607019477.8485,71
1607019477.8505,80
1607019477.8525,95
1607019477.8545,118
1607019477.8565,133
1607019477.8585,149
1607019477.8605,173
1607019477.8625,197
1607019477.8645,218
1607019477.8665,240
1607019477.8685,263
1607019477.8705,285
1607019477.8712,304
1607019477.8725,323
1607019477.8745,332
1607019477.8765,332
1607019477.8785,323
1607019477.8805,297
1607019477.8825,256
1607019477.8845,194
1607019477.8865,111
1607019477.8885,21
1607019477.8905,-52
1607019477.8925,-102
1607019477.8945,-135
1607019477.8965,-154
1607019477.8985,-161
1607019477.9005,-159
1607019477.9088,-152
1607019477.9105,-142
1607019477.9125,-130
1607019477.9146,-121
1607019477.9165,-111
1607019477.9185,-102
1607019477.9205,-92
1607019477.9225,-87
1607019477.9245,-83
1607019477.9265,-76
1607019477.9285,-68
1607019477.9305,-64
1607019477.9325,-61
1607019477.9345,-59
1607019477.9365,-57
1607019477.9373,-57
1607019477.9385,-54
1607019477.9405,-49
1607019477.9425,-49
1607019477.9445,-49
1607019477.9465,-49
1607019477.9485,-45
1607019477.9505,-42
1607019477.9525,-42
1607019478.3775,-42
1607019478.3784,-40
1607019478.3808,-38
1607019478.3835,-38
1607019478.3855,-38
1607019478.3861,-35
1607019478.3875,-33
1607019478.3896,-38
1607019478.3915,-45
1607019478.3934,-40
1607019478.3954,-35
1607019478.3974,-35
1607019478.3994,-35
1607019478.4014,-35
1607019478.4034,-35
1607019478.4054,-38
1607019478.4074,-33
1607019478.4094,-21
1607019478.4114,0
1607019478.4134,28
1607019478.4154,47
1607019478.4162,42
1607019478.4184,23
1607019478.4196,7
1607019478.4213,-9
1607019478.4233,-21
1607019478.4254,-23
1607019478.4273,-19
1607019478.4293,-19
1607019478.4313,-23
1607019478.4333,-21
1607019478.4353,-16
1607019478.4374,-28
1607019478.4393,-83
1607019478.4413,-166
1607019478.4433,-152
1607019478.4440,137
1607019478.4453,786
1607019478.4473,1456
1607019478.4493,1183
1607019478.4513,-137
1607019478.4533,-819
1607019478.4555,-282
1607019478.4574,61
1607019478.4594,-114
1607019478.4614,-104
1607019478.4633,7
1607019478.4653,-19
1607019478.4674,-23
1607019478.4694,23
1607019478.4713,26
1607019478.4733,28
1607019478.4740,54
1607019478.4753,68
1607019478.4773,76
1607019478.4793,95
1607019478.4813,114
1607019478.4834,130
1607019478.4855,154
1607019478.4875,178
1607019478.4893,199
1607019478.4913,216
1607019478.4933,240
1607019478.4953,275
1607019478.4973,301
1607019478.4993,316
1607019478.5013,327
1607019478.5033,332
1607019478.5040,325
1607019478.5053,318
1607019478.5073,299
1607019478.5094,247
1607019478.5113,173
1607019478.9178,90
1607019478.9185,4
1607019478.9209,-66
1607019478.9236,-109
1607019478.9255,-142
1607019478.9275,-163
1607019478.9296,-166
1607019478.9316,-161
1607019478.9336,-156
1607019478.9342,-152
1607019478.9365,-142
1607019478.9385,-135
1607019478.9406,-125
1607019478.9426,-114
1607019478.9446,-102
1607019478.9465,-97
1607019478.9485,-87
1607019478.9505,-85
1607019478.9525,-83
1607019478.9545,-78
1607019478.9567,-73
1607019478.9586,-68
1607019478.9605,-64
1607019478.9626,-61
1607019478.9645,-59
1607019478.9651,-59
1607019478.9666,-57
1607019478.9685,-64
1607019478.9705,-66
1607019478.9726,-59
1607019478.9745,-54
1607019478.9765,-57
1607019478.9785,-57
1607019478.9805,-47
1607019478.9826,-42
1607019478.9845,-42
1607019478.9865,-42
1607019478.9885,-38
1607019478.9905,-38
1607019478.9925,-42
1607019478.9945,-35
1607019478.9952,-26
1607019478.9965,-26
1607019478.9985,-30
1607019479.0006,-30
1607019479.0026,-30
1607019479.0045,-35
1607019479.0065,-38
1607019479.0085,-38
1607019479.0106,-21
1607019479.0126,9
1607019479.0146,35
1607019479.0165,47
1607019479.0185,42
1607019479.0205,23
1607019479.0226,2
1607019479.0245,-9
1607019479.0251,-11
1607019479.0265,-14
1607019479.0285,-14
1607019479.0305,-11
1607019479.0326,-7
1607019479.0346,-2
1607019479.0365,-2
1607019479.0385,-19
1607019479.0405,-83
1607019479.0426,-152
1607019479.0445,-52
1607019479.0465,396
1607019479.0485,1138
1607019479.0505,1558
1607019479.0527,748
1607019479.0546,-651
1607019479.4880,-822
1607019479.4889,-123
1607019479.4913,19
1607019479.4940,-128
1607019479.4959,-40
1607019479.4980,14
1607019479.5000,-33
1607019479.5019,-9
1607019479.5039,30
1607019479.5059,26
1607019479.5079,35
1607019479.5099,64
1607019479.5120,80
1607019479.5139,90
1607019479.5159,109
1607019479.5179,128
1607019479.5185,149
1607019479.5199,168
1607019479.5219,190
1607019479.5239,213
1607019479.5259,235
1607019479.5279,251
1607019479.5298,278
1607019479.5319,301
1607019479.5339,320
1607019479.5359,332
1607019479.5379,335
1607019479.5399,325
1607019479.5419,304
1607019479.5438,268
1607019479.5458,213
1607019479.5479,137
1607019479.5484,49
1607019479.5498,-35
1607019479.5518,-99
1607019479.5538,-142
1607019479.5558,-166
1607019479.5578,-180
1607019479.5598,-180
1607019479.5619,-171
1607019479.5638,-163
1607019479.5658,-154
1607019479.5678,-140
1607019479.5698,-128
1607019479.5719,-123
1607019479.5738,-114
1607019479.5758,-102
1607019479.5778,-92
1607019479.5784,-90
1607019479.5800,-90
1607019479.5820,-87
1607019479.5839,-78
1607019479.5858,-71
1607019479.5878,-71
1607019479.5898,-71
1607019479.5918,-66
1607019479.5938,-64
1607019479.5958,-64
1607019479.5978,-61
1607019479.5998,-59
1607019479.6018,-59
1607019479.6039,-59
1607019479.6058,-57
1607019479.6079,-52
1607019479.6085,-52
1607019479.6098,-52
1607019479.6119,-49
1607019479.6138,-47
1607019479.6158,-45
1607019479.6178,-42
1607019479.6198,-40
1607019479.6219,-40
1607019479.6238,-38
1607019480.0277,-33
1607019480.0285,-28
1607019480.0309,-28
1607019480.0336,-30
1607019480.0342,-33
1607019480.0355,-33
1607019480.0375,-40
1607019480.0396,-47
1607019480.0415,-40
1607019480.0436,-14
1607019480.0455,16
1607019480.0475,28
1607019480.0496,26
1607019480.0516,9
1607019480.0535,-7
1607019480.0555,-21
1607019480.0575,-33
1607019480.0595,-33
1607019480.0615,-30
1607019480.0635,-30
1607019480.0641,-28
1607019480.0655,-23
1607019480.0675,-21
1607019480.0695,-26
1607019480.0715,-71
1607019480.0735,-156
1607019480.0756,-163
1607019480.0776,97
1607019480.0795,739
1607019480.0815,1475
1607019480.0835,1328
1607019480.0855,0
1607019480.0875,-834
1607019480.0895,-349
1607019480.0915,47
1607019480.0935,-125
1607019480.0941,-128
1607019480.0956,-2
1607019480.0975,-33
1607019480.0996,-47
1607019480.1015,7
1607019480.1035,16
1607019480.1055,11
1607019480.1075,38
1607019480.1095,59
1607019480.1115,66
1607019480.1135,80
1607019480.1155,99
1607019480.1175,121
1607019480.1195,142
1607019480.1215,163
1607019480.1235,185
1607019480.1241,209
1607019480.1255,235
1607019480.1275,261
1607019480.1295,285
1607019480.1314,306
1607019480.1335,320
1607019480.1355,323
1607019480.1375,318
1607019480.1395,301
1607019480.1415,273
1607019480.1435,228
1607019480.1455,161
1607019480.1475,76
1607019480.1495,-7
1607019480.1515,-73
1607019480.1535,-123
1607019480.1541,-154
1607019480.1555,-168
1607019480.1575,-175
1607019480.1595,-171
1607019480.1615,-161
1607019480.6579,-152
1607019480.6588,-140
1607019480.6613,-128
1607019480.6639,-123
1607019480.6659,-123
1607019480.6682,-121
1607019480.6700,-114
1607019480.6720,-106
1607019480.6739,-102
1607019480.6759,-97
1607019480.6779,-90
1607019480.6785,-80
1607019480.6800,-78
1607019480.6819,-76
1607019480.6839,-71
1607019480.6858,-68
1607019480.6878,-66
1607019480.6899,-61
1607019480.6919,-64
1607019480.6939,-66
1607019480.6959,-64
1607019480.6978,-59
1607019480.6999,-57
1607019480.7018,-57
1607019480.7038,-54
1607019480.7058,-49
1607019480.7078,-47
1607019480.7084,-47
1607019480.7099,-45
1607019480.7119,-40
1607019480.7138,-35
1607019480.7158,-33
1607019480.7179,-33
1607019480.7198,-33
1607019480.7219,-28
1607019480.7238,-26
1607019480.7258,-26
1607019480.7278,-23
1607019480.7298,-26
1607019480.7318,-30
1607019480.7338,-30
1607019480.7358,-28
1607019480.7378,-23
1607019480.7384,-11
1607019480.7398,19
1607019480.7419,47
1607019480.7438,49
1607019480.7458,35
1607019480.7478,23
1607019480.7498,9
1607019480.7518,-9
1607019480.7538,-19
1607019480.7558,-16
1607019480.7578,-14
1607019480.7598,-11
1607019480.7618,-9
1607019480.7640,-7
1607019480.7659,-9
1607019480.7678,-30
1607019480.7684,-104
1607019480.7698,-168
1607019480.7719,-47
1607019480.7738,406
1607019480.7758,1145
1607019480.7778,1513
1607019480.7798,648
1607019480.7818,-601
1607019480.7838,-605
1607019480.7858,-7
1607019480.7878,-14
1607019480.7898,-156
1607019480.7918,-40
1607019480.7938,-4
1607019481.1978,-52
1607019481.1985,-14
1607019481.2010,16
1607019481.2036,11
1607019481.2056,28
1607019481.2076,52
1607019481.2097,61
1607019481.2116,76
1607019481.2136,95
1607019481.2156,111
1607019481.2176,128
1607019481.2196,149
1607019481.2217,171
1607019481.2236,185
1607019481.2256,204
1607019481.2262,230
1607019481.2276,259
1607019481.2296,278
1607019481.2316,294
1607019481.2336,308
1607019481.2356,313
1607019481.2376,304
1607019481.2396,287
1607019481.2417,254
1607019481.2436,199
1607019481.2456,123
1607019481.2476,38
1607019481.2495,-40
1607019481.2517,-97
1607019481.2535,-135
1607019481.2555,-156
1607019481.2562,-168
1607019481.2575,-171
1607019481.2595,-166
1607019481.2618,-156
1607019481.2636,-144
1607019481.2655,-130
1607019481.2675,-121
1607019481.2695,-114
1607019481.2716,-109
1607019481.2735,-104
1607019481.2755,-99
1607019481.2775,-95
1607019481.2795,-85
1607019481.2816,-80
1607019481.2835,-80
1607019481.2855,-71
1607019481.2861,-64
1607019481.2875,-59
1607019481.2895,-59
1607019481.2916,-59
1607019481.2935,-57
1607019481.2956,-54
1607019481.2976,-52
1607019481.2996,-47
1607019481.3017,-47
1607019481.3035,-49
1607019481.3055,-47
1607019481.3075,-42
1607019481.3095,-40
1607019481.3116,-40
1607019481.3135,-42
1607019481.3141,-40
1607019481.3155,-35
1607019481.3175,-35
1607019481.3195,-35
1607019481.3216,-33
1607019481.3235,-30
1607019481.3255,-30
1607019481.3275,-30
1607019481.3295,-28
1607019481.3316,-26
1607019481.3335,-26
1607019481.7375,-26
1607019481.7384,-26
1607019481.7397,-26
1607019481.7415,-28
1607019481.7435,-30
1607019481.7441,-26
1607019481.7454,-26
1607019481.7474,-16
1607019481.7495,11
1607019481.7515,42
1607019481.7534,45
1607019481.7554,28
1607019481.7576,16
1607019481.7594,2
1607019481.7614,-14
1607019481.7634,-23
1607019481.7654,-21
1607019481.7674,-21
1607019481.7694,-21
1607019481.7714,-19
1607019481.7734,-16
1607019481.7740,-9
1607019481.7754,-28
1607019481.7774,-99
1607019481.7794,-168
1607019481.7814,-61
1607019481.7834,377
1607019481.7854,1109
1607019481.7874,1532
1607019481.7894,731
1607019481.7914,-605
1607019481.7933,-715
1607019481.7953,-57
1607019481.7974,14
1607019481.7993,-142
1607019481.8013,-40
1607019481.8034,11
1607019481.8040,-35
1607019481.8053,-7
1607019481.8073,33
1607019481.8094,33
1607019481.8113,45
1607019481.8133,66
1607019481.8153,78
1607019481.8173,90
1607019481.8193,111
1607019481.8214,133
1607019481.8233,152
1607019481.8253,168
1607019481.8273,192
1607019481.8293,218
1607019481.8314,242
1607019481.8334,261
1607019481.8340,285
1607019481.8353,311
1607019481.8373,332
1607019481.8393,342
1607019481.8413,344
1607019481.8433,337
1607019481.8454,313
1607019481.8473,285
1607019481.8494,235
1607019481.8513,152
1607019481.8535,61
1607019481.8554,-21
1607019481.8573,-90
1607019481.8593,-137
1607019481.8613,-161
1607019481.8633,-171
1607019481.8640,-175
1607019481.8653,-168
1607019481.8674,-156
1607019481.8693,-149
1607019482.2776,-144
1607019482.2785,-133
1607019482.2810,-118
1607019482.2836,-106
1607019482.2856,-102
1607019482.2875,-92
1607019482.2897,-80
1607019482.2917,-78
1607019482.2935,-90
1607019482.2955,-87
1607019482.2962,-78
1607019482.2975,-73
1607019482.2996,-73
1607019482.3016,-68
1607019482.3036,-64
1607019482.3055,-61
1607019482.3075,-61
1607019482.3095,-59
1607019482.3116,-59
1607019482.3135,-59
1607019482.3155,-54
1607019482.3175,-49
1607019482.3195,-47
1607019482.3216,-49
1607019482.3235,-49
1607019482.3255,-42
1607019482.3261,-40
1607019482.3275,-42
1607019482.3295,-45
1607019482.3315,-42
1607019482.3335,-38
1607019482.3355,-33
1607019482.3375,-30
1607019482.3395,-33
1607019482.3416,-33
1607019482.3435,-30
1607019482.3455,-28
1607019482.3475,-28
1607019482.3495,-26
1607019482.3516,-26
1607019482.3535,-16
1607019482.3557,7
1607019482.3561,38
1607019482.3575,47
1607019482.3595,45
1607019482.3615,40
1607019482.3635,21
1607019482.3655,-4
1607019482.3675,-19
1607019482.3695,-19
1607019482.3716,-19
1607019482.3735,-21
1607019482.3755,-19
1607019482.3775,-14
1607019482.3795,-11
1607019482.3815,-26
1607019482.3835,-80
1607019482.3855,-156
1607019482.3861,-111
1607019482.3875,244
1607019482.3895,938
1607019482.3916,1539
1607019482.3935,1088
1607019482.3955,-325
1607019482.3975,-895
1607019482.3995,-280
1607019482.4016,40
1607019482.4035,-109
1607019482.4055,-73
1607019482.4075,19
1607019482.4095,-16
1607019482.4116,-14
1607019482.4135,28
1607019482.8775,33
1607019482.8784,38
1607019482.8808,61
1607019482.8826,80
1607019482.8845,85
1607019482.8865,90
1607019482.8885,111
1607019482.8905,137
1607019482.8925,156
1607019482.8945,173
1607019482.8965,194
1607019482.8985,216
1607019482.9005,242
1607019482.9024,273
1607019482.9044,297
1607019482.9064,311
1607019482.9071,320
1607019482.9084,327
1607019482.9104,325
1607019482.9126,308
1607019482.9145,278
1607019482.9164,232
1607019482.9185,161
1607019482.9204,66
1607019482.9225,-21
1607019482.9244,-87
1607019482.9264,-130
1607019482.9284,-163
1607019482.9304,-180
1607019482.9324,-180
1607019482.9344,-171
1607019482.9364,-163
1607019482.9370,-156
1607019482.9384,-147
1607019482.9404,-133
1607019482.9424,-123
1607019482.9444,-114
1607019482.9464,-106
1607019482.9484,-97
1607019482.9504,-90
1607019482.9524,-87
1607019482.9544,-87
1607019482.9564,-83
1607019482.9584,-76
1607019482.9604,-71
1607019482.9624,-68
1607019482.9644,-66
1607019482.9664,-71
1607019482.9670,-71
1607019482.9684,-64
1607019482.9704,-59
1607019482.9724,-59
1607019482.9744,-57
1607019482.9764,-54
1607019482.9784,-54
1607019482.9804,-54
1607019482.9824,-49
1607019482.9844,-47
1607019482.9864,-47
1607019482.9884,-45
1607019482.9904,-45
1607019482.9924,-42
1607019482.9944,-38
1607019482.9964,-38
1607019482.9970,-38
1607019482.9984,-35
1607019483.0004,-33
1607019483.0024,-30
1607019483.0044,-33
1607019483.0064,-33
1607019483.0085,-35
1607019483.0105,-33
1607019483.0124,-28
1607019483.3878,-11
1607019483.3888,16
1607019483.3912,42
1607019483.3938,45
1607019483.3958,33
1607019483.3964,21
1607019483.3979,2
1607019483.3998,-16
1607019483.4018,-23
1607019483.4038,-28
1607019483.4058,-40
1607019483.4078,-42
1607019483.4098,-30
1607019483.4118,-26
1607019483.4138,-26
1607019483.4158,-45
1607019483.4178,-118
1607019483.4198,-182
1607019483.4217,-57
1607019483.4238,408
1607019483.4257,1159
1607019483.4264,1523
1607019483.4277,632
1607019483.4297,-636
1607019483.4317,-632
1607019483.4337,-21
1607019483.4358,-26
1607019483.4377,-161
1607019483.4397,-42
1607019483.4418,-9
1607019483.4437,-54
1607019483.4457,-9
1607019483.4477,23
1607019483.4497,7
1607019483.4518,19
1607019483.4537,49
1607019483.4557,59
1607019483.4563,66
1607019483.4577,83
1607019483.4597,104
1607019483.4618,125
1607019483.4637,147
1607019483.4657,168
1607019483.4677,190
1607019483.4697,216
1607019483.4717,240
1607019483.4737,261
1607019483.4757,282
1607019483.4779,299
1607019483.4798,306
1607019483.4817,311
1607019483.4837,306
1607019483.4857,285
1607019483.4863,247
1607019483.4877,194
1607019483.4897,125
1607019483.4918,38
1607019483.4937,-42
1607019483.4957,-87
1607019483.4977,-118
1607019483.4997,-159
1607019483.5018,-175
1607019483.5037,-154
1607019483.5057,-144
1607019483.5077,-144
1607019483.5097,-137
1607019483.5118,-125
1607019483.5137,-111
1607019483.5157,-99
1607019483.5163,-87
1607019483.5177,-73
1607019483.5197,-59
1607019483.5218,-52
1607019483.9877,-42
1607019483.9886,-40
1607019483.9910,-64
1607019483.9937,-66
1607019483.9957,-40
1607019483.9977,-33
1607019483.9996,-52
1607019484.0018,-47
1607019484.0036,-19
1607019484.0056,-14
1607019484.0062,-14
1607019484.0076,-4
1607019484.0096,16
1607019484.0117,4
1607019484.0136,-30
1607019484.0156,-23
1607019484.0176,4
1607019484.0196,9
1607019484.0217,11
1607019484.0236,11
1607019484.0256,4
1607019484.0276,9
1607019484.0296,14
1607019484.0316,11
1607019484.0336,11
1607019484.0356,11
1607019484.0364,4
1607019484.0376,0
1607019484.0396,0
1607019484.0417,0
1607019484.0436,4
1607019484.0455,9
1607019484.0476,26
1607019484.0495,54
1607019484.0516,73
1607019484.0535,68
1607019484.0556,57
1607019484.0576,42
1607019484.0596,21
1607019484.0616,2
1607019484.0635,-2
1607019484.0655,0
1607019484.0661,-2
1607019484.0675,-4
1607019484.0696,0
1607019484.0716,2
1607019484.0736,2
1607019484.0756,-14
1607019484.0775,-68
1607019484.0796,-90
1607019484.0815,83
1607019484.0836,541
1607019484.0856,1107
1607019484.0876,1154
1607019484.0896,237
1607019484.0916,-684
1607019484.0936,-522
1607019484.0956,-7
1607019484.0962,9
1607019484.0976,-73
1607019484.0995,11
1607019484.1016,30
1607019484.1036,0
1607019484.1056,30
1607019484.1076,57
1607019484.1095,54
1607019484.1116,68
1607019484.1136,90
1607019484.1156,99
1607019484.1175,109
1607019484.1196,121
1607019484.1216,137
1607019484.1236,152
1607019484.5878,163
1607019484.5887,180
1607019484.5911,199
1607019484.5940,220
1607019484.5961,240
1607019484.5979,256
1607019484.5998,273
1607019484.6019,285
1607019484.6038,285
1607019484.6058,275
1607019484.6078,270
1607019484.6098,263
1607019484.6119,237
1607019484.6138,194
1607019484.6158,133
1607019484.6178,59
1607019484.6184,-11
1607019484.6200,-61
1607019484.6219,-97
1607019484.6238,-118
1607019484.6258,-133
1607019484.6278,-137
1607019484.6298,-135
1607019484.6317,-128
1607019484.6337,-123
1607019484.6357,-116
1607019484.6377,-106
1607019484.6397,-97
1607019484.6418,-90
1607019484.6437,-83
1607019484.6457,-76
1607019484.6477,-68
1607019484.6483,-64
1607019484.6497,-59
1607019484.6518,-54
1607019484.6537,-52
1607019484.6557,-54
1607019484.6577,-52
1607019484.6597,-49
1607019484.6618,-47
1607019484.6637,-47
1607019484.6644,-47
1607019484.6657,-47
1607019484.6677,-45
1607019484.6697,-47
1607019484.6718,-45
1607019484.6737,-38
1607019484.6743,-33
1607019484.6757,-35
1607019484.6777,-33
1607019484.6797,-30
1607019484.6817,-26
1607019484.6837,-23
1607019484.6857,-28
1607019484.6877,-38
1607019484.6899,-42
1607019484.6918,-35
1607019484.6937,-23
1607019484.6957,-14
1607019484.6977,9
1607019484.6997,38
1607019484.7017,45
1607019484.7037,30
1607019484.7043,11
1607019484.7057,-7
1607019484.7077,-19
1607019484.7097,-23
1607019484.7118,-23
1607019484.7137,-23
1607019484.7157,-19
1607019484.7177,-16
1607019484.7198,-14
1607019484.7218,-9
1607019485.0973,-28
1607019485.0980,-97
1607019485.1004,-161
1607019485.1021,-54
1607019485.1027,365
1607019485.1041,1038
1607019485.1061,1423
1607019485.1081,674
1607019485.1101,-613
1607019485.1121,-767
1607019485.1141,-114
1607019485.1161,7
1607019485.1181,-149
1607019485.1201,-71
1607019485.1222,-11
1607019485.1241,-52
1607019485.1261,-26
1607019485.1281,14
1607019485.1301,9
1607019485.1320,19
1607019485.1328,42
1607019485.1340,54
1607019485.1360,68
1607019485.1380,90
1607019485.1400,109
1607019485.1421,123
1607019485.1440,142
1607019485.1460,166
1607019485.1481,192
1607019485.1501,216
1607019485.1520,242
1607019485.1540,268
1607019485.1560,294
1607019485.1583,308
1607019485.1601,316
1607019485.1606,320
1607019485.1621,313
1607019485.1640,285
1607019485.1660,244
1607019485.1680,194
1607019485.1700,121
1607019485.1721,30
1607019485.1740,-47
1607019485.1760,-106
1607019485.1780,-147
1607019485.1800,-168
1607019485.1820,-175
1607019485.1840,-173
1607019485.1860,-171
1607019485.1880,-166
1607019485.1900,-149
1607019485.1906,-137
1607019485.1921,-128
1607019485.1940,-118
1607019485.1960,-109
1607019485.1980,-102
1607019485.2000,-95
1607019485.2020,-90
1607019485.2040,-80
1607019485.2060,-76
1607019485.2080,-71
1607019485.2100,-66
1607019485.2121,-61
1607019485.2140,-57
1607019485.2161,-54
1607019485.2180,-49
1607019485.2200,-47
1607019485.2206,-49
1607019485.2221,-49
1607019485.2240,-45
1607019485.2260,-45
1607019485.2280,-42
1607019485.2302,-42
1607019485.6678,-45
1607019485.6688,-42
1607019485.6712,-42
1607019485.6729,-49
1607019485.6749,-38
1607019485.6769,-9
1607019485.6789,14
1607019485.6809,19
1607019485.6828,16
1607019485.6848,9
1607019485.6854,-14
1607019485.6870,-33
1607019485.6889,-40
1607019485.6908,-38
1607019485.6928,-38
1607019485.6948,-35
1607019485.6968,-30
1607019485.6988,-30
1607019485.7008,-30
1607019485.7028,-28
1607019485.7048,-52
1607019485.7068,-128
1607019485.7088,-187
1607019485.7108,-40
1607019485.7129,456
1607019485.7149,1185
1607019485.7154,1442
1607019485.7168,477
1607019485.7188,-722
1607019485.7208,-641
1607019485.7228,-33
1607019485.7248,-21
1607019485.7268,-128
1607019485.7288,-16
1607019485.7308,11
1607019485.7327,-28
1607019485.7348,2
1607019485.7368,33
1607019485.7388,28
1607019485.7407,40
1607019485.7428,61
1607019485.7447,68
1607019485.7454,76
1607019485.7467,97
1607019485.7487,116
1607019485.7508,130
1607019485.7528,152
1607019485.7547,175
1607019485.7568,199
1607019485.7588,223
1607019485.7607,247
1607019485.7628,275
1607019485.7648,299
1607019485.7668,311
1607019485.7688,313
1607019485.7707,316
1607019485.7728,306
1607019485.7748,280
1607019485.7755,235
1607019485.7767,168
1607019485.7788,87
1607019485.7807,2
1607019485.7829,-68
1607019485.7848,-116
1607019485.7868,-147
1607019485.7888,-163
1607019485.7907,-171
1607019485.7928,-171
1607019485.7947,-166
1607019485.7968,-161
1607019485.7988,-149
1607019485.8008,-137
1607019485.8028,-128
1607019486.2072,-121
1607019486.2079,-109
1607019486.2103,-102
1607019486.2131,-95
1607019486.2150,-90
1607019486.2170,-87
1607019486.2191,-80
1607019486.2210,-78
1607019486.2230,-80
1607019486.2250,-78
1607019486.2270,-71
1607019486.2290,-71
1607019486.2310,-71
1607019486.2316,-66
1607019486.2329,-61
1607019486.2350,-61
1607019486.2369,-64
1607019486.2390,-64
1607019486.2410,-64
1607019486.2431,-64
1607019486.2450,-64
1607019486.2470,-54
1607019486.2490,-35
1607019486.2510,-14
1607019486.2529,7
1607019486.2549,11
1607019486.2569,4
1607019486.2589,-9
1607019486.2609,-33
1607019486.2616,-47
1607019486.2629,-38
1607019486.2649,-33
1607019486.2669,-38
1607019486.2689,-33
1607019486.2709,-28
1607019486.2730,-28
1607019486.2749,-28
1607019486.2770,-52
1607019486.2789,-130
1607019486.2809,-180
1607019486.2831,0
1607019486.2850,527
1607019486.2869,1245
1607019486.2889,1394
1607019486.2909,335
1607019486.2916,-772
1607019486.2929,-560
1607019486.2949,9
1607019486.2969,-40
1607019486.2989,-130
1607019486.3009,-11
1607019486.3030,-2
1607019486.3049,-40
1607019486.3069,4
1607019486.3089,28
1607019486.3109,19
1607019486.3130,35
1607019486.3149,57
1607019486.3169,59
1607019486.3189,73
1607019486.3209,95
1607019486.3216,106
1607019486.3229,121
1607019486.3249,147
1607019486.3269,171
1607019486.3289,192
1607019486.3309,218
1607019486.3329,244
1607019486.3349,268
1607019486.3369,289
1607019486.3389,306
1607019486.3409,308
1607019486.3430,301
1607019486.7774,287
1607019486.7784,259
1607019486.7808,209
1607019486.7835,142
1607019486.7841,57
1607019486.7854,-33
1607019486.7874,-102
1607019486.7895,-142
1607019486.7915,-166
1607019486.7934,-185
1607019486.7954,-187
1607019486.7974,-180
1607019486.7994,-171
1607019486.8014,-159
1607019486.8034,-147
1607019486.8054,-135
1607019486.8074,-128
1607019486.8094,-123
1607019486.8117,-114
1607019486.8134,-106
1607019486.8140,-102
1607019486.8154,-97
1607019486.8174,-92
1607019486.8194,-85
1607019486.8214,-80
1607019486.8234,-78
1607019486.8254,-76
1607019486.8273,-71
1607019486.8293,-71
1607019486.8314,-71
1607019486.8334,-66
1607019486.8353,-64
1607019486.8374,-64
1607019486.8393,-64
1607019486.8415,-59
1607019486.8433,-57
1607019486.8439,-61
1607019486.8453,-61
1607019486.8473,-59
1607019486.8493,-59
1607019486.8514,-52
1607019486.8534,-28
1607019486.8553,2
1607019486.8573,21
1607019486.8593,23
1607019486.8614,19
1607019486.8633,2
1607019486.8654,-23
1607019486.8673,-33
1607019486.8693,-26
1607019486.8714,-23
1607019486.8733,-26
1607019486.8739,-26
1607019486.8753,-21
1607019486.8773,-19
1607019486.8793,-30
1607019486.8814,-78
1607019486.8833,-161
1607019486.8854,-168
1607019486.8873,95
1607019486.8893,724
1607019486.8914,1421
1607019486.8933,1254
1607019486.8953,-30
1607019486.8973,-831
1607019486.8993,-349
1607019486.9014,61
1607019486.9033,-97
1607019486.9039,-111
1607019486.9055,9
1607019486.9074,-14
1607019486.9093,-30
1607019486.9114,21
1607019487.3773,33
1607019487.3782,28
1607019487.3807,49
1607019487.3823,64
1607019487.3844,73
1607019487.3863,92
1607019487.3883,104
1607019487.3903,111
1607019487.3924,130
1607019487.3930,154
1607019487.3943,175
1607019487.3963,199
1607019487.3984,225
1607019487.4003,249
1607019487.4023,270
1607019487.4043,287
1607019487.4063,299
1607019487.4083,304
1607019487.4103,299
1607019487.4123,282
1607019487.4143,251
1607019487.4163,201
1607019487.4183,130
1607019487.4203,49
1607019487.4223,-28
1607019487.4229,-87
1607019487.4242,-128
1607019487.4262,-152
1607019487.4282,-161
1607019487.4302,-163
1607019487.4322,-159
1607019487.4342,-149
1607019487.4364,-140
1607019487.4383,-133
1607019487.4402,-125
1607019487.4423,-116
1607019487.4442,-106
1607019487.4462,-102
1607019487.4483,-97
1607019487.4502,-95
1607019487.4522,-92
1607019487.4528,-90
1607019487.4542,-83
1607019487.4562,-80
1607019487.4582,-78
1607019487.4602,-78
1607019487.4622,-76
1607019487.4644,-76
1607019487.4663,-76
1607019487.4682,-73
1607019487.4702,-71
1607019487.4722,-68
1607019487.4742,-64
1607019487.4762,-61
1607019487.4782,-59
1607019487.4802,-59
1607019487.4822,-61
1607019487.4828,-64
1607019487.4842,-64
1607019487.4862,-57
1607019487.4883,-40
1607019487.4902,-14
1607019487.4923,9
1607019487.4942,21
1607019487.4962,23
1607019487.4982,16
1607019487.5002,-9
1607019487.5022,-30
1607019487.5042,-26
1607019487.5062,-23
1607019487.5082,-26
1607019487.5102,-23
1607019487.5123,-23
1607019487.9173,-21
1607019487.9183,-16
1607019487.9207,-38
1607019487.9234,-111
1607019487.9253,-180
1607019487.9273,-71
1607019487.9294,380
1607019487.9314,1116
1607019487.9333,1511
1607019487.9353,696
1607019487.9373,-591
1607019487.9393,-679
1607019487.9414,-57
1607019487.9419,0
1607019487.9433,-152
1607019487.9453,-52
1607019487.9473,0
1607019487.9493,-45
1607019487.9513,-14
1607019487.9533,21
1607019487.9553,16
1607019487.9572,30
1607019487.9593,54
1607019487.9613,64
1607019487.9632,73
1607019487.9655,95
1607019487.9674,111
1607019487.9693,128
1607019487.9713,152
1607019487.9718,175
1607019487.9732,192
1607019487.9752,216
1607019487.9772,242
1607019487.9792,263
1607019487.9813,282
1607019487.9833,299
1607019487.9853,308
1607019487.9872,306
1607019487.9892,294
1607019487.9913,270
1607019487.9932,228
1607019487.9952,168
1607019487.9972,92
1607019487.9992,9
1607019488.0014,-61
1607019488.0019,-109
1607019488.0032,-140
1607019488.0053,-156
1607019488.0073,-161
1607019488.0092,-159
1607019488.0113,-152
1607019488.0132,-142
1607019488.0152,-128
1607019488.0172,-118
1607019488.0192,-114
1607019488.0213,-104
1607019488.0233,-97
1607019488.0254,-92
1607019488.0272,-87
1607019488.0292,-83
1607019488.0313,-76
1607019488.0318,-73
1607019488.0333,-73
1607019488.0353,-73
1607019488.0372,-73
1607019488.0392,-71
1607019488.0413,-71
1607019488.0432,-73
1607019488.0452,-68
1607019488.0472,-66
1607019488.0492,-64
1607019488.0513,-61
1607019488.0532,-59
1607019488.4578,-61
1607019488.4587,-61
1607019488.4611,-57
1607019488.4631,-49
1607019488.4637,-52
1607019488.4649,-52
1607019488.4668,-52
1607019488.4687,-57
1607019488.4708,-61
1607019488.4727,-64
1607019488.4747,-49
1607019488.4767,-21
1607019488.4787,7
1607019488.4807,16
1607019488.4827,16
1607019488.4847,11
1607019488.4867,-11
1607019488.4887,-33
1607019488.4907,-30
1607019488.4927,-26
1607019488.4933,-30
1607019488.4947,-28
1607019488.4967,-26
1607019488.4987,-26
1607019488.5007,-23
1607019488.5027,-38
1607019488.5047,-109
1607019488.5067,-175
1607019488.5087,-68
1607019488.5107,377
1607019488.5127,1112
1607019488.5147,1511
1607019488.5167,703
1607019488.5187,-596
1607019488.5207,-693
1607019488.5227,-57
1607019488.5233,11
1607019488.5247,-144
1607019488.5267,-45
1607019488.5287,11
1607019488.5307,-35
1607019488.5327,-9
1607019488.5347,28
1607019488.5367,26
1607019488.5387,38
1607019488.5407,61
1607019488.5427,71
1607019488.5447,87
1607019488.5467,106
1607019488.5487,118
1607019488.5507,140
1607019488.5527,166
1607019488.5533,180
1607019488.5547,201
1607019488.5569,228
1607019488.5587,247
1607019488.5607,268
1607019488.5627,294
1607019488.5647,313
1607019488.5667,316
1607019488.5687,308
1607019488.5707,297
1607019488.5727,280
1607019488.5747,251
1607019488.5767,197
1607019488.5787,121
1607019488.5807,40
1607019488.5827,-38
1607019488.5833,-97
1607019488.5847,-125
1607019488.5867,-140
1607019488.5887,-152
1607019488.5907,-159
1607019489.0278,-152
1607019489.0287,-137
1607019489.0311,-130
1607019489.0328,-123
1607019489.0348,-106
1607019489.0368,-99
1607019489.0388,-106
1607019489.0408,-99
1607019489.0427,-85
1607019489.0433,-83
1607019489.0449,-85
1607019489.0467,-83
1607019489.0488,-83
1607019489.0507,-83
1607019489.0527,-78
1607019489.0547,-73
1607019489.0567,-76
1607019489.0587,-78
1607019489.0608,-80
1607019489.0627,-78
1607019489.0647,-71
1607019489.0667,-71
1607019489.0686,-76
1607019489.0707,-73
1607019489.0713,-71
1607019489.0727,-71
1607019489.0747,-68
1607019489.0767,-66
1607019489.0787,-76
1607019489.0807,-80
1607019489.0826,-76
1607019489.0847,-57
1607019489.0868,-30
1607019489.0888,-7
1607019489.0907,11
1607019489.0927,16
1607019489.0947,9
1607019489.0967,-21
1607019489.0987,-45
1607019489.1007,-40
1607019489.1013,-33
1607019489.1027,-35
1607019489.1047,-35
1607019489.1067,-26
1607019489.1087,-23
1607019489.1107,-23
1607019489.1127,-35
1607019489.1147,-97
1607019489.1167,-180
1607019489.1186,-102
1607019489.1207,327
1607019489.1227,1064
1607019489.1247,1551
1607019489.1267,860
1607019489.1287,-560
1607019489.1307,-881
1607019489.1313,-201
1607019489.1326,23
1607019489.1346,-114
1607019489.1367,-45
1607019489.1387,21
1607019489.1407,-21
1607019489.1427,-4
1607019489.1447,40
1607019489.1466,38
1607019489.1487,42
1607019489.1507,71
1607019489.1527,87
1607019489.1547,92
1607019489.1567,106
1607019489.1587,130
1607019489.1607,149
1607019489.1613,168
1607019489.5677,192
1607019489.5687,213
1607019489.5711,237
1607019489.5737,259
1607019489.5757,280
1607019489.5777,297
1607019489.5798,306
1607019489.5818,304
1607019489.5837,299
1607019489.5857,294
1607019489.5879,273
1607019489.5897,230
1607019489.5918,173
1607019489.5937,102
1607019489.5943,21
1607019489.5957,-54
1607019489.5977,-114
1607019489.5997,-154
1607019489.6017,-173
1607019489.6037,-178
1607019489.6057,-175
1607019489.6077,-166
1607019489.6096,-154
1607019489.6117,-144
1607019489.6137,-133
1607019489.6157,-121
1607019489.6177,-114
1607019489.6197,-106
1607019489.6217,-102
1607019489.6236,-99
1607019489.6242,-92
1607019489.6256,-85
1607019489.6276,-78
1607019489.6296,-73
1607019489.6316,-73
1607019489.6336,-73
1607019489.6356,-73
1607019489.6376,-73
1607019489.6396,-76
1607019489.6417,-76
1607019489.6436,-73
1607019489.6456,-71
1607019489.6476,-68
1607019489.6496,-68
1607019489.6517,-64
1607019489.6536,-61
1607019489.6542,-61
1607019489.6556,-61
1607019489.6576,-61
1607019489.6596,-64
1607019489.6617,-66
1607019489.6636,-61
1607019489.6656,-40
1607019489.6676,-14
1607019489.6696,9
1607019489.6717,21
1607019489.6736,23
1607019489.6756,11
1607019489.6776,-19
1607019489.6796,-35
1607019489.6816,-26
1607019489.6838,-23
1607019489.6843,-26
1607019489.6857,-23
1607019489.6876,-19
1607019489.6896,-19
1607019489.6917,-19
1607019489.6936,-45
1607019489.6956,-125
1607019489.6976,-190
1607019489.6997,-47
1607019489.7017,463
1607019489.7036,1247
1607019490.1377,1549
1607019490.1387,548
1607019490.1411,-701
1607019490.1422,-608
1607019490.1437,-7
1607019490.1457,-42
1607019490.1477,-156
1607019490.1497,-33
1607019490.1517,-11
1607019490.1537,-52
1607019490.1557,-14
1607019490.1577,14
1607019490.1597,7
1607019490.1618,23
1607019490.1637,52
1607019490.1657,59
1607019490.1677,71
1607019490.1697,92
1607019490.1717,114
1607019490.1723,133
1607019490.1737,156
1607019490.1757,178
1607019490.1777,201
1607019490.1797,228
1607019490.1817,249
1607019490.1837,275
1607019490.1857,294
1607019490.1877,301
1607019490.1897,301
1607019490.1917,299
1607019490.1936,287
1607019490.1956,259
1607019490.1976,216
1607019490.1996,149
1607019490.2017,68
1607019490.2022,-9
1607019490.2036,-76
1607019490.2056,-118
1607019490.2076,-140
1607019490.2098,-154
1607019490.2117,-161
1607019490.2136,-156
1607019490.2156,-149
1607019490.2176,-140
1607019490.2196,-128
1607019490.2217,-116
1607019490.2236,-111
1607019490.2256,-104
1607019490.2276,-95
1607019490.2296,-87
1607019490.2316,-83
1607019490.2322,-80
1607019490.2336,-76
1607019490.2356,-73
1607019490.2376,-71
1607019490.2396,-71
1607019490.2417,-68
1607019490.2436,-68
1607019490.2456,-68
1607019490.2476,-68
1607019490.2497,-68
1607019490.2517,-64
1607019490.2536,-59
1607019490.2556,-61
1607019490.2576,-61
1607019490.2596,-57
1607019490.2617,-54
1607019490.2623,-54
1607019490.2636,-54
1607019490.2656,-54
1607019490.2676,-59
1607019490.2696,-59
1607019490.2717,-54
1607019490.7374,-40
1607019490.7383,-14
1607019490.7407,9
1607019490.7424,16
1607019490.7444,16
1607019490.7464,7
1607019490.7484,-23
1607019490.7504,-42
1607019490.7523,-35
1607019490.7543,-35
1607019490.7549,-40
1607019490.7563,-33
1607019490.7583,-26
1607019490.7603,-23
1607019490.7623,-23
1607019490.7643,-45
1607019490.7663,-118
1607019490.7685,-182
1607019490.7704,-59
1607019490.7724,415
1607019490.7743,1173
1607019490.7763,1506
1607019490.7783,584
1607019490.7803,-651
1607019490.7823,-596
1607019490.7843,7
1607019490.7849,-16
1607019490.7863,-152
1607019490.7883,-28
1607019490.7903,2
1607019490.7923,-42
1607019490.7943,0
1607019490.7964,35
1607019490.7983,23
1607019490.8003,38
1607019490.8023,64
1607019490.8042,73
1607019490.8063,85
1607019490.8083,106
1607019490.8103,123
1607019490.8123,140
1607019490.8143,161
1607019490.8149,185
1607019490.8162,209
1607019490.8183,230
1607019490.8202,254
1607019490.8223,275
1607019490.8243,294
1607019490.8262,306
1607019490.8282,308
1607019490.8303,304
1607019490.8323,287
1607019490.8343,259
1607019490.8363,216
1607019490.8383,159
1607019490.8403,80
1607019490.8423,0
1607019490.8443,-64
1607019490.8456,-104
1607019490.8473,-130
1607019490.8492,-147
1607019490.8513,-149
1607019490.8533,-144
1607019490.8553,-140
1607019490.8573,-133
1607019490.8592,-118
1607019490.8613,-109
1607019490.8633,-99
1607019490.8654,-97
1607019490.8673,-97
1607019490.8693,-87
1607019490.8713,-80
1607019490.8733,-80
1607019491.2772,-80
1607019491.2779,-73
1607019491.2803,-73
1607019491.2830,-71
1607019491.2849,-68
1607019491.2870,-66
1607019491.2891,-64
1607019491.2909,-61
1607019491.2929,-64
1607019491.2949,-64
1607019491.2969,-71
1607019491.2990,-76
1607019491.3010,-73
1607019491.3015,-68
1607019491.3029,-68
1607019491.3049,-64
1607019491.3069,-57
1607019491.3089,-54
1607019491.3109,-52
1607019491.3129,-54
1607019491.3150,-57
1607019491.3169,-59
1607019491.3189,-57
1607019491.3209,-52
1607019491.3229,-45
1607019491.3249,-26
1607019491.3269,2
1607019491.3289,21
1607019491.3309,23
1607019491.3315,19
1607019491.3329,4
1607019491.3349,-19
1607019491.3369,-33
1607019491.3390,-33
1607019491.3409,-28
1607019491.3429,-23
1607019491.3449,-19
1607019491.3469,-19
1607019491.3489,-23
1607019491.3509,-28
1607019491.3529,-64
1607019491.3549,-152
1607019491.3569,-161
1607019491.3589,106
1607019491.3609,736
1607019491.3615,1440
1607019491.3631,1266
1607019491.3650,-42
1607019491.3669,-843
1607019491.3689,-339
1607019491.3709,66
1607019491.3729,-102
1607019491.3749,-116
1607019491.3769,7
1607019491.3789,-16
1607019491.3809,-30
1607019491.3829,16
1607019491.3849,23
1607019491.3869,23
1607019491.3889,57
1607019491.3909,73
1607019491.3915,71
1607019491.3929,80
1607019491.3949,106
1607019491.3969,128
1607019491.3989,140
1607019491.4009,156
1607019491.4029,185
1607019491.4049,213
1607019491.4069,237
1607019491.4089,256
1607019491.4109,275
1607019491.4129,292
1607019491.8773,299
1607019491.8782,294
1607019491.8806,287
1607019491.8824,275
1607019491.8830,244
1607019491.8843,194
1607019491.8863,128
1607019491.8883,38
1607019491.8903,-49
1607019491.8923,-104
1607019491.8942,-135
1607019491.8962,-166
1607019491.8982,-190
1607019491.9002,-190
1607019491.9023,-175
1607019491.9042,-166
1607019491.9062,-156
1607019491.9082,-142
1607019491.9102,-135
1607019491.9123,-130
1607019491.9128,-121
1607019491.9142,-118
1607019491.9162,-123
1607019491.9182,-114
1607019491.9205,-99
1607019491.9223,-97
1607019491.9242,-97
1607019491.9262,-95
1607019491.9282,-95
1607019491.9302,-90
1607019491.9322,-83
1607019491.9342,-80
1607019491.9362,-83
1607019491.9383,-85
1607019491.9402,-83
1607019491.9423,-80
1607019491.9428,-78
1607019491.9442,-78
1607019491.9462,-76
1607019491.9482,-73
1607019491.9502,-68
1607019491.9522,-64
1607019491.9542,-61
1607019491.9562,-61
1607019491.9582,-59
1607019491.9602,-57
1607019491.9622,-57
1607019491.9642,-59
1607019491.9662,-57
1607019491.9682,-54
1607019491.9702,-57
1607019491.9723,-54
1607019491.9728,-30
1607019491.9743,0
1607019491.9763,11
1607019491.9783,16
1607019491.9803,19
1607019491.9822,-2
1607019491.9842,-30
1607019491.9864,-42
1607019491.9882,-38
1607019491.9902,-35
1607019491.9922,-35
1607019491.9942,-30
1607019491.9962,-28
1607019491.9982,-28
1607019492.0002,-30
1607019492.0022,-52
1607019492.0027,-123
1607019492.0042,-178
1607019492.0062,-19
1607019492.0082,503
1607019492.0102,1254
1607019492.3877,1497
1607019492.3886,461
1607019492.3913,-807
1607019492.3928,-698
1607019492.3947,-42
1607019492.3967,-23
1607019492.3986,-125
1607019492.4007,-14
1607019492.4026,9
1607019492.4033,-33
1607019492.4046,-2
1607019492.4066,26
1607019492.4086,16
1607019492.4107,26
1607019492.4127,47
1607019492.4146,61
1607019492.4166,78
1607019492.4186,97
1607019492.4206,114
1607019492.4227,133
1607019492.4246,154
1607019492.4266,173
1607019492.4286,192
1607019492.4306,216
1607019492.4326,240
1607019492.4332,261
1607019492.4346,280
1607019492.4366,294
1607019492.4386,299
1607019492.4406,289
1607019492.4426,270
1607019492.4446,249
1607019492.4466,209
1607019492.4486,147
1607019492.4506,68
1607019492.4526,-11
1607019492.4546,-85
1607019492.4566,-135
1607019492.4586,-161
1607019492.4606,-173
1607019492.4627,-178
1607019492.4633,-178
1607019492.4646,-173
1607019492.4666,-163
1607019492.4686,-156
1607019492.4706,-149
1607019492.4726,-140
1607019492.4746,-135
1607019492.4766,-133
1607019492.4786,-123
1607019492.4806,-114
1607019492.4826,-111
1607019492.4846,-106
1607019492.4867,-97
1607019492.4887,-92
1607019492.4906,-95
1607019492.4926,-92
1607019492.4932,-90
1607019492.4946,-85
1607019492.4966,-83
1607019492.4986,-83
1607019492.5006,-78
1607019492.5026,-73
1607019492.5046,-76
1607019492.5066,-73
1607019492.5086,-68
1607019492.5107,-66
1607019492.5126,-64
1607019492.5146,-61
1607019492.5166,-54
1607019492.5186,-52
1607019492.5206,-52
1607019492.5212,-49
1607019492.9575,-45
1607019492.9584,-42
1607019492.9609,-42
1607019492.9635,-42
1607019492.9655,-40
1607019492.9674,-45
1607019492.9695,-52
1607019492.9715,-57
1607019492.9734,-49
1607019492.9754,-33
1607019492.9774,-4
1607019492.9794,23
1607019492.9801,30
1607019492.9814,21
1607019492.9834,4
1607019492.9854,-11
1607019492.9874,-26
1607019492.9894,-33
1607019492.9914,-30
1607019492.9934,-30
1607019492.9954,-26
1607019492.9974,-23
1607019492.9994,-21
1607019493.0015,-19
1607019493.0034,-33
1607019493.0054,-104
1607019493.0074,-190
1607019493.0094,-121
1607019493.0100,282
