Time,ECG
1607089086.6364,-36
1607089086.6394,120
1607089086.6421,942
1607089086.6445,2392
1607089086.6465,3462
1607089086.6484,4023
1607089086.6505,4670
1607089086.6526,5302
1607089086.6550,5735
1607089086.6574,6156
1607089086.6601,6577
1607089086.6629,6913
1607089086.6645,7233
1607089086.6664,7551
1607089086.6685,7825
1607089086.6705,8070
1607089086.6725,8315
1607089086.6745,8541
1607089086.6764,8741
1607089086.6785,8921
1607089086.6804,9097
1607089086.6825,9236
1607089086.6844,9335
1607089086.6865,9421
1607089086.6884,9513
1607089086.6904,9597
1607089086.6924,9681
1607089086.6943,9770
1607089086.6963,9857
1607089086.6983,9943
1607089086.7003,10025
1607089086.7025,10095
1607089086.7044,10177
1607089086.7063,10246
1607089086.7083,10285
1607089086.7103,10333
1607089086.7124,10393
1607089086.7143,10434
1607089086.7163,10465
1607089086.7183,10501
1607089086.7203,10532
1607089086.7226,10552
1607089086.7243,10566
1607089086.7263,10583
1607089086.7283,10609
1607089086.7303,10614
1607089086.7324,10600
1607089086.7344,10595
1607089086.7363,10600
1607089086.7383,10597
1607089086.7407,10571
1607089086.7424,10544
1607089086.7443,10535
1607089086.7463,10508
1607089086.7483,10472
1607089086.7503,10456
1607089086.7524,10431
1607089086.7543,10386
1607089086.7563,10340
1607089086.7583,10306
1607089086.7603,10270
1607089086.7623,10222
1607089086.7643,10174
1607089086.7663,10133
1607089086.7682,10088
1607089086.7702,10030
1607089086.7723,9965
1607089086.7742,9922
1607089086.7762,9881
1607089086.7783,9813
1607089086.7802,9744
1607089086.7823,9693
1607089086.7842,9638
1607089087.1743,9571
1607089087.1751,9513
1607089087.1776,9455
1607089087.1802,9388
1607089087.1823,9316
1607089087.1842,9248
1607089087.1862,9183
1607089087.1882,9123
1607089087.1902,9049
1607089087.1923,8977
1607089087.1942,8926
1607089087.1962,8864
1607089087.1982,8758
1607089087.2002,8674
1607089087.2023,8613
1607089087.2042,8536
1607089087.2061,8460
1607089087.2081,8399
1607089087.2102,8339
1607089087.2123,8284
1607089087.2141,8217
1607089087.2161,8135
1607089087.2181,8056
1607089087.2201,7981
1607089087.2222,7897
1607089087.2241,7813
1607089087.2261,7741
1607089087.2281,7671
1607089087.2303,7594
1607089087.2323,7522
1607089087.2341,7452
1607089087.2361,7377
1607089087.2381,7291
1607089087.2401,7221
1607089087.2422,7269
1607089087.2441,7505
1607089087.2461,7793
1607089087.2481,7748
1607089087.2501,7139
1607089087.2522,6553
1607089087.2541,6584
1607089087.2561,6723
1607089087.2581,6548
1607089087.2601,6420
1607089087.2621,6425
1607089087.2641,6353
1607089087.2661,6262
1607089087.2681,6216
1607089087.2703,6156
1607089087.2722,6086
1607089087.2741,6033
1607089087.2761,5966
1607089087.2781,5898
1607089087.2801,5848
1607089087.2822,5790
1607089087.2841,5725
1607089087.2861,5665
1607089087.2881,5603
1607089087.2901,5543
1607089087.2922,5490
1607089087.2941,5434
1607089087.2961,5379
1607089087.2981,5329
1607089087.3001,5278
1607089087.3022,5235
1607089087.3041,5189
1607089087.3061,5141
1607089087.3081,5102
1607089087.3101,5064
1607089087.3121,5021
1607089087.3141,4980
1607089087.3161,4937
1607089087.3181,4886
1607089087.7449,4823
1607089087.7459,4744
1607089087.7483,4648
1607089087.7510,4552
1607089087.7530,4451
1607089087.7549,4357
1607089087.7572,4278
1607089087.7589,4213
1607089087.7609,4148
1607089087.7629,4078
1607089087.7649,4018
1607089087.7669,3975
1607089087.7689,3929
1607089087.7709,3878
1607089087.7729,3840
1607089087.7749,3799
1607089087.7769,3749
1607089087.7789,3710
1607089087.7809,3676
1607089087.7829,3631
1607089087.7848,3580
1607089087.7869,3537
1607089087.7888,3498
1607089087.7908,3458
1607089087.7929,3424
1607089087.7949,3385
1607089087.7969,3340
1607089087.7989,3301
1607089087.8009,3265
1607089087.8030,3224
1607089087.8048,3186
1607089087.8068,3145
1607089087.8088,3104
1607089087.8108,3066
1607089087.8129,3030
1607089087.8148,2986
1607089087.8168,2945
1607089087.8188,2917
1607089087.8209,2878
1607089087.8229,2842
1607089087.8248,2813
1607089087.8268,2782
1607089087.8288,2746
1607089087.8308,2707
1607089087.8329,2671
1607089087.8348,2635
1607089087.8368,2606
1607089087.8388,2573
1607089087.8409,2534
1607089087.8429,2503
1607089087.8448,2476
1607089087.8468,2448
1607089087.8488,2421
1607089087.8508,2392
1607089087.8529,2363
1607089087.8548,2335
1607089087.8568,2303
1607089087.8591,2277
1607089087.8609,2253
1607089087.8629,2224
1607089087.8648,2195
1607089087.8668,2166
1607089087.8688,2137
1607089087.8709,2106
1607089087.8729,2082
1607089087.8748,2080
1607089087.8768,2077
1607089087.8788,2053
1607089087.8808,2020
1607089087.8829,1988
1607089087.8848,1952
1607089087.8868,1919
1607089087.8888,1894
1607089088.2847,1875
1607089088.2856,1851
1607089088.2881,1825
1607089088.2907,1805
1607089088.2928,1791
1607089088.2946,1767
1607089088.2967,1721
1607089088.2986,1702
1607089088.3006,1825
1607089088.3027,2133
1607089088.3046,2450
1607089088.3066,2390
1607089088.3086,1803
1607089088.3106,1325
1607089088.3127,1445
1607089088.3146,1599
1607089088.3166,1464
1607089088.3186,1416
1607089088.3206,1466
1607089088.3226,1433
1607089088.3246,1397
1607089088.3266,1411
1607089088.3286,1397
1607089088.3306,1368
1607089088.3326,1363
1607089088.3346,1358
1607089088.3366,1337
1607089088.3386,1320
1607089088.3406,1310
1607089088.3426,1303
1607089088.3446,1293
1607089088.3466,1284
1607089088.3486,1276
1607089088.3506,1269
1607089088.3526,1260
1607089088.3548,1248
1607089088.3567,1240
1607089088.3586,1240
1607089088.3606,1238
1607089088.3626,1233
1607089088.3646,1236
1607089088.3666,1240
1607089088.3686,1240
1607089088.3706,1250
1607089088.3726,1252
1607089088.3746,1243
1607089088.3766,1236
1607089088.3786,1221
1607089088.3806,1173
1607089088.3826,1111
1607089088.3846,1058
1607089088.3866,1005
1607089088.3886,957
1607089088.3906,925
1607089088.3926,899
1607089088.3946,872
1607089088.3966,856
1607089088.3986,848
1607089088.4006,844
1607089088.4026,834
1607089088.4046,824
1607089088.4066,812
1607089088.4086,805
1607089088.4106,805
1607089088.4126,800
1607089088.4146,791
1607089088.4166,786
1607089088.4186,781
1607089088.4206,771
1607089088.4226,764
1607089088.4246,757
1607089088.4266,750
1607089088.4286,743
1607089088.8549,735
1607089088.8559,731
1607089088.8583,726
1607089088.8610,716
1607089088.8630,707
1607089088.8649,702
1607089088.8670,692
1607089088.8689,678
1607089088.8709,663
1607089088.8730,658
1607089088.8750,656
1607089088.8769,649
1607089088.8789,642
1607089088.8811,639
1607089088.8830,632
1607089088.8849,622
1607089088.8869,618
1607089088.8889,613
1607089088.8909,606
1607089088.8929,593
1607089088.8949,586
1607089088.8969,584
1607089088.8989,577
1607089088.9008,567
1607089088.9028,565
1607089088.9049,565
1607089088.9068,557
1607089088.9088,553
1607089088.9109,550
1607089088.9129,543
1607089088.9149,531
1607089088.9169,526
1607089088.9188,529
1607089088.9208,529
1607089088.9229,519
1607089088.9249,512
1607089088.9269,509
1607089088.9289,502
1607089088.9308,500
1607089088.9329,502
1607089088.9349,502
1607089088.9368,492
1607089088.9389,485
1607089088.9408,480
1607089088.9429,478
1607089088.9449,476
1607089088.9468,471
1607089088.9489,461
1607089088.9509,456
1607089088.9529,452
1607089088.9548,459
1607089088.9568,478
1607089088.9588,495
1607089088.9608,488
1607089088.9629,464
1607089088.9648,440
1607089088.9668,437
1607089088.9688,435
1607089088.9709,428
1607089088.9729,418
1607089088.9750,413
1607089088.9768,411
1607089088.9788,413
1607089088.9808,408
1607089088.9831,389
1607089088.9849,377
1607089088.9869,468
1607089088.9888,752
1607089088.9909,1115
1607089088.9929,1221
1607089088.9948,776
1607089088.9968,211
1607089088.9990,197
1607089089.4245,404
1607089089.4254,324
1607089089.4279,252
1607089089.4305,319
1607089089.4326,315
1607089089.4345,281
1607089089.4365,303
1607089089.4385,310
1607089089.4405,286
1607089089.4425,288
1607089089.4444,303
1607089089.4464,300
1607089089.4484,290
1607089089.4504,295
1607089089.4524,305
1607089089.4544,310
1607089089.4564,312
1607089089.4584,315
1607089089.4604,317
1607089089.4624,324
1607089089.4644,327
1607089089.4664,327
1607089089.4684,336
1607089089.4704,348
1607089089.4724,353
1607089089.4744,365
1607089089.4764,389
1607089089.4784,404
1607089089.4804,406
1607089089.4830,418
1607089089.4844,435
1607089089.4864,437
1607089089.4884,430
1607089089.4904,411
1607089089.4924,375
1607089089.4944,327
1607089089.4964,288
1607089089.4984,257
1607089089.5004,221
1607089089.5024,197
1607089089.5044,187
1607089089.5064,180
1607089089.5086,175
1607089089.5104,175
1607089089.5124,173
1607089089.5144,173
1607089089.5164,175
1607089089.5184,173
1607089089.5204,175
1607089089.5224,182
1607089089.5244,185
1607089089.5264,185
1607089089.5284,185
1607089089.5304,185
1607089089.5324,185
1607089089.5344,187
1607089089.5364,194
1607089089.5384,197
1607089089.5404,194
1607089089.5424,194
1607089089.5444,192
1607089089.5464,192
1607089089.5484,194
1607089089.5504,194
1607089089.5524,192
1607089089.5544,189
1607089089.5564,185
1607089089.5584,182
1607089089.5604,182
1607089089.5624,185
1607089089.5644,185
1607089089.5664,185
1607089089.5684,182
1607089090.0228,182
1607089090.0234,182
1607089090.0251,182
1607089090.0271,182
1607089090.0291,180
1607089090.0311,175
1607089090.0331,175
1607089090.0351,182
1607089090.0370,182
1607089090.0390,170
1607089090.0410,165
1607089090.0431,165
1607089090.0450,161
1607089090.0471,158
1607089090.0490,163
1607089090.0510,170
1607089090.0530,173
1607089090.0550,173
1607089090.0570,170
1607089090.0594,168
1607089090.0619,173
1607089090.0632,175
1607089090.0655,177
1607089090.0674,177
1607089090.0693,173
1607089090.0711,168
1607089090.0731,168
1607089090.0750,177
1607089090.0770,182
1607089090.0792,175
1607089090.0811,170
1607089090.0830,177
1607089090.0850,185
1607089090.0870,177
1607089090.0890,165
1607089090.0910,165
1607089090.0931,168
1607089090.0950,168
1607089090.0970,170
1607089090.0990,187
1607089090.1010,204
1607089090.1031,204
1607089090.1050,192
1607089090.1070,180
1607089090.1091,168
1607089090.1110,163
1607089090.1131,158
1607089090.1150,161
1607089090.1170,161
1607089090.1190,156
1607089090.1210,156
1607089090.1231,158
1607089090.1250,149
1607089090.1270,132
1607089090.1290,168
1607089090.1310,358
1607089090.1331,692
1607089090.1350,959
1607089090.1370,795
1607089090.1390,221
1607089090.1410,-72
1607089090.1430,108
1607089090.1450,168
1607089090.1471,48
1607089090.1490,67
1607089090.1510,120
1607089090.1530,86
1607089090.1551,81
1607089090.1570,110
1607089090.1590,108
1607089090.1610,105
1607089090.1631,110
1607089090.1650,105
1607089090.5942,108
1607089090.5953,120
1607089090.5978,125
1607089090.6004,125
1607089090.6024,134
1607089090.6043,144
1607089090.6062,149
1607089090.6083,146
1607089090.6103,151
1607089090.6123,163
1607089090.6143,163
1607089090.6163,161
1607089090.6183,175
1607089090.6203,189
1607089090.6223,197
1607089090.6243,204
1607089090.6262,223
1607089090.6282,242
1607089090.6302,254
1607089090.6323,264
1607089090.6342,266
1607089090.6362,257
1607089090.6382,238
1607089090.6403,206
1607089090.6423,161
1607089090.6442,120
1607089090.6462,86
1607089090.6482,62
1607089090.6502,45
1607089090.6523,36
1607089090.6542,31
1607089090.6563,28
1607089090.6582,33
1607089090.6602,36
1607089090.6623,38
1607089090.6643,43
1607089090.6662,45
1607089090.6683,45
1607089090.6702,52
1607089090.6723,62
1607089090.6743,64
1607089090.6762,62
1607089090.6782,64
1607089090.6802,76
1607089090.6823,81
1607089090.6842,79
1607089090.6862,81
1607089090.6882,86
1607089090.6902,88
1607089090.6925,81
1607089090.6943,76
1607089090.6962,76
1607089090.6982,76
1607089090.7002,76
1607089090.7023,76
1607089090.7042,76
1607089090.7062,81
1607089090.7082,84
1607089090.7102,84
1607089090.7123,84
1607089090.7142,88
1607089090.7162,86
1607089090.7182,88
1607089090.7202,86
1607089090.7223,79
1607089090.7243,81
1607089090.7262,84
1607089090.7282,81
1607089090.7302,84
1607089090.7323,88
1607089090.7342,88
1607089090.7362,88
1607089090.7382,91
1607089091.1041,88
1607089091.1048,91
1607089091.1073,96
1607089091.1099,96
1607089091.1119,93
1607089091.1139,98
1607089091.1159,98
1607089091.1178,91
1607089091.1198,84
1607089091.1219,81
1607089091.1239,88
1607089091.1259,88
1607089091.1278,84
1607089091.1298,81
1607089091.1319,81
1607089091.1338,76
1607089091.1358,67
1607089091.1379,62
1607089091.1399,72
1607089091.1421,93
1607089091.1425,113
1607089091.1448,117
1607089091.1468,105
1607089091.1488,96
1607089091.1508,96
1607089091.1528,91
1607089091.1549,74
1607089091.1570,74
1607089091.1589,79
1607089091.1608,79
1607089091.1629,79
1607089091.1650,81
1607089091.1671,76
1607089091.1689,57
1607089091.1708,69
1607089091.1729,194
1607089091.1735,483
1607089091.1758,827
1607089091.1778,846
1607089091.1798,327
1607089091.1819,-132
1607089091.1838,-28
1607089091.1858,137
1607089091.1880,40
1607089091.1898,4
1607089091.1919,60
1607089091.1938,43
1607089091.1958,26
1607089091.1978,48
1607089091.1998,48
1607089091.2018,40
1607089091.2025,52
1607089091.2049,64
1607089091.2068,64
1607089091.2088,69
1607089091.2108,72
1607089091.2129,64
1607089091.2149,62
1607089091.2168,69
1607089091.2188,86
1607089091.2208,93
1607089091.2229,88
1607089091.2248,98
1607089091.2268,122
1607089091.2288,129
1607089091.2308,122
1607089091.2328,134
1607089091.2335,163
1607089091.2358,182
1607089091.2379,194
1607089091.2398,204
1607089091.2419,223
1607089091.2438,226
1607089091.6438,223
1607089091.6466,230
1607089091.6486,216
1607089091.6504,175
1607089091.6524,134
1607089091.6547,91
1607089091.6565,40
1607089091.6584,21
1607089091.6604,21
1607089091.6611,2
1607089091.6634,-9
1607089091.6653,-7
1607089091.6673,-12
1607089091.6694,-16
1607089091.6713,-2
1607089091.6733,12
1607089091.6753,9
1607089091.6773,9
1607089091.6793,16
1607089091.6813,24
1607089091.6833,26
1607089091.6854,33
1607089091.6874,36
1607089091.6893,36
1607089091.6913,40
1607089091.6920,48
1607089091.6944,52
1607089091.6963,55
1607089091.6983,50
1607089091.7003,50
1607089091.7024,55
1607089091.7043,55
1607089091.7063,52
1607089091.7083,55
1607089091.7103,60
1607089091.7124,60
1607089091.7143,57
1607089091.7163,60
1607089091.7185,64
1607089091.7204,69
1607089091.7224,72
1607089091.7230,74
1607089091.7253,74
1607089091.7273,76
1607089091.7293,79
1607089091.7314,84
1607089091.7333,86
1607089091.7354,86
1607089091.7373,84
1607089091.7394,81
1607089091.7413,79
1607089091.7433,81
1607089091.7453,84
1607089091.7473,88
1607089091.7493,88
1607089091.7514,88
1607089091.7535,88
1607089091.7541,88
1607089091.7563,88
1607089091.7583,91
1607089091.7603,91
1607089091.7624,93
1607089091.7643,98
1607089091.7663,98
1607089091.7684,96
1607089091.7703,98
1607089091.7723,101
1607089091.7743,101
1607089091.7763,101
1607089091.7783,103
1607089091.7803,103
1607089091.7824,101
1607089091.7844,96
1607089092.2141,93
1607089092.2149,98
1607089092.2173,101
1607089092.2200,113
1607089092.2220,132
1607089092.2239,137
1607089092.2259,117
1607089092.2279,93
1607089092.2300,79
1607089092.2320,79
1607089092.2339,76
1607089092.2359,76
1607089092.2379,76
1607089092.2399,76
1607089092.2407,79
1607089092.2429,81
1607089092.2449,76
1607089092.2470,64
1607089092.2489,117
1607089092.2510,339
1607089092.2530,704
1607089092.2549,923
1607089092.2569,608
1607089092.2590,-12
1607089092.2609,-158
1607089092.2630,84
1607089092.2649,88
1607089092.2669,-19
1607089092.2689,33
1607089092.2696,62
1607089092.2720,26
1607089092.2739,40
1607089092.2759,62
1607089092.2779,55
1607089092.2802,57
1607089092.2820,67
1607089092.2839,67
1607089092.2859,72
1607089092.2879,79
1607089092.2899,79
1607089092.2919,79
1607089092.2939,84
1607089092.2960,88
1607089092.2979,96
1607089092.2999,103
1607089092.3006,105
1607089092.3030,115
1607089092.3050,129
1607089092.3069,137
1607089092.3089,144
1607089092.3109,161
1607089092.3130,177
1607089092.3149,189
1607089092.3169,204
1607089092.3189,221
1607089092.3209,228
1607089092.3229,233
1607089092.3249,240
1607089092.3269,233
1607089092.3290,194
1607089092.3309,149
1607089092.3316,103
1607089092.3339,62
1607089092.3359,28
1607089092.3379,4
1607089092.3392,-9
1607089092.3409,-16
1607089092.3429,-16
1607089092.3449,-19
1607089092.3469,-14
1607089092.3489,-14
1607089092.3509,-19
1607089092.3529,-19
1607089092.7539,-9
1607089092.7547,0
1607089092.7571,4
1607089092.7583,4
1607089092.7598,7
1607089092.7618,9
1607089092.7637,9
1607089092.7657,7
1607089092.7677,4
1607089092.7697,7
1607089092.7717,9
1607089092.7737,9
1607089092.7760,9
1607089092.7777,14
1607089092.7796,19
1607089092.7816,16
1607089092.7836,14
1607089092.7856,19
1607089092.7876,24
1607089092.7897,24
1607089092.7917,24
1607089092.7938,28
1607089092.7957,33
1607089092.7977,36
1607089092.7996,36
1607089092.8017,33
1607089092.8036,36
1607089092.8056,40
1607089092.8077,40
1607089092.8096,43
1607089092.8117,45
1607089092.8136,40
1607089092.8156,40
1607089092.8176,45
1607089092.8197,40
1607089092.8216,36
1607089092.8237,36
1607089092.8257,36
1607089092.8276,36
1607089092.8296,38
1607089092.8317,38
1607089092.8336,55
1607089092.8356,81
1607089092.8376,88
1607089092.8397,84
1607089092.8418,74
1607089092.8436,57
1607089092.8456,50
1607089092.8476,55
1607089092.8496,57
1607089092.8517,55
1607089092.8537,50
1607089092.8556,52
1607089092.8577,57
1607089092.8596,52
1607089092.8617,33
1607089092.8636,60
1607089092.8656,235
1607089092.8676,581
1607089092.8696,889
1607089092.8717,743
1607089092.8737,117
1607089092.8756,-235
1607089092.8778,-24
1607089092.8797,93
1607089092.8817,-33
1607089092.8836,-28
1607089092.8856,33
1607089092.8876,9
1607089092.8897,2
1607089092.8917,26
1607089092.8936,26
1607089092.8956,24
1607089093.3540,36
1607089093.3549,43
1607089093.3575,45
1607089093.3601,48
1607089093.3622,50
1607089093.3640,50
1607089093.3662,57
1607089093.3681,62
1607089093.3701,62
1607089093.3721,64
1607089093.3740,74
1607089093.3760,84
1607089093.3780,98
1607089093.3800,110
1607089093.3820,125
1607089093.3840,137
1607089093.3861,151
1607089093.3880,165
1607089093.3900,185
1607089093.3919,204
1607089093.3939,216
1607089093.3959,218
1607089093.3979,214
1607089093.3999,202
1607089093.4020,165
1607089093.4039,120
1607089093.4059,72
1607089093.4079,21
1607089093.4099,-12
1607089093.4120,-26
1607089093.4139,-38
1607089093.4159,-48
1607089093.4180,-48
1607089093.4199,-48
1607089093.4220,-45
1607089093.4239,-40
1607089093.4259,-38
1607089093.4279,-31
1607089093.4299,-26
1607089093.4320,-28
1607089093.4340,-26
1607089093.4361,-14
1607089093.4380,-2
1607089093.4399,2
1607089093.4420,0
1607089093.4439,2
1607089093.4459,12
1607089093.4479,16
1607089093.4501,16
1607089093.4520,16
1607089093.4539,16
1607089093.4559,19
1607089093.4579,19
1607089093.4599,21
1607089093.4619,19
1607089093.4639,19
1607089093.4659,21
1607089093.4680,21
1607089093.4699,21
1607089093.4720,24
1607089093.4739,28
1607089093.4759,26
1607089093.4779,26
1607089093.4799,24
1607089093.4821,21
1607089093.4840,26
1607089093.4860,28
1607089093.4879,26
1607089093.4899,28
1607089093.4920,33
1607089093.4939,33
1607089093.4959,31
1607089093.4979,33
1607089093.8938,40
1607089093.8948,43
1607089093.8972,38
1607089093.8999,40
1607089093.9019,45
1607089093.9038,43
1607089093.9058,38
1607089093.9078,36
1607089093.9098,36
1607089093.9118,33
1607089093.9139,38
1607089093.9158,64
1607089093.9178,76
1607089093.9198,64
1607089093.9218,52
1607089093.9238,48
1607089093.9258,38
1607089093.9278,31
1607089093.9299,31
1607089093.9320,31
1607089093.9338,28
1607089093.9358,28
1607089093.9378,31
1607089093.9397,33
1607089093.9418,24
1607089093.9437,16
1607089093.9458,110
1607089093.9478,394
1607089093.9497,759
1607089093.9519,868
1607089093.9538,420
1607089093.9558,-144
1607089093.9577,-146
1607089093.9598,74
1607089093.9618,4
1607089093.9638,-64
1607089093.9657,7
1607089093.9678,12
1607089093.9697,-21
1607089093.9718,2
1607089093.9737,21
1607089093.9757,14
1607089093.9778,19
1607089093.9799,31
1607089093.9818,31
1607089093.9837,33
1607089093.9857,40
1607089093.9877,45
1607089093.9897,50
1607089093.9917,60
1607089093.9937,62
1607089093.9958,67
1607089093.9977,76
1607089093.9997,84
1607089094.0018,91
1607089094.0038,101
1607089094.0057,113
1607089094.0077,127
1607089094.0097,141
1607089094.0118,156
1607089094.0137,173
1607089094.0157,185
1607089094.0177,194
1607089094.0197,211
1607089094.0217,218
1607089094.0237,206
1607089094.0257,187
1607089094.0278,153
1607089094.0297,103
1607089094.0318,60
1607089094.0339,33
1607089094.0358,9
1607089094.0377,-12
1607089094.4639,-19
1607089094.4648,-21
1607089094.4673,-21
1607089094.4700,-21
1607089094.4720,-21
1607089094.4740,-19
1607089094.4766,-21
1607089094.4779,-28
1607089094.4799,-26
1607089094.4820,-14
1607089094.4839,-9
1607089094.4858,-7
1607089094.4879,-4
1607089094.4899,0
1607089094.4919,2
1607089094.4938,4
1607089094.4958,7
1607089094.4978,9
1607089094.4999,12
1607089094.5026,12
1607089094.5038,16
1607089094.5059,21
1607089094.5078,16
1607089094.5098,14
1607089094.5118,21
1607089094.5138,24
1607089094.5158,16
1607089094.5178,19
1607089094.5198,26
1607089094.5219,28
1607089094.5239,26
1607089094.5258,26
1607089094.5278,28
1607089094.5298,28
1607089094.5319,28
1607089094.5338,28
1607089094.5358,28
1607089094.5379,33
1607089094.5399,33
1607089094.5419,28
1607089094.5438,33
1607089094.5458,38
1607089094.5478,36
1607089094.5498,31
1607089094.5518,38
1607089094.5538,43
1607089094.5559,40
1607089094.5578,40
1607089094.5600,45
1607089094.5619,43
1607089094.5638,36
1607089094.5658,36
1607089094.5678,40
1607089094.5698,40
1607089094.5719,38
1607089094.5738,38
1607089094.5758,36
1607089094.5778,36
1607089094.5798,38
1607089094.5818,38
1607089094.5838,31
1607089094.5858,33
1607089094.5878,38
1607089094.5899,40
1607089094.5919,55
1607089094.5938,72
1607089094.5958,81
1607089094.5978,79
1607089094.5998,62
1607089094.6018,50
1607089094.6038,40
1607089094.6059,36
1607089094.6078,33
1607089095.0030,36
1607089095.0037,38
1607089095.0055,36
1607089095.0076,33
1607089095.0095,33
1607089095.0116,26
1607089095.0136,4
1607089095.0155,50
1607089095.0176,266
1607089095.0196,622
1607089095.0216,860
1607089095.0235,610
1607089095.0255,7
1607089095.0275,-206
1607089095.0295,9
1607089095.0315,36
1607089095.0335,-79
1607089095.0356,-38
1607089095.0375,4
1607089095.0395,-28
1607089095.0415,-24
1607089095.0434,2
1607089095.0455,2
1607089095.0475,4
1607089095.0494,12
1607089095.0516,16
1607089095.0537,24
1607089095.0555,31
1607089095.0575,33
1607089095.0594,38
1607089095.0615,45
1607089095.0635,52
1607089095.0655,57
1607089095.0676,62
1607089095.0695,72
1607089095.0715,79
1607089095.0735,88
1607089095.0755,101
1607089095.0775,108
1607089095.0795,122
1607089095.0815,141
1607089095.0836,158
1607089095.0856,170
1607089095.0875,182
1607089095.0895,192
1607089095.0915,199
1607089095.0935,202
1607089095.0955,189
1607089095.0975,161
1607089095.0996,122
1607089095.1015,81
1607089095.1035,43
1607089095.1055,14
1607089095.1075,-4
1607089095.1095,-21
1607089095.1115,-28
1607089095.1135,-28
1607089095.1154,-28
1607089095.1176,-28
1607089095.1195,-26
1607089095.1215,-21
1607089095.1235,-16
1607089095.1255,-16
1607089095.1275,-14
1607089095.1295,-7
1607089095.1315,2
1607089095.1335,7
1607089095.1355,7
1607089095.1375,4
1607089095.1395,2
1607089095.1415,4
1607089095.1434,9
1607089095.1455,12
1607089095.5732,9
1607089095.5741,14
1607089095.5766,19
1607089095.5793,19
1607089095.5814,16
1607089095.5832,9
1607089095.5852,4
1607089095.5872,9
1607089095.5892,14
1607089095.5912,14
1607089095.5932,16
1607089095.5953,14
1607089095.5972,14
1607089095.5992,21
1607089095.6012,26
1607089095.6031,26
1607089095.6051,26
1607089095.6071,24
1607089095.6091,24
1607089095.6112,26
1607089095.6132,26
1607089095.6151,24
1607089095.6171,28
1607089095.6191,40
1607089095.6212,45
1607089095.6231,38
1607089095.6251,40
1607089095.6271,45
1607089095.6292,43
1607089095.6311,36
1607089095.6331,33
1607089095.6351,38
1607089095.6371,40
1607089095.6391,38
1607089095.6411,36
1607089095.6432,38
1607089095.6452,43
1607089095.6471,43
1607089095.6491,43
1607089095.6511,45
1607089095.6531,43
1607089095.6551,43
1607089095.6571,43
1607089095.6591,43
1607089095.6611,43
1607089095.6631,45
1607089095.6651,40
1607089095.6671,33
1607089095.6691,33
1607089095.6712,48
1607089095.6731,60
1607089095.6751,69
1607089095.6772,76
1607089095.6792,72
1607089095.6812,62
1607089095.6833,52
1607089095.6851,43
1607089095.6871,36
1607089095.6891,38
1607089095.6912,40
1607089095.6932,43
1607089095.6952,38
1607089095.6971,33
1607089095.6991,31
1607089095.7011,21
1607089095.7031,14
1607089095.7051,120
1607089095.7071,413
1607089095.7091,776
1607089095.7112,848
1607089095.7131,351
1607089095.7151,-204
1607089095.7171,-151
1607089096.1129,81
1607089096.1137,0
1607089096.1161,-64
1607089096.1187,4
1607089096.1207,7
1607089096.1228,-19
1607089096.1247,-2
1607089096.1267,-4
1607089096.1287,-9
1607089096.1307,7
1607089096.1326,14
1607089096.1347,12
1607089096.1366,19
1607089096.1387,24
1607089096.1407,28
1607089096.1426,36
1607089096.1446,38
1607089096.1466,43
1607089096.1486,50
1607089096.1506,62
1607089096.1527,72
1607089096.1547,79
1607089096.1567,84
1607089096.1586,93
1607089096.1606,113
1607089096.1626,129
1607089096.1646,144
1607089096.1666,161
1607089096.1686,182
1607089096.1706,199
1607089096.1727,209
1607089096.1746,211
1607089096.1766,209
1607089096.1788,187
1607089096.1807,146
1607089096.1826,101
1607089096.1846,57
1607089096.1866,21
1607089096.1888,-7
1607089096.1906,-24
1607089096.1926,-36
1607089096.1946,-48
1607089096.1966,-52
1607089096.1986,-45
1607089096.2006,-38
1607089096.2026,-43
1607089096.2047,-43
1607089096.2067,-31
1607089096.2088,-21
1607089096.2106,-21
1607089096.2126,-14
1607089096.2146,-7
1607089096.2166,-7
1607089096.2186,-9
1607089096.2207,-9
1607089096.2227,-2
1607089096.2246,2
1607089096.2266,0
1607089096.2286,-2
1607089096.2306,2
1607089096.2326,12
1607089096.2346,12
1607089096.2366,9
1607089096.2387,9
1607089096.2406,12
1607089096.2426,12
1607089096.2446,12
1607089096.2466,12
1607089096.2486,7
1607089096.2506,7
1607089096.2526,14
1607089096.2547,16
1607089096.2567,14
1607089096.7136,12
1607089096.7145,16
1607089096.7170,21
1607089096.7196,16
1607089096.7216,7
1607089096.7235,9
1607089096.7255,16
1607089096.7275,14
1607089096.7295,9
1607089096.7316,16
1607089096.7336,21
1607089096.7357,19
1607089096.7376,21
1607089096.7396,19
1607089096.7415,16
1607089096.7435,16
1607089096.7455,12
1607089096.7475,12
1607089096.7495,14
1607089096.7516,14
1607089096.7535,12
1607089096.7555,21
1607089096.7575,50
1607089096.7595,67
1607089096.7615,60
1607089096.7635,45
1607089096.7655,31
1607089096.7676,21
1607089096.7695,19
1607089096.7715,24
1607089096.7735,26
1607089096.7755,24
1607089096.7775,21
1607089096.7795,24
1607089096.7815,24
1607089096.7836,9
1607089096.7855,-2
1607089096.7875,74
1607089096.7895,341
1607089096.7917,716
1607089096.7935,875
1607089096.7955,473
1607089096.7975,-139
1607089096.7996,-202
1607089096.8015,48
1607089096.8035,12
1607089096.8055,-91
1607089096.8075,-28
1607089096.8095,-7
1607089096.8115,-36
1607089096.8135,-24
1607089096.8156,-9
1607089096.8175,-12
1607089096.8195,0
1607089096.8215,7
1607089096.8235,7
1607089096.8255,19
1607089096.8275,31
1607089096.8295,31
1607089096.8315,33
1607089096.8335,45
1607089096.8355,48
1607089096.8376,48
1607089096.8395,55
1607089096.8415,60
1607089096.8435,62
1607089096.8455,72
1607089096.8476,91
1607089096.8495,105
1607089096.8515,117
1607089096.8535,134
1607089096.8555,156
1607089096.8575,173
1607089097.2834,185
1607089097.2843,194
1607089097.2869,202
1607089097.2894,199
1607089097.2914,173
1607089097.2934,129
1607089097.2955,88
1607089097.2974,48
1607089097.2994,0
1607089097.3014,-38
1607089097.3033,-52
1607089097.3053,-55
1607089097.3073,-62
1607089097.3093,-67
1607089097.3114,-64
1607089097.3133,-62
1607089097.3153,-57
1607089097.3173,-52
1607089097.3193,-50
1607089097.3214,-48
1607089097.3233,-38
1607089097.3253,-31
1607089097.3274,-28
1607089097.3295,-24
1607089097.3314,-21
1607089097.3333,-19
1607089097.3353,-12
1607089097.3373,-7
1607089097.3394,-7
1607089097.3413,-7
1607089097.3434,-2
1607089097.3453,-4
1607089097.3473,-7
1607089097.3493,0
1607089097.3513,2
1607089097.3533,-4
1607089097.3553,-4
1607089097.3573,0
1607089097.3593,-4
1607089097.3614,-9
1607089097.3635,-2
1607089097.3654,2
1607089097.3673,4
1607089097.3693,7
1607089097.3713,2
1607089097.3733,4
1607089097.3753,14
1607089097.3774,16
1607089097.3793,14
1607089097.3813,14
1607089097.3833,14
1607089097.3854,12
1607089097.3873,12
1607089097.3893,14
1607089097.3914,16
1607089097.3934,12
1607089097.3953,4
1607089097.3973,9
1607089097.3993,16
1607089097.4013,16
1607089097.4033,16
1607089097.4053,19
1607089097.4073,19
1607089097.4094,19
1607089097.4114,21
1607089097.4133,24
1607089097.4153,26
1607089097.4173,24
1607089097.4193,24
1607089097.4214,26
1607089097.4233,21
1607089097.4254,19
1607089097.4274,24
1607089097.8233,26
1607089097.8243,28
1607089097.8268,43
1607089097.8294,67
1607089097.8314,79
1607089097.8333,67
1607089097.8354,48
1607089097.8374,40
1607089097.8394,36
1607089097.8413,26
1607089097.8433,19
1607089097.8453,19
1607089097.8473,21
1607089097.8493,24
1607089097.8513,28
1607089097.8533,24
1607089097.8554,7
1607089097.8560,9
1607089097.8584,127
1607089097.8603,432
1607089097.8623,798
1607089097.8643,848
1607089097.8663,341
1607089097.8683,-194
1607089097.8702,-137
1607089097.8724,64
1607089097.8743,-28
1607089097.8763,-79
1607089097.8783,-2
1607089097.8803,-12
1607089097.8823,-43
1607089097.8843,-16
1607089097.8863,-2
1607089097.8870,-9
1607089097.8883,-4
1607089097.8903,2
1607089097.8923,7
1607089097.8942,9
1607089097.8963,19
1607089097.8982,28
1607089097.9002,33
1607089097.9023,36
1607089097.9044,40
1607089097.9063,50
1607089097.9083,57
1607089097.9102,62
1607089097.9122,67
1607089097.9142,74
1607089097.9163,86
1607089097.9170,96
1607089097.9183,110
1607089097.9204,127
1607089097.9223,141
1607089097.9243,156
1607089097.9262,173
1607089097.9283,182
1607089097.9303,189
1607089097.9323,185
1607089097.9343,163
1607089097.9363,127
1607089097.9384,81
1607089097.9402,36
1607089097.9423,0
1607089097.9443,-26
1607089097.9462,-43
1607089097.9470,-52
1607089097.9493,-55
1607089097.9513,-55
1607089097.9533,-62
1607089097.9555,-60
1607089097.9573,-48
1607089097.9592,-48
1607089097.9613,-50
1607089098.3933,-48
1607089098.3943,-38
1607089098.3967,-31
1607089098.3995,-28
1607089098.4014,-26
1607089098.4033,-26
1607089098.4040,-31
1607089098.4063,-36
1607089098.4084,-36
1607089098.4103,-28
1607089098.4122,-24
1607089098.4142,-24
1607089098.4163,-19
1607089098.4183,-16
1607089098.4203,-19
1607089098.4223,-19
1607089098.4243,-14
1607089098.4262,-12
1607089098.4282,-14
1607089098.4303,-14
1607089098.4323,-9
1607089098.4329,-12
1607089098.4342,-14
1607089098.4362,-12
1607089098.4382,-12
1607089098.4402,-14
1607089098.4423,-12
1607089098.4442,-9
1607089098.4462,-12
1607089098.4483,-9
1607089098.4503,-7
1607089098.4522,-2
1607089098.4543,2
1607089098.4562,4
1607089098.4582,4
1607089098.4602,2
1607089098.4623,4
1607089098.4630,7
1607089098.4654,2
1607089098.4673,0
1607089098.4692,7
1607089098.4713,12
1607089098.4732,7
1607089098.4752,7
1607089098.4772,9
1607089098.4792,14
1607089098.4813,19
1607089098.4835,16
1607089098.4853,16
1607089098.4874,24
1607089098.4893,26
1607089098.4913,26
1607089098.4932,26
1607089098.4939,28
1607089098.4962,31
1607089098.4983,28
1607089098.5003,28
1607089098.5023,31
1607089098.5042,26
1607089098.5062,28
1607089098.5082,36
1607089098.5102,36
1607089098.5123,36
1607089098.5143,40
1607089098.5163,40
1607089098.5182,36
1607089098.5202,28
1607089098.5223,26
1607089098.5242,31
1607089098.5250,43
1607089098.5272,62
1607089098.5292,76
1607089098.5313,74
1607089098.9331,60
1607089098.9339,43
1607089098.9363,36
1607089098.9389,38
1607089098.9410,38
1607089098.9429,31
1607089098.9449,33
1607089098.9469,36
1607089098.9489,31
1607089098.9509,26
1607089098.9529,19
1607089098.9548,2
1607089098.9556,33
1607089098.9579,228
1607089098.9599,586
1607089098.9618,865
1607089098.9639,673
1607089098.9659,55
1607089098.9679,-240
1607089098.9699,-24
1607089098.9719,48
1607089098.9738,-81
1607089098.9759,-60
1607089098.9778,-4
1607089098.9799,-40
1607089098.9821,-38
1607089098.9840,-2
1607089098.9859,-7
1607089098.9865,-14
1607089098.9888,-2
1607089098.9909,4
1607089098.9929,4
1607089098.9949,9
1607089098.9969,19
1607089098.9989,24
1607089099.0009,26
1607089099.0029,33
1607089099.0048,40
1607089099.0068,45
1607089099.0089,52
1607089099.0109,55
1607089099.0129,67
1607089099.0148,84
1607089099.0168,96
1607089099.0175,103
1607089099.0199,120
1607089099.0219,137
1607089099.0238,153
1607089099.0258,170
1607089099.0278,182
1607089099.0298,187
1607089099.0318,192
1607089099.0338,189
1607089099.0358,158
1607089099.0378,115
1607089099.0398,72
1607089099.0418,33
1607089099.0438,0
1607089099.0458,-24
1607089099.0478,-40
1607089099.0485,-55
1607089099.0509,-62
1607089099.0529,-62
1607089099.0549,-57
1607089099.0568,-60
1607089099.0588,-57
1607089099.0609,-52
1607089099.0628,-50
1607089099.0648,-43
1607089099.0668,-36
1607089099.0688,-33
1607089099.0709,-28
1607089099.0728,-19
1607089099.5029,-12
1607089099.5038,-9
1607089099.5063,-14
1607089099.5092,-19
1607089099.5110,-16
1607089099.5129,-16
1607089099.5149,-24
1607089099.5169,-28
1607089099.5189,-31
1607089099.5209,-31
1607089099.5229,-28
1607089099.5249,-26
1607089099.5269,-26
1607089099.5289,-21
1607089099.5309,-16
1607089099.5329,-12
1607089099.5349,-9
1607089099.5369,-9
1607089099.5389,-9
1607089099.5409,-7
1607089099.5428,-4
1607089099.5448,-9
1607089099.5468,-7
1607089099.5488,0
1607089099.5509,0
1607089099.5528,-2
1607089099.5548,2
1607089099.5568,7
1607089099.5588,7
1607089099.5609,7
1607089099.5628,9
1607089099.5648,9
1607089099.5668,19
1607089099.5688,24
1607089099.5709,19
1607089099.5728,21
1607089099.5748,26
1607089099.5768,26
1607089099.5788,24
1607089099.5808,24
1607089099.5828,21
1607089099.5848,26
1607089099.5868,31
1607089099.5888,31
1607089099.5909,33
1607089099.5928,33
1607089099.5948,36
1607089099.5968,40
1607089099.5988,40
1607089099.6009,36
1607089099.6028,38
1607089099.6049,40
1607089099.6068,33
1607089099.6088,33
1607089099.6111,38
1607089099.6129,33
1607089099.6148,28
1607089099.6168,26
1607089099.6188,26
1607089099.6209,40
1607089099.6228,62
1607089099.6248,74
1607089099.6268,72
1607089099.6288,67
1607089099.6309,55
1607089099.6328,40
1607089099.6348,38
1607089099.6368,40
1607089099.6388,40
1607089099.6408,40
1607089099.6428,38
1607089099.6448,40
1607089099.6468,36
1607089100.0731,21
1607089100.0738,9
1607089100.0762,79
1607089100.0789,329
1607089100.0810,704
1607089100.0829,884
1607089100.0849,490
1607089100.0869,-141
1607089100.0889,-221
1607089100.0909,33
1607089100.0929,-2
1607089100.0949,-105
1607089100.0969,-40
1607089100.0989,-14
1607089100.1009,-52
1607089100.1029,-40
1607089100.1049,-16
1607089100.1069,-16
1607089100.1090,-12
1607089100.1109,0
1607089100.1130,4
1607089100.1149,7
1607089100.1168,9
1607089100.1189,12
1607089100.1209,24
1607089100.1228,33
1607089100.1248,31
1607089100.1268,33
1607089100.1288,43
1607089100.1309,50
1607089100.1328,60
1607089100.1348,76
1607089100.1370,88
1607089100.1389,96
1607089100.1408,110
1607089100.1428,127
1607089100.1449,144
1607089100.1468,163
1607089100.1488,175
1607089100.1509,177
1607089100.1528,187
1607089100.1548,192
1607089100.1568,175
1607089100.1588,134
1607089100.1609,88
1607089100.1628,45
1607089100.1648,0
1607089100.1668,-33
1607089100.1688,-50
1607089100.1709,-57
1607089100.1728,-67
1607089100.1748,-69
1607089100.1768,-64
1607089100.1788,-69
1607089100.1809,-72
1607089100.1828,-60
1607089100.1848,-52
1607089100.1868,-55
1607089100.1888,-50
1607089100.1908,-38
1607089100.1931,-33
1607089100.1949,-33
1607089100.1969,-33
1607089100.1988,-28
1607089100.2009,-24
1607089100.2028,-19
1607089100.2048,-21
1607089100.2068,-24
1607089100.2088,-19
1607089100.2109,-19
1607089100.2129,-21
1607089100.2148,-19
1607089100.2168,-14
1607089100.6432,-14
1607089100.6441,-16
1607089100.6465,-19
1607089100.6492,-21
1607089100.6512,-16
1607089100.6532,-7
1607089100.6552,-7
1607089100.6571,-9
1607089100.6591,-21
1607089100.6612,-28
1607089100.6634,-19
1607089100.6652,-9
1607089100.6671,-9
1607089100.6691,-9
1607089100.6712,-2
1607089100.6731,0
1607089100.6751,0
1607089100.6771,0
1607089100.6791,2
1607089100.6812,7
1607089100.6831,7
1607089100.6851,7
1607089100.6872,7
1607089100.6891,9
1607089100.6911,12
1607089100.6931,12
1607089100.6951,14
1607089100.6971,16
1607089100.6991,21
1607089100.7066,24
1607089100.7081,21
1607089100.7101,19
1607089100.7121,21
1607089100.7141,24
1607089100.7161,19
1607089100.7181,19
1607089100.7201,24
1607089100.7221,24
1607089100.7241,21
1607089100.7261,21
1607089100.7281,26
1607089100.7301,31
1607089100.7321,31
1607089100.7341,31
1607089100.7361,26
1607089100.7380,26
1607089100.7401,28
1607089100.7421,26
1607089100.7441,24
1607089100.7461,21
1607089100.7481,24
1607089100.7501,40
1607089100.7521,62
1607089100.7541,69
1607089100.7561,67
1607089100.7581,55
1607089100.7601,38
1607089100.7621,31
1607089100.7641,28
1607089100.7661,26
1607089100.7681,24
1607089100.7703,26
1607089100.7721,31
1607089100.7741,33
1607089100.7761,28
1607089100.7781,9
1607089100.7801,14
1607089100.7821,151
1607089100.7841,480
1607089100.7861,832
1607089100.7881,812
1607089100.7901,252
1607089100.7921,-223
1607089101.1828,-103
1607089101.1835,64
1607089101.1859,-50
1607089101.1886,-81
1607089101.1906,-7
1607089101.1925,-21
1607089101.1946,-40
1607089101.1965,-12
1607089101.1985,-7
1607089101.2006,-26
1607089101.2025,-24
1607089101.2045,-9
1607089101.2066,-7
1607089101.2085,-14
1607089101.2106,-12
1607089101.2125,-4
1607089101.2145,0
1607089101.2165,4
1607089101.2185,14
1607089101.2205,26
1607089101.2225,28
1607089101.2245,31
1607089101.2265,40
1607089101.2285,62
1607089101.2305,76
1607089101.2325,79
1607089101.2345,88
1607089101.2365,110
1607089101.2385,132
1607089101.2405,151
1607089101.2425,163
1607089101.2445,168
1607089101.2465,168
1607089101.2485,161
1607089101.2506,144
1607089101.2525,110
1607089101.2545,62
1607089101.2565,16
1607089101.2585,-21
1607089101.2608,-45
1607089101.2626,-60
1607089101.2645,-69
1607089101.2665,-76
1607089101.2685,-79
1607089101.2706,-79
1607089101.2725,-76
1607089101.2745,-74
1607089101.2765,-72
1607089101.2785,-62
1607089101.2806,-55
1607089101.2825,-52
1607089101.2845,-48
1607089101.2865,-45
1607089101.2885,-43
1607089101.2905,-36
1607089101.2925,-31
1607089101.2945,-33
1607089101.2965,-33
1607089101.2985,-28
1607089101.3006,-24
1607089101.3025,-19
1607089101.3045,-16
1607089101.3065,-16
1607089101.3085,-16
1607089101.3106,-12
1607089101.3125,-9
1607089101.3145,-7
1607089101.3165,-7
1607089101.3185,-7
1607089101.3205,-7
1607089101.3225,-2
1607089101.3245,2
1607089101.3265,2
1607089101.7832,2
1607089101.7841,7
1607089101.7867,9
1607089101.7892,9
1607089101.7912,12
1607089101.7932,14
1607089101.7953,4
1607089101.7972,-4
1607089101.7992,0
1607089101.8012,4
1607089101.8031,7
1607089101.8051,7
1607089101.8072,7
1607089101.8092,12
1607089101.8112,16
1607089101.8131,16
1607089101.8151,14
1607089101.8173,14
1607089101.8192,16
1607089101.8211,16
1607089101.8231,16
1607089101.8251,16
1607089101.8271,16
1607089101.8291,24
1607089101.8311,28
1607089101.8331,28
1607089101.8351,26
1607089101.8371,28
1607089101.8391,31
1607089101.8411,26
1607089101.8431,24
1607089101.8451,28
1607089101.8471,33
1607089101.8491,31
1607089101.8511,31
1607089101.8531,36
1607089101.8552,38
1607089101.8571,36
1607089101.8591,31
1607089101.8611,33
1607089101.8631,36
1607089101.8651,33
1607089101.8671,28
1607089101.8691,19
1607089101.8711,7
1607089101.8731,14
1607089101.8751,38
1607089101.8771,60
1607089101.8791,67
1607089101.8811,62
1607089101.8831,55
1607089101.8850,38
1607089101.8871,26
1607089101.8891,24
1607089101.8911,26
1607089101.8931,31
1607089101.8951,36
1607089101.8971,36
1607089101.8991,33
1607089101.9011,28
1607089101.9031,19
1607089101.9051,14
1607089101.9071,103
1607089101.9091,370
1607089101.9111,735
1607089101.9131,870
1607089101.9151,459
1607089101.9171,-122
1607089101.9192,-173
1607089101.9211,48
1607089101.9231,-7
1607089101.9251,-91
1607089101.9271,-26
1607089102.2928,-16
1607089102.2935,-48
1607089102.2959,-24
1607089102.2986,-9
1607089102.3006,-21
1607089102.3026,-16
1607089102.3046,-7
1607089102.3066,-2
1607089102.3086,2
1607089102.3106,7
1607089102.3126,12
1607089102.3145,9
1607089102.3165,4
1607089102.3185,7
1607089102.3206,16
1607089102.3225,21
1607089102.3245,26
1607089102.3265,36
1607089102.3285,50
1607089102.3305,64
1607089102.3325,74
1607089102.3345,86
1607089102.3365,101
1607089102.3385,115
1607089102.3405,137
1607089102.3425,151
1607089102.3445,158
1607089102.3465,165
1607089102.3485,163
1607089102.3505,151
1607089102.3525,127
1607089102.3545,88
1607089102.3565,43
1607089102.3585,7
1607089102.3605,-21
1607089102.3625,-45
1607089102.3646,-62
1607089102.3665,-69
1607089102.3685,-76
1607089102.3705,-76
1607089102.3725,-76
1607089102.3745,-74
1607089102.3765,-69
1607089102.3785,-67
1607089102.3805,-62
1607089102.3825,-55
1607089102.3847,-45
1607089102.3866,-43
1607089102.3886,-40
1607089102.3905,-33
1607089102.3925,-28
1607089102.3945,-26
1607089102.3965,-21
1607089102.3985,-16
1607089102.4006,-19
1607089102.4025,-14
1607089102.4045,-7
1607089102.4065,-7
1607089102.4085,-12
1607089102.4105,-12
1607089102.4125,-9
1607089102.4145,-9
1607089102.4165,-4
1607089102.4185,-2
1607089102.4205,0
1607089102.4225,0
1607089102.4245,0
1607089102.4265,2
1607089102.4285,4
1607089102.4306,7
1607089102.4325,4
1607089102.4345,4
1607089102.4365,4
1607089102.8632,4
1607089102.8641,7
1607089102.8666,9
1607089102.8692,9
1607089102.8712,7
1607089102.8731,4
1607089102.8753,2
1607089102.8771,0
1607089102.8792,2
1607089102.8812,2
1607089102.8831,4
1607089102.8851,9
1607089102.8871,12
1607089102.8891,9
1607089102.8911,12
1607089102.8931,14
1607089102.8951,12
1607089102.8971,16
1607089102.8991,24
1607089102.9011,21
1607089102.9031,19
1607089102.9051,21
1607089102.9071,21
1607089102.9091,26
1607089102.9113,31
1607089102.9132,26
1607089102.9151,19
1607089102.9171,21
1607089102.9191,24
1607089102.9211,21
1607089102.9231,21
1607089102.9251,16
1607089102.9271,14
1607089102.9291,16
1607089102.9311,16
1607089102.9331,16
1607089102.9351,19
1607089102.9372,21
1607089102.9391,19
1607089102.9411,14
1607089102.9431,14
1607089102.9451,24
1607089102.9471,43
1607089102.9491,64
1607089102.9511,72
1607089102.9531,60
1607089102.9551,43
1607089102.9571,33
1607089102.9591,31
1607089102.9612,28
1607089102.9631,28
1607089102.9651,31
1607089102.9671,26
1607089102.9691,26
1607089102.9711,36
1607089102.9731,31
1607089102.9751,9
1607089102.9771,43
1607089102.9791,245
1607089102.9811,601
1607089102.9831,860
1607089102.9852,632
1607089102.9871,7
1607089102.9891,-250
1607089102.9911,-19
1607089102.9931,43
1607089102.9951,-84
1607089102.9971,-52
1607089102.9991,-2
1607089103.0011,-40
1607089103.0031,-38
1607089103.0051,-9
1607089103.0071,-12
1607089103.4631,-16
1607089103.4643,-2
1607089103.4671,0
1607089103.4694,-2
1607089103.4714,7
1607089103.4734,14
1607089103.4754,14
1607089103.4774,12
1607089103.4794,14
1607089103.4814,16
1607089103.4833,19
1607089103.4854,26
1607089103.4873,36
1607089103.4893,48
1607089103.4913,57
1607089103.4933,67
1607089103.4953,84
1607089103.4973,96
1607089103.4993,113
1607089103.5013,139
1607089103.5033,156
1607089103.5053,163
1607089103.5072,165
1607089103.5093,170
1607089103.5113,168
1607089103.5132,141
1607089103.5153,93
1607089103.5173,43
1607089103.5193,2
1607089103.5213,-28
1607089103.5233,-52
1607089103.5252,-64
1607089103.5272,-74
1607089103.5292,-84
1607089103.5313,-84
1607089103.5332,-76
1607089103.5352,-69
1607089103.5373,-67
1607089103.5392,-69
1607089103.5413,-64
1607089103.5432,-52
1607089103.5452,-48
1607089103.5472,-43
1607089103.5492,-36
1607089103.5513,-28
1607089103.5533,-28
1607089103.5553,-24
1607089103.5572,-14
1607089103.5592,-14
1607089103.5613,-19
1607089103.5632,-19
1607089103.5652,-12
1607089103.5672,-4
1607089103.5694,-2
1607089103.5713,-4
1607089103.5732,-7
1607089103.5753,-12
1607089103.5772,-9
1607089103.5792,0
1607089103.5813,2
1607089103.5832,0
1607089103.5852,2
1607089103.5872,2
1607089103.5892,-2
1607089103.5912,-2
1607089103.5932,4
1607089103.5952,9
1607089103.5972,14
1607089103.5992,14
1607089103.6013,12
1607089103.6033,12
1607089103.6052,9
1607089103.6072,7
1607089104.0025,9
1607089104.0033,14
1607089104.0042,14
1607089104.0063,14
1607089104.0082,19
1607089104.0103,21
1607089104.0122,21
1607089104.0142,14
1607089104.0162,14
1607089104.0182,21
1607089104.0202,26
1607089104.0222,12
1607089104.0242,-2
1607089104.0262,-4
1607089104.0282,0
1607089104.0303,0
1607089104.0322,-2
1607089104.0343,2
1607089104.0362,7
1607089104.0382,7
1607089104.0403,2
1607089104.0422,2
1607089104.0442,9
1607089104.0462,12
1607089104.0482,4
1607089104.0503,-2
1607089104.0522,-2
1607089104.0542,2
1607089104.0562,14
1607089104.0582,38
1607089104.0603,52
1607089104.0624,45
1607089104.0643,36
1607089104.0662,28
1607089104.0682,19
1607089104.0702,14
1607089104.0722,16
1607089104.0742,16
1607089104.0762,14
1607089104.0782,16
1607089104.0803,19
1607089104.0823,16
1607089104.0843,0
1607089104.0862,7
1607089104.0883,146
1607089104.0903,468
1607089104.0922,808
1607089104.0942,781
1607089104.0949,216
1607089104.0962,-257
1607089104.0982,-122
1607089104.1003,50
1607089104.1022,-67
1607089104.1042,-88
1607089104.1062,-14
1607089104.1082,-33
1607089104.1103,-48
1607089104.1122,-21
1607089104.1142,-24
1607089104.1162,-31
1607089104.1182,-12
1607089104.1202,-2
1607089104.1222,-9
1607089104.1242,-4
1607089104.1249,7
1607089104.1262,12
1607089104.1282,19
1607089104.1303,26
1607089104.1322,31
1607089104.1342,33
1607089104.1362,33
1607089104.1382,40
1607089104.1403,55
1607089104.5731,64
1607089104.5741,69
1607089104.5765,81
1607089104.5792,96
1607089104.5812,110
1607089104.5831,129
1607089104.5852,144
1607089104.5858,144
1607089104.5881,149
1607089104.5903,153
1607089104.5921,151
1607089104.5940,127
1607089104.5960,84
1607089104.5981,33
1607089104.6001,-7
1607089104.6020,-38
1607089104.6040,-69
1607089104.6060,-86
1607089104.6080,-88
1607089104.6101,-93
1607089104.6120,-101
1607089104.6140,-96
1607089104.6160,-86
1607089104.6167,-88
1607089104.6180,-88
1607089104.6201,-79
1607089104.6220,-72
1607089104.6241,-69
1607089104.6260,-60
1607089104.6280,-52
1607089104.6301,-48
1607089104.6320,-43
1607089104.6341,-38
1607089104.6360,-36
1607089104.6380,-33
1607089104.6400,-26
1607089104.6420,-24
1607089104.6440,-24
1607089104.6460,-24
1607089104.6467,-21
1607089104.6480,-19
1607089104.6502,-16
1607089104.6520,-16
1607089104.6540,-19
1607089104.6560,-16
1607089104.6580,-14
1607089104.6601,-9
1607089104.6620,-9
1607089104.6642,-9
1607089104.6660,-9
1607089104.6680,-7
1607089104.6700,2
1607089104.6721,0
1607089104.6740,-2
1607089104.6760,2
1607089104.6767,2
1607089104.6780,0
1607089104.6801,7
1607089104.6820,9
1607089104.6840,7
1607089104.6862,7
1607089104.6881,7
1607089104.6901,7
1607089104.6920,12
1607089104.6941,16
1607089104.6960,19
1607089104.6980,19
1607089104.7001,16
1607089104.7020,14
1607089104.7040,12
1607089104.7060,12
1607089104.7067,16
1607089104.7082,12
1607089105.1125,4
1607089105.1135,4
1607089105.1159,9
1607089105.1188,12
1607089105.1205,14
1607089105.1225,14
1607089105.1246,12
1607089105.1265,14
1607089105.1285,14
1607089105.1305,9
1607089105.1324,2
1607089105.1331,4
1607089105.1354,7
1607089105.1374,4
1607089105.1394,7
1607089105.1414,12
1607089105.1434,9
1607089105.1454,0
1607089105.1474,0
1607089105.1494,9
1607089105.1515,28
1607089105.1535,45
1607089105.1554,52
1607089105.1574,45
1607089105.1594,31
1607089105.1614,19
1607089105.1634,16
1607089105.1641,12
1607089105.1654,7
1607089105.1674,7
1607089105.1694,12
1607089105.1714,14
1607089105.1734,14
1607089105.1754,9
1607089105.1774,-7
1607089105.1795,24
1607089105.1815,204
1607089105.1835,545
1607089105.1856,844
1607089105.1875,709
1607089105.1895,113
1607089105.1914,-233
1607089105.1935,-50
1607089105.1941,43
1607089105.1954,-86
1607089105.1974,-79
1607089105.1995,-16
1607089105.2014,-48
1607089105.2034,-60
1607089105.2054,-31
1607089105.2074,-28
1607089105.2094,-31
1607089105.2115,-16
1607089105.2134,-9
1607089105.2154,-12
1607089105.2174,-4
1607089105.2194,2
1607089105.2214,4
1607089105.2234,12
1607089105.2241,14
1607089105.2254,14
1607089105.2274,21
1607089105.2294,28
1607089105.2314,31
1607089105.2334,36
1607089105.2354,40
1607089105.2374,52
1607089105.2394,67
1607089105.2414,81
1607089105.2434,98
1607089105.2454,117
1607089105.2474,129
1607089105.2494,139
1607089105.6524,149
1607089105.6532,153
1607089105.6546,151
1607089105.6566,132
1607089105.6585,91
1607089105.6605,43
1607089105.6626,0
1607089105.6644,-38
1607089105.6664,-62
1607089105.6684,-76
1607089105.6704,-88
1607089105.6711,-96
1607089105.6724,-93
1607089105.6745,-88
1607089105.6765,-86
1607089105.6784,-86
1607089105.6806,-79
1607089105.6824,-67
1607089105.6844,-62
1607089105.6864,-62
1607089105.6884,-55
1607089105.6909,-48
1607089105.6925,-48
1607089105.6945,-45
1607089105.6964,-33
1607089105.6984,-26
1607089105.7004,-26
1607089105.7011,-24
1607089105.7024,-16
1607089105.7044,-12
1607089105.7064,-12
1607089105.7091,-12
1607089105.7105,-12
1607089105.7125,-7
1607089105.7144,-7
1607089105.7164,-12
1607089105.7185,-7
1607089105.7204,-4
1607089105.7224,-7
1607089105.7247,-7
1607089105.7264,0
1607089105.7284,2
1607089105.7304,2
1607089105.7324,4
1607089105.7344,9
1607089105.7364,7
1607089105.7384,7
1607089105.7409,12
1607089105.7427,14
1607089105.7444,14
1607089105.7464,12
1607089105.7484,9
1607089105.7504,9
1607089105.7524,9
1607089105.7544,14
1607089105.7564,21
1607089105.7585,19
1607089105.7605,9
1607089105.7624,4
1607089105.7643,9
1607089105.7664,14
1607089105.7684,16
1607089105.7704,14
1607089105.7724,16
1607089105.7745,21
1607089105.7765,19
1607089105.7784,14
1607089105.7805,16
1607089105.7824,24
1607089105.7844,24
1607089105.7864,21
1607089105.7884,24
1607089105.7909,24
1607089106.2223,26
1607089106.2227,26
1607089106.2252,28
1607089106.2278,24
1607089106.2297,16
1607089106.2317,14
1607089106.2337,16
1607089106.2357,19
1607089106.2377,14
1607089106.2397,12
1607089106.2418,14
1607089106.2438,16
1607089106.2525,16
1607089106.2608,14
1607089106.2627,12
1607089106.2647,9
1607089106.2667,9
1607089106.2687,14
1607089106.2708,36
1607089106.2728,60
1607089106.2749,60
1607089106.2769,48
1607089106.2788,40
1607089106.2808,31
1607089106.2829,19
1607089106.2848,16
1607089106.2867,19
1607089106.2888,19
1607089106.2909,19
1607089106.2929,21
1607089106.2949,24
1607089106.2968,16
1607089106.2988,2
1607089106.3008,31
1607089106.3028,202
1607089106.3048,531
1607089106.3069,829
1607089106.3089,711
1607089106.3109,137
1607089106.3128,-216
1607089106.3148,-48
1607089106.3168,45
1607089106.3188,-81
1607089106.3208,-79
1607089106.3228,-14
1607089106.3251,-38
1607089106.3270,-52
1607089106.3288,-24
1607089106.3308,-21
1607089106.3328,-28
1607089106.3348,-24
1607089106.3368,-24
1607089106.3388,-19
1607089106.3409,-7
1607089106.3434,0
1607089106.3448,2
1607089106.3468,7
1607089106.3489,12
1607089106.3508,14
1607089106.3528,19
1607089106.3548,31
1607089106.3568,38
1607089106.3589,43
1607089106.3610,52
1607089106.3628,69
1607089106.3648,81
1607089106.3669,91
1607089106.3688,105
1607089106.3710,125
1607089106.3728,146
1607089106.3749,158
1607089106.3771,165
1607089106.3788,170
1607089106.9178,165
1607089106.9201,146
1607089106.9264,108
1607089106.9276,62
1607089106.9299,16
1607089106.9355,-26
1607089106.9374,-57
1607089106.9394,-69
1607089106.9416,-79
1607089106.9442,-88
1607089106.9457,-91
1607089106.9475,-84
1607089106.9495,-74
1607089106.9517,-72
1607089106.9535,-67
1607089106.9555,-62
1607089106.9577,-57
1607089106.9601,-52
1607089106.9617,-45
1607089106.9635,-40
1607089106.9656,-38
1607089106.9675,-38
1607089106.9695,-33
1607089106.9717,-24
1607089106.9736,-16
1607089106.9756,-14
1607089106.9777,-12
1607089106.9796,-9
1607089106.9815,-7
1607089106.9835,-7
1607089106.9855,-7
1607089106.9875,-4
1607089106.9895,-4
1607089106.9916,-4
1607089106.9946,0
1607089106.9955,2
1607089106.9976,-2
1607089106.9996,0
1607089107.0016,4
1607089107.0035,7
1607089107.0055,12
1607089107.0077,14
1607089107.0110,9
1607089107.0132,0
1607089107.0146,0
1607089107.0165,7
1607089107.0185,14
1607089107.0205,14
1607089107.0225,12
1607089107.0246,14
1607089107.0276,19
1607089107.0286,16
1607089107.0307,14
1607089107.0326,14
1607089107.0347,14
1607089107.0366,14
1607089107.0385,21
1607089107.0415,28
1607089107.0427,28
1607089107.0459,28
1607089107.0484,26
1607089107.0496,31
1607089107.0520,33
1607089107.0536,28
1607089107.0556,24
1607089107.0654,21
1607089107.0680,24
1607089107.0687,26
1607089107.0706,26
1607089107.0727,31
1607089107.1261,33
1607089107.1468,28
1607089107.1487,28
1607089107.3623,36
1607089107.3628,40
1607089107.3721,33
1607089107.3742,24
1607089107.3761,21
1607089107.3780,21
1607089107.3805,21
1607089107.3822,21
1607089107.3841,33
1607089107.3862,55
1607089107.3881,55
1607089107.3901,48
1607089107.3920,48
1607089107.3940,31
1607089107.3962,14
1607089107.3980,21
1607089107.4009,26
1607089107.4020,21
1607089107.4040,21
1607089107.4060,16
1607089107.4080,12
1607089107.4100,9
1607089107.4120,-12
1607089107.4140,-36
1607089107.4160,36
1607089107.4180,293
1607089107.4200,666
1607089107.4221,872
1607089107.4241,541
1607089107.4260,-84
1607089107.4280,-230
1607089107.4309,4
1607089107.4380,7
1607089107.4401,-88
1607089107.4421,-43
1607089107.4440,-16
1607089107.4460,-48
1607089107.4481,-40
1607089107.4501,-26
1607089107.4520,-43
1607089107.4540,-36
1607089107.4560,-12
1607089107.4581,-9
1607089107.4601,-14
1607089107.4620,-4
1607089107.4641,-2
1607089107.4660,0
1607089107.4680,14
1607089107.4702,26
1607089107.4721,21
1607089107.4742,26
1607089107.4761,40
1607089107.4783,48
1607089107.4803,50
1607089107.4821,62
1607089107.4841,76
1607089107.4861,86
1607089107.4881,98
1607089107.4907,115
1607089107.4921,137
1607089107.4941,156
1607089107.4961,163
1607089107.4981,168
1607089107.5002,173
1607089107.5021,163
1607089107.5041,127
1607089107.5061,74
1607089107.5081,28
1607089107.5102,-7
1607089107.5121,-45
1607089107.5141,-72
1607089107.5161,-79
1607089107.5181,-81
1607089108.0625,-88
1607089108.0632,-88
1607089108.0653,-81
1607089108.0673,-81
1607089108.0711,-81
1607089108.0789,-72
1607089108.0800,-64
1607089108.0835,-67
1607089108.0851,-72
1607089108.0871,-64
1607089108.0890,-55
1607089108.0910,-48
1607089108.0944,-40
1607089108.0961,-33
1607089108.0981,-33
1607089108.1000,-31
1607089108.1021,-31
1607089108.1040,-28
1607089108.1060,-24
1607089108.1080,-21
1607089108.1101,-19
1607089108.1120,-12
1607089108.1140,-12
1607089108.1160,-12
1607089108.1180,-9
1607089108.1200,-7
1607089108.1220,-7
1607089108.1241,-4
1607089108.1261,-4
1607089108.1280,-9
1607089108.1305,-12
1607089108.1321,-12
1607089108.1341,-14
1607089108.1361,-7
1607089108.1381,4
1607089108.1403,2
1607089108.1421,0
1607089108.1441,2
1607089108.1461,2
1607089108.1481,-2
1607089108.1502,4
1607089108.1521,14
1607089108.1541,12
1607089108.1562,9
1607089108.1581,14
1607089108.1602,16
1607089108.1621,16
1607089108.1641,16
1607089108.1661,16
1607089108.1681,16
1607089108.1701,16
1607089108.1723,16
1607089108.1741,21
1607089108.1761,19
1607089108.1782,19
1607089108.1801,21
1607089108.1823,16
1607089108.1841,16
1607089108.2052,24
1607089108.2073,26
1607089108.2100,26
1607089108.2111,26
1607089108.2130,21
1607089108.2155,16
1607089108.2171,19
1607089108.2192,26
1607089108.2210,38
1607089108.2231,57
1607089108.2251,64
1607089108.2321,60
1607089108.2340,50
1607089108.2401,36
1607089108.2421,26
1607089108.4725,24
1607089108.4730,26
1607089108.4765,26
1607089108.4786,26
1607089108.4805,31
1607089108.4825,31
1607089108.4845,21
1607089108.4866,0
1607089108.4887,0
1607089108.4905,144
1607089108.4926,478
1607089108.4948,817
1607089108.5026,767
1607089108.5327,194
1607089108.5345,-250
1607089108.5365,-108
1607089108.5385,43
1607089108.5406,-81
1607089108.5425,-103
1607089108.5445,-31
1607089108.5466,-50
1607089108.5486,-72
1607089108.5505,-50
1607089108.5525,-45
1607089108.5546,-50
1607089108.5565,-40
1607089108.5585,-28
1607089108.5605,-24
1607089108.5626,-16
1607089108.5645,-12
1607089108.5786,-7
1607089108.5805,-9
1607089108.5897,-9
1607089108.6095,4
1607089108.6207,16
1607089108.6226,26
1607089108.6245,40
1607089108.6265,55
1607089108.6285,62
1607089108.6304,64
1607089108.6445,76
1607089108.6516,96
1607089108.6535,105
1607089108.6556,115
1607089108.6576,129
1607089108.6596,149
1607089108.6618,165
1607089108.6635,168
1607089108.6654,156
1607089108.6676,134
1607089108.6694,96
1607089108.6714,48
1607089108.6734,2
1607089108.6779,-31
1607089108.6807,-60
1607089108.6833,-76
1607089108.6846,-76
1607089108.6865,-79
1607089108.6885,-84
1607089108.6911,-81
1607089108.6926,-76
1607089108.6945,-76
1607089108.6965,-74
1607089108.6984,-69
1607089108.7016,-67
1607089108.7035,-60
1607089108.7054,-55
1607089108.7076,-52
1607089108.7097,-45
1607089108.7123,-40
1607089108.7135,-36
1607089108.7157,-28
1607089108.7175,-26
1607089109.0860,-21
1607089109.0867,-16
1607089109.0931,-14
1607089109.0948,-9
1607089109.0968,-9
1607089109.0987,-12
1607089109.1008,-16
1607089109.1028,-21
1607089109.1048,-19
1607089109.1068,-14
1607089109.1089,-9
1607089109.1108,-7
1607089109.1128,-4
1607089109.1149,-7
1607089109.1168,-14
1607089109.1188,-14
1607089109.1208,-9
1607089109.1228,-4
1607089109.1249,-4
1607089109.1268,0
1607089109.1288,2
1607089109.1308,0
1607089109.1328,-2
1607089109.1348,2
1607089109.1368,12
1607089109.1387,14
1607089109.1411,9
1607089109.1429,7
1607089109.1462,14
1607089109.1479,16
1607089109.1559,9
1607089109.1589,9
1607089109.1642,16
1607089109.1660,16
1607089109.1669,12
1607089109.1755,14
1607089109.1774,16
1607089109.2171,16
1607089109.2190,21
1607089109.2208,24
1607089109.2299,24
1607089109.2319,24
1607089109.2327,24
1607089109.2349,24
1607089109.2369,24
1607089109.2388,26
1607089109.2396,28
1607089109.2418,26
1607089109.2438,26
1607089109.2458,26
1607089109.2478,28
1607089109.2499,26
1607089109.2520,24
1607089109.2538,24
1607089109.2558,24
1607089109.2579,28
1607089109.2650,40
1607089109.2659,57
1607089109.2679,62
1607089109.2700,57
1607089109.2719,50
1607089109.2739,33
1607089109.2761,19
1607089109.2780,21
1607089109.2801,26
1607089109.2819,24
1607089109.2839,24
1607089109.2860,28
1607089109.2879,26
1607089109.2900,21
1607089109.2919,9
1607089109.2939,0
1607089109.2959,76
1607089109.5829,334
1607089109.5841,697
1607089109.5866,853
1607089109.5929,478
1607089109.5943,-98
1607089109.5962,-173
1607089109.5982,45
1607089109.6002,-7
1607089109.6022,-103
1607089109.6042,-40
1607089109.6062,-26
1607089109.6082,-74
1607089109.6102,-62
1607089109.6121,-38
1607089109.6142,-43
1607089109.6165,-38
1607089109.6182,-28
1607089109.6202,-26
1607089109.6222,-12
1607089109.6244,-4
1607089109.6262,-9
1607089109.6282,-4
1607089109.6302,9
1607089109.6322,12
1607089109.6343,14
1607089109.6362,26
1607089109.6382,33
1607089109.6402,36
1607089109.6422,48
1607089109.6442,62
1607089109.6462,74
1607089109.6483,86
1607089109.6503,103
1607089109.6523,113
1607089109.6543,127
1607089109.6563,141
1607089109.6589,151
1607089109.6603,158
1607089109.6623,158
1607089109.6643,144
1607089109.6663,113
1607089109.6683,72
1607089109.6703,24
1607089109.6723,-16
1607089109.6743,-40
1607089109.6763,-60
1607089109.6783,-76
1607089109.6803,-81
1607089109.6823,-79
1607089109.6843,-74
1607089109.6863,-72
1607089109.6883,-69
1607089109.6907,-72
1607089109.6923,-72
1607089109.6943,-67
1607089109.6963,-62
1607089109.6983,-57
1607089109.7003,-48
1607089109.7023,-45
1607089109.7043,-40
1607089109.7064,-31
1607089109.7083,-28
1607089109.7105,-26
1607089109.7348,-21
1607089109.7364,-19
1607089109.7383,-16
1607089109.7412,-9
1607089109.7424,-2
1607089109.7445,0
1607089109.7464,-2
1607089109.7484,-7
1607089109.7504,-9
1607089109.7524,-9
1607089110.1822,-9
1607089110.1831,-9
1607089110.1856,-4
1607089110.1882,-4
1607089110.1902,-12
1607089110.1923,-19
1607089110.1945,-19
1607089110.1961,-12
1607089110.1982,-7
1607089110.2002,-7
1607089110.2022,-4
1607089110.2042,-2
1607089110.2062,-4
1607089110.2083,-4
1607089110.2103,0
1607089110.2124,4
1607089110.2142,2
1607089110.2162,7
1607089110.2183,12
1607089110.2203,9
1607089110.2222,7
1607089110.2242,9
1607089110.2263,16
1607089110.2283,16
1607089110.2302,14
1607089110.2322,16
1607089110.2343,24
1607089110.2362,24
1607089110.2382,21
1607089110.2402,19
1607089110.2423,24
1607089110.2443,28
1607089110.2462,26
1607089110.2482,24
1607089110.2503,26
1607089110.2522,28
1607089110.2542,26
1607089110.2562,24
1607089110.2583,28
1607089110.2603,28
1607089110.2623,26
1607089110.2642,28
1607089110.2663,28
1607089110.2682,28
1607089110.2706,28
1607089110.2723,26
1607089110.2744,21
1607089110.2764,24
1607089110.2784,33
1607089110.2807,52
1607089110.2823,64
1607089110.2847,60
1607089110.2863,55
1607089110.2883,45
1607089110.2903,33
1607089110.2924,26
1607089110.2943,26
1607089110.2964,26
1607089110.2983,26
1607089110.3006,26
1607089110.3024,28
1607089110.3043,31
1607089110.3063,19
1607089110.3084,4
1607089110.3105,57
1607089110.3125,276
1607089110.3143,632
1607089110.3163,853
1607089110.3183,548
1607089110.3204,-76
1607089110.3223,-240
1607089110.3244,16
1607089110.3264,33
1607089110.7245,-88
1607089110.7273,-43
1607089110.7308,-7
1607089110.7325,-43
1607089110.7342,-28
1607089110.7362,-7
1607089110.7383,-19
1607089110.7415,-21
1607089110.7433,-9
1607089110.7452,-9
1607089110.7473,-14
1607089110.7492,-7
1607089110.7512,0
1607089110.7533,2
1607089110.7552,12
1607089110.7576,24
1607089110.7592,24
1607089110.7616,28
1607089110.7634,40
1607089110.7652,48
1607089110.7673,50
1607089110.7692,67
1607089110.7716,88
1607089110.7757,103
1607089110.7775,115
1607089110.7811,132
1607089110.7821,151
1607089110.7831,170
1607089110.7842,180
1607089110.7862,177
1607089110.7882,182
1607089110.7902,182
1607089110.7922,149
1607089110.7943,91
1607089110.7967,40
1607089110.7981,-7
1607089110.8003,-43
1607089110.8022,-64
1607089110.8041,-74
1607089110.8060,-79
1607089110.8082,-84
1607089110.8102,-86
1607089110.8122,-84
1607089110.8129,-81
1607089110.8141,-72
1607089110.8161,-69
1607089110.8181,-67
1607089110.8201,-62
1607089110.8221,-55
1607089110.8241,-52
1607089110.8261,-45
1607089110.8281,-38
1607089110.8302,-38
1607089110.8321,-33
1607089110.8341,-24
1607089110.8361,-21
1607089110.8381,-21
1607089110.8402,-24
1607089110.8421,-26
1607089110.8430,-24
1607089110.8441,-21
1607089110.8461,-24
1607089110.8481,-19
1607089110.8501,-14
1607089110.8521,-16
1607089110.8541,-19
1607089110.8561,-16
1607089110.8581,-19
1607089110.8601,-19
1607089110.8622,-16
1607089110.8641,-16
1607089110.8661,-14
1607089110.8681,-12
1607089111.2948,-9
1607089111.2978,-9
1607089111.3002,-7
1607089111.3028,-2
1607089111.3048,-4
1607089111.3072,-4
1607089111.3088,-4
1607089111.3107,-14
1607089111.3128,-19
1607089111.3140,-12
1607089111.3157,-9
1607089111.3177,-9
1607089111.3198,-7
1607089111.3223,-4
1607089111.3256,-2
1607089111.3280,-2
1607089111.3302,-2
1607089111.3318,0
1607089111.3337,2
1607089111.3358,0
1607089111.3377,-2
1607089111.3399,-2
1607089111.3417,-2
1607089111.3437,-4
1607089111.3457,-2
1607089111.3470,7
1607089111.3487,24
1607089111.3507,38
1607089111.3527,36
1607089111.3547,28
1607089111.3568,14
1607089111.3587,4
1607089111.3607,7
1607089111.3627,7
1607089111.3647,4
1607089111.3667,4
1607089111.3687,7
1607089111.3710,12
1607089111.3747,12
1607089111.3780,2
1607089111.3808,-14
1607089111.3821,33
1607089111.3837,252
1607089111.3858,620
1607089111.3878,877
1607089111.3905,618
1607089111.3934,-33
1607089111.3957,-274
1607089111.3980,-24
1607089111.4002,28
1607089111.4017,-101
1607089111.4040,-72
1607089111.4060,-21
1607089111.4077,-50
1607089111.4097,-48
1607089111.4117,-26
1607089111.4137,-31
1607089111.4150,-31
1607089111.4167,-19
1607089111.4187,-12
1607089111.4207,-7
1607089111.4228,-4
1607089111.4247,-2
1607089111.4267,7
1607089111.4287,14
1607089111.4307,14
1607089111.4327,21
1607089111.4347,36
1607089111.4368,36
1607089111.4389,38
1607089111.4424,50
1607089111.4448,64
1607089111.4470,74
1607089111.8332,88
1607089111.8445,110
1607089111.8471,127
1607089111.8497,141
1607089111.8516,156
1607089111.8536,177
1607089111.8596,185
1607089111.8618,177
1607089111.8676,151
1607089111.8687,113
1607089111.8705,67
1607089111.8726,16
1607089111.8746,-26
1607089111.8766,-57
1607089111.8775,-74
1607089111.8786,-86
1607089111.8807,-93
1607089111.8826,-91
1607089111.8846,-96
1607089111.8866,-103
1607089111.8887,-103
1607089111.8908,-98
1607089111.8926,-93
1607089111.9190,-88
1607089111.9950,-86
1607089111.9956,-81
1607089112.0023,-72
1607089112.0042,-64
1607089112.0062,-64
1607089112.0084,-60
1607089112.0088,-55
1607089112.0104,-52
1607089112.0122,-43
1607089112.0142,-36
1607089112.0162,-36
1607089112.0182,-36
1607089112.0202,-31
1607089112.0222,-26
1607089112.0263,-28
1607089112.0273,-28
1607089112.0293,-24
1607089112.0353,-21
1607089112.0371,-24
1607089112.0393,-26
1607089112.0447,-28
1607089112.0451,-24
1607089112.0473,-24
1607089112.0492,-21
1607089112.0512,-19
1607089112.0534,-16
1607089112.0552,-16
1607089112.0585,-16
1607089112.0602,-14
1607089112.0622,-9
1607089112.0642,-4
1607089112.0662,-2
1607089112.0682,-2
1607089112.0702,-4
1607089112.0780,-2
1607089112.0794,-2
1607089112.0812,0
1607089112.0818,4
1607089112.0832,7
1607089112.0852,9
1607089112.0872,12
1607089112.0892,12
1607089112.0913,7
1607089112.0934,4
1607089112.0952,4
1607089112.0973,2
1607089112.0992,4
1607089112.1012,2
1607089112.1032,9
1607089112.4021,36
1607089112.4033,57
1607089112.4056,52
1607089112.4084,38
1607089112.4106,31
1607089112.4123,14
1607089112.4144,2
1607089112.4166,2
1607089112.4183,2
1607089112.4205,-2
1607089112.4223,-2
1607089112.4243,2
1607089112.4264,4
1607089112.4286,-7
1607089112.4304,-16
1607089112.4323,74
1607089112.4345,355
1607089112.4363,723
1607089112.4384,863
1607089112.4409,442
1607089112.4423,-168
1607089112.4443,-216
1607089112.4463,31
1607089112.5013,-14
1607089112.5028,-105
1607089112.5085,-38
1607089112.5105,-21
1607089112.5125,-52
1607089112.5185,-36
1607089112.5245,-19
1607089112.5329,-28
1607089112.5340,-21
1607089112.5355,-7
1607089112.5362,-4
1607089112.5377,-2
1607089112.5396,2
1607089112.5416,0
1607089112.5436,2
1607089112.5456,12
1607089112.5476,16
1607089112.5495,16
1607089112.5516,28
1607089112.5536,43
1607089112.5556,50
1607089112.5576,52
1607089112.5583,62
1607089112.5597,81
1607089112.5616,93
1607089112.5647,108
1607089112.5666,129
1607089112.5680,153
1607089112.5696,163
1607089112.5726,170
1607089112.5746,177
1607089112.5760,170
1607089112.5775,149
1607089112.5795,113
1607089112.5815,62
1607089112.5837,12
1607089112.5855,-26
1607089112.5875,-50
1607089112.5897,-67
1607089112.5916,-76
1607089112.5936,-81
1607089112.5956,-84
1607089112.5975,-81
1607089112.5997,-76
1607089112.6016,-74
1607089112.6036,-76
1607089112.6056,-72
1607089112.6076,-62
1607089112.6097,-60
1607089112.6116,-60
1607089112.9441,-57
1607089112.9468,-50
1607089112.9494,-50
1607089112.9521,-50
1607089112.9544,-43
1607089112.9576,-38
1607089112.9607,-43
1607089112.9619,-48
1607089112.9638,-43
1607089112.9658,-38
1607089112.9679,-38
1607089112.9700,-40
1607089112.9726,-40
1607089112.9749,-33
1607089112.9771,-31
1607089112.9792,-31
1607089112.9811,-31
1607089112.9828,-31
1607089112.9848,-28
1607089112.9868,-24
1607089112.9889,-21
1607089112.9908,-21
1607089112.9954,-19
1607089112.9994,-16
1607089113.0008,-14
1607089113.0028,-14
1607089113.0048,-12
1607089113.0079,-14
1607089113.0098,-19
1607089113.0119,-19
1607089113.0138,-14
1607089113.0158,-14
1607089113.0178,-12
1607089113.0200,-7
1607089113.0219,-9
1607089113.0238,-9
1607089113.0260,-9
1607089113.0278,-9
1607089113.0298,-9
1607089113.0318,-4
1607089113.0338,9
1607089113.0357,33
1607089113.0389,43
1607089113.0407,43
1607089113.0427,28
1607089113.0447,12
1607089113.0467,4
1607089113.0487,7
1607089113.0508,7
1607089113.0527,9
1607089113.0547,12
1607089113.0567,7
1607089113.0587,9
1607089113.0608,12
1607089113.0628,-4
1607089113.0648,-9
1607089113.0668,103
1607089113.0688,399
1607089113.0708,764
1607089113.0729,839
1607089113.0748,355
1607089113.0768,-192
1607089113.0788,-163
1607089113.0809,43
1607089113.0828,-40
1607089113.0848,-103
1607089113.0869,-31
1607089113.0888,-28
1607089113.0908,-55
1607089113.0928,-31
1607089113.0948,-21
1607089113.0968,-31
1607089113.0988,-19
1607089113.5434,-7
1607089113.5460,-9
1607089113.5487,-7
1607089113.5513,-4
1607089113.5536,-9
1607089113.5557,-2
1607089113.5583,12
1607089113.5605,14
1607089113.5620,14
1607089113.5640,24
1607089113.5660,36
1607089113.5680,48
1607089113.5702,57
1607089113.5724,69
1607089113.5752,81
1607089113.5776,93
1607089113.5798,108
1607089113.5816,127
1607089113.5831,144
1607089113.5850,158
1607089113.5871,165
1607089113.5890,161
1607089113.5910,146
1607089113.5930,122
1607089113.5950,81
1607089113.5971,38
1607089113.5990,0
1607089113.6010,-33
1607089113.6030,-62
1607089113.6050,-74
1607089113.6072,-76
1607089113.6090,-79
1607089113.6113,-79
1607089113.6135,-72
1607089113.6156,-69
1607089113.6191,-72
1607089113.6208,-64
1607089113.6221,-55
1607089113.6241,-52
1607089113.6260,-52
1607089113.6280,-48
1607089113.6303,-43
1607089113.6325,-36
1607089113.6347,-31
1607089113.6368,-28
1607089113.6389,-31
1607089113.6411,-28
1607089113.6430,-21
1607089113.6450,-14
1607089113.6470,-12
1607089113.6491,-14
1607089113.6510,-14
1607089113.6530,-12
1607089113.6550,-14
1607089113.6572,-16
1607089113.6590,-14
1607089113.6612,-12
1607089113.6634,-14
1607089113.6659,-14
1607089113.6681,-14
1607089113.6702,-9
1607089113.6720,-7
1607089113.6740,-4
1607089113.6760,-2
1607089113.6780,0
1607089113.6821,0
1607089113.6849,0
1607089113.6871,-2
1607089113.6900,0
1607089113.6915,-4
1607089113.6930,-7
1607089113.6950,-7
1607089113.6972,-4
1607089114.1151,-2
1607089114.1160,0
1607089114.1221,0
1607089114.1248,2
1607089114.1269,4
1607089114.1289,4
1607089114.1311,7
1607089114.1549,7
1607089114.1568,0
1607089114.1589,-7
1607089114.1612,-7
1607089114.1628,-2
1607089114.1647,0
1607089114.1667,-9
1607089114.1688,-19
1607089114.1708,-9
1607089114.1728,-4
1607089114.1748,-9
1607089114.1769,-4
1607089114.1788,2
1607089114.1807,-7
1607089114.1828,-14
1607089114.1887,-7
1607089114.1908,4
1607089114.1928,14
1607089114.1948,31
1607089114.1968,43
1607089114.1988,40
1607089114.2008,24
1607089114.2028,12
1607089114.2048,12
1607089114.2108,14
1607089114.2128,7
1607089114.2148,4
1607089114.2168,9
1607089114.2187,14
1607089114.2207,12
1607089114.2469,12
1607089114.2647,4
1607089114.2665,-9
1607089114.2678,21
1607089114.2698,214
1607089114.2720,565
1607089114.2764,841
1607089114.2777,661
1607089114.2797,62
1607089114.2819,-233
1607089114.2837,-36
1607089114.2857,33
1607089114.2877,-88
1607089114.2897,-69
1607089114.2917,-14
1607089114.2924,-48
1607089114.2937,-50
1607089114.2957,-16
1607089114.2976,-16
1607089114.2997,-28
1607089114.3017,-14
1607089114.3036,-4
1607089114.3056,-4
1607089114.3078,-2
1607089114.3100,4
1607089114.3116,12
1607089114.3136,14
1607089114.3156,19
1607089114.3177,31
1607089114.3197,38
1607089114.3216,38
1607089114.3223,48
1607089114.3241,55
1607089114.3257,62
1607089114.3276,76
1607089114.3297,91
1607089114.6530,103
1607089114.6538,115
1607089114.6583,134
1607089114.6604,149
1607089114.6622,158
1607089114.6642,161
1607089114.6651,156
1607089114.6673,141
1607089114.6692,117
1607089114.6712,79
1607089114.6732,24
1607089114.6754,-19
1607089114.6773,-40
1607089114.6792,-62
1607089114.6813,-81
1607089114.6832,-81
1607089114.6852,-76
1607089114.6872,-79
1607089114.6893,-81
1607089114.6917,-76
1607089114.6934,-72
1607089114.6956,-72
1607089114.6965,-64
1607089114.6983,-55
1607089114.7005,-52
1607089114.7023,-50
1607089114.7043,-45
1607089114.7063,-40
1607089114.7085,-33
1607089114.7106,-31
1607089114.7123,-31
1607089114.7143,-31
1607089114.7163,-24
1607089114.7183,-16
1607089114.7203,-19
1607089114.7223,-24
1607089114.7244,-24
1607089114.7266,-26
1607089114.7275,-28
1607089114.7293,-24
1607089114.7313,-19
1607089114.7333,-19
1607089114.7353,-24
1607089114.7373,-19
1607089114.7393,-9
1607089114.7445,-7
1607089114.7461,-7
1607089114.7474,-4
1607089114.7494,-4
1607089114.7560,-4
1607089114.7700,-4
1607089114.7708,-4
1607089114.7725,0
1607089114.7744,4
1607089114.7771,2
1607089114.7785,2
1607089114.7806,7
1607089114.7815,12
1607089114.7831,12
1607089114.7845,7
1607089114.7865,2
1607089114.7884,4
1607089114.7894,4
1607089114.7924,7
1607089114.7936,7
1607089114.7955,4
1607089114.7975,7
1607089114.7991,9
1607089114.8004,4
1607089114.8025,2
1607089114.8045,0
1607089114.8064,-7
1607089114.8091,-12
1607089115.2226,0
1607089115.2235,9
1607089115.2280,2
1607089115.2300,0
1607089115.2319,4
1607089115.2339,9
1607089115.2360,9
1607089115.2379,2
1607089115.2399,-2
1607089115.2419,2
1607089115.2428,4
1607089115.2439,4
1607089115.2459,0
1607089115.2479,2
1607089115.2499,4
1607089115.2519,4
1607089115.2539,4
1607089115.2560,9
1607089115.2579,9
1607089115.2609,24
1607089115.2619,48
1607089115.2642,55
1607089115.2659,48
1607089115.2680,38
1607089115.2698,28
1607089115.2879,19
1607089115.2898,16
1607089115.2919,16
1607089115.2986,16
1607089115.3038,19
1607089115.3224,19
1607089115.3346,14
1607089115.3371,16
1607089115.3451,14
1607089115.3480,-4
1607089115.3507,28
1607089115.3527,223
1607089115.3547,567
1607089115.3567,841
1607089115.3587,651
1607089115.3607,43
1607089115.3627,-242
1607089115.3647,-24
1607089115.3667,50
1607089115.3687,-76
1607089115.3707,-52
1607089115.3727,0
1607089115.3749,-31
1607089115.3767,-33
1607089115.3773,-9
1607089115.3788,-14
1607089115.3807,-14
1607089115.3827,7
1607089115.3847,12
1607089115.3867,2
1607089115.3887,9
1607089115.3907,21
1607089115.3927,28
1607089115.3947,31
1607089115.3967,33
1607089115.3987,38
1607089115.4007,40
1607089115.4027,52
1607089115.4047,60
1607089115.4067,57
1607089115.4073,67
1607089115.4087,79
1607089115.4107,86
1607089115.4127,105
1607089115.4147,127
1607089115.4167,144
1607089115.4187,158
1607089115.4234,170
1607089115.7631,177
1607089115.7644,187
1607089115.7668,182
1607089115.7685,153
1607089115.7704,108
1607089115.7724,57
1607089115.7745,14
1607089115.7760,-14
1607089115.7776,-45
1607089115.7795,-69
1607089115.7814,-74
1607089115.7834,-74
1607089115.7854,-74
1607089115.7874,-74
1607089115.7894,-74
1607089115.7915,-76
1607089115.7936,-72
1607089115.7954,-64
1607089115.7974,-64
1607089115.7994,-62
1607089115.8014,-55
1607089115.8035,-48
1607089115.8054,-48
1607089115.8062,-45
1607089115.8076,-36
1607089115.8098,-26
1607089115.8115,-26
1607089115.8134,-26
1607089115.8198,-26
1607089115.8216,-24
1607089115.8234,-26
1607089115.8254,-26
1607089115.8274,-24
1607089115.8294,-19
1607089115.8314,-14
1607089115.8334,-16
1607089115.8354,-21
1607089115.8363,-21
1607089115.8374,-16
1607089115.8394,-12
1607089115.8415,-16
1607089115.8435,-16
1607089115.8455,-16
1607089115.8475,-16
1607089115.8496,-16
1607089115.8515,-14
1607089115.8536,-12
1607089115.8555,-12
1607089115.8575,-12
1607089115.8596,-7
1607089115.8615,-9
1607089115.8635,-9
1607089115.8655,-9
1607089115.8667,-9
1607089115.8686,-2
1607089115.8705,2
1607089115.8725,-7
1607089115.8746,-12
1607089115.8765,-4
1607089115.8785,-2
1607089115.8805,-4
1607089115.8825,0
1607089115.8845,2
1607089115.8865,0
1607089115.8885,0
1607089115.8906,2
1607089115.8925,2
1607089115.8945,4
1607089115.8965,9
1607089115.8977,14
1607089115.8996,9
1607089115.9015,4
1607089115.9036,4
1607089116.3036,7
1607089116.3064,7
1607089116.3090,2
1607089116.3114,7
1607089116.3134,33
1607089116.3154,48
1607089116.3179,36
1607089116.3193,24
1607089116.3215,14
1607089116.3239,2
1607089116.3261,-2
1607089116.3283,2
1607089116.3305,4
1607089116.3324,2
1607089116.3344,2
1607089116.3364,9
1607089116.3384,12
1607089116.3405,4
1607089116.3424,-12
1607089116.3444,12
1607089116.3464,187
1607089116.3484,531
1607089116.3507,839
1607089116.3530,697
1607089116.3555,76
1607089116.3578,-276
1607089116.3600,-69
1607089116.3615,45
1607089116.3634,-81
1607089116.3654,-76
1607089116.3674,-9
1607089116.3694,-33
1607089116.3714,-48
1607089116.3734,-24
1607089116.3754,-21
1607089116.3774,-21
1607089116.3794,-12
1607089116.3814,-12
1607089116.3834,-12
1607089116.3846,-7
1607089116.3864,-4
1607089116.3884,-2
1607089116.3904,7
1607089116.3924,16
1607089116.3944,21
1607089116.3964,21
1607089116.3984,31
1607089116.4006,45
1607089116.4036,50
1607089116.4058,52
1607089116.4083,67
1607089116.4105,88
1607089116.4124,103
1607089116.4144,117
1607089116.4164,134
1607089116.4176,151
1607089116.4194,163
1607089116.4217,173
1607089116.4234,180
1607089116.4254,170
1607089116.4275,134
1607089116.4294,84
1607089116.4314,38
1607089116.4334,0
1607089116.4354,-36
1607089116.4374,-64
1607089116.4394,-76
1607089116.4421,-81
1607089116.4444,-86
1607089116.4466,-88
1607089116.4488,-86
1607089116.4508,-84
1607089116.4524,-81
1607089116.9021,-76
1607089116.9034,-76
1607089116.9058,-79
1607089116.9092,-76
1607089116.9104,-74
1607089116.9124,-67
1607089116.9147,-60
1607089116.9164,-57
1607089116.9184,-52
1607089116.9204,-50
1607089116.9224,-45
1607089116.9266,-43
1607089116.9286,-43
1607089116.9305,-43
1607089116.9317,-43
1607089116.9335,-43
1607089116.9355,-43
1607089116.9375,-40
1607089116.9396,-43
1607089116.9433,-40
1607089116.9448,-40
1607089116.9468,-38
1607089116.9484,-28
1607089116.9504,-24
1607089116.9524,-26
1607089116.9544,-24
1607089116.9564,-21
1607089116.9591,-24
1607089116.9606,-21
1607089116.9624,-12
1607089116.9633,-12
1607089116.9644,-14
1607089116.9664,-19
1607089116.9684,-19
1607089116.9704,-12
1607089116.9727,-9
1607089116.9782,-9
1607089116.9795,-2
1607089116.9814,-2
1607089116.9834,-9
1607089116.9854,-12
1607089116.9874,-12
1607089116.9894,-12
1607089116.9923,-9
1607089116.9935,-4
1607089116.9954,-7
1607089116.9963,-7
1607089116.9974,-4
1607089116.9995,0
1607089117.0014,2
1607089117.0034,0
1607089117.0054,4
1607089117.0091,4
1607089117.0107,0
1607089117.0125,2
1607089117.0144,9
1607089117.0164,9
1607089117.0184,4
1607089117.0204,2
1607089117.0224,2
1607089117.0269,4
1607089117.0284,2
1607089117.0293,-7
1607089117.0304,-7
1607089117.0324,-2
1607089117.0344,7
1607089117.0364,28
1607089117.0384,43
1607089117.0444,33
1607089117.0460,16
1607089117.0475,9
1607089117.0499,4
1607089117.0515,0
1607089117.4730,-2
1607089117.4771,4
1607089117.4795,7
1607089117.4821,7
1607089117.4841,9
1607089117.4860,9
1607089117.4881,0
1607089117.4900,-16
1607089117.4928,24
1607089117.4941,233
1607089117.4960,589
1607089117.4980,846
1607089117.5001,615
1607089117.5023,2
1607089117.5040,-245
1607089117.5060,-26
1607089117.5091,16
1607089117.5102,-103
1607089117.5125,-64
1607089117.5200,-24
1607089117.5210,-62
1607089117.5230,-50
1607089117.5269,-21
1607089117.5299,-33
1607089117.5312,-38
1607089117.5331,-14
1607089117.5351,-2
1607089117.5371,-7
1607089117.5391,-7
1607089117.5411,0
1607089117.5431,4
1607089117.5457,7
1607089117.5471,7
1607089117.5479,12
1607089117.5491,21
1607089117.5511,26
1607089117.5531,31
1607089117.5551,40
1607089117.5573,52
1607089117.5591,64
1607089117.5613,81
1607089117.5631,101
1607089117.5650,117
1607089117.5671,127
1607089117.5691,141
1607089117.5711,158
1607089117.5731,165
1607089117.5751,161
1607089117.5771,151
1607089117.5784,127
1607089117.5802,86
1607089117.5821,33
1607089117.5841,-7
1607089117.5861,-38
1607089117.5881,-60
1607089117.5902,-74
1607089117.5932,-86
1607089117.5978,-88
1607089117.5996,-88
1607089117.6011,-91
1607089117.6031,-88
1607089117.6051,-81
1607089117.6071,-74
1607089117.6094,-72
1607089117.6117,-67
1607089117.6139,-64
1607089117.6152,-60
1607089117.6171,-55
1607089117.6191,-48
1607089117.6211,-40
1607089117.6231,-40
1607089117.6299,-40
1607089117.6311,-36
1607089118.0135,-31
1607089118.0147,-26
1607089118.0166,-26
1607089118.0188,-26
1607089118.0206,-24
1607089118.0226,-21
1607089118.0255,-21
1607089118.0267,-19
1607089118.0289,-19
1607089118.0306,-26
1607089118.0326,-33
1607089118.0346,-28
1607089118.0366,-21
1607089118.0386,-24
1607089118.0426,-24
1607089118.0436,-21
1607089118.0456,-24
1607089118.0476,-19
1607089118.0497,-16
1607089118.0516,-19
1607089118.0536,-16
1607089118.0556,-9
1607089118.0593,-7
1607089118.0607,-7
1607089118.0626,-7
1607089118.0646,-7
1607089118.0666,-7
1607089118.0686,-2
1607089118.0707,-2
1607089118.0727,-7
1607089118.0765,-7
1607089118.0780,-2
1607089118.0798,-2
1607089118.0816,-4
1607089118.0836,2
1607089118.0856,7
1607089118.0877,4
1607089118.0896,0
1607089118.0924,0
1607089118.0937,2
1607089118.0956,12
1607089118.0976,14
1607089118.1000,7
1607089118.1016,7
1607089118.1036,9
1607089118.1056,9
1607089118.1091,7
1607089118.1102,9
1607089118.1118,9
1607089118.1136,7
1607089118.1156,9
1607089118.1176,12
1607089118.1197,9
1607089118.1216,9
1607089118.1257,9
1607089118.1267,7
1607089118.1287,12
1607089118.1306,14
1607089118.1326,9
1607089118.1346,7
1607089118.1366,7
1607089118.1386,7
1607089118.1425,9
1607089118.1436,24
1607089118.1447,43
1607089118.1467,50
1607089118.1488,40
1607089118.1507,24
1607089118.1527,9
1607089118.1547,7
1607089118.1567,12
1607089118.1609,12
1607089118.1628,7
1607089118.5832,9
1607089118.5846,9
1607089118.5871,9
1607089118.5897,7
1607089118.5918,-4
1607089118.5943,-14
1607089118.5967,74
1607089118.5987,343
1607089118.6006,702
1607089118.6026,808
1607089118.6046,377
1607089118.6066,-173
1607089118.6089,-187
1607089118.6156,14
1607089118.6167,-52
1607089118.6187,-122
1607089118.6207,-55
1607089118.6227,-50
1607089118.6279,-79
1607089118.6297,-64
1607089118.6327,-52
1607089118.6337,-57
1607089118.6356,-50
1607089118.6366,-38
1607089118.6387,-31
1607089118.6440,-26
1607089118.6463,-24
1607089118.6477,-16
1607089118.6497,-9
1607089118.6517,-4
1607089118.6537,4
1607089118.6557,12
1607089118.6592,19
1607089118.6610,26
1607089118.6627,36
1607089118.6647,43
1607089118.6676,50
1607089118.6720,57
1607089118.6727,72
1607089118.6737,88
1607089118.6778,108
1607089118.6798,122
1607089118.6817,134
1607089118.6839,146
1607089118.6857,151
1607089118.6877,151
1607089118.6897,137
1607089118.6928,105
1607089118.6939,62
1607089118.6957,16
1607089118.6977,-21
1607089118.6997,-45
1607089118.7017,-62
1607089118.7038,-79
1607089118.7049,-86
1607089118.7067,-86
1607089118.7093,-84
1607089118.7108,-79
1607089118.7127,-76
1607089118.7147,-72
1607089118.7167,-69
1607089118.7187,-69
1607089118.7207,-64
1607089118.7227,-52
1607089118.7257,-45
1607089118.7267,-48
1607089118.7287,-45
1607089118.7307,-38
1607089118.7327,-31
1607089118.7335,-33
1607089118.7346,-31
1607089118.7370,-24
1607089118.7388,-24
1607089119.1228,-24
1607089119.1268,-21
1607089119.1294,-19
1607089119.1311,-16
1607089119.1329,-19
1607089119.1349,-19
1607089119.1371,-14
1607089119.1389,-14
1607089119.1436,-19
1607089119.1455,-21
1607089119.1471,-21
1607089119.1489,-26
1607089119.1510,-26
1607089119.1529,-21
1607089119.1541,-21
1607089119.1559,-19
1607089119.1600,-14
1607089119.1620,-7
1607089119.1639,-4
1607089119.1660,-2
1607089119.1679,-2
1607089119.1699,-2
1607089119.1719,-2
1607089119.1762,2
1607089119.1781,7
1607089119.1800,9
1607089119.1819,7
1607089119.1839,4
1607089119.1859,0
1607089119.1879,2
1607089119.1891,9
1607089119.1931,9
1607089119.1954,7
1607089119.1970,12
1607089119.1989,9
1607089119.2009,4
1607089119.2029,12
1607089119.2049,21
1607089119.2069,19
1607089119.2106,14
1607089119.2120,14
1607089119.2139,14
1607089119.2159,16
1607089119.2180,19
1607089119.2200,19
1607089119.2219,19
1607089119.2231,19
1607089119.2267,21
1607089119.2281,21
1607089119.2305,19
1607089119.2320,24
1607089119.2339,26
1607089119.2359,16
1607089119.2379,7
1607089119.2400,7
1607089119.2441,9
1607089119.2461,31
1607089119.2478,57
1607089119.2498,55
1607089119.2518,43
1607089119.2538,38
1607089119.2559,24
1607089119.2566,12
1607089119.2593,4
1607089119.2610,4
1607089119.2693,9
1607089119.2709,9
1607089119.2729,7
1607089119.2762,14
1607089119.2788,14
1607089119.2808,-4
1607089119.2819,-2
1607089119.2839,132
1607089119.6960,442
1607089119.6973,788
1607089119.6998,795
1607089119.7014,247
1607089119.7034,-269
1607089119.7047,-170
1607089119.7064,28
1607089119.7105,-72
1607089119.7126,-115
1607089119.7144,-40
1607089119.7164,-50
1607089119.7184,-74
1607089119.7204,-45
1607089119.7224,-36
1607089119.7265,-43
1607089119.7289,-31
1607089119.7304,-21
1607089119.7324,-19
1607089119.7344,-16
1607089119.7364,-14
1607089119.7384,-12
1607089119.7396,-7
1607089119.7432,2
1607089119.7446,9
1607089119.7464,12
1607089119.7484,21
1607089119.7505,36
1607089119.7528,45
1607089119.7544,48
1607089119.7564,57
1607089119.7606,72
1607089119.7625,91
1607089119.7644,108
1607089119.7664,122
1607089119.7684,137
1607089119.7704,151
1607089119.7724,161
1607089119.7736,173
1607089119.7776,168
1607089119.7797,139
1607089119.7814,96
1607089119.7835,50
1607089119.7854,7
1607089119.7874,-33
1607089119.7894,-62
1607089119.7932,-84
1607089119.7945,-96
1607089119.7967,-96
1607089119.7984,-93
1607089119.8004,-96
1607089119.8024,-101
1607089119.8044,-96
1607089119.8064,-88
1607089119.8103,-86
1607089119.8117,-79
1607089119.8134,-72
1607089119.8154,-64
1607089119.8174,-60
1607089119.8195,-55
1607089119.8215,-52
1607089119.8234,-45
1607089119.8271,-40
1607089119.8285,-38
1607089119.8304,-36
1607089119.8325,-31
1607089119.8344,-28
1607089119.8364,-26
1607089119.8384,-24
1607089119.8405,-21
1607089119.8442,-28
1607089119.8460,-36
1607089119.8475,-33
1607089119.8496,-26
1607089120.2924,-21
1607089120.2936,-19
1607089120.2960,-24
1607089120.2977,-28
1607089120.2997,-21
1607089120.3021,-14
1607089120.3037,-26
1607089120.3058,-31
1607089120.3089,-21
1607089120.3140,-16
1607089120.3157,-19
1607089120.3170,-19
1607089120.3188,-12
1607089120.3208,-9
1607089120.3228,-19
1607089120.3258,-21
1607089120.3308,-16
1607089120.3325,-16
1607089120.3338,-14
1607089120.3358,-7
1607089120.3378,-9
1607089120.3398,-7
1607089120.3429,-2
1607089120.3474,-2
1607089120.3488,0
1607089120.3499,2
1607089120.3517,2
1607089120.3538,4
1607089120.3557,9
1607089120.3594,7
1607089120.3624,7
1607089120.3646,12
1607089120.3662,14
1607089120.3678,7
1607089120.3698,9
1607089120.3718,12
1607089120.3738,9
1607089120.3768,4
1607089120.3813,4
1607089120.3831,9
1607089120.3848,21
1607089120.3860,38
1607089120.3878,48
1607089120.3899,40
1607089120.4013,28
1607089120.4028,21
1607089120.4048,16
1607089120.4068,9
1607089120.4100,7
1607089120.4120,12
1607089120.4138,12
1607089120.4158,9
1607089120.4178,12
1607089120.4198,14
1607089120.4218,2
1607089120.4238,-9
1607089120.4271,57
1607089120.4282,298
1607089120.4298,668
1607089120.4318,877
1607089120.4338,531
1607089120.4358,-105
1607089120.4378,-238
1607089120.4398,7
1607089120.4428,-2
1607089120.4439,-110
1607089120.4458,-52
1607089120.4478,-24
1607089120.4499,-64
1607089120.4520,-57
1607089120.4539,-28
1607089120.4559,-26
1607089120.4600,-26
1607089120.8330,-19
1607089120.8346,-16
1607089120.8371,-16
1607089120.8398,-14
1607089120.8434,-4
1607089120.8448,0
1607089120.8466,7
1607089120.8486,12
1607089120.8506,14
1607089120.8526,19
1607089120.8546,26
1607089120.8566,36
1607089120.8593,40
1607089120.8606,50
1607089120.8627,62
1607089120.8639,72
1607089120.8658,86
1607089120.8677,103
1607089120.8699,120
1607089120.8717,137
1607089120.8737,149
1607089120.8774,153
1607089120.8788,153
1607089120.8806,141
1607089120.8826,108
1607089120.8846,62
1607089120.8866,16
1607089120.8886,-21
1607089120.8923,-50
1607089120.8939,-72
1607089120.8956,-86
1607089120.8964,-93
1607089120.8976,-96
1607089120.8997,-93
1607089120.9020,-96
1607089120.9036,-98
1607089120.9056,-91
1607089120.9092,-84
1607089120.9107,-86
1607089120.9126,-81
1607089120.9146,-67
1607089120.9167,-55
1607089120.9186,-52
1607089120.9206,-52
1607089120.9226,-50
1607089120.9257,-48
1607089120.9277,-43
1607089120.9290,-33
1607089120.9307,-28
1607089120.9327,-28
1607089120.9347,-31
1607089120.9367,-28
1607089120.9387,-24
1607089120.9433,-19
1607089120.9449,-19
1607089120.9466,-24
1607089120.9486,-26
1607089120.9506,-24
1607089120.9528,-24
1607089120.9546,-24
1607089120.9566,-16
1607089120.9587,-16
1607089120.9607,-16
1607089120.9619,-16
1607089120.9636,-12
1607089120.9657,-12
1607089120.9676,-12
1607089120.9696,-12
1607089120.9719,-7
1607089120.9736,-9
1607089120.9764,-9
1607089120.9777,-4
1607089120.9797,0
1607089121.4033,0
1607089121.4060,-4
1607089121.4087,-2
1607089121.4110,2
1607089121.4122,4
1607089121.4140,2
1607089121.4160,2
1607089121.4180,4
1607089121.4202,-2
1607089121.4224,-9
1607089121.4248,-4
1607089121.4270,-2
1607089121.4297,-7
1607089121.4313,-7
1607089121.4330,-4
1607089121.4350,-2
1607089121.4370,0
1607089121.4390,0
1607089121.4410,2
1607089121.4430,4
1607089121.4442,7
1607089121.4460,9
1607089121.4480,7
1607089121.4501,4
1607089121.4520,9
1607089121.4540,9
1607089121.4560,4
1607089121.4580,4
1607089121.4600,2
1607089121.4620,-2
1607089121.4640,-2
1607089121.4660,-2
1607089121.4681,0
1607089121.4702,19
1607089121.4724,40
1607089121.4747,45
1607089121.4770,33
1607089121.4792,24
1607089121.4810,16
1607089121.4830,12
1607089121.4850,7
1607089121.4871,2
1607089121.4890,7
1607089121.4913,7
1607089121.4934,7
1607089121.4955,14
1607089121.4976,16
1607089121.4996,-4
1607089121.5011,-24
1607089121.5030,50
1607089121.5050,307
1607089121.5070,670
1607089121.5083,851
1607089121.5100,509
1607089121.5120,-91
1607089121.5141,-216
1607089121.5160,4
1607089121.5180,-19
1607089121.5203,-120
1607089121.5225,-62
1607089121.5249,-38
1607089121.5270,-72
1607089121.5292,-57
1607089121.5313,-38
1607089121.5330,-48
1607089121.5350,-40
1607089121.5370,-28
1607089121.5390,-28
1607089121.5402,-21
1607089121.5420,-9
1607089121.5440,-4
1607089121.5460,-2
1607089121.5480,2
1607089121.9715,9
1607089121.9721,14
1607089121.9746,19
1607089121.9764,24
1607089121.9781,31
1607089121.9802,38
1607089121.9821,48
1607089121.9841,62
1607089121.9861,79
1607089121.9881,84
1607089121.9902,93
1607089121.9911,113
1607089121.9923,127
1607089121.9944,137
1607089121.9963,144
1607089121.9981,144
1607089122.0002,129
1607089122.0021,96
1607089122.0041,57
1607089122.0061,14
1607089122.0083,-26
1607089122.0103,-52
1607089122.0123,-69
1607089122.0142,-84
1607089122.0162,-91
1607089122.0182,-96
1607089122.0203,-93
1607089122.0209,-88
1607089122.0222,-86
1607089122.0245,-86
1607089122.0264,-79
1607089122.0286,-72
1607089122.0303,-67
1607089122.0322,-64
1607089122.0342,-57
1607089122.0362,-52
1607089122.0382,-50
1607089122.0402,-45
1607089122.0423,-36
1607089122.0446,-33
1607089122.0464,-36
1607089122.0484,-36
1607089122.0502,-31
1607089122.0509,-26
1607089122.0522,-24
1607089122.0542,-21
1607089122.0562,-21
1607089122.0583,-21
1607089122.0603,-24
1607089122.0623,-26
1607089122.0642,-19
1607089122.0662,-16
1607089122.0682,-16
1607089122.0703,-14
1607089122.0722,-14
1607089122.0744,-12
1607089122.0762,-12
1607089122.0782,-4
1607089122.0802,-2
1607089122.0814,-2
1607089122.0832,-4
1607089122.0852,-4
1607089122.0872,-2
1607089122.0892,0
1607089122.0915,2
1607089122.0932,2
1607089122.0952,2
1607089122.0974,7
1607089122.0992,7
1607089122.1012,4
1607089122.1032,12
1607089122.1052,14
1607089122.1072,12
1607089122.4822,12
1607089122.4827,14
1607089122.4841,14
1607089122.4861,12
1607089122.4877,9
1607089122.4893,9
1607089122.4923,12
1607089122.4942,16
1607089122.4950,12
1607089122.4972,9
1607089122.4991,4
1607089122.5011,-2
1607089122.5031,-2
1607089122.5051,2
1607089122.5071,2
1607089122.5078,2
1607089122.5092,4
1607089122.5111,4
1607089122.5131,2
1607089122.5153,0
1607089122.5171,2
1607089122.5191,9
1607089122.5211,9
1607089122.5232,4
1607089122.5251,7
1607089122.5271,7
1607089122.5292,4
1607089122.5311,9
1607089122.5331,14
1607089122.5351,7
1607089122.5371,2
1607089122.5378,4
1607089122.5392,16
1607089122.5411,33
1607089122.5431,40
1607089122.5451,38
1607089122.5472,31
1607089122.5492,16
1607089122.5511,7
1607089122.5531,2
1607089122.5551,-2
1607089122.5571,0
1607089122.5592,2
1607089122.5611,2
1607089122.5631,9
1607089122.5651,14
1607089122.5671,0
1607089122.5679,-19
1607089122.5692,26
1607089122.5711,233
1607089122.5731,586
1607089122.5751,844
1607089122.5771,620
1607089122.5792,9
1607089122.5811,-240
1607089122.5831,-26
1607089122.5851,16
1607089122.5871,-105
1607089122.5893,-74
1607089122.5912,-26
1607089122.5932,-60
1607089122.5961,-57
1607089122.6052,-31
1607089122.6064,-33
1607089122.6083,-33
1607089122.6102,-26
1607089122.6122,-21
1607089122.6142,-14
1607089122.6162,-7
1607089122.6182,-2
1607089122.6206,0
1607089122.6222,7
1607089122.6242,9
1607089123.0535,9
1607089123.0559,12
1607089123.0586,24
1607089123.0610,31
1607089123.0622,24
1607089123.0651,26
1607089123.0672,45
1607089123.0690,64
1607089123.0710,79
1607089123.0730,96
1607089123.0750,108
1607089123.0770,125
1607089123.0791,144
1607089123.0810,156
1607089123.0830,156
1607089123.0850,144
1607089123.0870,115
1607089123.0890,76
1607089123.0916,36
1607089123.0938,-7
1607089123.0959,-40
1607089123.0980,-62
1607089123.1000,-76
1607089123.1020,-86
1607089123.1040,-86
1607089123.1060,-86
1607089123.1080,-91
1607089123.1100,-93
1607089123.1120,-88
1607089123.1140,-84
1607089123.1160,-84
1607089123.1180,-84
1607089123.1200,-76
1607089123.1220,-67
1607089123.1242,-57
1607089123.1260,-52
1607089123.1272,-50
1607089123.1290,-45
1607089123.1311,-40
1607089123.1330,-43
1607089123.1350,-38
1607089123.1370,-31
1607089123.1390,-28
1607089123.1409,-26
1607089123.1430,-21
1607089123.1450,-19
1607089123.1470,-21
1607089123.1490,-19
1607089123.1514,-16
1607089123.1530,-16
1607089123.1550,-19
1607089123.1570,-16
1607089123.1584,-9
1607089123.1600,-9
1607089123.1625,-9
1607089123.1641,-7
1607089123.1660,-2
1607089123.1680,0
1607089123.1701,-4
1607089123.1720,-4
1607089123.1741,0
1607089123.1760,2
1607089123.1780,0
1607089123.1802,0
1607089123.1823,4
1607089123.1845,7
1607089123.1865,4
1607089123.1890,0
1607089123.1909,2
1607089123.1921,12
1607089123.1940,9
1607089123.1960,4
1607089123.1980,7
1607089123.6538,9
1607089123.6569,12
1607089123.6596,12
1607089123.6620,9
1607089123.6639,9
1607089123.6658,7
1607089123.6680,0
1607089123.6701,4
1607089123.6727,7
1607089123.6760,2
1607089123.6783,2
1607089123.6801,9
1607089123.6819,12
1607089123.6839,9
1607089123.6859,7
1607089123.6878,7
1607089123.6901,12
1607089123.6929,16
1607089123.6953,14
1607089123.6977,9
1607089123.7000,4
1607089123.7019,0
1607089123.7040,-2
1607089123.7063,-7
1607089123.7078,-2
1607089123.7102,19
1607089123.7131,40
1607089123.7159,40
1607089123.7181,40
1607089123.7204,38
1607089123.7219,21
1607089123.7240,7
1607089123.7258,9
1607089123.7279,12
1607089123.7299,14
1607089123.7319,14
1607089123.7339,12
1607089123.7359,14
1607089123.7379,12
1607089123.7402,-4
1607089123.7427,-2
1607089123.7450,120
1607089123.7472,420
1607089123.7494,776
1607089123.7512,832
1607089123.7529,319
1607089123.7549,-230
1607089123.7569,-168
1607089123.7589,55
1607089123.7610,-36
1607089123.7629,-98
1607089123.7649,-26
1607089123.7669,-28
1607089123.7689,-57
1607089123.7709,-33
1607089123.7729,-26
1607089123.7749,-36
1607089123.7769,-24
1607089123.7781,-12
1607089123.7801,-12
1607089123.7825,-7
1607089123.7847,2
1607089123.7869,4
1607089123.7894,4
1607089123.7911,9
1607089123.7929,16
1607089123.7948,21
1607089123.7969,26
1607089123.7989,31
1607089123.8009,38
1607089123.8029,48
1607089123.8049,60
1607089123.8069,74
1607089124.1937,93
1607089124.1964,110
1607089124.1990,122
1607089124.2017,137
1607089124.2045,158
1607089124.2071,173
1607089124.2094,173
1607089124.2111,165
1607089124.2124,146
1607089124.2144,108
1607089124.2164,52
1607089124.2184,-4
1607089124.2207,-45
1607089124.2228,-79
1607089124.2251,-103
1607089124.2273,-110
1607089124.2296,-113
1607089124.2308,-113
1607089124.2324,-113
1607089124.2344,-110
1607089124.2364,-108
1607089124.2384,-105
1607089124.2408,-98
1607089124.2431,-88
1607089124.2452,-79
1607089124.2473,-79
1607089124.2494,-79
1607089124.2509,-72
1607089124.2524,-60
1607089124.2544,-50
1607089124.2556,-45
1607089124.2575,-43
1607089124.2598,-38
1607089124.2619,-33
1607089124.2640,-33
1607089124.2664,-28
1607089124.2685,-24
1607089124.2704,-28
1607089124.2724,-31
1607089124.2744,-24
1607089124.2764,-21
1607089124.2784,-24
1607089124.2804,-24
1607089124.2824,-21
1607089124.2844,-21
1607089124.2864,-24
1607089124.2876,-19
1607089124.2895,-12
1607089124.2914,-9
1607089124.2934,-14
1607089124.2954,-14
1607089124.2974,-12
1607089124.2996,-4
1607089124.3021,-2
1607089124.3044,-7
1607089124.3071,-7
1607089124.3097,-7
1607089124.3114,-9
1607089124.3134,-2
1607089124.3154,4
1607089124.3174,4
1607089124.3194,0
1607089124.3207,0
1607089124.3224,4
1607089124.3244,7
1607089124.3264,7
1607089124.3284,12
1607089124.3304,12
1607089124.3324,4
1607089124.3344,7
1607089124.3364,12
1607089124.3384,14
1607089124.3407,16
1607089124.7926,14
1607089124.7943,9
1607089124.7968,12
1607089124.7996,14
1607089124.8021,14
1607089124.8042,9
1607089124.8066,2
1607089124.8089,-2
1607089124.8107,-7
1607089124.8124,-2
1607089124.8144,0
1607089124.8165,-4
1607089124.8184,-4
1607089124.8205,-4
1607089124.8224,-9
1607089124.8243,-7
1607089124.8264,12
1607089124.8284,33
1607089124.8306,45
1607089124.8328,38
1607089124.8349,28
1607089124.8370,19
1607089124.8391,14
1607089124.8409,7
1607089124.8424,2
1607089124.8444,9
1607089124.8464,14
1607089124.8484,12
1607089124.8506,9
1607089124.8528,14
1607089124.8552,4
1607089124.8573,-16
1607089124.8595,19
1607089124.8618,228
1607089124.8633,589
1607089124.8654,860
1607089124.8674,654
1607089124.8685,33
1607089124.8704,-252
1607089124.8724,-40
1607089124.8745,24
1607089124.8764,-96
1607089124.8785,-72
1607089124.8807,-24
1607089124.8828,-57
1607089124.8849,-57
1607089124.8870,-31
1607089124.8891,-33
1607089124.8907,-36
1607089124.8924,-26
1607089124.8944,-19
1607089124.8964,-16
1607089124.8984,-12
1607089124.8999,-7
1607089124.9020,-9
1607089124.9043,-9
1607089124.9065,-2
1607089124.9089,7
1607089124.9106,14
1607089124.9124,21
1607089124.9144,26
1607089124.9164,31
1607089124.9184,40
1607089124.9204,60
1607089124.9224,79
1607089124.9244,91
1607089124.9264,105
1607089124.9284,120
1607089124.9306,132
1607089124.9328,144
1607089124.9349,153
1607089124.9370,151
1607089124.9391,139
1607089125.3036,113
1607089125.3064,72
1607089125.3091,26
1607089125.3115,-12
1607089125.3141,-43
1607089125.3153,-67
1607089125.3177,-84
1607089125.3195,-91
1607089125.3214,-93
1607089125.3234,-86
1607089125.3250,-79
1607089125.3268,-81
1607089125.3288,-88
1607089125.3304,-91
1607089125.3324,-88
1607089125.3344,-79
1607089125.3364,-74
1607089125.3384,-69
1607089125.3406,-62
1607089125.3446,-55
1607089125.3538,-52
1607089125.3555,-48
1607089125.3577,-40
1607089125.3652,-40
1607089125.3665,-43
1607089125.3686,-33
1607089125.3698,-24
1607089125.3714,-31
1607089125.3734,-33
1607089125.3754,-28
1607089125.3775,-28
1607089125.3794,-26
1607089125.3814,-26
1607089125.3834,-26
1607089125.3854,-24
1607089125.3874,-26
1607089125.3895,-28
1607089125.3915,-26
1607089125.3934,-21
1607089125.3954,-19
1607089125.3974,-21
1607089125.3983,-19
1607089125.3994,-14
1607089125.4015,-9
1607089125.4035,-12
1607089125.4055,-12
1607089125.4079,-9
1607089125.4095,-9
1607089125.4114,-9
1607089125.4135,-7
1607089125.4165,-7
1607089125.4185,-7
1607089125.4204,0
1607089125.4225,4
1607089125.4246,2
1607089125.4361,0
1607089125.4378,2
1607089125.4400,0
1607089125.4417,0
1607089125.4436,-2
1607089125.4457,-2
1607089125.4475,2
1607089125.4508,2
1607089125.4517,0
1607089125.4537,-2
1607089125.4555,-2
1607089125.4574,0
1607089125.4595,2
1607089125.4614,4
1607089125.4635,4
1607089125.4655,7
1607089125.4675,7
1607089125.4695,2
1607089125.8720,7
1607089125.8727,14
1607089125.8753,12
1607089125.8772,7
1607089125.8788,7
1607089125.8808,7
1607089125.8828,2
1607089125.8848,-2
1607089125.8868,-2
1607089125.8888,2
1607089125.8913,2
1607089125.8932,0
1607089125.8948,0
1607089125.8968,-2
1607089125.8974,-9
1607089125.8988,-4
1607089125.9008,4
1607089125.9028,9
1607089125.9048,21
1607089125.9068,36
1607089125.9090,38
1607089125.9110,24
1607089125.9128,7
1607089125.9150,0
1607089125.9168,-2
1607089125.9188,-7
1607089125.9208,-7
1607089125.9228,-4
1607089125.9250,-2
1607089125.9271,-2
1607089125.9284,-2
1607089125.9298,-9
1607089125.9318,-24
1607089125.9338,7
1607089125.9358,189
1607089125.9378,529
1607089125.9399,808
1607089125.9420,668
1607089125.9442,110
1607089125.9458,-209
1607089125.9481,-45
1607089125.9502,26
1607089125.9518,-93
1607089125.9538,-86
1607089125.9558,-33
1607089125.9578,-67
1607089125.9587,-74
1607089125.9599,-45
1607089125.9619,-45
1607089125.9638,-50
1607089125.9659,-40
1607089125.9678,-36
1607089125.9699,-33
1607089125.9718,-28
1607089125.9738,-24
1607089125.9759,-19
1607089125.9779,-16
1607089125.9798,-14
1607089125.9818,-7
1607089125.9838,0
1607089125.9858,2
1607089125.9878,12
1607089125.9888,26
1607089125.9898,40
1607089125.9919,45
1607089125.9939,55
1607089125.9958,76
1607089125.9978,93
1607089125.9999,108
1607089126.0018,122
1607089126.0038,134
1607089126.0058,141
1607089126.0079,149
1607089126.4136,146
1607089126.4164,125
1607089126.4190,91
1607089126.4212,50
1607089126.4233,7
1607089126.4260,-24
1607089126.4291,-48
1607089126.4307,-72
1607089126.4324,-91
1607089126.4344,-96
1607089126.4364,-96
1607089126.4384,-93
1607089126.4407,-91
1607089126.4432,-84
1607089126.4453,-79
1607089126.4473,-79
1607089126.4496,-74
1607089126.4514,-67
1607089126.4539,-57
1607089126.4552,-52
1607089126.4564,-48
1607089126.4584,-45
1607089126.4604,-40
1607089126.4624,-40
1607089126.4644,-38
1607089126.4664,-33
1607089126.4684,-31
1607089126.4707,-31
1607089126.4729,-26
1607089126.4755,-21
1607089126.4789,-19
1607089126.4807,-16
1607089126.4825,-14
1607089126.4844,-14
1607089126.4864,-16
1607089126.4876,-14
1607089126.4901,-9
1607089126.4928,-4
1607089126.4949,-2
1607089126.4970,-4
1607089126.4991,-7
1607089126.5006,-7
1607089126.5024,-7
1607089126.5044,-4
1607089126.5064,0
1607089126.5084,2
1607089126.5104,0
1607089126.5124,2
1607089126.5144,4
1607089126.5164,0
1607089126.5185,-2
1607089126.5197,2
1607089126.5214,7
1607089126.5234,7
1607089126.5259,7
1607089126.5275,7
1607089126.5294,7
1607089126.5314,4
1607089126.5334,7
1607089126.5355,14
1607089126.5374,19
1607089126.5394,19
1607089126.5445,16
1607089126.5457,19
1607089126.5568,21
1607089126.5588,19
1607089126.5601,19
1607089126.5615,24
1607089126.5633,26
1607089126.5656,24
1607089126.5675,21
1607089126.5694,21
1607089126.5714,24
1607089127.0426,26
1607089127.0434,24
1607089127.0442,24
1607089127.0462,24
1607089127.0482,16
1607089127.0503,12
1607089127.0522,14
1607089127.0543,19
1607089127.0562,14
1607089127.0583,12
1607089127.0606,16
1607089127.0623,19
1607089127.0643,16
1607089127.0663,16
1607089127.0682,21
1607089127.0689,19
1607089127.0703,16
1607089127.0722,19
1607089127.0745,19
1607089127.0765,16
1607089127.0784,16
1607089127.0803,14
1607089127.0822,28
1607089127.0842,52
1607089127.0862,57
1607089127.0883,50
1607089127.0903,40
1607089127.0924,31
1607089127.0945,19
1607089127.0963,12
1607089127.0983,14
1607089127.0990,19
1607089127.1002,16
1607089127.1024,14
1607089127.1043,16
1607089127.1062,14
1607089127.1084,0
1607089127.1106,24
1607089127.1123,173
1607089127.1142,490
1607089127.1162,800
1607089127.1182,716
1607089127.1204,137
1607089127.1223,-262
1607089127.1245,-88
1607089127.1263,52
1607089127.1312,-79
1607089127.1321,-96
1607089127.1352,-24
1607089127.1370,-43
1607089127.1383,-62
1607089127.1405,-33
1607089127.1418,-28
1607089127.1444,-33
1607089127.1463,-21
1607089127.1483,-14
1607089127.1504,-16
1607089127.1523,-9
1607089127.1543,0
1607089127.1563,4
1607089127.1569,12
1607089127.1583,16
1607089127.1604,21
1607089127.1623,26
1607089127.1643,33
1607089127.1663,38
1607089127.1683,48
1607089127.1704,57
1607089127.1723,72
1607089127.1743,86
1607089127.1763,98
1607089127.1783,117
1607089127.1804,139
1607089127.5527,153
1607089127.5543,165
1607089127.5560,173
1607089127.5584,185
1607089127.5604,185
1607089127.5624,161
1607089127.5644,122
1607089127.5666,79
1607089127.5684,36
1607089127.5704,-7
1607089127.5724,-38
1607089127.5743,-55
1607089127.5766,-67
1607089127.5784,-81
1607089127.5803,-96
1607089127.5823,-93
1607089127.5843,-84
1607089127.5863,-81
1607089127.5872,-81
1607089127.5883,-76
1607089127.5903,-72
1607089127.5923,-64
1607089127.5943,-55
1607089127.5963,-50
1607089127.5984,-45
1607089127.6005,-43
1607089127.6024,-38
1607089127.6043,-36
1607089127.6063,-33
1607089127.6084,-28
1607089127.6104,-26
1607089127.6123,-28
1607089127.6144,-26
1607089127.6163,-26
1607089127.6170,-31
1607089127.6183,-31
1607089127.6204,-24
1607089127.6224,-21
1607089127.6243,-19
1607089127.6264,-16
1607089127.6283,-16
1607089127.6304,-16
1607089127.6323,-12
1607089127.6343,-9
1607089127.6364,-7
1607089127.6384,-7
1607089127.6404,-7
1607089127.6423,-7
1607089127.6443,-7
1607089127.6463,-4
1607089127.6470,0
1607089127.6484,2
1607089127.6503,0
1607089127.6524,0
1607089127.6577,4
1607089127.6593,7
1607089127.6615,2
1607089127.6633,2
1607089127.6653,4
1607089127.6673,7
1607089127.6693,4
1607089127.6713,4
1607089127.6733,9
1607089127.6753,12
1607089127.6773,9
1607089127.6793,12
1607089127.6800,16
1607089127.6813,14
1607089127.6833,12
1607089127.6853,16
1607089127.6873,16
1607089127.6893,14
1607089127.6913,14
1607089128.1534,14
1607089128.1561,9
1607089128.1587,7
1607089128.1619,7
1607089128.1643,12
1607089128.1665,24
1607089128.1688,40
1607089128.1705,40
1607089128.1721,36
1607089128.1743,31
1607089128.1761,16
1607089128.1781,7
1607089128.1805,4
1607089128.1827,0
1607089128.1848,0
1607089128.1869,0
1607089128.1890,4
1607089128.1905,7
1607089128.1921,0
1607089128.1941,-21
1607089128.1961,-9
1607089128.1981,132
1607089128.2003,447
1607089128.2025,779
1607089128.2049,759
1607089128.2071,209
1607089128.2095,-266
1607089128.2111,-139
1607089128.2131,45
1607089128.2151,-67
1607089128.2171,-103
1607089128.2193,-28
1607089128.2215,-40
1607089128.2236,-64
1607089128.2260,-38
1607089128.2286,-28
1607089128.2305,-38
1607089128.2322,-28
1607089128.2341,-24
1607089128.2355,-26
1607089128.2371,-19
1607089128.2432,-12
1607089128.2452,-7
1607089128.2471,-2
1607089128.2491,4
1607089128.2512,9
1607089128.2532,16
1607089128.2552,24
1607089128.2571,28
1607089128.2591,36
1607089128.2613,48
1607089128.2630,62
1607089128.2650,76
1607089128.2671,91
1607089128.2695,110
1607089128.2705,127
1607089128.2723,144
1607089128.2743,156
1607089128.2760,170
1607089128.2781,177
1607089128.2801,173
1607089128.2820,146
1607089128.2840,103
1607089128.2860,57
1607089128.2880,16
1607089128.2901,-19
1607089128.2920,-50
1607089128.2940,-72
1607089128.3012,-76
1607089128.3032,-81
1607089128.3051,-86
1607089128.3134,-84
1607089128.3152,-79
1607089128.6658,-76
1607089128.6677,-76
1607089128.6703,-74
1607089128.6729,-69
1607089128.6762,-62
1607089128.6816,-57
1607089128.6834,-55
1607089128.6846,-52
1607089128.6859,-52
1607089128.6879,-52
1607089128.6898,-45
1607089128.7022,-43
1607089128.7041,-52
1607089128.7059,-50
1607089128.7113,-38
1607089128.7135,-40
1607089128.7150,-43
1607089128.7169,-38
1607089128.7190,-38
1607089128.7209,-43
1607089128.7229,-45
1607089128.7270,-38
1607089128.7293,-31
1607089128.7308,-31
1607089128.7320,-33
1607089128.7339,-28
1607089128.7360,-24
1607089128.7380,-24
1607089128.7399,-24
1607089128.7473,-21
1607089128.7493,-16
1607089128.7510,-16
1607089128.7533,-14
1607089128.7551,-7
1607089128.7570,-4
1607089128.7612,-9
1607089128.7630,-12
1607089128.7649,-7
1607089128.7669,-7
1607089128.7677,-4
1607089128.7689,-2
1607089128.7709,0
1607089128.7729,0
1607089128.7763,2
1607089128.7784,2
1607089128.7799,2
1607089128.7819,0
1607089128.7840,2
1607089128.7859,4
1607089128.7879,7
1607089128.7899,7
1607089128.7927,9
1607089128.7940,14
1607089128.7959,12
1607089128.7979,7
1607089128.7987,9
1607089128.7999,12
1607089128.8019,16
1607089128.8039,16
1607089128.8059,12
1607089128.8121,9
1607089128.8138,12
1607089128.8149,7
1607089128.8169,4
1607089128.8189,9
1607089128.8210,26
1607089128.8232,45
1607089128.8289,52
1607089128.8304,48
1607089128.8320,33
1607089128.8343,16
1607089128.8352,7
1607089128.8373,9
1607089129.2637,12
1607089129.2654,9
1607089129.2679,4
1607089129.2706,14
1607089129.2725,19
1607089129.2747,0
1607089129.2765,-26
1607089129.2788,-2
1607089129.2811,163
1607089129.2824,488
1607089129.2848,798
1607089129.2863,716
1607089129.2875,139
1607089129.2895,-269
1607089129.2915,-108
1607089129.2934,31
1607089129.2956,-93
1607089129.2977,-108
1607089129.2995,-36
1607089129.3015,-55
1607089129.3035,-69
1607089129.3055,-38
1607089129.3078,-36
1607089129.3095,-43
1607089129.3119,-28
1607089129.3146,-21
1607089129.3165,-24
1607089129.3176,-16
1607089129.3195,-12
1607089129.3215,-14
1607089129.3235,-9
1607089129.3255,0
1607089129.3275,4
1607089129.3311,9
1607089129.3336,16
1607089129.3361,24
1607089129.3384,33
1607089129.3402,43
1607089129.3417,55
1607089129.3435,69
1607089129.3456,81
1607089129.3479,96
1607089129.3495,115
1607089129.3507,137
1607089129.3525,151
1607089129.3545,161
1607089129.3565,163
1607089129.3585,156
1607089129.3605,132
1607089129.3625,96
1607089129.3646,55
1607089129.3665,12
1607089129.3685,-24
1607089129.3704,-52
1607089129.3725,-69
1607089129.3746,-81
1607089129.3765,-84
1607089129.3791,-84
1607089129.3817,-81
1607089129.3829,-79
1607089129.3845,-76
1607089129.3868,-76
1607089129.3885,-67
1607089129.3905,-60
1607089129.3924,-62
1607089129.3944,-60
1607089129.3977,-50
1607089129.3995,-43
1607089129.4015,-40
1607089129.4035,-38
1607089129.4055,-33
1607089129.4078,-28
1607089129.4095,-26
1607089129.7716,-26
1607089129.7725,-21
1607089129.7738,-16
1607089129.7766,-19
1607089129.7782,-21
1607089129.7799,-21
1607089129.7818,-24
1607089129.7838,-24
1607089129.7858,-21
1607089129.7878,-21
1607089129.7898,-26
1607089129.7956,-28
1607089129.7968,-21
1607089129.7988,-16
1607089129.8008,-19
1607089129.8028,-24
1607089129.8048,-16
1607089129.8054,-9
1607089129.8068,-9
1607089129.8094,-12
1607089129.8111,-9
1607089129.8129,-7
1607089129.8148,-9
1607089129.8168,-7
1607089129.8188,-4
1607089129.8208,-7
1607089129.8228,-7
1607089129.8266,2
1607089129.8279,7
1607089129.8298,2
1607089129.8318,-2
1607089129.8338,2
1607089129.8358,7
1607089129.8366,7
1607089129.8378,4
1607089129.8398,7
1607089129.8429,7
1607089129.8450,7
1607089129.8468,7
1607089129.8492,12
1607089129.8508,12
1607089129.8528,12
1607089129.8548,14
1607089129.8569,16
1607089129.8598,19
1607089129.8610,14
1607089129.8628,12
1607089129.8648,14
1607089129.8668,21
1607089129.8676,19
1607089129.8689,14
1607089129.8708,14
1607089129.8728,12
1607089129.8762,9
1607089129.8782,12
1607089129.8799,16
1607089129.8818,14
1607089129.8838,7
1607089129.8858,4
1607089129.8878,9
1607089129.8899,12
1607089129.8971,24
1607089129.8999,43
1607089129.9016,55
1607089129.9036,50
1607089129.9143,40
1607089129.9160,26
1607089129.9180,14
1607089129.9200,14
1607089129.9227,16
1607089129.9240,14
1607089129.9268,7
1607089129.9282,2
1607089130.3719,2
1607089130.3733,9
1607089130.3751,0
1607089130.3771,-24
1607089130.3801,40
1607089130.3813,298
1607089130.3830,656
1607089130.3851,817
1607089130.3871,468
1607089130.3893,-108
1607089130.3913,-216
1607089130.3932,-2
1607089130.3954,-33
1607089130.3975,-127
1607089130.3992,-69
1607089130.4011,-45
1607089130.4031,-79
1607089130.4054,-64
1607089130.4071,-43
1607089130.4091,-45
1607089130.4111,-43
1607089130.4137,-33
1607089130.4151,-26
1607089130.4171,-21
1607089130.4191,-14
1607089130.4211,-7
1607089130.4231,-4
1607089130.4251,-2
1607089130.4272,0
1607089130.4355,9
1607089130.4373,16
1607089130.4398,16
1607089130.4413,24
1607089130.4431,33
1607089130.4455,45
1607089130.4499,60
1607089130.4513,72
1607089130.4525,86
1607089130.4548,98
1607089130.4562,110
1607089130.4600,129
1607089130.4659,146
1607089130.4676,151
1607089130.4693,149
1607089130.4712,141
1607089130.4732,117
1607089130.4762,74
1607089130.4817,28
1607089130.4832,-7
1607089130.4855,-33
1607089130.4872,-55
1607089130.4893,-76
1607089130.4930,-84
1607089130.4945,-84
1607089130.4999,-84
1607089130.5012,-81
1607089130.5032,-79
1607089130.5052,-74
1607089130.5072,-69
1607089130.5103,-64
1607089130.5148,-60
1607089130.5167,-52
1607089130.5183,-50
1607089130.5202,-50
1607089130.5222,-48
1607089130.5260,-48
1607089130.5273,-43
1607089130.5330,-40
1607089130.5347,-38
1607089130.5362,-36
1607089130.5382,-33
1607089130.5402,-28
1607089130.5496,-21
1607089130.9428,-19
1607089130.9438,-16
1607089130.9451,-19
1607089130.9470,-19
1607089130.9491,-19
1607089130.9510,-16
1607089130.9530,-16
1607089130.9550,-14
1607089130.9570,-16
1607089130.9593,-26
1607089130.9612,-26
1607089130.9631,-14
1607089130.9651,-12
1607089130.9671,-19
1607089130.9691,-16
1607089130.9697,-9
1607089130.9710,-7
1607089130.9730,-7
1607089130.9755,-7
1607089130.9772,-2
1607089130.9824,0
1607089130.9842,4
1607089130.9863,7
1607089130.9881,4
1607089130.9901,4
1607089130.9922,7
1607089130.9943,9
1607089130.9961,12
1607089130.9981,12
1607089131.0001,9
1607089131.0024,12
1607089131.0028,14
1607089131.0040,14
1607089131.0060,12
1607089131.0081,12
1607089131.0100,12
1607089131.0123,12
1607089131.0141,7
1607089131.0160,9
1607089131.0181,14
1607089131.0201,16
1607089131.0221,16
1607089131.0240,19
1607089131.0261,19
1607089131.0282,19
1607089131.0301,19
1607089131.0323,16
1607089131.0327,14
1607089131.0341,16
1607089131.0361,21
1607089131.0381,21
1607089131.0401,19
1607089131.0421,14
1607089131.0441,14
1607089131.0465,19
1607089131.0481,19
1607089131.0501,16
1607089131.0521,33
1607089131.0541,57
1607089131.0561,55
1607089131.0581,33
1607089131.0601,24
1607089131.0623,19
1607089131.0629,14
1607089131.0641,12
1607089131.0661,12
1607089131.0681,12
1607089131.0701,7
1607089131.0721,7
1607089131.0743,12
1607089131.0761,7
1607089131.0783,-9
1607089131.0802,26
1607089131.4826,223
1607089131.4842,574
1607089131.4867,839
1607089131.4894,622
1607089131.4906,2
1607089131.4981,-259
1607089131.5001,-31
1607089131.5013,26
1607089131.5033,-101
1607089131.5054,-69
1607089131.5117,-24
1607089131.5139,-67
1607089131.5153,-67
1607089131.5173,-33
1607089131.5194,-38
1607089131.5213,-43
1607089131.5233,-26
1607089131.5263,-21
1607089131.5275,-24
1607089131.5293,-19
1607089131.5300,-12
1607089131.5313,-9
1607089131.5334,-2
1607089131.5353,12
1607089131.5376,19
1607089131.5394,19
1607089131.5431,21
1607089131.5446,28
1607089131.5464,40
1607089131.5483,55
1607089131.5503,67
1607089131.5523,76
1607089131.5543,96
1607089131.5563,113
1607089131.5601,125
1607089131.5615,137
1607089131.5626,153
1607089131.5643,168
1607089131.5663,168
1607089131.5683,156
1607089131.5703,132
1607089131.5724,91
1607089131.5763,43
1607089131.5774,-2
1607089131.5794,-38
1607089131.5813,-64
1607089131.5833,-79
1607089131.5853,-91
1607089131.5875,-96
1607089131.5894,-96
1607089131.5990,-96
1607089131.6007,-96
1607089131.6035,-93
1607089131.6045,-86
1607089131.6066,-84
1607089131.6125,-81
1607089131.6137,-76
1607089131.6155,-69
1607089131.6175,-62
1607089131.6196,-52
1607089131.6213,-50
1607089131.6236,-52
1607089131.6258,-50
1607089131.6279,-40
1607089131.6294,-33
1607089131.6314,-33
1607089131.6334,-33
1607089131.6343,-28
1607089131.6354,-28
1607089131.6374,-31
1607089131.6394,-26
1607089131.6407,-19
1607089131.6450,-19
1607089132.0522,-24
1607089132.0536,-21
1607089132.0550,-16
1607089132.0567,-14
1607089132.0602,-14
1607089132.0620,-14
1607089132.0630,-21
1607089132.0647,-24
1607089132.0667,-21
1607089132.0687,-16
1607089132.0707,-16
1607089132.0727,-28
1607089132.0763,-36
1607089132.0778,-24
1607089132.0797,-16
1607089132.0817,-16
1607089132.0837,-14
1607089132.0857,-14
1607089132.0877,-16
1607089132.0897,-19
1607089132.0932,-14
1607089132.0948,-4
1607089132.0959,-4
1607089132.0977,-9
1607089132.0998,-7
1607089132.1017,0
1607089132.1037,-2
1607089132.1057,-4
1607089132.1099,2
1607089132.1120,2
1607089132.1138,-2
1607089132.1159,0
1607089132.1178,4
1607089132.1198,4
1607089132.1218,4
1607089132.1238,2
1607089132.1277,7
1607089132.1291,12
1607089132.1304,7
1607089132.1317,0
1607089132.1337,2
1607089132.1357,2
1607089132.1377,2
1607089132.1398,14
1607089132.1433,36
1607089132.1448,40
1607089132.1469,33
1607089132.1488,21
1607089132.1507,7
1607089132.1527,0
1607089132.1548,0
1607089132.1567,4
1607089132.1700,7
1607089132.1725,4
1607089132.1733,2
1607089132.1820,7
1607089132.1843,4
1607089132.1859,-12
1607089132.1879,0
1607089132.1899,161
1607089132.1927,502
1607089132.1939,824
1607089132.1959,743
1607089132.1979,156
1607089132.2000,-259
1607089132.2018,-98
1607089132.2039,45
1607089132.2059,-81
1607089132.2081,-93
1607089132.2099,-26
1607089132.2105,-50
1607089132.2118,-62
1607089132.2138,-36
1607089132.5939,-33
1607089132.5988,-36
1607089132.6012,-24
1607089132.6039,-16
1607089132.6059,-16
1607089132.6098,-12
1607089132.6146,-2
1607089132.6163,-2
1607089132.6179,-9
1607089132.6199,-9
1607089132.6220,0
1607089132.6239,9
1607089132.6270,12
1607089132.6319,19
1607089132.6338,31
1607089132.6350,43
1607089132.6369,52
1607089132.6389,62
1607089132.6427,76
1607089132.6441,93
1607089132.6490,110
1607089132.6509,132
1607089132.6529,146
1607089132.6549,151
1607089132.6569,156
1607089132.6602,153
1607089132.6653,129
1607089132.6671,91
1607089132.6690,45
1607089132.6701,0
1607089132.6719,-36
1607089132.6760,-62
1607089132.6778,-79
1607089132.6814,-86
1607089132.6828,-93
1607089132.6849,-103
1607089132.6868,-101
1607089132.6889,-91
1607089132.6913,-91
1607089132.6928,-91
1607089132.6952,-86
1607089132.6969,-84
1607089132.6989,-79
1607089132.7008,-67
1607089132.7028,-62
1607089132.7037,-60
1607089132.7048,-52
1607089132.7068,-50
1607089132.7092,-45
1607089132.7168,-38
1607089132.7185,-33
1607089132.7201,-33
1607089132.7220,-28
1607089132.7240,-24
1607089132.7270,-24
1607089132.7328,-24
1607089132.7344,-19
1607089132.7360,-19
1607089132.7380,-21
1607089132.7400,-21
1607089132.7430,-14
1607089132.7479,-9
1607089132.7498,-12
1607089132.7510,-12
1607089132.7530,-12
1607089132.7550,-4
1607089132.7570,-2
1607089132.7602,-4
1607089132.7653,-4
1607089132.7671,0
1607089132.7692,4
1607089132.7710,0
1607089132.7730,-2
1607089133.1326,4
1607089133.1338,7
1607089133.1356,4
1607089133.1379,2
1607089133.1399,2
1607089133.1425,2
1607089133.1439,-2
1607089133.1471,0
1607089133.1489,2
1607089133.1512,-2
1607089133.1529,-4
1607089133.1556,2
1607089133.1570,4
1607089133.1592,2
1607089133.1642,4
1607089133.1658,12
1607089133.1678,9
1607089133.1700,4
1607089133.1707,7
1607089133.1719,12
1607089133.1739,16
1607089133.1759,14
1607089133.1779,9
1607089133.1799,14
1607089133.1819,16
1607089133.1839,14
1607089133.1859,14
1607089133.1878,14
1607089133.1899,9
1607089133.1950,7
1607089133.1961,7
1607089133.1979,2
1607089133.2000,7
1607089133.2019,9
1607089133.2025,4
1607089133.2039,0
1607089133.2059,2
1607089133.2097,2
1607089133.2111,16
1607089133.2129,40
1607089133.2149,50
1607089133.2169,40
1607089133.2190,36
1607089133.2209,28
1607089133.2229,16
1607089133.2268,9
1607089133.2282,12
1607089133.2299,16
1607089133.2319,19
1607089133.2339,16
1607089133.2347,16
1607089133.2359,14
1607089133.2379,2
1607089133.2399,-9
1607089133.2436,55
1607089133.2483,298
1607089133.2502,658
1607089133.2545,853
1607089133.2559,533
1607089133.2609,-67
1607089133.2627,-214
1607089133.2639,12
1607089133.2659,-2
1607089133.2680,-115
1607089133.2698,-62
1607089133.2720,-33
1607089133.2726,-69
1607089133.2739,-60
1607089133.2779,-33
1607089133.2788,-33
1607089133.2809,-33
1607089133.2829,-26
1607089133.2848,-24
1607089133.7326,-16
1607089133.7342,-2
1607089133.7366,-4
1607089133.7384,-14
1607089133.7403,-12
1607089133.7441,-4
1607089133.7462,-2
1607089133.7476,0
1607089133.7487,12
1607089133.7503,24
1607089133.7523,28
1607089133.7544,38
1607089133.7563,55
1607089133.7604,69
1607089133.7625,84
1607089133.7643,101
1607089133.7663,122
1607089133.7683,137
1607089133.7703,146
1607089133.7723,149
1607089133.7775,146
1607089133.7795,134
1607089133.7813,108
1607089133.7836,64
1607089133.7849,21
1607089133.7863,-12
1607089133.7883,-40
1607089133.7903,-67
1607089133.7943,-84
1607089133.7972,-86
1607089133.7984,-86
1607089133.8003,-88
1607089133.8024,-86
1607089133.8043,-81
1607089133.8063,-81
1607089133.8106,-74
1607089133.8129,-67
1607089133.8144,-62
1607089133.8167,-57
1607089133.8184,-52
1607089133.8196,-48
1607089133.8214,-43
1607089133.8233,-38
1607089133.8280,-38
1607089133.8296,-33
1607089133.8317,-26
1607089133.8334,-24
1607089133.8354,-21
1607089133.8373,-16
1607089133.8394,-16
1607089133.8436,-14
1607089133.8456,-14
