,hr,rr,ecg,gsr,temperature
1602831175.0719,72.0,836.0,594.0,427.0000000000002,36.31
1602831175.0728,72.0,836.0,1860.0,427.0000000000002,36.31
1602831175.0747,72.0,836.0,3197.0,427.0000000000002,36.31
1602831175.0767,72.0,836.0,3991.0,427.0000000000002,36.31
1602831175.0786,72.0,836.0,4669.0,427.0000000000002,36.31
1602831175.0807,72.0,836.0,5409.0,427.0000000000002,36.31
1602831175.0827,72.0,836.0,5945.0,427.0000000000002,36.31
1602831175.0848,72.0,836.0,6362.0,427.0000000000002,36.31
1602831175.0866,72.0,836.0,6790.0,427.0000000000002,36.31
1602831175.0887,72.0,836.0,7166.0,427.0000000000003,36.31
1602831175.0907,72.0,836.0,7481.0,427.0000000000003,36.31
1602831175.0926,72.0,836.0,7751.0,427.0000000000003,36.31
1602831175.0947,72.0,836.0,7989.0,427.0000000000003,36.31
1602831175.0968,72.0,836.0,8201.0,427.0000000000003,36.31
1602831175.0987,72.0,836.0,8378.0,427.0000000000003,36.31
1602831175.1007,72.0,836.0,8537.0,427.0000000000003,36.31
1602831175.1026,72.0,836.0,8692.0,427.0000000000003,36.31
1602831175.1047,72.0,836.0,8810.0,427.0000000000003,36.31
1602831175.1067,72.0,836.0,8901.0,427.0000000000003,36.31
1602831175.1087,72.0,836.0,9007.0,427.0000000000003,36.31
1602831175.1107,72.0,836.0,9098.0,427.0000000000003,36.31
1602831175.1127,72.0,836.0,9154.0,427.0000000000003,36.31
1602831175.1147,72.0,836.0,9218.0,427.0000000000003,36.31
1602831175.1167,72.0,836.0,9290.0,427.0000000000003,36.31
1602831175.1187,72.0,836.0,9326.0,427.0000000000003,36.31
1602831175.1207,72.0,836.0,9346.0,427.0000000000003,36.31
1602831175.1226,72.0,836.0,9376.0,427.0000000000003,36.31
1602831175.1247,72.0,836.0,9400.0,427.0000000000003,36.31
1602831175.1267,72.0,836.0,9408.0,427.0000000000003,36.31
1602831175.1286,72.0,836.0,9417.0,427.0000000000003,36.31
1602831175.1306,72.0,836.0,9422.0,427.0000000000003,36.31
1602831175.1327,72.0,836.0,9412.0,427.0000000000003,36.31
1602831175.1347,72.0,836.0,9398.0,427.0000000000003,36.31
1602831175.1367,72.0,836.0,9393.0,427.0000000000003,36.31
1602831175.1386,72.0,836.0,9395.0,427.0000000000003,36.31
1602831175.1406,72.0,836.0,9390.0,427.0000000000003,36.31
1602831175.1426,72.0,836.0,9344.0,427.0000000000003,36.31
1602831175.1447,72.0,836.0,9302.0,427.0000000000003,36.31
1602831175.1467,72.0,836.0,9297.0,427.0000000000003,36.31
1602831175.1487,72.0,836.0,9267.0,427.0000000000003,36.31
1602831175.1507,72.0,836.0,9206.0,427.0000000000003,36.31
1602831175.1527,72.0,836.0,9169.0,427.0000000000003,36.31
1602831175.1547,72.0,836.0,9157.0,427.0000000000003,36.31
1602831175.1567,72.0,836.0,9142.0,427.0000000000003,36.31
1602831175.1587,72.0,836.0,9098.0,427.0000000000003,36.31
1602831175.1607,72.0,836.0,9034.0,427.0000000000003,36.31
1602831175.1627,72.0,836.0,8985.0,427.0000000000003,36.31
1602831175.1647,72.0,836.0,8943.0,427.0000000000002,36.31
1602831175.1667,72.0,836.0,8884.0,427.0000000000002,36.31
1602831175.1687,72.0,836.0,8813.0,427.0000000000002,36.31
1602831175.1718,72.0,836.0,8766.0,426.9999999999389,36.31
1602831175.1727,72.0,836.0,8719.0,426.9999999999389,36.31
1602831175.1748,72.0,836.0,8651.0,426.9999999999389,36.31
1602831175.1766,72.0,836.0,8587.0,426.9999999999389,36.31
1602831175.1786,72.0,836.0,8537.0,426.9999999999389,36.31
1602831175.1807,72.0,836.0,8488.0,426.9999999999389,36.31
1602831175.1827,72.0,836.0,8437.0,426.9999999999389,36.31
1602831175.1847,72.0,836.0,8451.0,426.9999999999389,36.31
1602831175.1866,72.0,836.0,8628.0,426.9999999999389,36.31
1602831175.1886,72.0,836.0,8744.0,426.9999999999389,36.31
1602831175.1906,72.0,836.0,8351.0,426.9999999999389,36.31
1602831175.1926,72.0,836.0,7697.0,426.9999999999389,36.31
1602831175.1947,72.0,836.0,7623.0,426.9999999999389,36.31
1602831175.1966,72.0,836.0,7972.0,426.9999999999389,36.31
1602831175.1986,72.0,836.0,7987.0,426.9999999999389,36.31
1602831175.2006,72.0,836.0,7825.0,426.9999999999389,36.31
1602831175.2026,72.0,836.0,7820.0,426.9999999999389,36.31
1602831175.2047,72.0,836.0,7795.0,426.9999999999389,36.31
1602831175.2066,72.0,836.0,7699.0,426.9999999999389,36.31
1602831175.2086,72.0,836.0,7653.0,426.9999999999389,36.31
1602831175.2106,72.0,836.0,7613.0,426.9999999999389,36.31
1602831175.2126,72.0,836.0,7530.0,426.9999999999389,36.31
1602831175.2146,72.0,836.0,7463.0,426.9999999999389,36.31
1602831175.641,72.0,836.0,7419.0,426.9999999999389,36.38
1602831175.6415,72.0,836.0,7343.0,426.9999999999389,36.38
1602831175.6439,72.0,836.0,7255.0,426.9999999999389,36.38
1602831175.6465,72.0,836.0,7193.0,426.9999999999389,36.38
1602831175.6484,72.0,836.0,7149.0,426.9999999999389,36.38
1602831175.6505,72.0,836.0,7092.0,426.9999999999389,36.38
1602831175.6525,72.0,836.0,7026.0,426.9999999999389,36.38
1602831175.6545,72.0,836.0,6972.0,426.9999999999389,36.38
1602831175.6565,72.0,836.0,6920.0,426.9999999999389,36.38
1602831175.6585,72.0,836.0,6856.0,426.9999999999389,36.38
1602831175.6605,72.0,836.0,6795.0,426.9999999999389,36.38
1602831175.6627,72.0,836.0,6738.0,426.9999999999389,36.38
1602831175.6646,72.0,836.0,6679.0,426.9999999999389,36.38
1602831175.6666,72.0,836.0,6620.0,426.9999999999389,36.38
1602831175.6685,72.0,836.0,6564.0,426.9999999999389,36.38
1602831175.6703,72.0,836.0,6495.0,426.9999999999389,36.38
1602831175.6725,72.0,836.0,6444.0,426.9999999999389,36.38
1602831175.6746,72.0,836.0,6417.0,426.9999999999389,36.38
1602831175.6765,72.0,836.0,6362.0,426.9999999999389,36.38
1602831175.6785,72.0,836.0,6289.0,426.9999999999389,36.38
1602831175.6805,72.0,836.0,6222.0,426.9999999999389,36.38
1602831175.6825,72.0,836.0,6156.0,426.9999999999389,36.38
1602831175.6846,72.0,836.0,6082.0,426.9999999999389,36.38
1602831175.6865,72.0,836.0,6011.0,426.9999999999389,36.38
1602831175.6885,72.0,836.0,5932.0,426.9999999999389,36.38
1602831175.6905,72.0,836.0,5841.0,426.9999999999389,36.38
1602831175.6925,72.0,836.0,5758.0,426.9999999999389,36.38
1602831175.6945,72.0,836.0,5689.0,426.9999999999389,36.38
1602831175.6967,72.0,836.0,5618.0,426.9999999999389,36.38
1602831175.6986,72.0,836.0,5544.0,426.9999999999389,36.38
1602831175.7006,72.0,836.0,5488.0,426.9999999999389,36.38
1602831175.7012,72.0,836.0,5441.0,426.9999999999389,36.38
1602831175.7034,72.0,836.0,5372.0,426.9999999999389,36.38
1602831175.7055,72.0,836.0,5296.0,426.9999999999389,36.38
1602831175.7075,72.0,836.0,5237.0,426.9999999999389,36.38
1602831175.7095,72.0,836.0,5190.0,426.9999999999389,36.38
1602831175.7115,72.0,836.0,5143.0,426.9999999999389,36.38
1602831175.7134,72.0,836.0,5084.0,426.9999999999389,36.38
1602831175.7155,72.0,836.0,5016.0,426.9999999999389,36.38
1602831175.7175,72.0,836.0,4989.0,426.9999999999389,36.38
1602831175.7195,72.0,836.0,4974.0,426.9999999999389,36.38
1602831175.7215,72.0,836.0,4910.0,426.9999999999389,36.38
1602831175.7235,72.0,836.0,4836.0,426.9999999999389,36.38
1602831175.7255,72.0,836.0,4787.0,426.9999999999389,36.38
1602831175.7275,72.0,836.0,4753.0,426.9999999999389,36.38
1602831175.7295,72.0,836.0,4716.0,426.9999999999389,36.38
1602831175.7316,72.0,836.0,4654.0,426.9999999999389,36.38
1602831175.7335,72.0,836.0,4588.0,426.9999999999389,36.38
1602831175.7355,72.0,836.0,4531.0,426.9999999999389,36.38
1602831175.7375,72.0,836.0,4487.0,426.9999999999389,36.38
1602831175.7395,72.0,836.0,4460.0,426.9999999999389,36.38
1602831175.7415,72.0,836.0,4421.0,426.9999999999389,36.38
1602831175.7435,72.0,836.0,4367.0,426.9999999999389,36.38
1602831175.7455,72.0,836.0,4320.0,426.9999999999389,36.38
1602831175.7475,72.0,836.0,4266.0,426.9999999999389,36.38
1602831175.7496,72.0,836.0,4207.0,426.9999999999389,36.38
1602831175.7515,72.0,836.0,4173.0,426.9999999999389,36.38
1602831175.7535,72.0,836.0,4136.0,426.9999999999389,36.38
1602831175.7555,72.0,836.0,4074.0,426.9999999999389,36.38
1602831175.7575,72.0,836.0,4015.0,426.9999999999389,36.38
1602831175.7595,72.0,836.0,3971.0,426.9999999999389,36.38
1602831175.7615,72.0,836.0,3924.0,426.9999999999389,36.38
1602831175.7635,72.0,836.0,3895.0,426.9999999999389,36.38
1602831175.7655,72.0,836.0,3870.0,426.9999999999389,36.38
1602831175.7675,72.0,836.0,3819.0,426.9999999999389,36.38
1602831175.7695,72.0,836.0,3770.0,426.9999999999389,36.38
1602831175.7715,72.0,836.0,3723.0,426.9999999999389,36.38
1602831175.7735,72.0,836.0,3669.0,426.9999999999389,36.38
1602831175.7755,72.0,836.0,3627.0,426.9999999999389,36.38
1602831175.7775,72.0,836.0,3598.0,426.9999999999389,36.38
1602831175.7795,72.0,836.0,3558.0,426.9999999999389,36.38
1602831175.7815,72.0,836.0,3519.0,426.9999999999389,36.38
1602831175.7835,72.0,836.0,3477.0,426.9999999999389,36.38
1602831176.1813,72.0,861.0,3428.0,426.9999999999389,36.38
1602831176.1825,72.0,861.0,3391.0,426.9999999999389,36.38
1602831176.185,72.0,861.0,3374.0,426.9999999999389,36.38
1602831176.1876,72.0,861.0,3339.0,426.9999999999389,36.38
1602831176.1896,72.0,861.0,3293.0,426.9999999999389,36.38
1602831176.1915,72.0,861.0,3251.0,426.9999999999389,36.38
1602831176.1941,72.0,861.0,3212.0,426.9999999999389,36.38
1602831176.1956,72.0,861.0,3170.0,426.9999999999389,36.38
1602831176.1976,72.0,861.0,3133.0,426.9999999999389,36.38
1602831176.1996,72.0,861.0,3118.0,426.9999999999389,36.38
1602831176.2016,72.0,861.0,3099.0,426.9999999999389,36.38
1602831176.2036,72.0,861.0,3049.0,426.9999999999389,36.38
1602831176.2056,72.0,861.0,3008.0,426.9999999999389,36.38
1602831176.2076,72.0,861.0,2981.0,426.9999999999389,36.38
1602831176.2096,72.0,861.0,2954.0,426.9999999999389,36.38
1602831176.2116,72.0,861.0,2917.0,426.9999999999389,36.38
1602831176.2136,72.0,861.0,2870.0,426.9999999999389,36.38
1602831176.2155,72.0,861.0,2823.0,426.9999999999389,36.38
1602831176.2175,72.0,861.0,2787.0,426.9999999999389,36.38
1602831176.2195,72.0,861.0,2750.0,426.9999999999389,36.38
1602831176.2215,72.0,861.0,2708.0,426.9999999999389,36.38
1602831176.2235,72.0,861.0,2688.0,426.9999999999389,36.38
1602831176.2255,72.0,861.0,2686.0,426.9999999999389,36.38
1602831176.2276,72.0,861.0,2666.0,426.9999999999389,36.38
1602831176.2296,72.0,861.0,2624.0,426.9999999999389,36.38
1602831176.2315,72.0,861.0,2612.0,426.9999999999389,36.38
1602831176.2336,72.0,861.0,2772.0,426.9999999999389,36.38
1602831176.2356,72.0,861.0,2995.0,426.9999999999389,36.38
1602831176.2375,72.0,861.0,2816.0,426.9999999999389,36.38
1602831176.2395,72.0,861.0,2202.0,426.9999999999389,36.38
1602831176.2415,72.0,861.0,1924.0,426.9999999999389,36.38
1602831176.2435,72.0,861.0,2241.0,426.9999999999389,36.38
1602831176.2455,72.0,861.0,2430.0,426.9999999999389,36.38
1602831176.2475,72.0,861.0,2329.0,426.9999999999389,36.38
1602831176.2496,72.0,861.0,2322.0,426.9999999999389,36.38
1602831176.2515,72.0,861.0,2349.0,426.9999999999389,36.38
1602831176.2535,72.0,861.0,2297.0,426.9999999999389,36.38
1602831176.2555,72.0,861.0,2263.0,426.9999999999389,36.38
1602831176.2575,72.0,861.0,2241.0,426.9999999999389,36.38
1602831176.2595,72.0,861.0,2202.0,426.9999999999389,36.38
1602831176.2615,72.0,861.0,2182.0,426.9999999999389,36.38
1602831176.2635,72.0,861.0,2182.0,426.9999999999389,36.38
1602831176.2655,72.0,861.0,2155.0,426.9999999999389,36.38
1602831176.2675,72.0,861.0,2116.0,426.9999999999389,36.38
1602831176.2695,72.0,861.0,2093.0,426.9999999999389,36.38
1602831176.2715,72.0,861.0,2079.0,426.9999999999389,36.38
1602831176.2735,72.0,861.0,2064.0,426.9999999999389,36.38
1602831176.2755,72.0,861.0,2037.0,426.9999999999389,36.38
1602831176.2775,72.0,861.0,2010.0,426.9999999999389,36.38
1602831176.2798,72.0,861.0,1993.0,426.9999999999389,36.38
1602831176.2816,72.0,861.0,1978.0,426.9999999999389,36.38
1602831176.2834,72.0,861.0,1966.0,426.9999999999389,36.38
1602831176.2855,72.0,861.0,1956.0,426.9999999999389,36.38
1602831176.2875,72.0,861.0,1939.0,426.9999999999389,36.38
1602831176.2895,72.0,861.0,1916.0,426.9999999999389,36.38
1602831176.2915,72.0,861.0,1902.0,426.9999999999389,36.38
1602831176.2935,72.0,861.0,1892.0,426.9999999999389,36.38
1602831176.2957,72.0,861.0,1885.0,426.9999999999389,36.38
1602831176.2975,72.0,861.0,1877.0,426.9999999999389,36.38
1602831176.2995,72.0,861.0,1850.0,426.9999999999389,36.38
1602831176.3015,72.0,861.0,1806.0,426.9999999999389,36.38
1602831176.3035,72.0,861.0,1786.0,426.9999999999389,36.38
1602831176.3056,72.0,861.0,1786.0,426.9999999999389,36.38
1602831176.3075,72.0,861.0,1764.0,426.9999999999389,36.38
1602831176.3095,72.0,861.0,1720.0,426.9999999999389,36.38
1602831176.3115,72.0,861.0,1671.0,426.9999999999389,36.38
1602831176.3135,72.0,861.0,1636.0,426.9999999999389,36.38
1602831176.3155,72.0,861.0,1612.0,426.9999999999389,36.38
1602831176.3175,72.0,861.0,1558.0,426.9999999999389,36.38
1602831176.3195,72.0,861.0,1509.0,426.9999999999389,36.38
1602831176.3215,72.0,861.0,1516.0,426.9999999999389,36.38
1602831176.3235,72.0,861.0,1506.0,426.9999999999389,36.38
1602831176.3255,72.0,861.0,1454.0,426.9999999999389,36.38
1602831176.782,72.0,861.0,1430.0,426.9999999999389,36.38
1602831176.7832,72.0,861.0,1418.0,426.9999999999389,36.38
1602831176.7857,72.0,861.0,1386.0,426.9999999999389,36.38
1602831176.7883,72.0,861.0,1373.0,426.9999999999389,36.38
1602831176.7902,72.0,861.0,1378.0,426.9999999999389,36.38
1602831176.7923,72.0,861.0,1361.0,426.9999999999389,36.38
1602831176.7944,72.0,861.0,1339.0,426.9999999999389,36.38
1602831176.7963,72.0,861.0,1341.0,426.9999999999389,36.38
1602831176.7983,72.0,861.0,1334.0,426.9999999999389,36.38
1602831176.8002,72.0,861.0,1300.0,426.9999999999389,36.38
1602831176.8022,72.0,861.0,1280.0,426.9999999999389,36.38
1602831176.8043,72.0,861.0,1273.0,426.9999999999389,36.38
1602831176.8062,72.0,861.0,1260.0,426.9999999999389,36.38
1602831176.8082,72.0,861.0,1255.0,426.9999999999389,36.38
1602831176.8103,72.0,861.0,1253.0,426.9999999999389,36.38
1602831176.8122,72.0,861.0,1233.0,426.9999999999389,36.38
1602831176.8142,72.0,861.0,1206.0,426.9999999999389,36.38
1602831176.8162,72.0,861.0,1199.0,426.9999999999389,36.38
1602831176.8182,72.0,861.0,1204.0,426.9999999999389,36.38
1602831176.8202,72.0,861.0,1189.0,426.9999999999389,36.38
1602831176.8222,72.0,861.0,1160.0,426.9999999999389,36.38
1602831176.8242,72.0,861.0,1140.0,426.9999999999389,36.38
1602831176.8261,72.0,861.0,1135.0,426.9999999999389,36.38
1602831176.8282,72.0,861.0,1125.0,426.9858694606714,36.38
1602831176.8302,72.0,861.0,1105.0,426.9731808131659,36.38
1602831176.8321,72.0,861.0,1091.0,426.96190492829584,36.38
1602831176.8341,72.0,861.0,1083.0,426.95201267693477,36.38
1602831176.8361,72.0,861.0,1074.0,426.94347492995627,36.38
1602831176.8381,72.0,861.0,1071.0,426.93626255823364,36.38
1602831176.8401,72.0,861.0,1066.0,426.93034643264053,36.38
1602831176.8422,72.0,861.0,1042.0,426.92569742405027,36.38
1602831176.8441,72.0,861.0,1017.0,426.9222864033366,36.38
1602831176.8461,72.0,861.0,1005.0,426.92008424137276,36.38
1602831176.8481,72.0,861.0,997.0,426.9190618090325,36.38
1602831176.8501,72.0,861.0,992.0,426.9191899771891,36.38
1602831176.8523,72.0,861.0,980.0,426.9204396167161,36.38
1602831176.8542,72.0,861.0,963.0,426.9227815984871,36.38
1602831176.8561,72.0,861.0,965.0,426.9261867933756,36.38
1602831176.8581,72.0,861.0,968.0,426.93062607225494,36.38
1602831176.8602,72.0,861.0,951.0,426.9360703059987,36.38
1602831176.8622,72.0,861.0,936.0,426.9424903654804,36.38
1602831176.8641,72.0,861.0,931.0,426.9498571215734,36.38
1602831176.8661,72.0,861.0,906.0,426.9581414451514,36.38
1602831176.8681,72.0,861.0,884.0,426.9673142070878,36.38
1602831176.8701,72.0,861.0,882.0,426.9773462782561,36.38
1602831176.8722,72.0,861.0,872.0,426.9882085295298,36.38
1602831176.8741,72.0,861.0,865.0,426.9998718317823,36.38
1602831176.8761,72.0,861.0,879.0,427.0123070558872,36.38
1602831176.8782,72.0,861.0,879.0,427.025485072718,36.38
1602831176.8801,72.0,861.0,833.0,427.03937675314825,36.38
1602831176.8821,72.0,861.0,811.0,427.0539529680513,36.38
1602831176.8841,72.0,861.0,825.0,427.06918458830074,36.38
1602831176.8861,72.0,861.0,823.0,427.08504248477,36.38
1602831176.8881,72.0,861.0,815.0,427.1014975283326,36.38
1602831176.8902,72.0,861.0,811.0,427.11852058986193,36.38
1602831176.8921,72.0,861.0,786.0,427.1360825402318,36.38
1602831176.8941,72.0,861.0,776.0,427.15415425031534,36.38
1602831176.8961,72.0,861.0,796.0,427.17270659098637,36.38
1602831176.8981,72.0,861.0,793.0,427.1917104331181,36.38
1602831176.9001,72.0,861.0,764.0,427.2111366475843,36.38
1602831176.9022,72.0,861.0,747.0,427.23095610525814,36.38
1602831176.9041,72.0,861.0,742.0,427.2511396770133,36.38
1602831176.9061,72.0,861.0,725.0,427.2716582337234,36.38
1602831176.9081,72.0,861.0,717.0,427.2924826462617,36.38
1602831176.9101,72.0,861.0,710.0,427.31358378550186,36.38
1602831176.9121,72.0,861.0,690.0,427.3349325223173,36.38
1602831176.9141,72.0,861.0,680.0,427.3564997275815,36.38
1602831176.9161,72.0,861.0,683.0,427.3782562721679,36.38
1602831176.9182,72.0,861.0,697.0,427.4001730269502,36.38
1602831176.9202,72.0,861.0,801.0,427.42222086280174,36.38
1602831176.9221,72.0,861.0,1027.0,427.44437065059606,36.38
1602831176.9241,72.0,861.0,1101.0,427.46659326120664,36.38
1602831176.9261,72.0,861.0,680.0,427.48885956550697,36.38
1602831177.2923,72.0,885.0,196.0,427.51114043437053,36.31
1602831177.2931,72.0,885.0,317.0,427.53340673867086,36.31
1602831177.2956,72.0,885.0,636.0,427.55562934928145,36.31
1602831177.2981,72.0,885.0,621.0,427.5777791370757,36.31
1602831177.3001,72.0,885.0,565.0,427.59982697292725,36.31
1602831177.3021,72.0,885.0,636.0,427.62174372770954,36.31
1602831177.3042,72.0,885.0,651.0,427.643500272296,36.31
1602831177.3061,72.0,885.0,599.0,427.6650674775602,36.31
1602831177.3081,72.0,885.0,584.0,427.6864162143757,36.31
1602831177.3101,72.0,885.0,594.0,427.70751735361586,36.31
1602831177.3121,72.0,885.0,594.0,427.7283417661542,36.31
1602831177.3142,72.0,885.0,577.0,427.74886032286423,36.31
1602831177.3161,72.0,885.0,572.0,427.7690438946195,36.31
1602831177.3182,72.0,885.0,567.0,427.7888633522934,36.31
1602831177.3202,72.0,885.0,548.0,427.8082895667595,36.31
1602831177.3221,72.0,885.0,545.0,427.8272934088913,36.31
1602831177.3241,72.0,885.0,560.0,427.8458457495623,36.31
1602831177.3261,72.0,885.0,540.0,427.8639174596459,36.31
1602831177.328,72.0,885.0,528.0,427.8814794100157,36.31
1602831177.3301,72.0,885.0,552.0,427.89850247154516,36.31
1602831177.3321,72.0,885.0,552.0,427.91495751510774,36.31
1602831177.3341,72.0,885.0,538.0,427.930815411577,36.31
1602831177.3361,72.0,885.0,543.0,427.9460470318264,36.31
1602831177.338,72.0,885.0,548.0,427.9606232467295,36.31
1602831177.3401,72.0,885.0,555.0,427.97451492715965,36.31
1602831177.3421,72.0,885.0,565.0,427.98769294399045,36.31
1602831177.344,72.0,885.0,570.0,428.0001281680954,36.31
1602831177.346,72.0,885.0,570.0,428.01179147034793,36.31
1602831177.3481,72.0,885.0,570.0,428.0226537216216,36.31
1602831177.35,72.0,885.0,572.0,428.0326857927899,36.31
1602831177.3521,72.0,885.0,572.0,428.0418585547263,36.31
1602831177.3541,72.0,885.0,575.0,428.05014287830426,36.31
1602831177.3561,72.0,885.0,584.0,428.0575096343973,36.31
1602831177.358,72.0,885.0,567.0,428.063929693879,36.31
1602831177.3601,72.0,885.0,518.0,428.0693739276228,36.31
1602831177.3621,72.0,885.0,503.0,428.0738132065021,36.31
1602831177.364,72.0,885.0,516.0,428.07721840139055,36.31
1602831177.3661,72.0,885.0,486.0,428.07956038316155,36.31
1602831177.3681,72.0,885.0,437.0,428.0808100226886,36.31
1602831177.37,72.0,885.0,415.0,428.08093819084525,36.31
1602831177.3721,72.0,885.0,400.0,428.0799157585049,36.31
1602831177.3741,72.0,885.0,395.0,428.0777135965411,36.31
1602831177.3762,72.0,885.0,385.0,428.0743025758274,36.31
1602831177.3781,72.0,885.0,358.0,428.06965356723725,36.31
1602831177.38,72.0,885.0,351.0,428.0637374416441,36.31
1602831177.3821,72.0,885.0,356.0,428.05652506992146,36.31
1602831177.3841,72.0,885.0,344.0,428.0479873229429,36.31
1602831177.3861,72.0,885.0,334.0,428.03809507158184,36.31
1602831177.3881,72.0,885.0,356.0,428.0268191867118,36.31
1602831177.3901,72.0,885.0,366.0,428.0141305392063,36.31
1602831177.3921,72.0,885.0,344.0,427.9999999999388,36.31
1602831177.3941,72.0,885.0,336.0,427.9999999999388,36.31
1602831177.3961,72.0,885.0,358.0,427.9999999999388,36.31
1602831177.3981,72.0,885.0,363.0,427.9999999999388,36.31
1602831177.4001,72.0,885.0,351.0,427.9999999999388,36.31
1602831177.4021,72.0,885.0,348.0,427.9999999999388,36.31
1602831177.4041,72.0,885.0,358.0,427.9999999999388,36.31
1602831177.4061,72.0,885.0,353.0,427.9999999999388,36.31
1602831177.4081,72.0,885.0,336.0,427.9999999999388,36.31
1602831177.41,72.0,885.0,331.0,427.9999999999388,36.31
1602831177.412,72.0,885.0,356.0,427.9999999999388,36.31
1602831177.4141,72.0,885.0,368.0,427.9999999999388,36.31
1602831177.4161,72.0,885.0,351.0,427.9999999999388,36.31
1602831177.418,72.0,885.0,344.0,427.9999999999388,36.31
1602831177.4202,72.0,885.0,351.0,427.9999999999388,36.31
1602831177.4221,72.0,885.0,336.0,427.9999999999388,36.31
1602831177.4241,72.0,885.0,314.0,427.9999999999388,36.31
1602831177.4261,72.0,885.0,324.0,427.9999999999388,36.31
1602831177.428,72.0,885.0,344.0,427.9999999999388,36.31
1602831177.4301,72.0,885.0,336.0,427.9999999999388,36.31
1602831177.4321,72.0,885.0,321.0,427.9999999999388,36.31
1602831177.4341,72.0,885.0,314.0,427.9999999999388,36.31
1602831177.4361,72.0,885.0,304.0,427.9999999999388,36.31
1602831177.8318,72.0,889.0,294.0,427.9999999999388,36.31
1602831177.8326,72.0,889.0,287.0,427.9999999999388,36.31
1602831177.8339,72.0,889.0,294.0,427.9999999999388,36.31
1602831177.8358,72.0,889.0,309.0,427.9999999999388,36.31
1602831177.8378,72.0,889.0,309.0,427.9999999999388,36.31
1602831177.8398,72.0,889.0,307.0,427.9999999999388,36.31
1602831177.8418,72.0,889.0,294.0,427.9999999999388,36.31
1602831177.8439,72.0,889.0,280.0,427.9999999999388,36.31
1602831177.8458,72.0,889.0,280.0,427.9999999999388,36.31
1602831177.8478,72.0,889.0,270.0,427.9999999999388,36.31
1602831177.8498,72.0,889.0,258.0,427.9999999999388,36.31
1602831177.8518,72.0,889.0,258.0,427.9999999999388,36.31
1602831177.8538,72.0,889.0,262.0,427.9999999999388,36.31
1602831177.8558,72.0,889.0,265.0,427.9999999999388,36.31
1602831177.8578,72.0,889.0,272.0,427.9999999999388,36.31
1602831177.8598,72.0,889.0,272.0,427.9999999999388,36.31
1602831177.8618,72.0,889.0,258.0,427.9999999999388,36.31
1602831177.8638,72.0,889.0,245.0,427.9999999999388,36.31
1602831177.8657,72.0,889.0,250.0,427.9999999999388,36.31
1602831177.8678,72.0,889.0,260.0,427.9999999999388,36.31
1602831177.8698,72.0,889.0,275.0,427.9999999999388,36.31
1602831177.8718,72.0,889.0,287.0,427.9999999999388,36.31
1602831177.8738,72.0,889.0,285.0,427.9999999999388,36.31
1602831177.8758,72.0,889.0,270.0,428.0141305392063,36.31
1602831177.8778,72.0,889.0,267.0,428.0268191867118,36.31
1602831177.8798,72.0,889.0,265.0,428.03809507158184,36.31
1602831177.8818,72.0,889.0,258.0,428.0479873229429,36.31
1602831177.8838,72.0,889.0,275.0,428.05652506992146,36.31
1602831177.8858,72.0,889.0,290.0,428.0637374416441,36.31
1602831177.8878,72.0,889.0,253.0,428.06965356723725,36.31
1602831177.8898,72.0,889.0,231.0,428.0743025758274,36.31
1602831177.8918,72.0,889.0,245.0,428.0777135965411,36.31
1602831177.8939,72.0,889.0,250.0,428.0799157585049,36.31
1602831177.8958,72.0,889.0,233.0,428.08093819084525,36.31
1602831177.8978,72.0,889.0,221.0,428.0808100226886,36.31
1602831177.8998,72.0,889.0,233.0,428.07956038316155,36.31
1602831177.9018,72.0,889.0,226.0,428.07721840139055,36.31
1602831177.9038,72.0,889.0,258.0,428.0738132065021,36.31
1602831177.9058,72.0,889.0,471.0,428.0693739276228,36.31
1602831177.9078,72.0,889.0,688.0,428.063929693879,36.31
1602831177.9098,72.0,889.0,437.0,428.0575096343973,36.31
1602831177.9117,72.0,889.0,-137.0,428.05014287830426,36.31
1602831177.914,72.0,889.0,-223.0,428.0418585547263,36.31
1602831177.9159,72.0,889.0,169.0,428.0326857927899,36.31
1602831177.9178,72.0,889.0,277.0,428.0226537216216,36.31
1602831177.9198,72.0,889.0,172.0,428.01179147034793,36.31
1602831177.9217,72.0,889.0,216.0,428.0001281680954,36.31
1602831177.9238,72.0,889.0,238.0,427.98769294399045,36.31
1602831177.9258,72.0,889.0,191.0,427.97451492715965,36.31
1602831177.9278,72.0,889.0,201.0,427.9606232467295,36.31
1602831177.9298,72.0,889.0,226.0,427.9460470318264,36.31
1602831177.9318,72.0,889.0,228.0,427.930815411577,36.31
1602831177.9338,72.0,889.0,218.0,427.91495751510774,36.31
1602831177.9358,72.0,889.0,201.0,427.89850247154516,36.31
1602831177.9378,72.0,889.0,211.0,427.8814794100157,36.31
1602831177.9398,72.0,889.0,228.0,427.8639174596459,36.31
1602831177.9418,72.0,889.0,226.0,427.8458457495623,36.31
1602831177.9438,72.0,889.0,223.0,427.8272934088913,36.31
1602831177.9458,72.0,889.0,223.0,427.8082895667595,36.31
1602831177.9478,72.0,889.0,218.0,427.7888633522934,36.31
1602831177.9498,72.0,889.0,231.0,427.7690438946195,36.31
1602831177.9518,72.0,889.0,255.0,427.74886032286423,36.31
1602831177.9538,72.0,889.0,255.0,427.7283417661542,36.31
1602831177.9558,72.0,889.0,238.0,427.70751735361586,36.31
1602831177.9578,72.0,889.0,240.0,427.6864162143757,36.31
1602831177.9598,72.0,889.0,262.0,427.6650674775602,36.31
1602831177.9618,72.0,889.0,280.0,427.643500272296,36.31
1602831177.9638,72.0,889.0,280.0,427.62174372770954,36.31
1602831177.9658,72.0,889.0,277.0,427.59982697292725,36.31
1602831177.9678,72.0,889.0,280.0,427.5777791370757,36.31
1602831177.9698,72.0,889.0,270.0,427.55562934928145,36.31
1602831177.9718,72.0,889.0,272.0,427.53340673867086,36.31
1602831177.9738,72.0,889.0,290.0,427.51114043437053,36.31
1602831178.4309,72.0,889.0,297.0,427.48885956550697,36.31
1602831178.4316,72.0,889.0,294.0,427.46659326120664,36.31
1602831178.434,72.0,889.0,282.0,427.44437065059606,36.31
1602831178.4366,72.0,889.0,248.0,427.42222086280174,36.31
1602831178.4385,72.0,889.0,231.0,427.4001730269502,36.31
1602831178.4406,72.0,889.0,235.0,427.3782562721679,36.31
1602831178.4426,72.0,889.0,208.0,427.3564997275815,36.31
1602831178.4446,72.0,889.0,162.0,427.3349325223173,36.31
1602831178.4465,72.0,889.0,137.0,427.31358378550186,36.31
1602831178.4485,72.0,889.0,127.0,427.2924826462617,36.31
1602831178.4505,72.0,889.0,117.0,427.2716582337234,36.31
1602831178.4525,72.0,889.0,110.0,427.2511396770133,36.31
1602831178.4545,72.0,889.0,113.0,427.23095610525814,36.31
1602831178.4565,72.0,889.0,117.0,427.2111366475843,36.31
1602831178.4585,72.0,889.0,117.0,427.1917104331181,36.31
1602831178.4605,72.0,889.0,115.0,427.17270659098637,36.31
1602831178.4625,72.0,889.0,117.0,427.15415425031534,36.31
1602831178.4645,72.0,889.0,115.0,427.1360825402318,36.31
1602831178.4666,72.0,889.0,115.0,427.11852058986193,36.31
1602831178.4685,72.0,889.0,127.0,427.1014975283326,36.31
1602831178.4707,72.0,889.0,135.0,427.08504248477,36.31
1602831178.4726,72.0,889.0,130.0,427.06918458830074,36.31
1602831178.4746,72.0,889.0,135.0,427.0539529680513,36.31
1602831178.4765,72.0,889.0,154.0,427.03937675314825,36.31
1602831178.4785,72.0,889.0,159.0,427.025485072718,36.31
1602831178.4805,72.0,889.0,145.0,427.0123070558872,36.31
1602831178.4825,72.0,889.0,147.0,426.9998718317823,36.31
1602831178.4846,72.0,889.0,152.0,426.9882085295298,36.31
1602831178.4865,72.0,889.0,147.0,426.9773462782561,36.31
1602831178.4885,72.0,889.0,147.0,426.9673142070878,36.31
1602831178.4905,72.0,889.0,145.0,426.9581414451514,36.31
1602831178.4925,72.0,889.0,130.0,426.9498571215734,36.31
1602831178.4946,72.0,889.0,130.0,426.9424903654804,36.31
1602831178.4966,72.0,889.0,159.0,426.9360703059987,36.31
1602831178.4985,72.0,889.0,154.0,426.93062607225494,36.31
1602831178.5005,72.0,889.0,127.0,426.9261867933756,36.31
1602831178.5025,72.0,889.0,130.0,426.9227815984871,36.31
1602831178.5046,72.0,889.0,147.0,426.9204396167161,36.31
1602831178.5065,72.0,889.0,152.0,426.9191899771891,36.31
1602831178.5085,72.0,889.0,140.0,426.9190618090325,36.31
1602831178.5105,72.0,889.0,132.0,426.92008424137276,36.31
1602831178.5125,72.0,889.0,135.0,426.9222864033366,36.31
1602831178.5146,72.0,889.0,122.0,426.92569742405027,36.31
1602831178.5167,72.0,889.0,117.0,426.93034643264053,36.31
1602831178.5186,72.0,889.0,127.0,426.93626255823364,36.31
1602831178.5206,72.0,889.0,132.0,426.94347492995627,36.31
1602831178.5225,72.0,889.0,149.0,426.95201267693477,36.31
1602831178.5246,72.0,889.0,167.0,426.96190492829584,36.31
1602831178.5265,72.0,889.0,159.0,426.9731808131659,36.31
1602831178.5285,72.0,889.0,154.0,426.9858694606714,36.31
1602831178.5305,72.0,889.0,147.0,426.9999999999389,36.31
1602831178.5325,72.0,889.0,135.0,426.9999999999389,36.31
1602831178.5345,72.0,889.0,145.0,426.9999999999389,36.31
1602831178.5365,72.0,889.0,149.0,426.9999999999389,36.31
1602831178.5386,72.0,889.0,140.0,426.9999999999389,36.31
1602831178.5405,72.0,889.0,125.0,426.9999999999389,36.31
1602831178.5425,72.0,889.0,108.0,426.9999999999389,36.31
1602831178.5446,72.0,889.0,113.0,426.9999999999389,36.31
1602831178.5466,72.0,889.0,152.0,426.9999999999389,36.31
1602831178.5485,72.0,889.0,174.0,426.9999999999389,36.31
1602831178.5506,72.0,889.0,159.0,426.9999999999389,36.31
1602831178.5525,72.0,889.0,147.0,426.9999999999389,36.31
1602831178.5546,72.0,889.0,152.0,426.9999999999389,36.31
1602831178.5566,72.0,889.0,145.0,426.9999999999389,36.31
1602831178.5585,72.0,889.0,132.0,426.9999999999389,36.31
1602831178.5605,72.0,889.0,135.0,426.9999999999389,36.31
1602831178.5625,72.0,889.0,135.0,426.9999999999389,36.31
1602831178.5646,72.0,889.0,117.0,426.9999999999389,36.31
1602831178.5665,72.0,889.0,108.0,426.9999999999389,36.31
1602831178.5686,72.0,889.0,120.0,426.9999999999389,36.31
1602831178.5706,72.0,889.0,137.0,426.9999999999389,36.31
1602831178.5728,72.0,889.0,145.0,426.9999999999389,36.31
1602831178.5746,72.0,889.0,132.0,426.9999999999389,36.31
1602831179.0015,72.0,900.0,122.0,426.9999999999389,36.31
1602831179.0024,72.0,900.0,169.0,426.9999999999389,36.31
1602831179.0049,72.0,900.0,346.0,426.9999999999389,36.31
1602831179.0075,72.0,900.0,577.0,426.9999999999389,36.31
1602831179.0094,72.0,900.0,437.0,426.9999999999389,36.31
1602831179.0114,72.0,900.0,-162.0,426.9999999999389,36.31
1602831179.0135,72.0,900.0,-420.0,426.9999999999389,36.31
1602831179.0154,72.0,900.0,-46.0,426.9999999999389,36.31
1602831179.0174,72.0,900.0,179.0,426.9999999999389,36.31
1602831179.0193,72.0,900.0,81.0,426.9999999999389,36.31
1602831179.0214,72.0,900.0,95.0,426.9999999999389,36.31
1602831179.0234,72.0,900.0,167.0,426.9999999999389,36.31
1602831179.0254,72.0,900.0,132.0,426.9999999999389,36.31
1602831179.0274,72.0,900.0,105.0,426.9999999999389,36.31
1602831179.0294,72.0,900.0,140.0,426.9999999999389,36.31
1602831179.0314,72.0,900.0,147.0,426.9999999999389,36.31
1602831179.0334,72.0,900.0,127.0,426.9999999999389,36.31
1602831179.0354,72.0,900.0,127.0,426.9999999999389,36.31
1602831179.0374,72.0,900.0,125.0,426.9999999999389,36.31
1602831179.0394,72.0,900.0,115.0,426.9999999999389,36.31
1602831179.0414,72.0,900.0,125.0,426.9999999999389,36.31
1602831179.0434,72.0,900.0,132.0,426.9999999999389,36.31
1602831179.0454,72.0,900.0,130.0,426.9999999999389,36.31
1602831179.0474,72.0,900.0,135.0,426.9999999999389,36.31
1602831179.0495,72.0,900.0,125.0,426.9999999999389,36.31
1602831179.0514,72.0,900.0,105.0,426.9999999999389,36.31
1602831179.0534,72.0,900.0,113.0,426.9999999999389,36.31
1602831179.0554,72.0,900.0,130.0,426.9999999999389,36.31
1602831179.0574,72.0,900.0,157.0,426.9999999999389,36.31
1602831179.0594,72.0,900.0,184.0,426.9999999999389,36.31
1602831179.0614,72.0,900.0,199.0,426.9999999999389,36.31
1602831179.0634,72.0,900.0,213.0,426.9999999999389,36.31
1602831179.0654,72.0,900.0,216.0,426.9999999999389,36.31
1602831179.0674,72.0,900.0,203.0,426.9999999999389,36.31
1602831179.0694,72.0,900.0,211.0,426.9999999999389,36.31
1602831179.0714,72.0,900.0,221.0,426.9999999999389,36.31
1602831179.0734,72.0,900.0,216.0,426.9999999999389,36.31
1602831179.0754,72.0,900.0,213.0,426.9999999999389,36.31
1602831179.0774,72.0,900.0,206.0,426.9999999999389,36.31
1602831179.0794,72.0,900.0,196.0,426.9999999999389,36.31
1602831179.0814,72.0,900.0,174.0,426.9999999999389,36.31
1602831179.0834,72.0,900.0,149.0,426.9999999999389,36.31
1602831179.0854,72.0,900.0,149.0,426.9999999999389,36.31
1602831179.0874,72.0,900.0,149.0,426.9999999999389,36.31
1602831179.0894,72.0,900.0,127.0,426.9999999999389,36.31
1602831179.0914,72.0,900.0,110.0,426.9999999999389,36.31
1602831179.0934,72.0,900.0,88.0,426.9999999999389,36.31
1602831179.0954,72.0,900.0,56.0,426.9999999999389,36.31
1602831179.0974,72.0,900.0,44.0,426.9999999999389,36.31
1602831179.0996,72.0,900.0,56.0,426.9999999999389,36.31
1602831179.1014,72.0,900.0,66.0,426.9999999999389,36.31
1602831179.1033,72.0,900.0,54.0,426.9999999999389,36.31
1602831179.1054,72.0,900.0,34.0,426.9999999999389,36.31
1602831179.1074,72.0,900.0,56.0,426.9999999999389,36.31
1602831179.1095,72.0,900.0,105.0,426.9999999999389,36.31
1602831179.1114,72.0,900.0,117.0,426.9999999999389,36.31
1602831179.1134,72.0,900.0,95.0,426.9999999999389,36.31
1602831179.1154,72.0,900.0,90.0,426.9999999999389,36.31
1602831179.1174,72.0,900.0,98.0,426.9999999999389,36.31
1602831179.1194,72.0,900.0,93.0,426.9999999999389,36.31
1602831179.1214,72.0,900.0,88.0,426.9999999999389,36.31
1602831179.1234,72.0,900.0,86.0,426.9999999999389,36.31
1602831179.1254,72.0,900.0,86.0,426.9999999999389,36.31
1602831179.1273,72.0,900.0,105.0,426.9999999999389,36.31
1602831179.1294,72.0,900.0,127.0,426.9999999999389,36.31
1602831179.1315,72.0,900.0,127.0,426.9999999999389,36.31
1602831179.1334,72.0,900.0,120.0,426.9999999999389,36.31
1602831179.1354,72.0,900.0,108.0,426.9999999999389,36.31
1602831179.1374,72.0,900.0,90.0,426.9999999999389,36.31
1602831179.1394,72.0,900.0,100.0,426.9999999999389,36.31
1602831179.1414,72.0,900.0,132.0,426.9999999999389,36.31
1602831179.1434,72.0,900.0,137.0,426.9999999999389,36.31
1602831179.1454,72.0,900.0,115.0,426.9999999999389,36.31
1602831179.5713,72.0,900.0,105.0,426.9999999999389,36.31
1602831179.5725,72.0,900.0,110.0,426.9999999999389,36.31
1602831179.575,72.0,900.0,95.0,426.9999999999389,36.31
1602831179.5776,72.0,900.0,86.0,426.9999999999389,36.31
1602831179.5796,72.0,900.0,93.0,426.9999999999389,36.31
1602831179.5815,72.0,900.0,103.0,426.9999999999389,36.31
1602831179.5837,72.0,900.0,105.0,426.9999999999389,36.31
1602831179.5855,72.0,900.0,100.0,426.9999999999389,36.31
1602831179.5876,72.0,900.0,105.0,426.9999999999389,36.31
1602831179.5896,72.0,900.0,103.0,426.9999999999389,36.31
1602831179.5915,72.0,900.0,81.0,426.9999999999389,36.31
1602831179.5935,72.0,900.0,71.0,426.9999999999389,36.31
1602831179.5955,72.0,900.0,93.0,426.9999999999389,36.31
1602831179.5975,72.0,900.0,132.0,426.9999999999389,36.31
1602831179.5996,72.0,900.0,162.0,426.9999999999389,36.31
1602831179.6015,72.0,900.0,149.0,426.9999999999389,36.31
1602831179.6034,72.0,900.0,125.0,426.9999999999389,36.31
1602831179.6054,72.0,900.0,95.0,426.9999999999389,36.31
1602831179.6075,72.0,900.0,71.0,426.9999999999389,36.31
1602831179.6095,72.0,900.0,61.0,426.9999999999389,36.31
1602831179.6115,72.0,900.0,56.0,426.9999999999389,36.31
1602831179.6134,72.0,900.0,68.0,426.9999999999389,36.31
1602831179.6154,72.0,900.0,88.0,426.9999999999389,36.31
1602831179.6174,72.0,900.0,90.0,426.9999999999389,36.31
1602831179.6195,72.0,900.0,93.0,426.9999999999389,36.31
1602831179.6214,72.0,900.0,110.0,426.9999999999389,36.31
1602831179.6234,72.0,900.0,137.0,426.9999999999389,36.31
1602831179.6256,72.0,900.0,140.0,426.9999999999389,36.31
1602831179.6275,72.0,900.0,108.0,426.9999999999389,36.31
1602831179.6294,72.0,900.0,110.0,426.9999999999389,36.31
1602831179.6314,72.0,900.0,140.0,426.9999999999389,36.31
1602831179.6334,72.0,900.0,120.0,426.9999999999389,36.31
1602831179.6355,72.0,900.0,76.0,426.9999999999389,36.31
1602831179.6374,72.0,900.0,78.0,426.9999999999389,36.31
1602831179.6395,72.0,900.0,105.0,426.9999999999389,36.31
1602831179.6401,72.0,900.0,98.0,426.9999999999389,36.31
1602831179.6414,72.0,900.0,100.0,426.9999999999389,36.31
1602831179.6434,72.0,900.0,231.0,426.9999999999389,36.31
1602831179.6455,72.0,900.0,476.0,426.9999999999389,36.31
1602831179.6474,72.0,900.0,503.0,426.9999999999389,36.31
1602831179.6495,72.0,900.0,17.0,426.9999999999389,36.31
1602831179.6514,72.0,900.0,-420.0,426.9999999999389,36.31
1602831179.6534,72.0,900.0,-179.0,426.9999999999389,36.31
1602831179.6554,72.0,900.0,174.0,426.9999999999389,36.31
1602831179.6574,72.0,900.0,135.0,426.9999999999389,36.31
1602831179.6594,72.0,900.0,68.0,426.9999999999389,36.31
1602831179.6614,72.0,900.0,115.0,426.9999999999389,36.31
1602831179.6634,72.0,900.0,100.0,426.9999999999389,36.31
1602831179.6654,72.0,900.0,81.0,426.9999999999389,36.31
1602831179.6674,72.0,900.0,145.0,426.9999999999389,36.31
1602831179.6694,72.0,900.0,186.0,426.9999999999389,36.31
1602831179.6702,72.0,900.0,147.0,426.9999999999389,36.31
1602831179.6724,72.0,900.0,81.0,426.9999999999389,36.31
1602831179.6744,72.0,900.0,73.0,426.9999999999389,36.31
1602831179.6766,72.0,900.0,113.0,426.9999999999389,36.31
1602831179.6785,72.0,900.0,120.0,426.9999999999389,36.31
1602831179.6805,72.0,900.0,125.0,426.9999999999389,36.31
1602831179.6824,72.0,900.0,159.0,426.9999999999389,36.31
1602831179.6845,72.0,900.0,145.0,426.9999999999389,36.31
1602831179.6864,72.0,900.0,110.0,426.9999999999389,36.31
1602831179.6884,72.0,900.0,127.0,426.9999999999389,36.31
1602831179.6904,72.0,900.0,159.0,426.9999999999389,36.31
1602831179.6924,72.0,900.0,162.0,426.9999999999389,36.31
1602831179.6944,72.0,900.0,142.0,426.9999999999389,36.31
1602831179.6964,72.0,900.0,140.0,426.9999999999389,36.31
1602831179.6984,72.0,900.0,169.0,426.9999999999389,36.31
1602831179.6991,72.0,900.0,186.0,426.9999999999389,36.31
1602831179.7014,72.0,900.0,179.0,426.9999999999389,36.31
1602831179.7034,72.0,900.0,186.0,426.9999999999389,36.31
1602831179.7055,72.0,900.0,201.0,426.9999999999389,36.31
1602831179.7074,72.0,900.0,189.0,426.9999999999389,36.31
1602831179.7094,72.0,900.0,181.0,426.9999999999389,36.31
1602831179.7114,72.0,900.0,189.0,426.9999999999389,36.31
1602831180.1117,71.0,900.0,181.0,426.9999999999389,36.31
1602831180.1127,71.0,900.0,164.0,426.9999999999389,36.31
1602831180.1151,71.0,900.0,162.0,426.9999999999389,36.31
1602831180.1178,71.0,900.0,140.0,426.9999999999389,36.31
1602831180.1198,71.0,900.0,103.0,426.9999999999389,36.31
1602831180.122,71.0,900.0,105.0,426.9999999999389,36.31
1602831180.1228,71.0,900.0,113.0,426.9999999999389,36.31
1602831180.1248,71.0,900.0,88.0,426.9999999999389,36.31
1602831180.1267,71.0,900.0,63.0,426.9999999999389,36.31
1602831180.1287,71.0,900.0,51.0,426.9999999999389,36.31
1602831180.1307,71.0,900.0,44.0,426.9999999999389,36.31
1602831180.1327,71.0,900.0,44.0,426.9999999999389,36.31
1602831180.1347,71.0,900.0,51.0,426.9999999999389,36.31
1602831180.1366,71.0,900.0,34.0,426.9999999999389,36.31
1602831180.1386,71.0,900.0,9.0,426.9999999999389,36.31
1602831180.1406,71.0,900.0,22.0,426.9999999999389,36.31
1602831180.1426,71.0,900.0,31.0,426.9999999999389,36.31
1602831180.1446,71.0,900.0,24.0,426.9999999999389,36.31
1602831180.1466,71.0,900.0,31.0,426.9999999999389,36.31
1602831180.1486,71.0,900.0,58.0,426.9999999999389,36.31
1602831180.1506,71.0,900.0,76.0,426.9999999999389,36.31
1602831180.1527,71.0,900.0,61.0,426.9999999999389,36.31
1602831180.1533,71.0,900.0,44.0,426.9999999999389,36.31
1602831180.1546,71.0,900.0,49.0,426.9858694606714,36.31
1602831180.1566,71.0,900.0,58.0,426.9731808131659,36.31
1602831180.1586,71.0,900.0,68.0,426.96190492829584,36.31
1602831180.1606,71.0,900.0,73.0,426.95201267693477,36.31
1602831180.1626,71.0,900.0,78.0,426.94347492995627,36.31
1602831180.1647,71.0,900.0,90.0,426.93626255823364,36.31
1602831180.1666,71.0,900.0,86.0,426.93034643264053,36.31
1602831180.1687,71.0,900.0,58.0,426.92569742405027,36.31
1602831180.1706,71.0,900.0,49.0,426.9222864033366,36.31
1602831180.1726,71.0,900.0,68.0,426.92008424137276,36.31
1602831180.1747,71.0,900.0,86.0,426.9190618090325,36.31
1602831180.1766,71.0,900.0,71.0,426.9191899771891,36.31
1602831180.1786,71.0,900.0,56.0,426.9204396167161,36.31
1602831180.1806,71.0,900.0,68.0,426.9227815984871,36.31
1602831180.1827,71.0,900.0,83.0,426.9261867933756,36.31
1602831180.1833,71.0,900.0,68.0,426.93062607225494,36.31
1602831180.1857,71.0,900.0,56.0,426.9360703059987,36.31
1602831180.1876,71.0,900.0,88.0,426.9424903654804,36.31
1602831180.1896,71.0,900.0,115.0,426.9498571215734,36.31
1602831180.1916,71.0,900.0,103.0,426.9581414451514,36.31
1602831180.1936,71.0,900.0,90.0,426.9673142070878,36.31
1602831180.1956,71.0,900.0,81.0,426.9773462782561,36.31
1602831180.1977,71.0,900.0,66.0,426.9882085295298,36.31
1602831180.1996,71.0,900.0,71.0,426.9998718317823,36.31
1602831180.2016,71.0,900.0,93.0,427.0123070558872,36.31
1602831180.2037,71.0,900.0,88.0,427.025485072718,36.31
1602831180.2056,71.0,900.0,68.0,427.03937675314825,36.31
1602831180.2076,71.0,900.0,78.0,427.0539529680513,36.31
1602831180.2096,71.0,900.0,88.0,427.06918458830074,36.31
1602831180.2116,71.0,900.0,76.0,427.08504248477,36.31
1602831180.2136,71.0,900.0,68.0,427.1014975283326,36.31
1602831180.2144,71.0,900.0,76.0,427.11852058986193,36.31
1602831180.2166,71.0,900.0,86.0,427.1360825402318,36.31
1602831180.2189,71.0,900.0,103.0,427.15415425031534,36.31
1602831180.2207,71.0,900.0,117.0,427.17270659098637,36.31
1602831180.2226,71.0,900.0,115.0,427.1917104331181,36.31
1602831180.2247,71.0,900.0,100.0,427.2111366475843,36.31
1602831180.2266,71.0,900.0,86.0,427.23095610525814,36.31
1602831180.2286,71.0,900.0,78.0,427.2511396770133,36.31
1602831180.2306,71.0,900.0,78.0,427.2716582337234,36.31
1602831180.2326,71.0,900.0,78.0,427.2924826462617,36.31
1602831180.2347,71.0,900.0,76.0,427.31358378550186,36.31
1602831180.2366,71.0,900.0,83.0,427.3349325223173,36.31
1602831180.2386,71.0,900.0,86.0,427.3564997275815,36.31
1602831180.2407,71.0,900.0,71.0,427.3782562721679,36.31
1602831180.2427,71.0,900.0,73.0,427.4001730269502,36.31
1602831180.2447,71.0,900.0,100.0,427.42222086280174,36.31
1602831180.2453,71.0,900.0,103.0,427.44437065059606,36.31
1602831180.2476,71.0,900.0,68.0,427.46659326120664,36.31
1602831180.2496,71.0,900.0,78.0,427.48885956550697,36.31
1602831180.6516,71.0,900.0,231.0,427.51114043437053,36.31
1602831180.6526,71.0,900.0,459.0,427.53340673867086,36.31
1602831180.655,71.0,900.0,415.0,427.55562934928145,36.31
1602831180.6576,71.0,900.0,-78.0,427.5777791370757,36.31
1602831180.6596,71.0,900.0,-395.0,427.59982697292725,36.31
1602831180.6616,71.0,900.0,-125.0,427.62174372770954,36.31
1602831180.6638,71.0,900.0,122.0,427.643500272296,36.31
1602831180.6656,71.0,900.0,56.0,427.6650674775602,36.31
1602831180.6676,71.0,900.0,44.0,427.6864162143757,36.31
1602831180.6696,71.0,900.0,113.0,427.70751735361586,36.31
1602831180.6716,71.0,900.0,83.0,427.7283417661542,36.31
1602831180.6736,71.0,900.0,36.0,427.74886032286423,36.31
1602831180.6743,71.0,900.0,63.0,427.7690438946195,36.31
1602831180.6767,71.0,900.0,98.0,427.7888633522934,36.31
1602831180.6785,71.0,900.0,100.0,427.8082895667595,36.31
1602831180.6806,71.0,900.0,93.0,427.8272934088913,36.31
1602831180.6825,71.0,900.0,86.0,427.8458457495623,36.31
1602831180.6845,71.0,900.0,88.0,427.8639174596459,36.31
1602831180.6865,71.0,900.0,100.0,427.8814794100157,36.31
1602831180.6885,71.0,900.0,100.0,427.89850247154516,36.31
1602831180.6905,71.0,900.0,90.0,427.91495751510774,36.31
1602831180.6925,71.0,900.0,88.0,427.930815411577,36.31
1602831180.6945,71.0,900.0,93.0,427.9460470318264,36.31
1602831180.6965,71.0,900.0,103.0,427.9606232467295,36.31
1602831180.6985,71.0,900.0,113.0,427.97451492715965,36.31
1602831180.7005,71.0,900.0,117.0,427.98769294399045,36.31
1602831180.7025,71.0,900.0,115.0,428.0001281680954,36.31
1602831180.7045,71.0,900.0,125.0,428.01179147034793,36.31
1602831180.7052,71.0,900.0,140.0,428.0226537216216,36.31
1602831180.7065,71.0,900.0,140.0,428.0326857927899,36.31
1602831180.7085,71.0,900.0,135.0,428.0418585547263,36.31
1602831180.7107,71.0,900.0,140.0,428.05014287830426,36.31
1602831180.7125,71.0,900.0,154.0,428.0575096343973,36.31
1602831180.7145,71.0,900.0,157.0,428.063929693879,36.31
1602831180.7167,71.0,900.0,152.0,428.0693739276228,36.31
1602831180.7186,71.0,900.0,149.0,428.0738132065021,36.31
1602831180.7205,71.0,900.0,145.0,428.07721840139055,36.31
1602831180.7226,71.0,900.0,154.0,428.07956038316155,36.31
1602831180.7245,71.0,900.0,159.0,428.0808100226886,36.31
1602831180.7265,71.0,900.0,127.0,428.08093819084525,36.31
1602831180.7285,71.0,900.0,93.0,428.0799157585049,36.31
1602831180.7305,71.0,900.0,88.0,428.0777135965411,36.31
1602831180.7325,71.0,900.0,81.0,428.0743025758274,36.31
1602831180.7332,71.0,900.0,51.0,428.06965356723725,36.31
1602831180.7356,71.0,900.0,36.0,428.0637374416441,36.31
1602831180.7376,71.0,900.0,36.0,428.05652506992146,36.31
1602831180.7395,71.0,900.0,27.0,428.0479873229429,36.31
1602831180.7416,71.0,900.0,19.0,428.03809507158184,36.31
1602831180.7435,71.0,900.0,29.0,428.0268191867118,36.31
1602831180.7456,71.0,900.0,44.0,428.0141305392063,36.31
1602831180.7475,71.0,900.0,36.0,427.9999999999388,36.31
1602831180.7495,71.0,900.0,17.0,427.9999999999388,36.31
1602831180.7515,71.0,900.0,19.0,427.9999999999388,36.31
1602831180.7535,71.0,900.0,41.0,427.9999999999388,36.31
1602831180.7555,71.0,900.0,51.0,427.9999999999388,36.31
1602831180.7575,71.0,900.0,46.0,427.9999999999388,36.31
1602831180.7595,71.0,900.0,46.0,427.9999999999388,36.31
1602831180.7615,71.0,900.0,49.0,427.9999999999388,36.31
1602831180.7635,71.0,900.0,46.0,427.9999999999388,36.31
1602831180.7642,71.0,900.0,44.0,427.9999999999388,36.31
1602831180.7665,71.0,900.0,51.0,427.9999999999388,36.31
1602831180.7686,71.0,900.0,61.0,427.9999999999388,36.31
1602831180.7706,71.0,900.0,61.0,427.9999999999388,36.31
1602831180.7725,71.0,900.0,56.0,427.9999999999388,36.31
1602831180.7745,71.0,900.0,56.0,427.9999999999388,36.31
1602831180.7765,71.0,900.0,54.0,427.9999999999388,36.31
1602831180.7785,71.0,900.0,46.0,427.9999999999388,36.31
1602831180.7805,71.0,900.0,49.0,427.9999999999388,36.31
1602831180.7825,71.0,900.0,58.0,427.9999999999388,36.31
1602831180.7845,71.0,900.0,63.0,427.9999999999388,36.31
1602831180.7865,71.0,900.0,61.0,427.9999999999388,36.31
1602831180.7885,71.0,900.0,58.0,427.9999999999388,36.31
1602831180.7905,71.0,900.0,56.0,427.9999999999388,36.31
1602831181.222,71.0,867.0,63.0,427.9999999999388,36.31
1602831181.2231,71.0,867.0,68.0,427.9999999999388,36.31
1602831181.2253,71.0,867.0,68.0,427.9999999999388,36.31
1602831181.227,71.0,867.0,73.0,427.9999999999388,36.31
1602831181.229,71.0,867.0,68.0,427.9999999999388,36.31
1602831181.231,71.0,867.0,56.0,427.9999999999388,36.31
1602831181.2331,71.0,867.0,51.0,427.9999999999388,36.31
1602831181.2349,71.0,867.0,54.0,427.9999999999388,36.31
1602831181.2369,71.0,867.0,51.0,427.9999999999388,36.31
1602831181.2389,71.0,867.0,58.0,427.9999999999388,36.31
1602831181.2409,71.0,867.0,73.0,427.9999999999388,36.31
1602831181.243,71.0,867.0,66.0,427.9999999999388,36.31
1602831181.2451,71.0,867.0,58.0,427.9999999999388,36.31
1602831181.247,71.0,867.0,58.0,427.9999999999388,36.31
1602831181.2489,71.0,867.0,61.0,427.9999999999388,36.31
1602831181.2509,71.0,867.0,71.0,427.9999999999388,36.31
1602831181.2529,71.0,867.0,88.0,427.9999999999388,36.31
1602831181.255,71.0,867.0,98.0,427.9999999999388,36.31
1602831181.2569,71.0,867.0,93.0,427.9999999999388,36.31
1602831181.2589,71.0,867.0,88.0,427.9999999999388,36.31
1602831181.2609,71.0,867.0,93.0,427.9999999999388,36.31
1602831181.2629,71.0,867.0,93.0,427.9999999999388,36.31
1602831181.2649,71.0,867.0,76.0,427.9999999999388,36.31
1602831181.2669,71.0,867.0,63.0,428.0141305392063,36.31
1602831181.2689,71.0,867.0,63.0,428.0268191867118,36.31
1602831181.2709,71.0,867.0,63.0,428.03809507158184,36.31
1602831181.2729,71.0,867.0,63.0,428.0479873229429,36.31
1602831181.275,71.0,867.0,71.0,428.05652506992146,36.31
1602831181.2769,71.0,867.0,78.0,428.0637374416441,36.31
1602831181.2789,71.0,867.0,68.0,428.06965356723725,36.31
1602831181.2809,71.0,867.0,54.0,428.0743025758274,36.31
1602831181.2829,71.0,867.0,145.0,428.0777135965411,36.31
1602831181.2851,71.0,867.0,405.0,428.0799157585049,36.31
1602831181.287,71.0,867.0,577.0,428.08093819084525,36.31
1602831181.2889,71.0,867.0,221.0,428.0808100226886,36.31
1602831181.291,71.0,867.0,-371.0,428.07956038316155,36.31
1602831181.2929,71.0,867.0,-371.0,428.07721840139055,36.31
1602831181.295,71.0,867.0,39.0,428.0738132065021,36.31
1602831181.2969,71.0,867.0,113.0,428.0693739276228,36.31
1602831181.2989,71.0,867.0,34.0,428.063929693879,36.31
1602831181.3009,71.0,867.0,105.0,428.0575096343973,36.31
1602831181.3029,71.0,867.0,127.0,428.05014287830426,36.31
1602831181.3049,71.0,867.0,81.0,428.0418585547263,36.31
1602831181.3069,71.0,867.0,95.0,428.0326857927899,36.31
1602831181.3089,71.0,867.0,113.0,428.0226537216216,36.31
1602831181.3109,71.0,867.0,100.0,428.01179147034793,36.31
1602831181.3129,71.0,867.0,108.0,428.0001281680954,36.31
1602831181.3149,71.0,867.0,117.0,427.98769294399045,36.31
1602831181.3169,71.0,867.0,110.0,427.97451492715965,36.31
1602831181.3189,71.0,867.0,105.0,427.9606232467295,36.31
1602831181.3209,71.0,867.0,113.0,427.9460470318264,36.31
1602831181.3229,71.0,867.0,125.0,427.930815411577,36.31
1602831181.325,71.0,867.0,125.0,427.91495751510774,36.31
1602831181.3269,71.0,867.0,122.0,427.89850247154516,36.31
1602831181.3289,71.0,867.0,132.0,427.8814794100157,36.31
1602831181.3309,71.0,867.0,137.0,427.8639174596459,36.31
1602831181.3329,71.0,867.0,132.0,427.8458457495623,36.31
1602831181.3349,71.0,867.0,140.0,427.8272934088913,36.31
1602831181.3369,71.0,867.0,149.0,427.8082895667595,36.31
1602831181.3389,71.0,867.0,154.0,427.7888633522934,36.31
1602831181.3409,71.0,867.0,159.0,427.7690438946195,36.31
1602831181.343,71.0,867.0,167.0,427.74886032286423,36.31
1602831181.345,71.0,867.0,172.0,427.7283417661542,36.31
1602831181.3471,71.0,867.0,174.0,427.70751735361586,36.31
1602831181.3489,71.0,867.0,176.0,427.6864162143757,36.31
1602831181.3509,71.0,867.0,181.0,427.6650674775602,36.31
1602831181.3529,71.0,867.0,184.0,427.643500272296,36.31
1602831181.3549,71.0,867.0,184.0,427.62174372770954,36.31
1602831181.3569,71.0,867.0,174.0,427.59982697292725,36.31
1602831181.3589,71.0,867.0,167.0,427.5777791370757,36.31
1602831181.3609,71.0,867.0,147.0,427.55562934928145,36.31
1602831181.3629,71.0,867.0,117.0,427.53340673867086,36.31
1602831181.365,71.0,867.0,88.0,427.51114043437053,36.31
1602831181.8211,71.0,852.0,73.0,427.48885956550697,36.38
1602831181.8219,71.0,852.0,54.0,427.46659326120664,36.38
1602831181.8231,71.0,852.0,24.0,427.44437065059606,36.38
1602831181.8252,71.0,852.0,19.0,427.42222086280174,36.38
1602831181.8271,71.0,852.0,22.0,427.4001730269502,36.38
1602831181.8291,71.0,852.0,7.0,427.3782562721679,36.38
1602831181.8311,71.0,852.0,-4.0,427.3564997275815,36.38
1602831181.8331,71.0,852.0,-9.0,427.3349325223173,36.38
1602831181.8351,71.0,852.0,-14.0,427.31358378550186,36.38
1602831181.8371,71.0,852.0,-7.0,427.2924826462617,36.38
1602831181.839,71.0,852.0,0.0,427.2716582337234,36.38
1602831181.841,71.0,852.0,7.0,427.2511396770133,36.38
1602831181.8431,71.0,852.0,19.0,427.23095610525814,36.38
1602831181.8451,71.0,852.0,24.0,427.2111366475843,36.38
1602831181.847,71.0,852.0,14.0,427.1917104331181,36.38
1602831181.849,71.0,852.0,22.0,427.17270659098637,36.38
1602831181.851,71.0,852.0,34.0,427.15415425031534,36.38
1602831181.853,71.0,852.0,39.0,427.1360825402318,36.38
1602831181.8551,71.0,852.0,41.0,427.11852058986193,36.38
1602831181.8571,71.0,852.0,46.0,427.1014975283326,36.38
1602831181.859,71.0,852.0,44.0,427.08504248477,36.38
1602831181.861,71.0,852.0,46.0,427.06918458830074,36.38
1602831181.863,71.0,852.0,54.0,427.0539529680513,36.38
1602831181.8652,71.0,852.0,58.0,427.02524621388073,36.38
1602831181.867,71.0,852.0,54.0,426.99866588594506,36.38
1602831181.869,71.0,852.0,54.0,426.97421198424416,36.38
1602831181.871,71.0,852.0,56.0,426.95188450877816,36.38
1602831181.873,71.0,852.0,56.0,426.93168345954706,36.38
1602831181.875,71.0,852.0,51.0,426.91360883655074,36.38
1602831181.8771,71.0,852.0,49.0,426.8976606397893,36.38
1602831181.879,71.0,852.0,49.0,426.8838388692628,36.38
1602831181.881,71.0,852.0,49.0,426.87214352497114,36.38
1602831181.883,71.0,852.0,54.0,426.8625746069143,36.38
1602831181.885,71.0,852.0,56.0,426.8551321150922,36.38
1602831181.887,71.0,852.0,54.0,426.84981604950514,36.38
1602831181.889,71.0,852.0,56.0,426.84662641015285,36.38
1602831181.891,71.0,852.0,56.0,426.84556319703535,36.38
1602831181.893,71.0,852.0,54.0,426.84662641015285,36.38
1602831181.895,71.0,852.0,58.0,426.84981604950514,36.38
1602831181.8969,71.0,852.0,61.0,426.8551321150922,36.38
1602831181.899,71.0,852.0,56.0,426.8625746069143,36.38
1602831181.9011,71.0,852.0,51.0,426.87214352497114,36.38
1602831181.903,71.0,852.0,56.0,426.8838388692628,36.38
1602831181.905,71.0,852.0,78.0,426.8976606397893,36.38
1602831181.907,71.0,852.0,100.0,426.91360883655074,36.38
1602831181.909,71.0,852.0,95.0,426.93168345954706,36.38
1602831181.911,71.0,852.0,83.0,426.95188450877816,36.38
1602831181.913,71.0,852.0,83.0,426.97421198424416,36.38
1602831181.9149,71.0,852.0,88.0,426.99866588594506,36.38
1602831181.917,71.0,852.0,81.0,427.02524621388073,36.38
1602831181.919,71.0,852.0,61.0,427.0539529680513,36.38
1602831181.921,71.0,852.0,54.0,427.06918458830074,36.38
1602831181.923,71.0,852.0,54.0,427.08504248477,36.38
1602831181.925,71.0,852.0,54.0,427.1014975283326,36.38
1602831181.927,71.0,852.0,61.0,427.11852058986193,36.38
1602831181.929,71.0,852.0,71.0,427.1360825402318,36.38
1602831181.931,71.0,852.0,76.0,427.15415425031534,36.38
1602831181.933,71.0,852.0,68.0,427.17270659098637,36.38
1602831181.935,71.0,852.0,76.0,427.1917104331181,36.38
1602831181.937,71.0,852.0,208.0,427.2111366475843,36.38
1602831181.939,71.0,852.0,466.0,427.23095610525814,36.38
1602831181.941,71.0,852.0,498.0,427.2511396770133,36.38
1602831181.943,71.0,852.0,0.0,427.2716582337234,36.38
1602831181.945,71.0,852.0,-464.0,427.2924826462617,36.38
1602831181.947,71.0,852.0,-250.0,427.31358378550186,36.38
1602831181.949,71.0,852.0,105.0,427.3349325223173,36.38
1602831181.9509,71.0,852.0,86.0,427.3564997275815,36.38
1602831181.953,71.0,852.0,41.0,427.3782562721679,36.38
1602831181.955,71.0,852.0,108.0,427.4001730269502,36.38
1602831181.957,71.0,852.0,100.0,427.42222086280174,36.38
1602831181.959,71.0,852.0,71.0,427.44437065059606,36.38
1602831181.961,71.0,852.0,103.0,427.46659326120664,36.38
1602831181.963,71.0,852.0,113.0,427.48885956550697,36.38
1602831182.3616,71.0,852.0,95.0,427.51114043437053,36.38
1602831182.3625,71.0,852.0,103.0,427.53340673867086,36.38
1602831182.3649,71.0,852.0,115.0,427.55562934928145,36.38
1602831182.3675,71.0,852.0,117.0,427.5777791370757,36.38
1602831182.3695,71.0,852.0,115.0,427.59982697292725,36.38
1602831182.3716,71.0,852.0,120.0,427.62174372770954,36.38
1602831182.3736,71.0,852.0,127.0,427.643500272296,36.38
1602831182.3755,71.0,852.0,130.0,427.6650674775602,36.38
1602831182.3775,71.0,852.0,127.0,427.6864162143757,36.38
1602831182.3795,71.0,852.0,127.0,427.70751735361586,36.38
1602831182.3815,71.0,852.0,135.0,427.7283417661542,36.38
1602831182.3835,71.0,852.0,137.0,427.74886032286423,36.38
1602831182.3855,71.0,852.0,132.0,427.7690438946195,36.38
1602831182.3875,71.0,852.0,135.0,427.7888633522934,36.38
1602831182.3895,71.0,852.0,147.0,427.8082895667595,36.38
1602831182.3915,71.0,852.0,157.0,427.8272934088913,36.38
1602831182.3935,71.0,852.0,169.0,427.8458457495623,36.38
1602831182.3955,71.0,852.0,184.0,427.8639174596459,36.38
1602831182.3975,71.0,852.0,184.0,427.8814794100157,36.38
1602831182.3997,71.0,852.0,179.0,427.89850247154516,36.38
1602831182.4015,71.0,852.0,179.0,427.91495751510774,36.38
1602831182.4035,71.0,852.0,176.0,427.930815411577,36.38
1602831182.4055,71.0,852.0,169.0,427.9460470318264,36.38
1602831182.4074,71.0,852.0,167.0,427.9606232467295,36.38
1602831182.4094,71.0,852.0,157.0,427.97451492715965,36.38
1602831182.4114,71.0,852.0,135.0,427.98769294399045,36.38
1602831182.4134,71.0,852.0,110.0,428.0001281680954,36.38
1602831182.4154,71.0,852.0,86.0,428.01179147034793,36.38
1602831182.4174,71.0,852.0,61.0,428.0226537216216,36.38
1602831182.4194,71.0,852.0,49.0,428.0326857927899,36.38
1602831182.4215,71.0,852.0,44.0,428.0418585547263,36.38
1602831182.4235,71.0,852.0,24.0,428.05014287830426,36.38
1602831182.4255,71.0,852.0,7.0,428.0575096343973,36.38
1602831182.4274,71.0,852.0,14.0,428.063929693879,36.38
1602831182.4294,71.0,852.0,19.0,428.0693739276228,36.38
1602831182.4314,71.0,852.0,9.0,428.0738132065021,36.38
1602831182.4334,71.0,852.0,9.0,428.07721840139055,36.38
1602831182.4355,71.0,852.0,19.0,428.07956038316155,36.38
1602831182.4374,71.0,852.0,19.0,428.0808100226886,36.38
1602831182.4394,71.0,852.0,22.0,428.08093819084525,36.38
1602831182.4414,71.0,852.0,34.0,428.0799157585049,36.38
1602831182.4436,71.0,852.0,44.0,428.0777135965411,36.38
1602831182.4455,71.0,852.0,49.0,428.0743025758274,36.38
1602831182.4474,71.0,852.0,41.0,428.06965356723725,36.38
1602831182.4494,71.0,852.0,36.0,428.0637374416441,36.38
1602831182.4514,71.0,852.0,44.0,428.05652506992146,36.38
1602831182.4534,71.0,852.0,49.0,428.0479873229429,36.38
1602831182.4555,71.0,852.0,49.0,428.03809507158184,36.38
1602831182.4574,71.0,852.0,51.0,428.0268191867118,36.38
1602831182.4594,71.0,852.0,54.0,428.0141305392063,36.38
1602831182.4614,71.0,852.0,56.0,427.9999999999388,36.38
1602831182.4634,71.0,852.0,58.0,427.9999999999388,36.38
1602831182.4654,71.0,852.0,56.0,427.9999999999388,36.38
1602831182.4674,71.0,852.0,56.0,427.9999999999388,36.38
1602831182.4694,71.0,852.0,58.0,427.9999999999388,36.38
1602831182.4714,71.0,852.0,63.0,427.9999999999388,36.38
1602831182.4734,71.0,852.0,58.0,427.9999999999388,36.38
1602831182.4755,71.0,852.0,56.0,427.9999999999388,36.38
1602831182.4774,71.0,852.0,49.0,427.9999999999388,36.38
1602831182.4794,71.0,852.0,49.0,427.9999999999388,36.38
1602831182.4814,71.0,852.0,58.0,427.9999999999388,36.38
1602831182.4834,71.0,852.0,63.0,427.9999999999388,36.38
1602831182.4854,71.0,852.0,56.0,427.9999999999388,36.38
1602831182.4874,71.0,852.0,51.0,427.9999999999388,36.38
1602831182.4894,71.0,852.0,56.0,427.9999999999388,36.38
1602831182.4914,71.0,852.0,54.0,427.9999999999388,36.38
1602831182.4934,71.0,852.0,46.0,427.9999999999388,36.38
1602831182.4955,71.0,852.0,56.0,427.9999999999388,36.38
1602831182.4975,71.0,852.0,78.0,427.9999999999388,36.38
1602831182.4994,71.0,852.0,100.0,427.9999999999388,36.38
1602831182.5016,71.0,852.0,103.0,427.9999999999388,36.38
1602831182.5035,71.0,852.0,88.0,427.9999999999388,36.38
1602831182.5054,71.0,852.0,88.0,427.9999999999388,36.38
1602831182.9012,71.0,857.0,93.0,427.9999999999388,36.38
1602831182.902,71.0,857.0,81.0,427.9999999999388,36.38
1602831182.9045,71.0,857.0,63.0,427.9999999999388,36.38
1602831182.9071,71.0,857.0,61.0,427.9999999999388,36.38
1602831182.9092,71.0,857.0,68.0,427.9999999999388,36.38
1602831182.9111,71.0,857.0,71.0,427.9999999999388,36.38
1602831182.9132,71.0,857.0,73.0,427.9999999999388,36.38
1602831182.9152,71.0,857.0,76.0,427.9999999999388,36.38
1602831182.917,71.0,857.0,73.0,427.9999999999388,36.38
1602831182.919,71.0,857.0,58.0,427.9999999999388,36.38
1602831182.9211,71.0,857.0,49.0,427.9999999999388,36.38
1602831182.9231,71.0,857.0,145.0,427.9999999999388,36.38
1602831182.925,71.0,857.0,400.0,427.9999999999388,36.38
1602831182.927,71.0,857.0,550.0,427.9999999999388,36.38
1602831182.929,71.0,857.0,181.0,427.9999999999388,36.38
1602831182.931,71.0,857.0,-388.0,427.9999999999388,36.38
1602831182.933,71.0,857.0,-353.0,427.9999999999388,36.38
1602831182.935,71.0,857.0,51.0,427.9999999999388,36.38
1602831182.937,71.0,857.0,108.0,427.9999999999388,36.38
1602831182.939,71.0,857.0,22.0,427.9999999999388,36.38
1602831182.941,71.0,857.0,88.0,427.9999999999388,36.38
1602831182.943,71.0,857.0,113.0,427.9999999999388,36.38
1602831182.945,71.0,857.0,73.0,427.9999999999388,36.38
1602831182.947,71.0,857.0,83.0,428.0141305392063,36.38
1602831182.949,71.0,857.0,103.0,428.0268191867118,36.38
1602831182.951,71.0,857.0,93.0,428.03809507158184,36.38
1602831182.953,71.0,857.0,93.0,428.0479873229429,36.38
1602831182.955,71.0,857.0,100.0,428.05652506992146,36.38
1602831182.9569,71.0,857.0,100.0,428.0637374416441,36.38
1602831182.959,71.0,857.0,103.0,428.06965356723725,36.38
1602831182.961,71.0,857.0,115.0,428.0743025758274,36.38
1602831182.963,71.0,857.0,120.0,428.0777135965411,36.38
1602831182.9651,71.0,857.0,115.0,428.0799157585049,36.38
1602831182.967,71.0,857.0,122.0,428.08093819084525,36.38
1602831182.969,71.0,857.0,140.0,428.0808100226886,36.38
1602831182.971,71.0,857.0,135.0,428.07956038316155,36.38
1602831182.973,71.0,857.0,127.0,428.07721840139055,36.38
1602831182.975,71.0,857.0,140.0,428.0738132065021,36.38
1602831182.9771,71.0,857.0,152.0,428.0693739276228,36.38
1602831182.9791,71.0,857.0,157.0,428.063929693879,36.38
1602831182.9811,71.0,857.0,164.0,428.0575096343973,36.38
1602831182.983,71.0,857.0,174.0,428.05014287830426,36.38
1602831182.985,71.0,857.0,176.0,428.0418585547263,36.38
1602831182.9871,71.0,857.0,184.0,428.0326857927899,36.38
1602831182.989,71.0,857.0,191.0,428.0226537216216,36.38
1602831182.991,71.0,857.0,194.0,428.01179147034793,36.38
1602831182.993,71.0,857.0,191.0,428.0001281680954,36.38
1602831182.995,71.0,857.0,186.0,427.98769294399045,36.38
1602831182.9972,71.0,857.0,181.0,427.97451492715965,36.38
1602831182.999,71.0,857.0,169.0,427.9606232467295,36.38
1602831183.001,71.0,857.0,152.0,427.9460470318264,36.38
1602831183.003,71.0,857.0,130.0,427.930815411577,36.38
1602831183.005,71.0,857.0,105.0,427.91495751510774,36.38
1602831183.007,71.0,857.0,78.0,427.89850247154516,36.38
1602831183.009,71.0,857.0,61.0,427.8814794100157,36.38
1602831183.011,71.0,857.0,51.0,427.8639174596459,36.38
1602831183.013,71.0,857.0,39.0,427.8458457495623,36.38
1602831183.015,71.0,857.0,29.0,427.8272934088913,36.38
1602831183.017,71.0,857.0,27.0,427.8082895667595,36.38
1602831183.019,71.0,857.0,29.0,427.7888633522934,36.38
1602831183.021,71.0,857.0,31.0,427.7690438946195,36.38
1602831183.023,71.0,857.0,31.0,427.74886032286423,36.38
1602831183.025,71.0,857.0,31.0,427.7283417661542,36.38
1602831183.027,71.0,857.0,36.0,427.70751735361586,36.38
1602831183.029,71.0,857.0,41.0,427.6864162143757,36.38
1602831183.031,71.0,857.0,46.0,427.6650674775602,36.38
1602831183.033,71.0,857.0,49.0,427.643500272296,36.38
1602831183.035,71.0,857.0,46.0,427.62174372770954,36.38
1602831183.037,71.0,857.0,41.0,427.59982697292725,36.38
1602831183.039,71.0,857.0,49.0,427.5777791370757,36.38
1602831183.041,71.0,857.0,56.0,427.55562934928145,36.38
1602831183.043,71.0,857.0,51.0,427.53340673867086,36.38
1602831183.045,71.0,857.0,44.0,427.51114043437053,36.38
1602831183.4713,71.0,857.0,49.0,427.48885956550697,36.31
1602831183.4725,71.0,857.0,56.0,427.46659326120664,36.31
1602831183.475,71.0,857.0,58.0,427.44437065059606,36.31
1602831183.4776,71.0,857.0,61.0,427.42222086280174,36.31
1602831183.4796,71.0,857.0,58.0,427.4001730269502,36.31
1602831183.4815,71.0,857.0,41.0,427.3782562721679,36.31
1602831183.4836,71.0,857.0,29.0,427.3564997275815,36.31
1602831183.4855,71.0,857.0,31.0,427.3349325223173,36.31
1602831183.4875,71.0,857.0,36.0,427.31358378550186,36.31
1602831183.4895,71.0,857.0,31.0,427.2924826462617,36.31
1602831183.4915,71.0,857.0,29.0,427.2716582337234,36.31
1602831183.4935,71.0,857.0,29.0,427.2511396770133,36.31
1602831183.4955,71.0,857.0,27.0,427.23095610525814,36.31
1602831183.4975,71.0,857.0,29.0,427.2111366475843,36.31
1602831183.4995,71.0,857.0,39.0,427.1917104331181,36.31
1602831183.5015,71.0,857.0,46.0,427.17270659098637,36.31
1602831183.5035,71.0,857.0,36.0,427.15415425031534,36.31
1602831183.5055,71.0,857.0,29.0,427.1360825402318,36.31
1602831183.5075,71.0,857.0,46.0,427.11852058986193,36.31
1602831183.5096,71.0,857.0,73.0,427.1014975283326,36.31
1602831183.5115,71.0,857.0,78.0,427.08504248477,36.31
1602831183.5135,71.0,857.0,63.0,427.06918458830074,36.31
1602831183.5154,71.0,857.0,58.0,427.0539529680513,36.31
1602831183.5175,71.0,857.0,63.0,427.03937675314825,36.31
1602831183.5195,71.0,857.0,61.0,427.025485072718,36.31
1602831183.5215,71.0,857.0,46.0,427.0123070558872,36.31
1602831183.5236,71.0,857.0,34.0,426.9998718317823,36.31
1602831183.5255,71.0,857.0,44.0,426.9882085295298,36.31
1602831183.5274,71.0,857.0,54.0,426.9773462782561,36.31
1602831183.5295,71.0,857.0,41.0,426.9673142070878,36.31
1602831183.5315,71.0,857.0,41.0,426.9581414451514,36.31
1602831183.5334,71.0,857.0,56.0,426.9498571215734,36.31
1602831183.5355,71.0,857.0,51.0,426.9424903654804,36.31
1602831183.5375,71.0,857.0,49.0,426.9360703059987,36.31
1602831183.5394,71.0,857.0,162.0,426.93062607225494,36.31
1602831183.5414,71.0,857.0,425.0,426.9261867933756,36.31
1602831183.5435,71.0,857.0,530.0,426.9227815984871,36.31
1602831183.5455,71.0,857.0,110.0,426.9204396167161,36.31
1602831183.5474,71.0,857.0,-412.0,426.9191899771891,36.31
1602831183.5495,71.0,857.0,-304.0,426.9190618090325,36.31
1602831183.5515,71.0,857.0,61.0,426.92008424137276,36.31
1602831183.5535,71.0,857.0,76.0,426.9222864033366,36.31
1602831183.5555,71.0,857.0,12.0,426.92569742405027,36.31
1602831183.5575,71.0,857.0,78.0,426.93034643264053,36.31
1602831183.5595,71.0,857.0,88.0,426.93626255823364,36.31
1602831183.5615,71.0,857.0,54.0,426.94347492995627,36.31
1602831183.5634,71.0,857.0,71.0,426.95201267693477,36.31
1602831183.5656,71.0,857.0,90.0,426.96190492829584,36.31
1602831183.5675,71.0,857.0,88.0,426.9731808131659,36.31
1602831183.5695,71.0,857.0,93.0,426.9858694606714,36.31
1602831183.5714,71.0,857.0,90.0,426.9999999999389,36.31
1602831183.5735,71.0,857.0,83.0,426.9999999999389,36.31
1602831183.5756,71.0,857.0,90.0,426.9999999999389,36.31
1602831183.5775,71.0,857.0,105.0,426.9999999999389,36.31
1602831183.5795,71.0,857.0,105.0,426.9999999999389,36.31
1602831183.5815,71.0,857.0,103.0,426.9999999999389,36.31
1602831183.5835,71.0,857.0,108.0,426.9999999999389,36.31
1602831183.5855,71.0,857.0,120.0,426.9999999999389,36.31
1602831183.5876,71.0,857.0,125.0,426.9999999999389,36.31
1602831183.5894,71.0,857.0,127.0,426.9999999999389,36.31
1602831183.5915,71.0,857.0,130.0,426.9999999999389,36.31
1602831183.5935,71.0,857.0,142.0,426.9999999999389,36.31
1602831183.5955,71.0,857.0,157.0,426.9999999999389,36.31
1602831183.5974,71.0,857.0,162.0,426.9999999999389,36.31
1602831183.5995,71.0,857.0,167.0,426.9999999999389,36.31
1602831183.6014,71.0,857.0,174.0,426.9999999999389,36.31
1602831183.6035,71.0,857.0,176.0,426.9999999999389,36.31
1602831183.6055,71.0,857.0,181.0,426.9999999999389,36.31
1602831183.6075,71.0,857.0,189.0,426.9999999999389,36.31
1602831183.6094,71.0,857.0,186.0,426.9999999999389,36.31
1602831183.6115,71.0,857.0,181.0,426.9999999999389,36.31
1602831183.6134,71.0,857.0,164.0,426.9999999999389,36.31
1602831183.6155,71.0,857.0,145.0,426.9999999999389,36.31
1602831184.0117,71.0,792.0,132.0,426.9999999999389,36.31
1602831184.0126,71.0,792.0,115.0,426.9999999999389,36.31
1602831184.015,71.0,792.0,88.0,426.9999999999389,36.31
1602831184.0177,71.0,792.0,73.0,426.9999999999389,36.31
1602831184.02,71.0,792.0,66.0,426.9999999999389,36.31
1602831184.0217,71.0,792.0,44.0,426.9999999999389,36.31
1602831184.0238,71.0,792.0,22.0,426.9999999999389,36.31
1602831184.0256,71.0,792.0,12.0,426.9999999999389,36.31
1602831184.0276,71.0,792.0,12.0,426.9999999999389,36.31
1602831184.0296,71.0,792.0,12.0,426.9999999999389,36.31
1602831184.0317,71.0,792.0,4.0,426.9999999999389,36.31
1602831184.0336,71.0,792.0,7.0,426.9999999999389,36.31
1602831184.0356,71.0,792.0,17.0,426.9999999999389,36.31
1602831184.0376,71.0,792.0,17.0,426.9999999999389,36.31
1602831184.0395,71.0,792.0,24.0,426.9999999999389,36.31
1602831184.0416,71.0,792.0,41.0,426.9999999999389,36.31
1602831184.0436,71.0,792.0,44.0,426.9999999999389,36.31
1602831184.0455,71.0,792.0,34.0,426.9999999999389,36.31
1602831184.0476,71.0,792.0,34.0,426.9999999999389,36.31
1602831184.0497,71.0,792.0,36.0,426.9999999999389,36.31
1602831184.0515,71.0,792.0,44.0,426.9999999999389,36.31
1602831184.0536,71.0,792.0,44.0,426.9999999999389,36.31
1602831184.0555,71.0,792.0,36.0,426.9999999999389,36.31
1602831184.0575,71.0,792.0,34.0,426.9999999999389,36.31
1602831184.0596,71.0,792.0,36.0,426.9999999999389,36.31
1602831184.0616,71.0,792.0,36.0,426.9999999999389,36.31
1602831184.0635,71.0,792.0,44.0,426.9999999999389,36.31
1602831184.0655,71.0,792.0,49.0,426.9999999999389,36.31
1602831184.0676,71.0,792.0,44.0,426.9999999999389,36.31
1602831184.0695,71.0,792.0,39.0,426.9999999999389,36.31
1602831184.0716,71.0,792.0,36.0,426.9999999999389,36.31
1602831184.0735,71.0,792.0,27.0,426.9999999999389,36.31
1602831184.0755,71.0,792.0,19.0,426.9999999999389,36.31
1602831184.0775,71.0,792.0,24.0,426.9999999999389,36.31
1602831184.0796,71.0,792.0,31.0,426.9999999999389,36.31
1602831184.0815,71.0,792.0,27.0,426.9999999999389,36.31
1602831184.0836,71.0,792.0,24.0,426.9999999999389,36.31
1602831184.0856,71.0,792.0,29.0,426.9999999999389,36.31
1602831184.0875,71.0,792.0,27.0,426.9999999999389,36.31
1602831184.0895,71.0,792.0,19.0,426.9999999999389,36.31
1602831184.0915,71.0,792.0,24.0,426.9999999999389,36.31
1602831184.0935,71.0,792.0,39.0,426.9999999999389,36.31
1602831184.0955,71.0,792.0,61.0,426.9999999999389,36.31
1602831184.0975,71.0,792.0,68.0,426.9999999999389,36.31
1602831184.0996,71.0,792.0,54.0,426.9999999999389,36.31
1602831184.1015,71.0,792.0,39.0,426.9999999999389,36.31
1602831184.1036,71.0,792.0,44.0,426.9999999999389,36.31
1602831184.1056,71.0,792.0,51.0,426.9999999999389,36.31
1602831184.1076,71.0,792.0,41.0,426.9999999999389,36.31
1602831184.1095,71.0,792.0,31.0,426.9999999999389,36.31
1602831184.1115,71.0,792.0,34.0,426.9999999999389,36.31
1602831184.1135,71.0,792.0,36.0,426.9999999999389,36.31
1602831184.1156,71.0,792.0,31.0,426.9999999999389,36.31
1602831184.1175,71.0,792.0,31.0,426.9999999999389,36.31
1602831184.1195,71.0,792.0,36.0,426.9999999999389,36.31
1602831184.1217,71.0,792.0,39.0,426.9999999999389,36.31
1602831184.1236,71.0,792.0,34.0,426.9999999999389,36.31
1602831184.1256,71.0,792.0,108.0,426.9999999999389,36.31
1602831184.1275,71.0,792.0,348.0,426.9999999999389,36.31
1602831184.1295,71.0,792.0,521.0,426.9999999999389,36.31
1602831184.1315,71.0,792.0,199.0,426.9999999999389,36.31
1602831184.1336,71.0,792.0,-353.0,426.9999999999389,36.31
1602831184.1355,71.0,792.0,-358.0,426.9999999999389,36.31
1602831184.1375,71.0,792.0,7.0,426.9999999999389,36.31
1602831184.1395,71.0,792.0,71.0,426.9999999999389,36.31
1602831184.1415,71.0,792.0,-4.0,426.9999999999389,36.31
1602831184.1435,71.0,792.0,58.0,426.9999999999389,36.31
1602831184.1455,71.0,792.0,86.0,426.9999999999389,36.31
1602831184.1476,71.0,792.0,44.0,426.9999999999389,36.31
1602831184.1497,71.0,792.0,61.0,426.9999999999389,36.31
1602831184.1515,71.0,792.0,86.0,426.9999999999389,36.31
1602831184.1535,71.0,792.0,68.0,426.9999999999389,36.31
1602831184.1556,71.0,792.0,58.0,426.9999999999389,36.31
1602831184.5812,71.0,792.0,76.0,426.9999999999389,36.31
1602831184.5824,71.0,792.0,88.0,426.9999999999389,36.31
1602831184.5848,71.0,792.0,86.0,426.9999999999389,36.31
1602831184.5874,71.0,792.0,83.0,426.9999999999389,36.31
1602831184.5894,71.0,792.0,76.0,426.9999999999389,36.31
1602831184.5914,71.0,792.0,76.0,426.9999999999389,36.31
1602831184.5935,71.0,792.0,90.0,426.9999999999389,36.31
1602831184.5955,71.0,792.0,95.0,426.9999999999389,36.31
1602831184.5974,71.0,792.0,95.0,426.9999999999389,36.31
1602831184.5994,71.0,792.0,105.0,426.9999999999389,36.31
1602831184.6014,71.0,792.0,115.0,426.9999999999389,36.31
1602831184.6034,71.0,792.0,122.0,426.9999999999389,36.31
1602831184.6054,71.0,792.0,125.0,426.9999999999389,36.31
1602831184.6074,71.0,792.0,135.0,426.9999999999389,36.31
1602831184.6093,71.0,792.0,149.0,426.9999999999389,36.31
1602831184.6114,71.0,792.0,152.0,426.9999999999389,36.31
1602831184.6134,71.0,792.0,147.0,426.9999999999389,36.31
1602831184.6154,71.0,792.0,149.0,426.9999999999389,36.31
1602831184.6174,71.0,792.0,147.0,426.9999999999389,36.31
1602831184.6193,71.0,792.0,145.0,426.9999999999389,36.31
1602831184.6213,71.0,792.0,152.0,426.9999999999389,36.31
1602831184.6233,71.0,792.0,152.0,426.9999999999389,36.31
1602831184.6254,71.0,792.0,132.0,426.9999999999389,36.31
1602831184.6274,71.0,792.0,113.0,426.9999999999389,36.31
1602831184.6293,71.0,792.0,100.0,426.9999999999389,36.31
1602831184.6313,71.0,792.0,76.0,426.9999999999389,36.31
1602831184.6333,71.0,792.0,51.0,426.9999999999389,36.31
1602831184.6354,71.0,792.0,36.0,426.9999999999389,36.31
1602831184.6373,71.0,792.0,22.0,426.9999999999389,36.31
1602831184.6393,71.0,792.0,9.0,426.9999999999389,36.31
1602831184.6413,71.0,792.0,12.0,426.9999999999389,36.31
1602831184.6433,71.0,792.0,14.0,426.9999999999389,36.31
1602831184.6454,71.0,792.0,14.0,426.9999999999389,36.31
1602831184.6475,71.0,792.0,14.0,426.9999999999389,36.31
1602831184.6494,71.0,792.0,17.0,426.9999999999389,36.31
1602831184.6513,71.0,792.0,19.0,426.9999999999389,36.31
1602831184.6534,71.0,792.0,29.0,426.9999999999389,36.31
1602831184.6553,71.0,792.0,34.0,426.9999999999389,36.31
1602831184.6573,71.0,792.0,34.0,426.9999999999389,36.31
1602831184.6594,71.0,792.0,34.0,426.9999999999389,36.31
1602831184.6613,71.0,792.0,36.0,426.9999999999389,36.31
1602831184.6633,71.0,792.0,36.0,426.9999999999389,36.31
1602831184.6654,71.0,792.0,44.0,426.9999999999389,36.31
1602831184.6673,71.0,792.0,58.0,426.9999999999389,36.31
1602831184.6693,71.0,792.0,63.0,426.9999999999389,36.31
1602831184.6713,71.0,792.0,56.0,426.9999999999389,36.31
1602831184.6733,71.0,792.0,51.0,426.9999999999389,36.31
1602831184.6753,71.0,792.0,54.0,426.9999999999389,36.31
1602831184.6773,71.0,792.0,54.0,426.9999999999389,36.31
1602831184.6793,71.0,792.0,54.0,426.9999999999389,36.31
1602831184.6813,71.0,792.0,54.0,426.9999999999389,36.31
1602831184.6834,71.0,792.0,51.0,426.9999999999389,36.31
1602831184.6854,71.0,792.0,44.0,426.9999999999389,36.31
1602831184.6873,71.0,792.0,39.0,426.9999999999389,36.31
1602831184.6893,71.0,792.0,34.0,426.9999999999389,36.31
1602831184.6913,71.0,792.0,34.0,426.9999999999389,36.31
1602831184.6933,71.0,792.0,34.0,426.9999999999389,36.31
1602831184.6954,71.0,792.0,36.0,426.9999999999389,36.31
1602831184.6973,71.0,792.0,36.0,426.9999999999389,36.31
1602831184.6993,71.0,792.0,34.0,426.9999999999389,36.31
1602831184.7013,71.0,792.0,34.0,426.9999999999389,36.31
1602831184.7033,71.0,792.0,31.0,426.9999999999389,36.31
1602831184.7055,71.0,792.0,24.0,426.9999999999389,36.31
1602831184.7073,71.0,792.0,27.0,426.9999999999389,36.31
1602831184.7093,71.0,792.0,29.0,426.9999999999389,36.31
1602831184.7113,71.0,792.0,24.0,426.9999999999389,36.31
1602831184.7133,71.0,792.0,19.0,426.9999999999389,36.31
1602831184.7153,71.0,792.0,36.0,426.9999999999389,36.31
1602831184.7173,71.0,792.0,61.0,426.9999999999389,36.31
1602831184.7193,71.0,792.0,58.0,426.9999999999389,36.31
1602831184.7213,71.0,792.0,39.0,426.9999999999389,36.31
1602831184.7233,71.0,792.0,39.0,426.9999999999389,36.31
1602831184.7253,71.0,792.0,49.0,426.9999999999389,36.31
1602831185.1821,72.0,774.0,41.0,426.9999999999389,36.38
1602831185.1832,72.0,774.0,24.0,426.9999999999389,36.38
1602831185.1856,72.0,774.0,19.0,426.9999999999389,36.38
1602831185.1882,72.0,774.0,27.0,426.9999999999389,36.38
1602831185.1902,72.0,774.0,31.0,426.9999999999389,36.38
1602831185.1922,72.0,774.0,29.0,426.9999999999389,36.38
1602831185.1943,72.0,774.0,19.0,426.9999999999389,36.38
1602831185.1963,72.0,774.0,17.0,426.9999999999389,36.38
1602831185.1983,72.0,774.0,4.0,426.9999999999389,36.38
1602831185.2002,72.0,774.0,19.0,426.9999999999389,36.38
1602831185.2022,72.0,774.0,181.0,426.9999999999389,36.38
1602831185.2045,72.0,774.0,459.0,426.9999999999389,36.38
1602831185.2062,72.0,774.0,437.0,426.9999999999389,36.38
1602831185.2081,72.0,774.0,-115.0,426.9999999999389,36.38
1602831185.2101,72.0,774.0,-513.0,426.9999999999389,36.38
1602831185.2122,72.0,774.0,-226.0,426.9999999999389,36.38
1602831185.2143,72.0,774.0,78.0,426.9999999999389,36.38
1602831185.2161,72.0,774.0,14.0,426.9999999999389,36.38
1602831185.2182,72.0,774.0,2.0,426.9999999999389,36.38
1602831185.2201,72.0,774.0,81.0,426.9999999999389,36.38
1602831185.2276,72.0,774.0,58.0,426.9999999999389,36.38
1602831185.2291,72.0,774.0,34.0,426.9999999999389,36.38
1602831185.2311,72.0,774.0,68.0,426.9999999999389,36.38
1602831185.2332,72.0,774.0,73.0,427.0141305392065,36.38
1602831185.2352,72.0,774.0,58.0,427.026819186712,36.38
1602831185.2371,72.0,774.0,71.0,427.03809507158206,36.38
1602831185.2391,72.0,774.0,86.0,427.04798732294313,36.38
1602831185.2411,72.0,774.0,86.0,427.05652506992163,36.38
1602831185.2431,72.0,774.0,83.0,427.06373744164426,36.38
1602831185.2452,72.0,774.0,86.0,427.06965356723737,36.38
1602831185.2471,72.0,774.0,93.0,427.07430257582763,36.38
1602831185.2492,72.0,774.0,98.0,427.0777135965413,36.38
1602831185.2511,72.0,774.0,103.0,427.079915758505,36.38
1602831185.2531,72.0,774.0,110.0,427.0809381908454,36.38
1602831185.2551,72.0,774.0,115.0,427.0808100226888,36.38
1602831185.2571,72.0,774.0,120.0,427.07956038316166,36.38
1602831185.259,72.0,774.0,127.0,427.07721840139067,36.38
1602831185.2612,72.0,774.0,137.0,427.0738132065023,36.38
1602831185.2631,72.0,774.0,145.0,427.06937392762296,36.38
1602831185.2651,72.0,774.0,149.0,427.0639296938792,36.38
1602831185.2671,72.0,774.0,159.0,427.0575096343975,36.38
1602831185.2691,72.0,774.0,167.0,427.0501428783045,36.38
1602831185.2711,72.0,774.0,172.0,427.0418585547265,36.38
1602831185.2731,72.0,774.0,186.0,427.03268579279,36.38
1602831185.2751,72.0,774.0,191.0,427.0226537216218,36.38
1602831185.2771,72.0,774.0,179.0,427.0117914703481,36.38
1602831185.2791,72.0,774.0,172.0,427.0001281680956,36.38
1602831185.2811,72.0,774.0,167.0,426.9876929439907,36.38
1602831185.2831,72.0,774.0,152.0,426.97451492715976,36.38
1602831185.2851,72.0,774.0,130.0,426.96062324672965,36.38
1602831185.2871,72.0,774.0,110.0,426.9460470318266,36.38
1602831185.2891,72.0,774.0,88.0,426.93081541157716,36.38
1602831185.2912,72.0,774.0,56.0,426.9149575151079,36.38
1602831185.2931,72.0,774.0,34.0,426.8985024715453,36.38
1602831185.2951,72.0,774.0,36.0,426.88147941001586,36.38
1602831185.2971,72.0,774.0,31.0,426.8639174596461,36.38
1602831185.2993,72.0,774.0,17.0,426.84584574956244,36.38
1602831185.3011,72.0,774.0,22.0,426.8272934088914,36.38
1602831185.3031,72.0,774.0,31.0,426.8082895667597,36.38
1602831185.3051,72.0,774.0,24.0,426.7888633522936,36.38
1602831185.3071,72.0,774.0,22.0,426.76904389461964,36.38
1602831185.3091,72.0,774.0,31.0,426.74886032286446,36.38
1602831185.3113,72.0,774.0,41.0,426.7283417661544,36.38
1602831185.3131,72.0,774.0,41.0,426.70751735361597,36.38
1602831185.3151,72.0,774.0,39.0,426.6864162143758,36.38
1602831185.3171,72.0,774.0,46.0,426.6650674775604,36.38
1602831185.3191,72.0,774.0,54.0,426.6435002722962,36.38
1602831185.3211,72.0,774.0,54.0,426.62174372770966,36.38
1602831185.3231,72.0,774.0,56.0,426.5998269729274,36.38
1602831185.3251,72.0,774.0,68.0,426.5777791370759,36.38
1602831185.3271,72.0,774.0,71.0,426.55562934928156,36.38
1602831185.3291,72.0,774.0,66.0,426.533406738671,36.38
1602831185.3311,72.0,774.0,63.0,426.51114043437065,36.38
1602831185.7212,72.0,774.0,61.0,426.4888595655071,36.38
1602831185.7218,72.0,774.0,56.0,426.46659326120675,36.38
1602831185.7242,72.0,774.0,56.0,426.44437065059617,36.38
1602831185.7269,72.0,774.0,56.0,426.42222086280185,36.38
1602831185.7288,72.0,774.0,51.0,426.40017302695037,36.38
1602831185.7308,72.0,774.0,49.0,426.3782562721681,36.38
1602831185.7329,72.0,774.0,41.0,426.35649972758154,36.38
1602831185.7349,72.0,774.0,34.0,426.33493252231733,36.38
1602831185.7368,72.0,774.0,34.0,426.3135837855019,36.38
1602831185.7388,72.0,774.0,41.0,426.2924826462619,36.38
1602831185.7408,72.0,774.0,39.0,426.27165823372354,36.38
1602831185.7428,72.0,774.0,24.0,426.2511396770135,36.38
1602831185.7448,72.0,774.0,22.0,426.2309561052582,36.38
1602831185.7468,72.0,774.0,29.0,426.21113664758434,36.38
1602831185.7488,72.0,774.0,29.0,426.19171043311826,36.38
1602831185.7508,72.0,774.0,24.0,426.1727065909864,36.38
1602831185.7528,72.0,774.0,22.0,426.1541542503155,36.38
1602831185.7549,72.0,774.0,19.0,426.1360825402319,36.38
1602831185.7568,72.0,774.0,17.0,426.1185205898621,36.38
1602831185.7588,72.0,774.0,29.0,426.10149752833263,36.38
1602831185.7608,72.0,774.0,49.0,426.08504248477004,36.38
1602831185.7628,72.0,774.0,56.0,426.0691845883007,36.38
1602831185.7648,72.0,774.0,49.0,426.05395296805136,36.38
1602831185.7668,72.0,774.0,49.0,426.0393767531483,36.38
1602831185.7688,72.0,774.0,54.0,426.0254850727181,36.38
1602831185.7708,72.0,774.0,44.0,426.0123070558873,36.38
1602831185.7728,72.0,774.0,34.0,425.99987183178234,36.38
1602831185.7748,72.0,774.0,31.0,425.98820852952986,36.38
1602831185.7768,72.0,774.0,31.0,425.97734627825616,36.38
1602831185.7788,72.0,774.0,34.0,425.96731420708784,36.38
1602831185.7807,72.0,774.0,34.0,425.95814144515145,36.38
1602831185.7828,72.0,774.0,36.0,425.9498571215735,36.38
1602831185.7848,72.0,774.0,44.0,425.94249036548047,36.38
1602831185.7868,72.0,774.0,49.0,425.9360703059988,36.38
1602831185.7888,72.0,774.0,41.0,425.930626072255,36.38
1602831185.7908,72.0,774.0,88.0,425.9261867933757,36.38
1602831185.7928,72.0,774.0,302.0,425.9227815984872,36.38
1602831185.7948,72.0,774.0,530.0,425.9204396167162,36.38
1602831185.7968,72.0,774.0,304.0,425.91918997718915,36.38
1602831185.7988,72.0,774.0,-314.0,425.91906180903254,36.38
1602831185.801,72.0,774.0,-481.0,425.9200842413728,36.38
1602831185.8028,72.0,774.0,-71.0,425.92228640333667,36.38
1602831185.8048,72.0,774.0,110.0,425.9256974240503,36.38
1602831185.8068,72.0,774.0,12.0,425.9303464326406,36.38
1602831185.8088,72.0,774.0,49.0,425.9362625582337,36.38
1602831185.8108,72.0,774.0,100.0,425.9434749299563,36.38
1602831185.8128,72.0,774.0,61.0,425.9520126769348,36.38
1602831185.8148,72.0,774.0,61.0,425.9619049282959,36.38
1602831185.8168,72.0,774.0,88.0,425.973180813166,36.38
1602831185.8188,72.0,774.0,81.0,425.98586946067144,36.38
1602831185.8208,72.0,774.0,81.0,425.99999999993895,36.38
1602831185.8228,72.0,774.0,90.0,425.99999999993895,36.38
1602831185.8248,72.0,774.0,86.0,425.99999999993895,36.38
1602831185.8268,72.0,774.0,83.0,425.99999999993895,36.38
1602831185.8288,72.0,774.0,98.0,425.99999999993895,36.38
1602831185.8308,72.0,774.0,103.0,425.99999999993895,36.38
1602831185.8328,72.0,774.0,95.0,425.99999999993895,36.38
1602831185.8348,72.0,774.0,98.0,425.99999999993895,36.38
1602831185.8368,72.0,774.0,113.0,425.99999999993895,36.38
1602831185.8388,72.0,774.0,122.0,425.99999999993895,36.38
1602831185.8408,72.0,774.0,122.0,425.99999999993895,36.38
1602831185.8428,72.0,774.0,125.0,425.99999999993895,36.38
1602831185.8449,72.0,774.0,132.0,425.99999999993895,36.38
1602831185.8468,72.0,774.0,142.0,425.99999999993895,36.38
1602831185.8488,72.0,774.0,152.0,425.99999999993895,36.38
1602831185.8508,72.0,774.0,162.0,425.99999999993895,36.38
1602831185.8528,72.0,774.0,164.0,425.99999999993895,36.38
1602831185.8548,72.0,774.0,159.0,425.99999999993895,36.38
1602831185.8568,72.0,774.0,162.0,425.99999999993895,36.38
1602831185.8588,72.0,774.0,162.0,425.99999999993895,36.38
1602831185.8608,72.0,774.0,154.0,425.99999999993895,36.38
1602831185.8628,72.0,774.0,159.0,425.99999999993895,36.38
1602831185.8648,72.0,774.0,159.0,425.99999999993895,36.38
1602831186.2913,73.0,755.0,149.0,425.99999999993895,36.31
1602831186.2922,73.0,755.0,135.0,425.99999999993895,36.31
1602831186.294,73.0,755.0,113.0,425.99999999993895,36.31
1602831186.296,73.0,755.0,78.0,425.99999999993895,36.31
1602831186.298,73.0,755.0,56.0,425.99999999993895,36.31
1602831186.3,73.0,755.0,46.0,425.99999999993895,36.31
1602831186.302,73.0,755.0,31.0,425.99999999993895,36.31
1602831186.304,73.0,755.0,12.0,425.99999999993895,36.31
1602831186.3059,73.0,755.0,-2.0,425.99999999993895,36.31
1602831186.3079,73.0,755.0,-2.0,425.99999999993895,36.31
1602831186.3099,73.0,755.0,-4.0,425.99999999993895,36.31
1602831186.3119,73.0,755.0,-9.0,425.99999999993895,36.31
1602831186.314,73.0,755.0,2.0,425.99999999993895,36.31
1602831186.3147,73.0,755.0,17.0,425.99999999993895,36.31
1602831186.3169,73.0,755.0,14.0,425.99999999993895,36.31
1602831186.3189,73.0,755.0,9.0,425.99999999993895,36.31
1602831186.3209,73.0,755.0,17.0,425.99999999993895,36.31
1602831186.3229,73.0,755.0,27.0,425.99999999993895,36.31
1602831186.3251,73.0,755.0,31.0,425.99999999993895,36.31
1602831186.3269,73.0,755.0,36.0,425.99999999993895,36.31
1602831186.329,73.0,755.0,36.0,425.99999999993895,36.31
1602831186.3309,73.0,755.0,39.0,425.99999999993895,36.31
1602831186.3329,73.0,755.0,46.0,425.99999999993895,36.31
1602831186.3349,73.0,755.0,46.0,425.99999999993895,36.31
1602831186.3369,73.0,755.0,46.0,425.99999999993895,36.31
1602831186.3389,73.0,755.0,58.0,425.99999999993895,36.31
1602831186.341,73.0,755.0,61.0,425.99999999993895,36.31
1602831186.3429,73.0,755.0,49.0,425.99999999993895,36.31
1602831186.3449,73.0,755.0,44.0,425.99999999993895,36.31
1602831186.3456,73.0,755.0,46.0,425.99999999993895,36.31
1602831186.3469,73.0,755.0,51.0,425.99999999993895,36.31
1602831186.3489,73.0,755.0,44.0,425.99999999993895,36.31
1602831186.3509,73.0,755.0,39.0,425.99999999993895,36.31
1602831186.3529,73.0,755.0,44.0,425.99999999993895,36.31
1602831186.3549,73.0,755.0,46.0,425.99999999993895,36.31
1602831186.3569,73.0,755.0,41.0,425.99999999993895,36.31
1602831186.3589,73.0,755.0,36.0,425.99999999993895,36.31
1602831186.3609,73.0,755.0,44.0,425.99999999993895,36.31
1602831186.3629,73.0,755.0,49.0,425.99999999993895,36.31
1602831186.365,73.0,755.0,54.0,425.99999999993895,36.31
1602831186.3669,73.0,755.0,49.0,425.99999999993895,36.31
1602831186.3689,73.0,755.0,39.0,425.99999999993895,36.31
1602831186.3711,73.0,755.0,34.0,425.99999999993895,36.31
1602831186.373,73.0,755.0,34.0,425.99999999993895,36.31
1602831186.3736,73.0,755.0,34.0,425.99999999993895,36.31
1602831186.3749,73.0,755.0,34.0,425.99999999993895,36.31
1602831186.3769,73.0,755.0,41.0,425.99999999993895,36.31
1602831186.3789,73.0,755.0,58.0,425.99999999993895,36.31
1602831186.3809,73.0,755.0,73.0,425.99999999993895,36.31
1602831186.3829,73.0,755.0,68.0,425.99999999993895,36.31
1602831186.3849,73.0,755.0,58.0,425.99999999993895,36.31
1602831186.3869,73.0,755.0,58.0,425.99999999993895,36.31
1602831186.3889,73.0,755.0,63.0,425.99999999993895,36.31
1602831186.3909,73.0,755.0,63.0,425.99999999993895,36.31
1602831186.3929,73.0,755.0,54.0,425.99999999993895,36.31
1602831186.3949,73.0,755.0,36.0,425.99999999993895,36.31
1602831186.3969,73.0,755.0,34.0,425.99999999993895,36.31
1602831186.3989,73.0,755.0,39.0,425.99999999993895,36.31
1602831186.4009,73.0,755.0,34.0,425.99999999993895,36.31
1602831186.4029,73.0,755.0,31.0,425.99999999993895,36.31
1602831186.4036,73.0,755.0,39.0,425.99999999993895,36.31
1602831186.4049,73.0,755.0,39.0,425.99999999993895,36.31
1602831186.4069,73.0,755.0,44.0,425.99999999993895,36.31
1602831186.4089,73.0,755.0,164.0,425.99999999993895,36.31
1602831186.4109,73.0,755.0,422.0,425.99999999993895,36.31
1602831186.4129,73.0,755.0,491.0,425.99999999993895,36.31
1602831186.4149,73.0,755.0,31.0,425.99999999993895,36.31
1602831186.4169,73.0,755.0,-452.0,425.99999999993895,36.31
1602831186.4189,73.0,755.0,-275.0,425.99999999993895,36.31
1602831186.4211,73.0,755.0,86.0,425.99999999993895,36.31
1602831186.4229,73.0,755.0,66.0,425.99999999993895,36.31
1602831186.425,73.0,755.0,9.0,425.99999999993895,36.31
1602831186.4269,73.0,755.0,83.0,425.99999999993895,36.31
1602831186.8314,74.0,776.0,86.0,425.99999999993895,36.31
1602831186.8323,74.0,776.0,56.0,425.99999999993895,36.31
1602831186.8339,74.0,776.0,83.0,425.99999999993895,36.31
1602831186.8359,74.0,776.0,95.0,425.99999999993895,36.31
1602831186.8379,74.0,776.0,73.0,425.99999999993895,36.31
1602831186.8399,74.0,776.0,73.0,425.99999999993895,36.31
1602831186.8419,74.0,776.0,90.0,425.99999999993895,36.31
1602831186.8439,74.0,776.0,95.0,425.99999999993895,36.31
1602831186.8459,74.0,776.0,88.0,425.99999999993895,36.31
1602831186.8478,74.0,776.0,86.0,425.99999999993895,36.31
1602831186.8499,74.0,776.0,83.0,425.99999999993895,36.31
1602831186.8518,74.0,776.0,90.0,425.99999999993895,36.31
1602831186.8538,74.0,776.0,103.0,425.99999999993895,36.31
1602831186.8558,74.0,776.0,103.0,425.99999999993895,36.31
1602831186.8578,74.0,776.0,110.0,425.99999999993895,36.31
1602831186.8598,74.0,776.0,125.0,425.99999999993895,36.31
1602831186.8618,74.0,776.0,132.0,425.99999999993895,36.31
1602831186.8625,74.0,776.0,135.0,425.99999999993895,36.31
1602831186.8638,74.0,776.0,135.0,425.99999999993895,36.31
1602831186.8658,74.0,776.0,137.0,425.99999999993895,36.31
1602831186.8679,74.0,776.0,145.0,425.99999999993895,36.31
1602831186.8698,74.0,776.0,162.0,425.99999999993895,36.31
1602831186.8718,74.0,776.0,172.0,425.99999999993895,36.31
1602831186.8738,74.0,776.0,169.0,426.0423916177416,36.31
1602831186.8759,74.0,776.0,162.0,426.0804575602581,36.31
1602831186.8778,74.0,776.0,162.0,426.11428521486823,36.31
1602831186.8798,74.0,776.0,162.0,426.14396196895143,36.31
1602831186.8818,74.0,776.0,159.0,426.16957520988717,36.31
1602831186.8838,74.0,776.0,147.0,426.19121232505495,36.31
1602831186.8858,74.0,776.0,130.0,426.20896070183437,36.31
1602831186.8878,74.0,776.0,113.0,426.22290772760493,36.31
1602831186.8898,74.0,776.0,90.0,426.23314078974613,36.31
1602831186.8918,74.0,776.0,63.0,426.23974727563746,36.31
1602831186.8926,74.0,776.0,46.0,426.2428145726584,36.31
1602831186.8948,74.0,776.0,36.0,426.2424300681886,36.31
1602831186.8968,74.0,776.0,27.0,426.2386811496074,36.31
1602831186.8988,74.0,776.0,22.0,426.2316552042944,36.31
1602831186.9008,74.0,776.0,22.0,426.2214396196291,36.31
1602831186.9028,74.0,776.0,22.0,426.20812178299104,36.31
1602831186.9049,74.0,776.0,29.0,426.1917890817598,36.31
1602831186.9068,74.0,776.0,36.0,426.17252890331474,36.31
1602831186.9088,74.0,776.0,34.0,426.1504286350355,36.31
1602831186.9108,74.0,776.0,31.0,426.12557566430155,36.31
1602831186.9128,74.0,776.0,39.0,426.0980573784924,36.31
1602831186.9149,74.0,776.0,44.0,426.06796116498754,36.31
1602831186.9168,74.0,776.0,39.0,426.0353744111666,36.31
1602831186.9188,74.0,776.0,46.0,426.0003845044089,36.31
1602831186.921,74.0,776.0,61.0,425.9630788320941,36.31
1602831186.9229,74.0,776.0,63.0,425.92354478160166,36.31
1602831186.9235,74.0,776.0,58.0,425.8818697403111,36.31
1602831186.9248,74.0,776.0,54.0,425.83814109560205,36.31
1602831186.9268,74.0,776.0,51.0,425.79244623485386,36.31
1602831186.9288,74.0,776.0,51.0,425.744872545446,36.31
1602831186.9308,74.0,776.0,49.0,425.69550741475825,36.31
1602831186.9329,74.0,776.0,44.0,425.64443823016984,36.31
1602831186.9348,74.0,776.0,41.0,425.5917523790605,36.31
1602831186.9368,74.0,776.0,39.0,425.5375372488096,36.31
1602831186.9388,74.0,776.0,41.0,425.48188022679665,36.31
1602831186.9408,74.0,776.0,51.0,425.42486870040136,36.31
1602831186.9428,74.0,776.0,49.0,425.366590057003,36.31
1602831186.9448,74.0,776.0,39.0,425.3071316839813,36.31
1602831186.9468,74.0,776.0,39.0,425.24658096871565,36.31
1602831186.9488,74.0,776.0,41.0,425.1850252985855,36.31
1602831186.9508,74.0,776.0,39.0,425.1225520609705,36.31
1602831186.9529,74.0,776.0,41.0,425.05924864325004,36.31
1602831186.9535,74.0,776.0,39.0,424.9952024328038,36.31
1602831186.9549,74.0,776.0,36.0,424.9305008170111,36.31
1602831186.9568,74.0,776.0,36.0,424.8652311832516,36.31
1602831186.9589,74.0,776.0,34.0,424.7994809189048,36.31
1602831186.9608,74.0,776.0,29.0,424.73333741135013,36.31
1602831186.9628,74.0,776.0,29.0,424.6668880479673,36.31
1602831186.9648,74.0,776.0,34.0,424.60022021613554,36.31
1602831186.9668,74.0,776.0,31.0,424.53342130323455,36.31
1602831187.4016,74.0,776.0,31.0,424.4665786966438,36.38
1602831187.4024,74.0,776.0,34.0,424.3997797837428,36.38
1602831187.4048,74.0,776.0,34.0,424.3331119519111,36.38
1602831187.4075,74.0,776.0,29.0,424.26666258852816,36.38
1602831187.4095,74.0,776.0,27.0,424.20051908097355,36.38
1602831187.4115,74.0,776.0,34.0,424.1347688166267,36.38
1602831187.4121,74.0,776.0,44.0,424.0694991828673,36.38
1602831187.4135,74.0,776.0,54.0,424.00479756707466,36.38
1602831187.4154,74.0,776.0,56.0,423.94075135662837,36.38
1602831187.4174,74.0,776.0,39.0,423.87744793890795,36.38
1602831187.4194,74.0,776.0,34.0,423.81497470129295,36.38
1602831187.4214,74.0,776.0,44.0,423.7534190311628,36.38
1602831187.4234,74.0,776.0,39.0,423.69286831589716,36.38
1602831187.4254,74.0,776.0,27.0,423.6334099428754,36.38
1602831187.4274,74.0,776.0,22.0,423.57513129947705,36.38
1602831187.4294,74.0,776.0,24.0,423.5181197730817,36.38
1602831187.4314,74.0,776.0,29.0,423.46246275106887,36.38
1602831187.4334,74.0,776.0,31.0,423.408247620818,36.38
1602831187.4354,74.0,776.0,34.0,423.35556176970863,36.38
1602831187.4374,74.0,776.0,41.0,423.3044925851203,36.38
1602831187.4394,74.0,776.0,44.0,423.25512745443245,36.38
1602831187.4414,74.0,776.0,44.0,423.20755376502467,36.38
1602831187.442,74.0,776.0,135.0,423.16185890427647,36.38
1602831187.4434,74.0,776.0,378.0,423.1463913381024,36.38
1602831187.4454,74.0,776.0,503.0,423.1300935918229,36.38
1602831187.4476,74.0,776.0,127.0,423.11311131107055,36.38
1602831187.4494,74.0,776.0,-385.0,423.0955901414779,36.38
1602831187.4514,74.0,776.0,-304.0,423.0776757286774,36.38
1602831187.4535,74.0,776.0,58.0,423.05951371830156,36.38
1602831187.4554,74.0,776.0,78.0,423.041249755983,36.38
1602831187.4574,74.0,776.0,7.0,423.0230294873542,36.38
1602831187.4594,74.0,776.0,81.0,423.0049985580477,36.38
1602831187.4614,74.0,776.0,95.0,422.987302613696,36.38
1602831187.4634,74.0,776.0,54.0,422.9700872999316,36.38
1602831187.4654,74.0,776.0,76.0,422.95349826238703,36.38
1602831187.4674,74.0,776.0,93.0,422.9376811466949,36.38
1602831187.4694,74.0,776.0,78.0,422.92278159848763,36.38
1602831187.4714,74.0,776.0,81.0,422.9089452633978,36.38
1602831187.472,74.0,776.0,88.0,422.89631778705797,36.38
1602831187.4734,74.0,776.0,86.0,422.88504481510057,36.38
1602831187.4754,74.0,776.0,93.0,422.8752719931582,36.38
1602831187.4774,74.0,776.0,100.0,422.86714496686335,36.38
1602831187.4794,74.0,776.0,98.0,422.8608093818485,36.38
1602831187.4814,74.0,776.0,95.0,422.8564108837463,36.38
1602831187.4834,74.0,776.0,100.0,422.85409511818915,36.38
1602831187.4854,74.0,776.0,105.0,422.85400773080966,36.38
1602831187.4874,74.0,776.0,108.0,422.85629436724025,36.38
1602831187.4894,74.0,776.0,117.0,422.8611006731136,36.38
1602831187.4914,74.0,776.0,127.0,422.8685722940621,36.38
1602831187.4934,74.0,776.0,130.0,422.87885487571833,36.38
1602831187.4954,74.0,776.0,132.0,422.8920940637148,36.38
1602831187.4974,74.0,776.0,145.0,422.861630823216,36.38
1602831187.4994,74.0,776.0,154.0,422.82991503027745,36.38
1602831187.5014,74.0,776.0,154.0,422.7970049431523,36.38
1602831187.5021,74.0,776.0,164.0,422.76295882009333,36.38
1602831187.5034,74.0,776.0,172.0,422.72783491935377,36.38
1602831187.5054,74.0,776.0,169.0,422.6916914991865,36.38
1602831187.5076,74.0,776.0,167.0,422.65458681784463,36.38
1602831187.5094,74.0,776.0,167.0,422.61657913358107,36.38
1602831187.5114,74.0,776.0,162.0,422.57772670464885,36.38
1602831187.5134,74.0,776.0,157.0,422.538087789301,36.38
1602831187.5154,74.0,776.0,142.0,422.49772064579054,36.38
1602831187.5174,74.0,776.0,120.0,422.4566835323705,36.38
1602831187.5194,74.0,776.0,98.0,422.4150347072938,36.38
1602831187.5214,74.0,776.0,81.0,422.3728324288135,36.38
1602831187.5234,74.0,776.0,56.0,422.3301349551827,36.38
1602831187.5254,74.0,776.0,36.0,422.2870005446543,36.38
1602831187.5274,74.0,776.0,29.0,422.2434874554813,36.38
1602831187.5294,74.0,776.0,24.0,422.19965394591674,36.38
1602831187.5314,74.0,776.0,19.0,422.15555827421366,36.38
1602831187.5334,74.0,776.0,22.0,422.111258698625,36.38
1602831187.5354,74.0,776.0,27.0,422.06681347740385,36.38
1602831187.5374,74.0,776.0,24.0,422.0222808688032,36.38
1602831187.9709,75.0,777.0,29.0,421.97771913107607,36.38
1602831187.9716,75.0,777.0,34.0,421.9331865224754,36.38
1602831187.9728,75.0,777.0,34.0,421.88874130125424,36.38
1602831187.975,75.0,777.0,31.0,421.84444172566566,36.38
1602831187.9768,75.0,777.0,31.0,421.8003460539626,36.38
1602831187.9788,75.0,777.0,36.0,421.75651254439805,36.38
1602831187.9807,75.0,777.0,39.0,421.7129994552251,36.38
1602831187.9829,75.0,777.0,31.0,421.6698650446966,36.38
1602831187.9848,75.0,777.0,31.0,421.6271675710658,36.38
1602831187.9867,75.0,777.0,36.0,421.5849652925855,36.38
1602831187.9887,75.0,777.0,34.0,421.5433164675088,36.38
1602831187.9907,75.0,777.0,34.0,421.5022793540887,36.38
1602831187.9927,75.0,777.0,39.0,421.46191221057836,36.38
1602831187.9949,75.0,777.0,41.0,421.4222732952305,36.38
1602831187.9968,75.0,777.0,41.0,421.38342086629825,36.38
1602831187.9988,75.0,777.0,36.0,421.3454131820347,36.38
1602831188.0007,75.0,777.0,31.0,421.30830850069276,36.38
1602831188.0027,75.0,777.0,27.0,421.2721650805255,36.38
1602831188.0047,75.0,777.0,24.0,421.2370411797858,36.38
1602831188.0067,75.0,777.0,24.0,421.202995056727,36.38
1602831188.0087,75.0,777.0,27.0,421.1700849696017,36.38
1602831188.0107,75.0,777.0,29.0,421.1383691766632,36.38
1602831188.0127,75.0,777.0,29.0,421.10790593616446,36.38
1602831188.0147,75.0,777.0,27.0,421.07875350635834,36.38
1602831188.0168,75.0,777.0,29.0,421.050970145498,36.38
1602831188.0187,75.0,777.0,31.0,421.0246141118364,36.38
1602831188.0207,75.0,777.0,36.0,420.99974366362653,36.38
1602831188.0227,75.0,777.0,31.0,420.97641705912133,36.38
1602831188.0247,75.0,777.0,27.0,420.95469255657406,36.38
1602831188.0267,75.0,777.0,34.0,420.9346284142375,36.38
1602831188.0287,75.0,777.0,36.0,420.91628289036476,36.38
1602831188.0307,75.0,777.0,31.0,420.8997142432088,36.38
1602831188.0327,75.0,777.0,29.0,420.88498073102255,36.38
1602831188.0347,75.0,777.0,34.0,420.8721406120592,36.38
1602831188.0367,75.0,777.0,34.0,420.8612521445717,36.38
1602831188.0386,75.0,777.0,31.0,420.852373586813,36.38
1602831188.0407,75.0,777.0,29.0,420.8455631970362,36.38
1602831188.0427,75.0,777.0,29.0,420.8408792334942,36.38
1602831188.0447,75.0,777.0,27.0,420.83837995444003,36.38
1602831188.0466,75.0,777.0,24.0,420.8381236181268,36.38
1602831188.0487,75.0,777.0,27.0,420.8401684828075,36.38
1602831188.0506,75.0,777.0,34.0,420.84457280673496,36.38
1602831188.0526,75.0,777.0,46.0,420.8513948481624,36.38
1602831188.0547,75.0,777.0,63.0,420.8606928653428,36.38
1602831188.0566,75.0,777.0,73.0,420.8725251165291,36.38
1602831188.0587,75.0,777.0,61.0,420.88694985997427,36.38
1602831188.0606,75.0,777.0,54.0,420.9040253539315,36.38
1602831188.0627,75.0,777.0,58.0,420.9238098566535,36.38
1602831188.0647,75.0,777.0,61.0,420.9463616263937,36.38
1602831188.0667,75.0,777.0,54.0,420.9717389214047,36.38
1602831188.0686,75.0,777.0,46.0,420.99999999993975,36.38
1602831188.0707,75.0,777.0,44.0,420.99999999993975,36.38
1602831188.0726,75.0,777.0,44.0,420.99999999993975,36.38
1602831188.0746,75.0,777.0,49.0,420.99999999993975,36.38
1602831188.0768,75.0,777.0,54.0,420.99999999993975,36.38
1602831188.0787,75.0,777.0,54.0,420.99999999993975,36.38
1602831188.0806,75.0,777.0,49.0,420.99999999993975,36.38
1602831188.0827,75.0,777.0,44.0,420.99999999993975,36.38
1602831188.0847,75.0,777.0,100.0,420.99999999993975,36.38
1602831188.0867,75.0,777.0,329.0,420.99999999993975,36.38
1602831188.0887,75.0,777.0,550.0,420.99999999993975,36.38
1602831188.0906,75.0,777.0,294.0,420.99999999993975,36.38
1602831188.0926,75.0,777.0,-312.0,420.99999999993975,36.38
1602831188.0947,75.0,777.0,-427.0,420.99999999993975,36.38
1602831188.0967,75.0,777.0,-29.0,420.99999999993975,36.38
1602831188.0987,75.0,777.0,103.0,420.99999999993975,36.38
1602831188.1007,75.0,777.0,12.0,420.99999999993975,36.38
1602831188.1027,75.0,777.0,63.0,420.99999999993975,36.38
1602831188.1047,75.0,777.0,100.0,420.99999999993975,36.38
1602831188.1066,75.0,777.0,58.0,420.99999999993975,36.38
1602831188.1086,75.0,777.0,66.0,420.99999999993975,36.38
1602831188.1106,75.0,777.0,95.0,420.99999999993975,36.38
1602831188.1126,75.0,777.0,93.0,420.99999999993975,36.38
1602831188.5412,75.0,777.0,88.0,420.99999999993975,36.38
1602831188.542,75.0,777.0,90.0,420.99999999993975,36.38
1602831188.5445,75.0,777.0,93.0,420.99999999993975,36.38
1602831188.5471,75.0,777.0,103.0,420.99999999993975,36.38
1602831188.5491,75.0,777.0,105.0,420.99999999993975,36.38
1602831188.5511,75.0,777.0,103.0,420.99999999993975,36.38
1602831188.5531,75.0,777.0,103.0,420.99999999993975,36.38
1602831188.5552,75.0,777.0,110.0,420.99999999993975,36.38
1602831188.5571,75.0,777.0,113.0,420.99999999993975,36.38
1602831188.5591,75.0,777.0,105.0,420.99999999993975,36.38
1602831188.5611,75.0,777.0,113.0,420.99999999993975,36.38
1602831188.5631,75.0,777.0,127.0,420.99999999993975,36.38
1602831188.5652,75.0,777.0,127.0,420.99999999993975,36.38
1602831188.5672,75.0,777.0,125.0,420.99999999993975,36.38
1602831188.5691,75.0,777.0,145.0,420.99999999993975,36.38
1602831188.5711,75.0,777.0,164.0,420.99999999993975,36.38
1602831188.5731,75.0,777.0,167.0,420.99999999993975,36.38
1602831188.5751,75.0,777.0,167.0,420.99999999993975,36.38
1602831188.5771,75.0,777.0,181.0,420.99999999993975,36.38
1602831188.5791,75.0,777.0,191.0,420.99999999993975,36.38
1602831188.5811,75.0,777.0,176.0,420.99999999993975,36.38
1602831188.5831,75.0,777.0,157.0,420.99999999993975,36.38
1602831188.5851,75.0,777.0,169.0,420.99999999993975,36.38
1602831188.5871,75.0,777.0,184.0,421.01413053920726,36.38
1602831188.5891,75.0,777.0,164.0,421.0268191867128,36.38
1602831188.5911,75.0,777.0,127.0,421.0380950715828,36.38
1602831188.593,75.0,777.0,105.0,421.04798732294387,36.38
1602831188.595,75.0,777.0,83.0,421.0565250699225,36.38
1602831188.597,75.0,777.0,56.0,421.063737441645,36.38
1602831188.5991,75.0,777.0,34.0,421.0696535672382,36.38
1602831188.601,75.0,777.0,17.0,421.07430257582837,36.38
1602831188.603,75.0,777.0,7.0,421.07771359654214,36.38
1602831188.6052,75.0,777.0,2.0,421.0799157585059,36.38
1602831188.6071,75.0,777.0,-4.0,421.08093819084615,36.38
1602831188.609,75.0,777.0,-7.0,421.08081002268955,36.38
1602831188.611,75.0,777.0,-2.0,421.0795603831625,36.38
1602831188.613,75.0,777.0,9.0,421.0772184013915,36.38
1602831188.615,75.0,777.0,17.0,421.07381320650313,36.38
1602831188.617,75.0,777.0,17.0,421.0693739276237,36.38
1602831188.619,75.0,777.0,19.0,421.06392969388,36.38
1602831188.621,75.0,777.0,22.0,421.05750963439834,36.38
1602831188.623,75.0,777.0,19.0,421.0501428783052,36.38
1602831188.625,75.0,777.0,27.0,421.04185855472724,36.38
1602831188.627,75.0,777.0,31.0,421.03268579279086,36.38
1602831188.629,75.0,777.0,36.0,421.02265372162253,36.38
1602831188.631,75.0,777.0,34.0,421.01179147034884,36.38
1602831188.6331,75.0,777.0,27.0,421.00012816809635,36.38
1602831188.6351,75.0,777.0,31.0,420.9876929439914,36.38
1602831188.6371,75.0,777.0,44.0,420.9745149271606,36.38
1602831188.6391,75.0,777.0,54.0,420.9606232467304,36.38
1602831188.6411,75.0,777.0,46.0,420.94604703182733,36.38
1602831188.6431,75.0,777.0,39.0,420.930815411578,36.38
1602831188.6451,75.0,777.0,51.0,420.91495751510877,36.38
1602831188.647,75.0,777.0,46.0,420.89850247154607,36.38
1602831188.649,75.0,777.0,36.0,420.8814794100167,36.38
1602831188.651,75.0,777.0,44.0,420.8639174596469,36.38
1602831188.653,75.0,777.0,44.0,420.8458457495633,36.38
1602831188.655,75.0,777.0,24.0,420.8272934088923,36.38
1602831188.657,75.0,777.0,19.0,420.80828956676055,36.38
1602831188.659,75.0,777.0,39.0,420.78886335229436,36.38
1602831188.661,75.0,777.0,41.0,420.7690438946205,36.38
1602831188.663,75.0,777.0,34.0,420.7488603228653,36.38
1602831188.665,75.0,777.0,34.0,420.72834176615527,36.38
1602831188.667,75.0,777.0,39.0,420.70751735361694,36.38
1602831188.669,75.0,777.0,44.0,420.6864162143768,36.38
1602831188.671,75.0,777.0,44.0,420.66506747756137,36.38
1602831188.673,75.0,777.0,41.0,420.6435002722971,36.38
1602831188.675,75.0,777.0,46.0,420.62174372771057,36.38
1602831188.677,75.0,777.0,44.0,420.59982697292827,36.38
1602831188.679,75.0,777.0,44.0,420.57777913707673,36.38
1602831188.681,75.0,777.0,51.0,420.5556293492824,36.38
1602831188.6831,75.0,777.0,54.0,420.5334067386719,36.38
1602831188.6851,75.0,777.0,41.0,420.51114043437155,36.38
1602831189.1117,75.0,791.0,49.0,420.488859565508,36.38
1602831189.1126,75.0,791.0,73.0,420.46659326120766,36.38
1602831189.1151,75.0,791.0,61.0,420.4443706505971,36.38
1602831189.1177,75.0,791.0,39.0,420.42222086280276,36.38
1602831189.1197,75.0,791.0,39.0,420.4001730269512,36.38
1602831189.1217,75.0,791.0,46.0,420.378256272169,36.38
1602831189.1237,75.0,791.0,49.0,420.3564997275825,36.38
1602831189.1257,75.0,791.0,61.0,420.3349325223183,36.38
1602831189.1277,75.0,791.0,83.0,420.3135837855029,36.38
1602831189.1297,75.0,791.0,83.0,420.2924826462628,36.38
1602831189.132,75.0,791.0,66.0,420.27165823372445,36.38
1602831189.1338,75.0,791.0,61.0,420.2511396770144,36.38
1602831189.1356,75.0,791.0,66.0,420.23095610525917,36.38
1602831189.1377,75.0,791.0,58.0,420.21113664758525,36.38
1602831189.1396,75.0,791.0,49.0,420.19171043311917,36.38
1602831189.1416,75.0,791.0,41.0,420.1727065909874,36.38
1602831189.1436,75.0,791.0,41.0,420.1541542503164,36.38
1602831189.1456,75.0,791.0,39.0,420.1360825402328,36.38
1602831189.1476,75.0,791.0,39.0,420.118520589863,36.38
1602831189.1496,75.0,791.0,46.0,420.10149752833354,36.38
1602831189.1516,75.0,791.0,58.0,420.08504248477095,36.38
1602831189.1536,75.0,791.0,51.0,420.0691845883017,36.38
1602831189.1557,75.0,791.0,39.0,420.0539529680523,36.38
1602831189.1577,75.0,791.0,132.0,420.03937675314927,36.38
1602831189.1596,75.0,791.0,385.0,420.02548507271905,36.38
1602831189.1617,75.0,791.0,523.0,420.01230705588824,36.38
1602831189.1636,75.0,791.0,117.0,419.9998718317833,36.38
1602831189.1656,75.0,791.0,-459.0,419.98820852953077,36.38
1602831189.1676,75.0,791.0,-378.0,419.97734627825713,36.38
1602831189.1696,75.0,791.0,49.0,419.9673142070888,36.38
1602831189.1716,75.0,791.0,88.0,419.9581414451524,36.38
1602831189.1736,75.0,791.0,7.0,419.94985712157444,36.38
1602831189.1756,75.0,791.0,83.0,419.9424903654814,36.38
1602831189.1776,75.0,791.0,103.0,419.9360703059997,36.38
1602831189.1796,75.0,791.0,66.0,419.9306260722559,36.38
1602831189.1816,75.0,791.0,78.0,419.9261867933766,36.38
1602831189.1836,75.0,791.0,88.0,419.92278159848814,36.38
1602831189.1856,75.0,791.0,71.0,419.92043961671715,36.38
1602831189.1876,75.0,791.0,76.0,419.9191899771901,36.38
1602831189.1896,75.0,791.0,90.0,419.9190618090335,36.38
1602831189.1916,75.0,791.0,88.0,419.9200842413738,36.38
1602831189.1936,75.0,791.0,90.0,419.9222864033376,36.38
1602831189.1956,75.0,791.0,98.0,419.9256974240513,36.38
1602831189.1976,75.0,791.0,100.0,419.9303464326415,36.38
1602831189.1996,75.0,791.0,103.0,419.9362625582346,36.38
1602831189.2016,75.0,791.0,113.0,419.94347492995723,36.38
1602831189.2036,75.0,791.0,117.0,419.9520126769358,36.38
1602831189.2056,75.0,791.0,105.0,419.96190492829686,36.38
1602831189.2076,75.0,791.0,100.0,419.9731808131669,36.38
1602831189.2096,75.0,791.0,120.0,419.9858694606724,36.38
1602831189.2117,75.0,791.0,130.0,419.9999999999399,36.38
1602831189.2136,75.0,791.0,130.0,419.9999999999399,36.38
1602831189.2156,75.0,791.0,142.0,419.9999999999399,36.38
1602831189.2176,75.0,791.0,162.0,419.9999999999399,36.38
1602831189.2196,75.0,791.0,169.0,419.9999999999399,36.38
1602831189.2216,75.0,791.0,169.0,419.9999999999399,36.38
1602831189.2236,75.0,791.0,164.0,419.9999999999399,36.38
1602831189.2256,75.0,791.0,159.0,419.9999999999399,36.38
1602831189.2276,75.0,791.0,159.0,419.9999999999399,36.38
1602831189.2296,75.0,791.0,164.0,419.9999999999399,36.38
1602831189.2316,75.0,791.0,164.0,419.9999999999399,36.38
1602831189.2338,75.0,791.0,149.0,419.9999999999399,36.38
1602831189.2356,75.0,791.0,130.0,419.9999999999399,36.38
1602831189.2376,75.0,791.0,110.0,419.9999999999399,36.38
1602831189.2395,75.0,791.0,90.0,419.9999999999399,36.38
1602831189.2416,75.0,791.0,66.0,419.9999999999399,36.38
1602831189.2436,75.0,791.0,46.0,419.9999999999399,36.38
1602831189.2456,75.0,791.0,29.0,419.9999999999399,36.38
1602831189.2476,75.0,791.0,7.0,419.9999999999399,36.38
1602831189.2497,75.0,791.0,-14.0,419.9999999999399,36.38
1602831189.2517,75.0,791.0,-22.0,419.9999999999399,36.38
1602831189.2536,75.0,791.0,-9.0,419.9999999999399,36.38
1602831189.2556,75.0,791.0,7.0,419.9999999999399,36.38
1602831189.6812,75.0,791.0,4.0,419.9999999999399,36.38
1602831189.682,75.0,791.0,2.0,419.9999999999399,36.38
1602831189.6845,75.0,791.0,19.0,419.9999999999399,36.38
1602831189.6871,75.0,791.0,29.0,419.9999999999399,36.38
1602831189.6892,75.0,791.0,14.0,419.9999999999399,36.38
1602831189.6911,75.0,791.0,9.0,419.9999999999399,36.38
1602831189.6933,75.0,791.0,9.0,419.9999999999399,36.38
1602831189.6951,75.0,791.0,7.0,419.9999999999399,36.38
1602831189.697,75.0,791.0,12.0,419.9999999999399,36.38
1602831189.699,75.0,791.0,27.0,419.9999999999399,36.38
1602831189.7011,75.0,791.0,29.0,419.9999999999399,36.38
1602831189.7031,75.0,791.0,19.0,419.9999999999399,36.38
1602831189.7051,75.0,791.0,19.0,419.9999999999399,36.38
1602831189.707,75.0,791.0,34.0,419.9999999999399,36.38
1602831189.709,75.0,791.0,34.0,419.9999999999399,36.38
1602831189.711,75.0,791.0,22.0,419.9999999999399,36.38
1602831189.713,75.0,791.0,12.0,419.9999999999399,36.38
1602831189.715,75.0,791.0,17.0,419.9999999999399,36.38
1602831189.7171,75.0,791.0,24.0,419.9999999999399,36.38
1602831189.719,75.0,791.0,24.0,419.9999999999399,36.38
1602831189.721,75.0,791.0,24.0,419.9999999999399,36.38
1602831189.7231,75.0,791.0,36.0,419.9999999999399,36.38
1602831189.7251,75.0,791.0,41.0,419.9999999999399,36.38
1602831189.727,75.0,791.0,29.0,419.9999999999399,36.38
1602831189.7291,75.0,791.0,22.0,419.9999999999399,36.38
1602831189.731,75.0,791.0,24.0,419.9999999999399,36.38
1602831189.7331,75.0,791.0,24.0,419.9999999999399,36.38
1602831189.7351,75.0,791.0,24.0,419.9999999999399,36.38
1602831189.737,75.0,791.0,29.0,419.9999999999399,36.38
1602831189.739,75.0,791.0,39.0,419.9999999999399,36.38
1602831189.741,75.0,791.0,51.0,419.9999999999399,36.38
1602831189.743,75.0,791.0,49.0,419.9999999999399,36.38
1602831189.745,75.0,791.0,31.0,419.9999999999399,36.38
1602831189.747,75.0,791.0,24.0,419.9999999999399,36.38
1602831189.7491,75.0,791.0,36.0,419.9999999999399,36.38
1602831189.751,75.0,791.0,49.0,419.9999999999399,36.38
1602831189.7531,75.0,791.0,44.0,419.9999999999399,36.38
1602831189.7551,75.0,791.0,39.0,419.9999999999399,36.38
1602831189.757,75.0,791.0,41.0,419.9999999999399,36.38
1602831189.7592,75.0,791.0,44.0,419.9999999999399,36.38
1602831189.7611,75.0,791.0,49.0,419.9999999999399,36.38
1602831189.763,75.0,791.0,49.0,419.9999999999399,36.38
1602831189.765,75.0,791.0,49.0,419.9999999999399,36.38
1602831189.7671,75.0,791.0,56.0,419.9999999999399,36.38
1602831189.769,75.0,791.0,56.0,419.9999999999399,36.38
1602831189.771,75.0,791.0,51.0,419.9999999999399,36.38
1602831189.773,75.0,791.0,49.0,419.9999999999399,36.38
1602831189.775,75.0,791.0,44.0,419.9999999999399,36.38
1602831189.777,75.0,791.0,36.0,419.9999999999399,36.38
1602831189.779,75.0,791.0,46.0,419.9999999999399,36.38
1602831189.781,75.0,791.0,73.0,419.9999999999399,36.38
1602831189.783,75.0,791.0,95.0,419.9999999999399,36.38
1602831189.785,75.0,791.0,88.0,419.9999999999399,36.38
1602831189.787,75.0,791.0,81.0,419.9999999999399,36.38
1602831189.789,75.0,791.0,78.0,419.9999999999399,36.38
1602831189.791,75.0,791.0,71.0,419.9999999999399,36.38
1602831189.793,75.0,791.0,61.0,419.9999999999399,36.38
1602831189.795,75.0,791.0,51.0,419.9999999999399,36.38
1602831189.797,75.0,791.0,46.0,419.9999999999399,36.38
1602831189.799,75.0,791.0,49.0,419.9999999999399,36.38
1602831189.801,75.0,791.0,58.0,419.9999999999399,36.38
1602831189.803,75.0,791.0,58.0,419.9999999999399,36.38
1602831189.8051,75.0,791.0,61.0,419.9999999999399,36.38
1602831189.807,75.0,791.0,73.0,419.9999999999399,36.38
1602831189.8091,75.0,791.0,66.0,419.9999999999399,36.38
1602831189.811,75.0,791.0,56.0,419.9999999999399,36.38
1602831189.813,75.0,791.0,199.0,419.9999999999399,36.38
1602831189.815,75.0,791.0,479.0,419.9999999999399,36.38
1602831189.817,75.0,791.0,474.0,419.9999999999399,36.38
1602831189.819,75.0,791.0,-51.0,419.9999999999399,36.38
1602831189.821,75.0,791.0,-447.0,419.9999999999399,36.38
1602831189.823,75.0,791.0,-186.0,419.9999999999399,36.38
1602831189.825,75.0,791.0,110.0,419.9999999999399,36.38
1602831190.1916,75.0,828.0,49.0,419.9999999999399,36.38
1602831190.1927,75.0,828.0,19.0,419.9999999999399,36.38
1602831190.1952,75.0,828.0,88.0,419.9999999999399,36.38
1602831190.1977,75.0,828.0,76.0,419.9999999999399,36.38
1602831190.1997,75.0,828.0,58.0,419.9999999999399,36.38
1602831190.2017,75.0,828.0,81.0,419.9999999999399,36.38
1602831190.2038,75.0,828.0,83.0,419.9999999999399,36.38
1602831190.2057,75.0,828.0,76.0,419.9999999999399,36.38
1602831190.2076,75.0,828.0,76.0,419.9999999999399,36.38
1602831190.2097,75.0,828.0,76.0,419.9999999999399,36.38
1602831190.2117,75.0,828.0,86.0,419.9999999999399,36.38
1602831190.2137,75.0,828.0,81.0,419.9999999999399,36.38
1602831190.2157,75.0,828.0,54.0,419.9999999999399,36.38
1602831190.2176,75.0,828.0,56.0,419.9999999999399,36.38
1602831190.2196,75.0,828.0,73.0,419.9999999999399,36.38
1602831190.2216,75.0,828.0,68.0,419.9999999999399,36.38
1602831190.2236,75.0,828.0,71.0,419.9999999999399,36.38
1602831190.2258,75.0,828.0,95.0,419.9999999999399,36.38
1602831190.2277,75.0,828.0,115.0,419.9999999999399,36.38
1602831190.2296,75.0,828.0,113.0,419.9999999999399,36.38
1602831190.2316,75.0,828.0,98.0,419.9999999999399,36.38
1602831190.2337,75.0,828.0,108.0,419.9999999999399,36.38
1602831190.2357,75.0,828.0,130.0,419.9999999999399,36.38
1602831190.2376,75.0,828.0,132.0,419.9999999999399,36.38
1602831190.2396,75.0,828.0,122.0,419.9999999999399,36.38
1602831190.2416,75.0,828.0,125.0,419.9999999999399,36.38
1602831190.2436,75.0,828.0,130.0,419.9999999999399,36.38
1602831190.2457,75.0,828.0,132.0,419.9999999999399,36.38
1602831190.2476,75.0,828.0,145.0,419.9999999999399,36.38
1602831190.2496,75.0,828.0,140.0,419.9999999999399,36.38
1602831190.2516,75.0,828.0,113.0,419.9999999999399,36.38
1602831190.2536,75.0,828.0,100.0,419.9999999999399,36.38
1602831190.2556,75.0,828.0,103.0,419.9999999999399,36.38
1602831190.2576,75.0,828.0,81.0,419.9999999999399,36.38
1602831190.2596,75.0,828.0,51.0,419.9999999999399,36.38
1602831190.2616,75.0,828.0,36.0,419.9999999999399,36.38
1602831190.2636,75.0,828.0,22.0,419.9999999999399,36.38
1602831190.2656,75.0,828.0,2.0,419.9999999999399,36.38
1602831190.2676,75.0,828.0,-4.0,419.9999999999399,36.38
1602831190.2696,75.0,828.0,-2.0,419.9999999999399,36.38
1602831190.2716,75.0,828.0,-2.0,419.9999999999399,36.38
1602831190.2736,75.0,828.0,-9.0,419.9999999999399,36.38
1602831190.2757,75.0,828.0,-12.0,419.9999999999399,36.38
1602831190.2776,75.0,828.0,-9.0,419.9999999999399,36.38
1602831190.2796,75.0,828.0,-7.0,419.9999999999399,36.38
1602831190.2817,75.0,828.0,4.0,419.9999999999399,36.38
1602831190.2836,75.0,828.0,22.0,419.9999999999399,36.38
1602831190.2857,75.0,828.0,22.0,419.9999999999399,36.38
1602831190.2877,75.0,828.0,14.0,419.9999999999399,36.38
1602831190.2896,75.0,828.0,14.0,419.9999999999399,36.38
1602831190.2916,75.0,828.0,22.0,419.9999999999399,36.38
1602831190.2936,75.0,828.0,31.0,419.9999999999399,36.38
1602831190.2956,75.0,828.0,41.0,419.9999999999399,36.38
1602831190.2976,75.0,828.0,39.0,419.9999999999399,36.38
1602831190.2996,75.0,828.0,31.0,419.9999999999399,36.38
1602831190.3016,75.0,828.0,41.0,419.9999999999399,36.38
1602831190.3036,75.0,828.0,54.0,419.9999999999399,36.38
1602831190.3056,75.0,828.0,54.0,419.9999999999399,36.38
1602831190.3076,75.0,828.0,46.0,419.9999999999399,36.38
1602831190.3096,75.0,828.0,46.0,419.9999999999399,36.38
1602831190.3116,75.0,828.0,46.0,419.9999999999399,36.38
1602831190.3136,75.0,828.0,39.0,419.9999999999399,36.38
1602831190.3156,75.0,828.0,36.0,419.9999999999399,36.38
1602831190.3176,75.0,828.0,41.0,419.9999999999399,36.38
1602831190.3196,75.0,828.0,31.0,419.9999999999399,36.38
1602831190.3216,75.0,828.0,34.0,419.9999999999399,36.38
1602831190.3236,75.0,828.0,54.0,419.9999999999399,36.38
1602831190.3258,75.0,828.0,56.0,419.9999999999399,36.38
1602831190.3279,75.0,828.0,36.0,419.9999999999399,36.38
1602831190.3297,75.0,828.0,34.0,419.9999999999399,36.38
1602831190.3316,75.0,828.0,41.0,419.9999999999399,36.38
1602831190.3336,75.0,828.0,41.0,419.9999999999399,36.38
1602831190.3356,75.0,828.0,44.0,419.9999999999399,36.38
1602831190.7612,75.0,828.0,46.0,419.9999999999399,36.31
1602831190.7621,75.0,828.0,39.0,419.9999999999399,36.31
1602831190.7646,75.0,828.0,34.0,419.9999999999399,36.31
1602831190.7671,75.0,828.0,41.0,419.9999999999399,36.31
1602831190.7691,75.0,828.0,46.0,419.9999999999399,36.31
1602831190.7711,75.0,828.0,36.0,419.9999999999399,36.31
1602831190.7732,75.0,828.0,24.0,419.9999999999399,36.31
1602831190.7752,75.0,828.0,27.0,419.9999999999399,36.31
1602831190.7771,75.0,828.0,34.0,419.9999999999399,36.31
1602831190.7791,75.0,828.0,31.0,419.9999999999399,36.31
1602831190.7811,75.0,828.0,34.0,419.9999999999399,36.31
1602831190.7831,75.0,828.0,39.0,419.9999999999399,36.31
1602831190.7851,75.0,828.0,29.0,419.9999999999399,36.31
1602831190.787,75.0,828.0,34.0,419.9999999999399,36.31
1602831190.789,75.0,828.0,49.0,419.9999999999399,36.31
1602831190.7911,75.0,828.0,51.0,419.9999999999399,36.31
1602831190.7931,75.0,828.0,49.0,419.9999999999399,36.31
1602831190.7951,75.0,828.0,56.0,419.9999999999399,36.31
1602831190.797,75.0,828.0,58.0,419.9999999999399,36.31
1602831190.799,75.0,828.0,44.0,419.9999999999399,36.31
1602831190.801,75.0,828.0,29.0,419.9999999999399,36.31
1602831190.803,75.0,828.0,29.0,419.9999999999399,36.31
1602831190.8051,75.0,828.0,44.0,419.9999999999399,36.31
1602831190.807,75.0,828.0,58.0,419.9999999999399,36.31
1602831190.809,75.0,828.0,78.0,419.9999999999399,36.31
1602831190.811,75.0,828.0,86.0,419.9999999999399,36.31
1602831190.813,75.0,828.0,71.0,419.9999999999399,36.31
1602831190.8151,75.0,828.0,68.0,419.9999999999399,36.31
1602831190.8171,75.0,828.0,71.0,419.9999999999399,36.31
1602831190.8191,75.0,828.0,58.0,419.9999999999399,36.31
1602831190.821,75.0,828.0,51.0,419.9999999999399,36.31
1602831190.823,75.0,828.0,58.0,419.9999999999399,36.31
1602831190.8251,75.0,828.0,56.0,419.9999999999399,36.31
1602831190.8272,75.0,828.0,49.0,419.9999999999399,36.31
1602831190.829,75.0,828.0,46.0,419.9999999999399,36.31
1602831190.831,75.0,828.0,51.0,419.9999999999399,36.31
1602831190.8332,75.0,828.0,63.0,419.9999999999399,36.31
1602831190.8351,75.0,828.0,63.0,419.9999999999399,36.31
1602831190.837,75.0,828.0,56.0,419.9999999999399,36.31
1602831190.839,75.0,828.0,159.0,419.9999999999399,36.31
1602831190.841,75.0,828.0,410.0,419.9999999999399,36.31
1602831190.843,75.0,828.0,491.0,419.9999999999399,36.31
1602831190.8451,75.0,828.0,78.0,419.9999999999399,36.31
1602831190.847,75.0,828.0,-393.0,419.9999999999399,36.31
1602831190.849,75.0,828.0,-265.0,419.9999999999399,36.31
1602831190.8511,75.0,828.0,76.0,419.9999999999399,36.31
1602831190.8532,75.0,828.0,76.0,419.9999999999399,36.31
1602831190.8552,75.0,828.0,9.0,419.9999999999399,36.31
1602831190.8571,75.0,828.0,76.0,419.9999999999399,36.31
1602831190.8591,75.0,828.0,88.0,419.9999999999399,36.31
1602831190.861,75.0,828.0,56.0,419.9999999999399,36.31
1602831190.863,75.0,828.0,71.0,419.9999999999399,36.31
1602831190.865,75.0,828.0,78.0,419.9999999999399,36.31
1602831190.867,75.0,828.0,61.0,419.9999999999399,36.31
1602831190.869,75.0,828.0,61.0,419.9999999999399,36.31
1602831190.871,75.0,828.0,68.0,419.9999999999399,36.31
1602831190.873,75.0,828.0,68.0,419.9999999999399,36.31
1602831190.8751,75.0,828.0,66.0,419.9999999999399,36.31
1602831190.877,75.0,828.0,71.0,419.9999999999399,36.31
1602831190.879,75.0,828.0,73.0,419.9999999999399,36.31
1602831190.881,75.0,828.0,76.0,419.9999999999399,36.31
1602831190.883,75.0,828.0,83.0,419.9999999999399,36.31
1602831190.8851,75.0,828.0,90.0,419.9999999999399,36.31
1602831190.887,75.0,828.0,100.0,419.9999999999399,36.31
1602831190.889,75.0,828.0,105.0,419.9999999999399,36.31
1602831190.891,75.0,828.0,110.0,419.9999999999399,36.31
1602831190.893,75.0,828.0,108.0,419.9999999999399,36.31
1602831190.8951,75.0,828.0,100.0,419.9999999999399,36.31
1602831190.897,75.0,828.0,108.0,419.9999999999399,36.31
1602831190.899,75.0,828.0,127.0,419.9999999999399,36.31
1602831190.901,75.0,828.0,135.0,419.9999999999399,36.31
1602831190.903,75.0,828.0,137.0,419.9999999999399,36.31
