Time,ECG
1602674794.8128,46
1602674794.8146,491
1602674794.8164,2564
1602674794.8179,5764
1602674794.8193,7888
1602674794.8202,9039
1602674794.8212,10426
1602674794.8221,11650
1602674794.8231,12451
1602674794.8240,13239
1602674794.8249,13981
1602674794.8259,14538
1602674794.8268,15057
1602674794.8277,15546
1602674794.8285,15933
1602674794.8292,16273
1602674794.8298,16602
1602674794.8305,16884
1602674794.8312,17125
1602674794.8319,17349
1602674794.8327,17563
1602674794.8335,17743
1602674794.8342,17882
1602674794.8349,18018
1602674794.8356,18159
1602674794.8363,18271
1602674794.8369,18359
1602674794.8374,18434
1602674794.8379,18507
1602674794.8384,18568
1602674794.8390,18609
1602674794.8395,18651
1602674794.8400,18694
1602674794.8405,18714
1602674794.8411,18706
1602674794.8416,18711
1602674794.8422,18738
1602674794.8427,18736
1602674794.8432,18711
1602674794.8437,18702
1602674794.8443,18680
1602674794.8449,18631
1602674794.8453,18587
1602674794.8458,18558
1602674794.8462,18536
1602674794.8466,18485
1602674794.8470,18400
1602674794.8475,18349
1602674794.8479,18315
1602674794.8483,18244
1602674794.8497,18171
1602674794.8504,18115
1602674794.8509,18047
1602674794.8514,17964
1602674794.8518,17884
1602674794.8523,17813
1602674794.8527,17745
1602674794.8531,17653
1602674794.8537,17573
1602674794.8541,17507
1602674794.8545,17390
1602674794.8548,17271
1602674794.8552,17198
1602674794.8555,17115
1602674794.8559,17006
1602674794.8562,16906
1602674794.8566,16813
1602674794.8569,16721
1602674794.8573,16628
1602674794.8576,16519
1602674794.8578,16407
1602674794.8580,16319
1602674794.8582,16232
1602674795.3521,16125
1602674795.3540,16025
1602674795.3555,15920
1602674795.3569,15801
1602674795.3583,15677
1602674795.3596,15551
1602674795.3606,15448
1602674795.3616,15356
1602674795.3626,15237
1602674795.3636,15117
1602674795.3646,15035
1602674795.3656,14928
1602674795.3666,14774
1602674795.3677,14692
1602674795.3684,14728
1602674795.3691,14850
1602674795.3697,14957
1602674795.3704,14821
1602674795.3711,14278
1602674795.3718,13745
1602674795.3725,13718
1602674795.3732,13811
1602674795.3739,13648
1602674795.3746,13499
1602674795.3752,13451
1602674795.3759,13346
1602674795.3765,13222
1602674795.3770,13122
1602674795.3779,13022
1602674795.3785,12920
1602674795.3791,12820
1602674795.3797,12716
1602674795.3802,12609
1602674795.3808,12509
1602674795.3813,12412
1602674795.3819,12314
1602674795.3824,12210
1602674795.3830,12105
1602674795.3837,12005
1602674795.3843,11903
1602674795.3848,11808
1602674795.3853,11725
1602674795.3858,11638
1602674795.3862,11543
1602674795.3866,11455
1602674795.3871,11373
1602674795.3875,11285
1602674795.3879,11193
1602674795.3884,11105
1602674795.3889,11015
1602674795.3893,10908
1602674795.3897,10789
1602674795.3901,10640
1602674795.3905,10475
1602674795.3909,10346
1602674795.3914,10234
1602674795.3918,10102
1602674795.3922,9991
1602674795.3926,9900
1602674795.3930,9808
1602674795.3935,9725
1602674795.3939,9643
1602674795.3942,9545
1602674795.3946,9450
1602674795.3949,9377
1602674795.3953,9299
1602674795.3956,9207
1602674795.3959,9127
1602674795.3963,9046
1602674795.3966,8947
1602674795.3970,8859
1602674795.3973,8791
1602674795.3976,8713
1602674795.9226,8628
1602674795.9251,8538
1602674795.9266,8460
1602674795.9280,8392
1602674795.9290,8307
1602674795.9300,8219
1602674795.9315,8149
1602674795.9325,8071
1602674795.9338,7971
1602674795.9348,7878
1602674795.9358,7808
1602674795.9369,7740
1602674795.9376,7657
1602674795.9383,7577
1602674795.9390,7509
1602674795.9397,7443
1602674795.9404,7367
1602674795.9410,7290
1602674795.9417,7226
1602674795.9424,7161
1602674795.9430,7085
1602674795.9437,7015
1602674795.9444,6954
1602674795.9451,6888
1602674795.9456,6820
1602674795.9461,6752
1602674795.9466,6686
1602674795.9472,6620
1602674795.9477,6547
1602674795.9483,6484
1602674795.9488,6426
1602674795.9493,6358
1602674795.9499,6292
1602674795.9505,6236
1602674795.9510,6180
1602674795.9516,6117
1602674795.9521,6053
1602674795.9526,5995
1602674795.9531,5937
1602674795.9536,5878
1602674795.9541,5822
1602674795.9545,5766
1602674795.9550,5715
1602674795.9556,5671
1602674795.9561,5620
1602674795.9565,5555
1602674795.9570,5496
1602674795.9574,5433
1602674795.9578,5360
1602674795.9584,5302
1602674795.9587,5255
1602674795.9591,5204
1602674795.9594,5151
1602674795.9598,5102
1602674795.9601,5056
1602674795.9605,5007
1602674795.9608,4951
1602674795.9613,4922
1602674795.9617,4993
1602674795.9620,5192
1602674795.9623,5384
1602674795.9625,5328
1602674795.9627,4851
1602674795.9630,4336
1602674795.9632,4340
1602674795.9634,4525
1602674795.9636,4440
1602674795.9639,4353
1602674795.9641,4377
1602674795.9643,4336
1602674795.9645,4275
1602674795.9648,4253
1602674795.9650,4221
1602674796.4619,4173
1602674796.4636,4141
1602674796.4655,4109
1602674796.4671,4070
1602674796.4686,4034
1602674796.4698,4002
1602674796.4708,3966
1602674796.4719,3927
1602674796.4729,3900
1602674796.4740,3866
1602674796.4751,3822
1602674796.4761,3798
1602674796.4771,3781
1602674796.4779,3754
1602674796.4787,3722
1602674796.4795,3701
1602674796.4802,3683
1602674796.4809,3664
1602674796.4816,3632
1602674796.4822,3603
1602674796.4829,3576
1602674796.4836,3535
1602674796.4844,3474
1602674796.4851,3401
1602674796.4859,3321
1602674796.4866,3241
1602674796.4872,3177
1602674796.4877,3129
1602674796.4882,3082
1602674796.4888,3048
1602674796.4893,3019
1602674796.4898,2992
1602674796.4904,2978
1602674796.4908,2968
1602674796.4913,2941
1602674796.4919,2900
1602674796.4925,2856
1602674796.4930,2827
1602674796.4934,2812
1602674796.4939,2795
1602674796.4943,2759
1602674796.4948,2717
1602674796.4952,2698
1602674796.4955,2686
1602674796.4959,2669
1602674796.4963,2652
1602674796.4966,2630
1602674796.4970,2608
1602674796.4973,2579
1602674796.4977,2547
1602674796.4980,2515
1602674796.4983,2486
1602674796.4987,2464
1602674796.4989,2445
1602674796.4991,2425
1602674796.4994,2404
1602674796.4996,2382
1602674796.4998,2357
1602674796.5000,2340
1602674796.5003,2326
1602674796.5005,2301
1602674796.5007,2272
1602674796.5010,2253
1602674796.5012,2241
1602674796.5014,2214
1602674796.5016,2185
1602674796.5019,2172
1602674796.5021,2160
1602674796.5023,2138
1602674796.5026,2126
1602674796.5028,2114
1602674796.5029,2087
1602674796.5031,2060
1602674797.0318,2036
1602674797.0337,2026
1602674797.0354,2022
1602674797.0369,2000
1602674797.0379,1966
1602674797.0389,1944
1602674797.0398,1927
1602674797.0408,1907
1602674797.0418,1895
1602674797.0428,1878
1602674797.0438,1856
1602674797.0449,1839
1602674797.0459,1837
1602674797.0469,1829
1602674797.0477,1803
1602674797.0485,1766
1602674797.0491,1754
1602674797.0498,1754
1602674797.0505,1737
1602674797.0513,1722
1602674797.0520,1730
1602674797.0527,1732
1602674797.0533,1708
1602674797.0540,1686
1602674797.0547,1671
1602674797.0552,1637
1602674797.0558,1603
1602674797.0565,1601
1602674797.0571,1591
1602674797.0577,1554
1602674797.0582,1535
1602674797.0588,1535
1602674797.0592,1528
1602674797.0597,1508
1602674797.0601,1508
1602674797.0606,1593
1602674797.0610,1803
1602674797.0614,2036
1602674797.0619,2073
1602674797.0623,1710
1602674797.0627,1211
1602674797.0632,1155
1602674797.0637,1374
1602674797.0641,1369
1602674797.0644,1294
1602674797.0648,1335
1602674797.0651,1350
1602674797.0655,1313
1602674797.0658,1313
1602674797.0662,1321
1602674797.0665,1294
1602674797.0669,1287
1602674797.0672,1299
1602674797.0676,1282
1602674797.0678,1272
1602674797.0680,1287
1602674797.0683,1279
1602674797.0685,1253
1602674797.0687,1245
1602674797.0689,1253
1602674797.0692,1248
1602674797.0694,1245
1602674797.0696,1257
1602674797.0698,1265
1602674797.0701,1262
1602674797.0703,1265
1602674797.0706,1270
1602674797.0708,1265
1602674797.0710,1270
1602674797.0712,1284
1602674797.0715,1282
1602674797.0717,1255
1602674797.0718,1216
1602674797.5719,1175
1602674797.5736,1121
1602674797.5752,1073
1602674797.5767,1029
1602674797.5781,983
1602674797.5791,961
1602674797.5801,956
1602674797.5811,944
1602674797.5821,931
1602674797.5830,924
1602674797.5840,922
1602674797.5852,917
1602674797.5863,912
1602674797.5873,912
1602674797.5880,914
1602674797.5887,907
1602674797.5894,902
1602674797.5900,905
1602674797.5907,910
1602674797.5914,907
1602674797.5925,897
1602674797.5932,885
1602674797.5939,875
1602674797.5946,868
1602674797.5953,866
1602674797.5960,863
1602674797.5968,854
1602674797.5974,844
1602674797.5979,846
1602674797.5985,849
1602674797.5991,844
1602674797.5997,837
1602674797.6003,829
1602674797.6008,820
1602674797.6012,815
1602674797.6016,805
1602674797.6019,805
1602674797.6023,810
1602674797.6026,805
1602674797.6030,793
1602674797.6034,788
1602674797.6037,790
1602674797.6042,793
1602674797.6046,783
1602674797.6048,778
1602674797.6050,778
1602674797.6053,768
1602674797.6055,761
1602674797.6057,761
1602674797.6059,761
1602674797.6062,756
1602674797.6064,751
1602674797.6066,747
1602674797.6069,747
1602674797.6071,751
1602674797.6073,739
1602674797.6075,725
1602674797.6078,722
1602674797.6080,725
1602674797.6082,717
1602674797.6085,715
1602674797.6087,717
1602674797.6089,710
1602674797.6091,703
1602674797.6093,700
1602674797.6094,693
1602674797.6096,683
1602674797.6098,686
1602674797.6100,686
1602674797.6101,674
1602674797.6103,666
1602674797.6105,671
1602674797.6106,676
1602674798.1720,678
1602674798.1742,686
1602674798.1758,691
1602674798.1773,683
1602674798.1789,661
1602674798.1800,639
1602674798.1810,632
1602674798.1820,625
1602674798.1830,618
1602674798.1841,618
1602674798.1851,618
1602674798.1862,615
1602674798.1873,610
1602674798.1880,610
1602674798.1888,601
1602674798.1897,622
1602674798.1905,761
1602674798.1912,1009
1602674798.1919,1199
1602674798.1925,1107
1602674798.1934,652
1602674798.1940,289
1602674798.1946,418
1602674798.1952,593
1602674798.1957,510
1602674798.1963,479
1602674798.1968,532
1602674798.1973,525
1602674798.1978,508
1602674798.1982,528
1602674798.1987,535
1602674798.1992,530
1602674798.1996,535
1602674798.2001,542
1602674798.2006,545
1602674798.2010,552
1602674798.2012,549
1602674798.2015,547
1602674798.2017,552
1602674798.2019,557
1602674798.2022,562
1602674798.2024,569
1602674798.2026,576
1602674798.2028,586
1602674798.2031,598
1602674798.2033,608
1602674798.2035,613
1602674798.2038,620
1602674798.2040,635
1602674798.2042,649
1602674798.2044,647
1602674798.2047,637
1602674798.2049,622
1602674798.2051,591
1602674798.2052,547
1602674798.2054,501
1602674798.2056,459
1602674798.2058,428
1602674798.2059,406
1602674798.2061,394
1602674798.2063,394
1602674798.2064,399
1602674798.2066,396
1602674798.2068,386
1602674798.2069,391
1602674798.2071,401
1602674798.2073,406
1602674798.2075,408
1602674798.2076,413
1602674798.2078,416
1602674798.2080,406
1602674798.2082,411
1602674798.2084,420
1602674798.7418,423
1602674798.7437,425
1602674798.7452,425
1602674798.7467,418
1602674798.7481,420
1602674798.7496,430
1602674798.7507,420
1602674798.7518,396
1602674798.7530,394
1602674798.7540,401
1602674798.7551,394
1602674798.7562,394
1602674798.7573,403
1602674798.7583,399
1602674798.7591,389
1602674798.7598,389
1602674798.7605,391
1602674798.7612,391
1602674798.7619,396
1602674798.7626,396
1602674798.7631,394
1602674798.7637,391
1602674798.7642,399
1602674798.7648,406
1602674798.7653,403
1602674798.7658,399
1602674798.7664,399
1602674798.7670,396
1602674798.7675,394
1602674798.7679,399
1602674798.7684,399
1602674798.7689,399
1602674798.7694,401
1602674798.7698,399
1602674798.7703,399
1602674798.7707,396
1602674798.7711,396
1602674798.7716,399
1602674798.7718,401
1602674798.7721,394
1602674798.7723,386
1602674798.7725,386
1602674798.7727,394
1602674798.7730,394
1602674798.7732,389
1602674798.7734,386
1602674798.7737,384
1602674798.7739,382
1602674798.7741,389
1602674798.7744,399
1602674798.7747,399
1602674798.7749,399
1602674798.7751,399
1602674798.7754,384
1602674798.7756,369
1602674798.7758,367
1602674798.7759,364
1602674798.7761,360
1602674798.7763,364
1602674798.7764,369
1602674798.7766,372
1602674798.7768,367
1602674798.7769,369
1602674798.7771,418
1602674798.7773,581
1602674798.7775,841
1602674798.7776,1017
1602674798.7778,839
1602674798.7780,316
1602674798.7781,38
1602674798.7783,245
1602674798.7785,364
1602674798.7787,260
1602674799.2810,272
1602674799.2819,333
1602674799.2824,309
1602674799.2829,296
1602674799.2834,316
1602674799.2839,313
1602674799.2846,311
1602674799.2852,321
1602674799.2857,326
1602674799.2862,326
1602674799.2867,328
1602674799.2872,330
1602674799.2878,338
1602674799.2884,345
1602674799.2889,347
1602674799.2894,355
1602674799.2899,364
1602674799.2905,372
1602674799.2910,382
1602674799.2915,396
1602674799.2920,411
1602674799.2925,425
1602674799.2930,440
1602674799.2935,455
1602674799.2940,467
1602674799.2946,469
1602674799.2950,462
1602674799.2955,445
1602674799.2958,416
1602674799.2962,367
1602674799.2965,316
1602674799.2969,274
1602674799.2972,245
1602674799.2976,226
1602674799.2979,214
1602674799.2983,214
1602674799.2986,214
1602674799.2988,211
1602674799.2990,214
1602674799.2992,221
1602674799.2995,226
1602674799.2997,226
1602674799.2999,233
1602674799.3001,243
1602674799.3004,243
1602674799.3006,243
1602674799.3008,248
1602674799.3010,257
1602674799.3013,262
1602674799.3015,260
1602674799.3017,260
1602674799.3020,272
1602674799.3022,274
1602674799.3024,267
1602674799.3026,262
1602674799.3028,265
1602674799.3030,267
1602674799.3031,267
1602674799.3033,270
1602674799.3035,270
1602674799.3036,267
1602674799.3038,265
1602674799.3040,267
1602674799.3041,272
1602674799.3043,267
1602674799.3045,260
1602674799.3047,262
1602674799.3048,270
1602674799.3050,267
1602674799.3052,255
1602674799.3053,255
1602674799.3055,265
1602674799.3057,265
1602674799.8514,260
1602674799.8533,267
1602674799.8549,272
1602674799.8564,270
1602674799.8579,270
1602674799.8592,272
1602674799.8604,270
1602674799.8616,262
1602674799.8626,257
1602674799.8637,262
1602674799.8648,267
1602674799.8659,262
1602674799.8669,262
1602674799.8677,267
1602674799.8684,270
1602674799.8692,262
1602674799.8701,260
1602674799.8709,267
1602674799.8716,272
1602674799.8721,267
1602674799.8726,265
1602674799.8730,270
1602674799.8735,274
1602674799.8739,277
1602674799.8744,289
1602674799.8748,299
1602674799.8753,294
1602674799.8758,284
1602674799.8763,267
1602674799.8766,255
1602674799.8769,253
1602674799.8771,253
1602674799.8773,257
1602674799.8776,257
1602674799.8778,255
1602674799.8781,257
1602674799.8783,260
1602674799.8785,267
1602674799.8788,338
1602674799.8790,545
1602674799.8792,805
1602674799.8795,905
1602674799.8797,618
1602674799.8799,102
1602674799.8802,-31
1602674799.8803,204
1602674799.8805,250
1602674799.8807,165
1602674799.8809,204
1602674799.8810,238
1602674799.8812,211
1602674799.8814,221
1602674799.8816,240
1602674799.8817,236
1602674799.8819,233
1602674799.8821,243
1602674799.8823,245
1602674799.8825,240
1602674799.8827,243
1602674799.8828,248
1602674799.8830,248
1602674799.8832,250
1602674799.8834,260
1602674799.8835,272
1602674799.8837,282
1602674799.8839,291
1602674799.8841,299
1602674799.8842,313
1602674799.8844,328
1602674799.8846,340
1602674799.8848,347
1602674799.8849,360
1602674799.8851,369
1602674800.3914,369
1602674800.3932,367
1602674800.3950,355
1602674800.3967,326
1602674800.3982,279
1602674800.3998,226
1602674800.4008,187
1602674800.4019,165
1602674800.4030,145
1602674800.4040,128
1602674800.4047,126
1602674800.4055,133
1602674800.4062,136
1602674800.4070,141
1602674800.4077,150
1602674800.4084,158
1602674800.4090,160
1602674800.4095,163
1602674800.4101,165
1602674800.4107,170
1602674800.4112,170
1602674800.4119,172
1602674800.4124,180
1602674800.4130,184
1602674800.4134,187
1602674800.4138,189
1602674800.4141,192
1602674800.4145,194
1602674800.4148,194
1602674800.4152,192
1602674800.4156,197
1602674800.4159,199
1602674800.4163,201
1602674800.4167,201
1602674800.4171,199
1602674800.4173,197
1602674800.4175,199
1602674800.4178,204
1602674800.4180,206
1602674800.4182,204
1602674800.4185,206
1602674800.4187,211
1602674800.4190,211
1602674800.4192,206
1602674800.4194,211
1602674800.4197,216
1602674800.4199,214
1602674800.4201,211
1602674800.4204,214
1602674800.4206,211
1602674800.4208,199
1602674800.4211,194
1602674800.4212,197
1602674800.4214,197
1602674800.4216,197
1602674800.4218,201
1602674800.4219,204
1602674800.4221,206
1602674800.4223,206
1602674800.4225,204
1602674800.4226,206
1602674800.4228,211
1602674800.4230,211
1602674800.4232,209
1602674800.4233,214
1602674800.4236,214
1602674800.4238,211
1602674800.4239,211
1602674800.4241,216
1602674800.4243,221
1602674800.4244,216
1602674800.4246,211
1602674800.4247,221
1602674800.9618,236
1602674800.9637,240
1602674800.9652,243
1602674800.9666,243
1602674800.9681,226
1602674800.9695,204
1602674800.9705,194
1602674800.9715,189
1602674800.9724,192
1602674800.9733,194
1602674800.9743,192
1602674800.9753,197
1602674800.9766,201
1602674800.9776,194
1602674800.9786,223
1602674800.9794,377
1602674800.9802,632
1602674800.9809,824
1602674800.9817,729
1602674800.9823,270
1602674800.9830,-94
1602674800.9837,38
1602674800.9843,211
1602674800.9850,143
1602674800.9857,124
1602674800.9865,177
1602674800.9872,170
1602674800.9877,155
1602674800.9882,172
1602674800.9888,180
1602674800.9893,182
1602674800.9898,192
1602674800.9904,197
1602674800.9909,197
1602674800.9914,204
1602674800.9919,211
1602674800.9924,214
1602674800.9930,218
1602674800.9935,226
1602674800.9940,233
1602674800.9945,240
1602674800.9950,250
1602674800.9955,255
1602674800.9960,260
1602674800.9964,267
1602674800.9968,279
1602674800.9972,291
1602674800.9977,306
1602674800.9981,321
1602674800.9986,323
1602674800.9990,321
1602674800.9994,313
1602674800.9998,287
1602674801.0004,245
1602674801.0007,204
1602674801.0011,163
1602674801.0014,126
1602674801.0018,107
1602674801.0021,97
1602674801.0025,94
1602674801.0029,97
1602674801.0032,99
1602674801.0035,107
1602674801.0041,109
1602674801.0045,111
1602674801.0049,119
1602674801.0052,128
1602674801.0056,131
1602674801.0059,133
1602674801.0062,138
1602674801.0066,143
1602674801.0069,148
1602674801.0073,150
1602674801.5613,145
1602674801.5629,145
1602674801.5645,150
1602674801.5659,148
1602674801.5673,148
1602674801.5683,153
1602674801.5693,153
1602674801.5703,145
1602674801.5713,145
1602674801.5722,153
1602674801.5731,155
1602674801.5741,155
1602674801.5751,155
1602674801.5760,153
1602674801.5769,155
1602674801.5777,155
1602674801.5784,158
1602674801.5790,163
1602674801.5797,165
1602674801.5804,165
1602674801.5810,165
1602674801.5817,165
1602674801.5823,165
1602674801.5830,167
1602674801.5837,172
1602674801.5843,175
1602674801.5850,172
1602674801.5857,175
1602674801.5863,177
1602674801.5869,175
1602674801.5874,172
1602674801.5880,172
1602674801.5886,172
1602674801.5891,170
1602674801.5897,167
1602674801.5902,165
1602674801.5907,165
1602674801.5912,160
1602674801.5918,160
1602674801.5923,163
1602674801.5928,160
1602674801.5935,163
1602674801.5940,165
1602674801.5946,170
1602674801.5951,170
1602674801.5955,167
1602674801.5960,175
1602674801.5964,189
1602674801.5969,201
1602674801.5973,199
1602674801.5978,192
1602674801.5982,182
1602674801.5985,170
1602674801.5989,163
1602674801.5992,165
1602674801.5995,167
1602674801.5999,167
1602674801.6002,165
1602674801.6006,167
1602674801.6009,172
1602674801.6013,175
1602674801.6016,226
1602674801.6019,396
1602674801.6023,656
1602674801.6027,820
1602674801.6030,635
1602674801.6034,119
1602674801.6037,-153
1602674801.6040,43
1602674801.6044,160
1602674801.6047,75
1602674801.6051,97
1602674801.6054,153
1602674802.1016,128
1602674802.1038,124
1602674802.1053,150
1602674802.1068,153
1602674802.1082,150
1602674802.1092,158
1602674802.1101,160
1602674802.1111,163
1602674802.1120,167
1602674802.1129,175
1602674802.1139,180
1602674802.1149,177
1602674802.1158,177
1602674802.1168,184
1602674802.1177,197
1602674802.1184,204
1602674802.1191,218
1602674802.1200,233
1602674802.1208,243
1602674802.1218,255
1602674802.1226,274
1602674802.1234,296
1602674802.1241,311
1602674802.1247,309
1602674802.1254,304
1602674802.1261,296
1602674802.1267,270
1602674802.1273,221
1602674802.1278,163
1602674802.1283,111
1602674802.1288,77
1602674802.1293,68
1602674802.1299,63
1602674802.1304,58
1602674802.1309,55
1602674802.1314,60
1602674802.1319,70
1602674802.1324,75
1602674802.1330,75
1602674802.1335,82
1602674802.1340,92
1602674802.1345,104
1602674802.1350,109
1602674802.1354,107
1602674802.1358,102
1602674802.1363,109
1602674802.1368,119
1602674802.1372,119
1602674802.1376,121
1602674802.1380,126
1602674802.1385,128
1602674802.1392,128
1602674802.1396,133
1602674802.1399,136
1602674802.1403,133
1602674802.1406,128
1602674802.1410,124
1602674802.1413,128
1602674802.1417,131
1602674802.1420,133
1602674802.1424,138
1602674802.1427,141
1602674802.1431,141
1602674802.1434,141
1602674802.1436,143
1602674802.1438,143
1602674802.1441,145
1602674802.1443,145
1602674802.1445,150
1602674802.1447,153
1602674802.1450,153
1602674802.1452,155
1602674802.1455,163
1602674802.6714,158
1602674802.6731,155
1602674802.6747,160
1602674802.6761,165
1602674802.6771,165
1602674802.6781,167
1602674802.6791,167
1602674802.6800,167
1602674802.6810,160
1602674802.6820,153
1602674802.6829,158
1602674802.6839,165
1602674802.6849,158
1602674802.6859,148
1602674802.6868,145
1602674802.6875,150
1602674802.6882,153
1602674802.6890,153
1602674802.6897,153
1602674802.6904,153
1602674802.6911,163
1602674802.6918,170
1602674802.6925,172
1602674802.6932,177
1602674802.6938,170
1602674802.6944,150
1602674802.6950,145
1602674802.6955,148
1602674802.6961,141
1602674802.6966,141
1602674802.6971,148
1602674802.6977,145
1602674802.6982,143
1602674802.6987,148
1602674802.6991,153
1602674802.6996,211
1602674802.7001,403
1602674802.7006,664
1602674802.7010,793
1602674802.7015,574
1602674802.7019,70
1602674802.7024,-141
1602674802.7029,72
1602674802.7033,160
1602674802.7036,65
1602674802.7040,87
1602674802.7043,133
1602674802.7047,107
1602674802.7052,107
1602674802.7055,128
1602674802.7059,128
1602674802.7062,133
1602674802.7065,143
1602674802.7069,141
1602674802.7071,143
1602674802.7073,150
1602674802.7075,153
1602674802.7078,160
1602674802.7080,170
1602674802.7082,177
1602674802.7084,182
1602674802.7087,189
1602674802.7089,201
1602674802.7091,216
1602674802.7093,228
1602674802.7095,238
1602674802.7098,250
1602674802.7100,267
1602674802.7102,282
1602674802.7105,296
1602674802.7107,304
1602674802.7109,296
1602674802.7111,282
1602674803.2116,255
1602674803.2133,209
1602674803.2148,158
1602674803.2163,114
1602674803.2177,85
1602674803.2191,63
1602674803.2202,48
1602674803.2212,46
1602674803.2222,51
1602674803.2232,46
1602674803.2242,43
1602674803.2254,48
1602674803.2264,58
1602674803.2274,55
1602674803.2281,53
1602674803.2288,58
1602674803.2295,68
1602674803.2302,70
1602674803.2309,72
1602674803.2316,80
1602674803.2323,85
1602674803.2330,87
1602674803.2336,92
1602674803.2343,92
1602674803.2350,92
1602674803.2357,94
1602674803.2365,97
1602674803.2373,97
1602674803.2379,97
1602674803.2385,97
1602674803.2390,94
1602674803.2396,99
1602674803.2401,102
1602674803.2406,99
1602674803.2410,102
1602674803.2415,107
1602674803.2419,102
1602674803.2423,97
1602674803.2428,99
1602674803.2432,104
1602674803.2437,104
1602674803.2441,104
1602674803.2446,107
1602674803.2451,111
1602674803.2454,116
1602674803.2458,116
1602674803.2461,119
1602674803.2465,124
1602674803.2468,124
1602674803.2472,121
1602674803.2475,126
1602674803.2479,131
1602674803.2482,131
1602674803.2486,133
1602674803.2489,133
1602674803.2492,133
1602674803.2495,133
1602674803.2497,136
1602674803.2499,138
1602674803.2502,141
1602674803.2504,138
1602674803.2506,136
1602674803.2508,141
1602674803.2511,143
1602674803.2513,141
1602674803.2515,143
1602674803.2517,145
1602674803.2520,153
1602674803.2522,160
1602674803.2524,163
1602674803.2526,158
1602674803.2529,150
1602674803.2531,136
1602674803.7508,121
1602674803.7526,119
1602674803.7542,124
1602674803.7556,126
1602674803.7574,128
1602674803.7585,126
1602674803.7595,114
1602674803.7604,102
1602674803.7616,111
1602674803.7628,199
1602674803.7638,406
1602674803.7648,659
1602674803.7658,749
1602674803.7665,455
1602674803.7672,-51
1602674803.7678,-163
1602674803.7685,77
1602674803.7692,114
1602674803.7699,24
1602674803.7709,70
1602674803.7717,111
1602674803.7724,87
1602674803.7731,92
1602674803.7739,111
1602674803.7746,114
1602674803.7754,119
1602674803.7759,131
1602674803.7765,136
1602674803.7772,128
1602674803.7777,124
1602674803.7782,128
1602674803.7788,141
1602674803.7793,148
1602674803.7797,153
1602674803.7801,160
1602674803.7806,170
1602674803.7811,180
1602674803.7815,192
1602674803.7819,204
1602674803.7825,226
1602674803.7830,245
1602674803.7835,255
1602674803.7839,262
1602674803.7843,274
1602674803.7846,287
1602674803.7850,284
1602674803.7853,265
1602674803.7857,228
1602674803.7860,182
1602674803.7864,133
1602674803.7868,92
1602674803.7871,70
1602674803.7875,53
1602674803.7877,36
1602674803.7879,38
1602674803.7882,43
1602674803.7884,43
1602674803.7887,48
1602674803.7889,53
1602674803.7891,53
1602674803.7894,53
1602674803.7896,58
1602674803.7898,63
1602674803.7901,68
1602674803.7903,70
1602674803.7905,72
1602674803.7908,80
1602674803.7910,85
1602674803.7912,85
1602674803.7914,82
1602674803.7917,87
1602674803.7918,85
1602674803.7920,75
1602674804.3217,70
1602674804.3238,75
1602674804.3253,82
1602674804.3268,77
1602674804.3282,68
1602674804.3292,68
1602674804.3302,77
1602674804.3314,82
1602674804.3325,82
1602674804.3335,85
1602674804.3345,87
1602674804.3356,92
1602674804.3366,94
1602674804.3375,97
1602674804.3383,97
1602674804.3390,102
1602674804.3397,102
1602674804.3404,107
1602674804.3411,111
1602674804.3417,107
1602674804.3422,104
1602674804.3428,109
1602674804.3433,114
1602674804.3439,114
1602674804.3445,114
1602674804.3450,116
1602674804.3456,119
1602674804.3461,119
1602674804.3466,121
1602674804.3471,126
1602674804.3475,131
1602674804.3479,128
1602674804.3484,126
1602674804.3491,131
1602674804.3496,131
1602674804.3501,128
1602674804.3503,133
1602674804.3506,145
1602674804.3508,155
1602674804.3510,158
1602674804.3513,153
1602674804.3515,143
1602674804.3517,131
1602674804.3520,128
1602674804.3522,128
1602674804.3524,133
1602674804.3527,133
1602674804.3529,131
1602674804.3531,131
1602674804.3534,136
1602674804.3536,136
1602674804.3538,163
1602674804.3541,304
1602674804.3542,566
1602674804.3544,778
1602674804.3546,686
1602674804.3548,201
1602674804.3549,-182
1602674804.3551,-53
1602674804.3553,128
1602674804.3554,63
1602674804.3556,53
1602674804.3558,114
1602674804.3559,97
1602674804.3561,80
1602674804.3563,99
1602674804.3565,102
1602674804.3566,99
1602674804.3568,114
1602674804.3570,121
1602674804.3571,121
1602674804.3573,128
1602674804.3575,141
1602674804.9210,145
1602674804.9230,148
1602674804.9246,155
1602674804.9260,163
1602674804.9270,163
1602674804.9281,160
1602674804.9292,167
1602674804.9302,189
1602674804.9312,204
1602674804.9322,214
1602674804.9332,226
1602674804.9346,240
1602674804.9355,253
1602674804.9363,262
1602674804.9370,267
1602674804.9379,260
1602674804.9386,226
1602674804.9393,180
1602674804.9399,136
1602674804.9405,97
1602674804.9410,65
1602674804.9416,46
1602674804.9422,41
1602674804.9427,43
1602674804.9433,41
1602674804.9438,41
1602674804.9442,43
1602674804.9448,48
1602674804.9453,48
1602674804.9458,48
1602674804.9463,55
1602674804.9467,63
1602674804.9472,68
1602674804.9476,68
1602674804.9481,70
1602674804.9483,75
1602674804.9486,77
1602674804.9488,82
1602674804.9490,85
1602674804.9493,85
1602674804.9495,85
1602674804.9497,92
1602674804.9500,90
1602674804.9502,85
1602674804.9504,82
1602674804.9506,85
1602674804.9509,85
1602674804.9511,90
1602674804.9513,92
1602674804.9516,94
1602674804.9518,97
1602674804.9520,94
1602674804.9522,94
1602674804.9524,99
1602674804.9525,104
1602674804.9527,102
1602674804.9529,102
1602674804.9530,97
1602674804.9532,90
1602674804.9534,92
1602674804.9536,99
1602674804.9537,102
1602674804.9540,104
1602674804.9541,104
1602674804.9543,104
1602674804.9545,109
1602674804.9547,114
1602674804.9548,114
1602674804.9550,116
1602674804.9552,119
1602674804.9553,121
1602674804.9555,121
1602674804.9557,121
1602674805.4610,126
1602674805.4628,119
1602674805.4643,109
1602674805.4658,114
1602674805.4672,121
1602674805.4682,121
1602674805.4692,116
1602674805.4703,119
1602674805.4716,121
1602674805.4727,119
1602674805.4737,109
1602674805.4748,109
1602674805.4758,121
1602674805.4766,136
1602674805.4774,141
1602674805.4781,141
1602674805.4788,136
1602674805.4796,119
1602674805.4803,104
1602674805.4809,104
1602674805.4815,107
1602674805.4821,109
1602674805.4826,114
1602674805.4832,116
1602674805.4838,114
1602674805.4844,109
1602674805.4849,109
1602674805.4854,163
1602674805.4860,343
1602674805.4866,608
1602674805.4871,771
1602674805.4876,598
1602674805.4882,85
1602674805.4886,-204
1602674805.4891,-12
1602674805.4894,119
1602674805.4896,36
1602674805.4899,43
1602674805.4901,92
1602674805.4903,80
1602674805.4907,77
1602674805.4909,97
1602674805.4911,99
1602674805.4914,102
1602674805.4916,111
1602674805.4919,119
1602674805.4921,121
1602674805.4924,131
1602674805.4926,138
1602674805.4928,138
1602674805.4930,133
1602674805.4932,133
1602674805.4934,141
1602674805.4936,153
1602674805.4938,163
1602674805.4939,175
1602674805.4941,184
1602674805.4943,199
1602674805.4945,218
1602674805.4947,238
1602674805.4948,250
1602674805.4950,257
1602674805.4952,262
1602674805.4954,265
1602674805.4956,255
1602674805.4957,221
1602674805.4959,172
1602674805.4961,124
1602674805.4963,82
1602674805.4965,55
1602674805.4966,41
1602674805.4968,34
1602674805.4970,24
1602674806.0305,24
1602674806.0323,31
1602674806.0339,29
1602674806.0356,24
1602674806.0372,31
1602674806.0383,41
1602674806.0394,38
1602674806.0404,29
1602674806.0414,34
1602674806.0424,43
1602674806.0436,46
1602674806.0447,48
1602674806.0458,53
1602674806.0465,58
1602674806.0473,58
1602674806.0480,60
1602674806.0488,65
1602674806.0495,70
1602674806.0505,70
1602674806.0511,70
1602674806.0516,72
1602674806.0521,75
1602674806.0525,75
1602674806.0530,75
1602674806.0535,72
1602674806.0540,70
1602674806.0545,72
1602674806.0549,75
1602674806.0551,77
1602674806.0554,82
1602674806.0556,82
1602674806.0559,82
1602674806.0561,85
1602674806.0563,87
1602674806.0566,90
1602674806.0568,97
1602674806.0571,97
1602674806.0573,92
1602674806.0576,90
1602674806.0578,94
1602674806.0580,102
1602674806.0583,102
1602674806.0585,94
1602674806.0587,87
1602674806.0589,92
1602674806.0591,97
1602674806.0593,94
1602674806.0594,97
1602674806.0596,102
1602674806.0598,104
1602674806.0600,99
1602674806.0602,99
1602674806.0603,104
1602674806.0605,104
1602674806.0607,102
1602674806.0609,104
1602674806.0611,102
1602674806.0612,97
1602674806.0614,99
1602674806.0616,104
1602674806.0618,99
1602674806.0620,97
1602674806.0621,102
1602674806.0623,107
1602674806.0625,107
1602674806.0627,107
1602674806.0629,109
1602674806.0631,111
1602674806.0632,116
1602674806.0635,124
1602674806.0637,133
1602674806.0638,138
1602674806.0640,133
1602674806.6014,116
1602674806.6032,104
1602674806.6050,102
1602674806.6066,99
1602674806.6081,99
1602674806.6097,102
1602674806.6109,104
1602674806.6120,99
1602674806.6130,90
1602674806.6140,82
1602674806.6148,99
1602674806.6156,199
1602674806.6163,423
1602674806.6170,671
1602674806.6177,725
1602674806.6185,374
1602674806.6190,-128
1602674806.6196,-175
1602674806.6203,65
1602674806.6209,70
1602674806.6216,-2
1602674806.6222,51
1602674806.6229,77
1602674806.6233,48
1602674806.6237,60
1602674806.6241,77
1602674806.6245,72
1602674806.6248,75
1602674806.6252,87
1602674806.6256,90
1602674806.6259,90
1602674806.6263,97
1602674806.6267,107
1602674806.6271,116
1602674806.6274,114
1602674806.6276,107
1602674806.6279,114
1602674806.6281,133
1602674806.6283,145
1602674806.6286,153
1602674806.6288,167
1602674806.6291,187
1602674806.6293,204
1602674806.6296,216
1602674806.6298,231
1602674806.6301,240
1602674806.6303,240
1602674806.6306,228
1602674806.6308,204
1602674806.6311,170
1602674806.6313,124
1602674806.6316,75
1602674806.6317,36
1602674806.6319,12
1602674806.6321,0
1602674806.6323,-9
1602674806.6325,-12
1602674806.6326,-7
1602674806.6328,0
1602674806.6330,2
1602674806.6332,4
1602674806.6333,14
1602674806.6335,19
1602674806.6337,21
1602674806.6339,29
1602674806.6341,34
1602674806.6343,31
1602674806.6344,36
1602674806.6346,46
1602674806.6348,51
1602674806.6350,51
1602674806.6352,53
1602674806.6353,55
1602674807.1413,58
1602674807.1435,60
1602674807.1451,60
1602674807.1466,65
1602674807.1481,65
1602674807.1493,65
1602674807.1504,63
1602674807.1514,60
1602674807.1524,58
1602674807.1535,55
1602674807.1546,53
1602674807.1557,58
1602674807.1568,60
1602674807.1575,58
1602674807.1582,60
1602674807.1590,65
1602674807.1597,68
1602674807.1605,68
1602674807.1613,70
1602674807.1618,75
1602674807.1623,75
1602674807.1629,75
1602674807.1634,80
1602674807.1638,80
1602674807.1642,80
1602674807.1651,82
1602674807.1656,82
1602674807.1660,77
1602674807.1664,72
1602674807.1667,70
1602674807.1671,75
1602674807.1674,80
1602674807.1677,77
1602674807.1681,80
1602674807.1684,85
1602674807.1688,85
1602674807.1691,82
1602674807.1695,82
1602674807.1698,80
1602674807.1700,77
1602674807.1702,82
1602674807.1705,85
1602674807.1707,87
1602674807.1709,90
1602674807.1711,87
1602674807.1714,87
1602674807.1716,90
1602674807.1718,90
1602674807.1720,87
1602674807.1723,90
1602674807.1725,97
1602674807.1727,97
1602674807.1729,94
1602674807.1732,94
1602674807.1734,102
1602674807.1736,109
1602674807.1738,116
1602674807.1740,126
1602674807.1743,131
1602674807.1745,121
1602674807.1747,107
1602674807.1749,102
1602674807.1751,94
1602674807.1753,90
1602674807.1756,90
1602674807.1758,94
1602674807.1760,94
1602674807.1763,97
1602674807.1765,94
1602674807.1767,92
1602674807.1769,104
1602674807.1771,204
1602674807.1774,437
1602674807.6813,681
1602674807.6831,693
1602674807.6846,301
1602674807.6865,-167
1602674807.6877,-153
1602674807.6891,72
1602674807.6902,38
1602674807.6914,-21
1602674807.6925,41
1602674807.6936,55
1602674807.6947,31
1602674807.6956,51
1602674807.6965,68
1602674807.6973,63
1602674807.6981,70
1602674807.6990,82
1602674807.6998,85
1602674807.7006,87
1602674807.7015,92
1602674807.7023,92
1602674807.7030,90
1602674807.7037,90
1602674807.7044,97
1602674807.7050,104
1602674807.7057,111
1602674807.7063,124
1602674807.7070,133
1602674807.7076,148
1602674807.7083,163
1602674807.7089,172
1602674807.7096,184
1602674807.7102,201
1602674807.7110,214
1602674807.7116,218
1602674807.7121,214
1602674807.7125,197
1602674807.7130,163
1602674807.7134,119
1602674807.7139,72
1602674807.7143,36
1602674807.7148,9
1602674807.7152,-4
1602674807.7158,-9
1602674807.7163,-7
1602674807.7169,-4
1602674807.7174,-2
1602674807.7180,4
1602674807.7185,14
1602674807.7191,24
1602674807.7196,26
1602674807.7200,29
1602674807.7203,36
1602674807.7207,36
1602674807.7210,38
1602674807.7216,46
1602674807.7220,53
1602674807.7223,53
1602674807.7227,55
1602674807.7230,60
1602674807.7233,63
1602674807.7236,63
1602674807.7239,63
1602674807.7241,60
1602674807.7243,63
1602674807.7245,63
1602674807.7248,65
1602674807.7250,68
1602674807.7252,72
1602674807.7254,72
1602674807.7256,68
1602674807.7259,70
1602674807.7261,75
1602674807.7263,75
1602674808.2811,75
1602674808.2832,77
1602674808.2846,80
1602674808.2861,70
1602674808.2875,63
1602674808.2886,70
1602674808.2896,77
1602674808.2906,75
1602674808.2915,75
1602674808.2924,80
1602674808.2934,82
1602674808.2944,77
1602674808.2954,72
1602674808.2964,68
1602674808.2972,68
1602674808.2978,70
1602674808.2985,72
1602674808.2992,75
1602674808.2998,82
1602674808.3005,85
1602674808.3012,77
1602674808.3019,70
1602674808.3025,72
1602674808.3032,80
1602674808.3039,82
1602674808.3046,82
1602674808.3054,85
1602674808.3062,85
1602674808.3067,87
1602674808.3073,90
1602674808.3078,90
1602674808.3084,87
1602674808.3092,90
1602674808.3098,92
1602674808.3104,92
1602674808.3110,90
1602674808.3115,102
1602674808.3120,116
1602674808.3125,121
1602674808.3130,116
1602674808.3135,107
1602674808.3140,92
1602674808.3144,80
1602674808.3148,77
1602674808.3152,80
1602674808.3157,80
1602674808.3161,77
1602674808.3165,77
1602674808.3169,82
1602674808.3174,85
1602674808.3179,82
1602674808.3184,133
1602674808.3187,318
1602674808.3191,581
1602674808.3194,737
1602674808.3198,537
1602674808.3201,19
1602674808.3205,-243
1602674808.3208,-36
1602674808.3212,80
1602674808.3215,-4
1602674808.3219,17
1602674808.3222,65
1602674808.3225,38
1602674808.3227,36
1602674808.3230,58
1602674808.3232,55
1602674808.3234,55
1602674808.3236,65
1602674808.3238,65
1602674808.3241,65
1602674808.3243,77
1602674808.3245,85
1602674808.8510,87
1602674808.8528,92
1602674808.8544,99
1602674808.8562,109
1602674808.8578,116
1602674808.8588,119
1602674808.8598,128
1602674808.8607,143
1602674808.8617,148
1602674808.8628,158
1602674808.8641,180
1602674808.8653,194
1602674808.8664,201
1602674808.8674,209
1602674808.8681,211
1602674808.8690,199
1602674808.8697,175
1602674808.8704,136
1602674808.8711,90
1602674808.8718,46
1602674808.8726,14
1602674808.8734,-2
1602674808.8741,-9
1602674808.8748,-9
1602674808.8755,-12
1602674808.8761,-7
1602674808.8768,2
1602674808.8773,4
1602674808.8778,9
1602674808.8784,19
1602674808.8789,21
1602674808.8794,19
1602674808.8800,24
1602674808.8805,34
1602674808.8810,43
1602674808.8814,46
1602674808.8819,48
1602674808.8823,51
1602674808.8828,55
1602674808.8832,58
1602674808.8837,58
1602674808.8841,63
1602674808.8846,65
1602674808.8851,60
1602674808.8855,55
1602674808.8858,58
1602674808.8862,63
1602674808.8865,63
1602674808.8869,65
1602674808.8872,65
1602674808.8876,65
1602674808.8879,68
1602674808.8883,68
1602674808.8886,72
1602674808.8890,75
1602674808.8893,72
1602674808.8895,72
1602674808.8898,75
1602674808.8900,77
1602674808.8902,77
1602674808.8904,80
1602674808.8907,82
1602674808.8909,80
1602674808.8912,80
1602674808.8914,85
1602674808.8916,87
1602674808.8918,87
1602674808.8921,87
1602674808.8923,87
1602674808.8925,90
1602674808.8927,90
1602674808.8930,82
1602674808.8932,80
1602674809.3904,85
1602674809.3923,80
1602674809.3938,75
1602674809.3953,77
1602674809.3967,85
1602674809.3977,85
1602674809.3986,82
1602674809.3996,82
1602674809.4006,85
1602674809.4015,80
1602674809.4026,75
1602674809.4038,82
1602674809.4049,85
1602674809.4060,80
1602674809.4068,80
1602674809.4075,85
1602674809.4083,80
1602674809.4090,77
1602674809.4098,80
1602674809.4106,80
1602674809.4113,80
1602674809.4120,90
1602674809.4126,104
1602674809.4133,109
1602674809.4140,107
1602674809.4147,97
1602674809.4153,85
1602674809.4159,80
1602674809.4164,72
1602674809.4169,68
1602674809.4175,72
1602674809.4181,77
1602674809.4187,77
1602674809.4192,77
1602674809.4197,72
1602674809.4201,72
1602674809.4205,133
1602674809.4210,328
1602674809.4214,593
1602674809.4221,727
1602674809.4227,496
1602674809.4234,-24
1602674809.4237,-240
1602674809.4241,-26
1602674809.4244,55
1602674809.4248,-31
1602674809.4251,-2
1602674809.4255,46
1602674809.4258,21
1602674809.4262,21
1602674809.4265,51
1602674809.4269,51
1602674809.4272,48
1602674809.4275,60
1602674809.4278,70
1602674809.4280,70
1602674809.4282,72
1602674809.4284,80
1602674809.4287,90
1602674809.4289,97
1602674809.4291,99
1602674809.4293,107
1602674809.4296,116
1602674809.4298,126
1602674809.4300,128
1602674809.4302,138
1602674809.4305,150
1602674809.4307,163
1602674809.4309,182
1602674809.4311,201
1602674809.4314,216
1602674809.4316,221
1602674809.4317,218
1602674809.9612,211
1602674809.9629,187
1602674809.9645,145
1602674809.9659,97
1602674809.9674,58
1602674809.9688,26
1602674809.9698,-2
1602674809.9707,-19
1602674809.9717,-19
1602674809.9727,-14
1602674809.9739,-12
1602674809.9750,-7
1602674809.9760,0
1602674809.9770,4
1602674809.9779,9
1602674809.9787,14
1602674809.9793,24
1602674809.9803,26
1602674809.9811,29
1602674809.9819,36
1602674809.9826,43
1602674809.9833,46
1602674809.9840,46
1602674809.9846,51
1602674809.9853,51
1602674809.9861,46
1602674809.9868,46
1602674809.9874,48
1602674809.9879,53
1602674809.9884,55
1602674809.9890,53
1602674809.9895,51
1602674809.9902,55
1602674809.9907,55
1602674809.9912,55
1602674809.9917,60
1602674809.9921,63
1602674809.9926,60
1602674809.9930,63
1602674809.9935,65
1602674809.9939,65
1602674809.9943,63
1602674809.9948,63
1602674809.9952,68
1602674809.9956,70
1602674809.9961,70
1602674809.9963,70
1602674809.9965,72
1602674809.9967,72
1602674809.9970,75
1602674809.9972,77
1602674809.9974,80
1602674809.9977,80
1602674809.9979,75
1602674809.9981,75
1602674809.9983,75
1602674809.9986,68
1602674809.9988,60
1602674809.9990,60
1602674809.9992,68
1602674809.9995,68
1602674809.9997,68
1602674809.9999,70
1602674810.0001,75
1602674810.0003,75
1602674810.0006,75
1602674810.0008,77
1602674810.0010,77
1602674810.0013,75
1602674810.0015,75
1602674810.0017,77
1602674810.0020,80
1602674810.0022,77
1602674810.5002,72
1602674810.5014,72
1602674810.5024,77
1602674810.5034,77
1602674810.5044,72
1602674810.5055,77
1602674810.5065,90
1602674810.5077,94
1602674810.5087,92
1602674810.5097,87
1602674810.5109,75
1602674810.5116,58
1602674810.5126,55
1602674810.5135,60
1602674810.5143,60
1602674810.5150,60
1602674810.5156,60
1602674810.5162,60
1602674810.5167,60
1602674810.5173,58
1602674810.5178,97
1602674810.5184,253
1602674810.5189,510
1602674810.5194,700
1602674810.5199,591
1602674810.5203,109
1602674810.5208,-248
1602674810.5212,-107
1602674810.5217,58
1602674810.5223,-19
1602674810.5228,-31
1602674810.5233,31
1602674810.5238,21
1602674810.5240,12
1602674810.5243,36
1602674810.5245,41
1602674810.5247,38
1602674810.5250,51
1602674810.5252,60
1602674810.5254,60
1602674810.5257,65
1602674810.5259,72
1602674810.5261,80
1602674810.5264,85
1602674810.5266,90
1602674810.5268,99
1602674810.5271,109
1602674810.5274,111
1602674810.5276,114
1602674810.5278,116
1602674810.5280,131
1602674810.5282,153
1602674810.5283,172
1602674810.5285,187
1602674810.5287,201
1602674810.5289,211
1602674810.5290,216
1602674810.5292,214
1602674810.5294,192
1602674810.5296,153
1602674810.5297,107
1602674810.5299,63
1602674810.5301,26
1602674810.5302,4
1602674810.5304,-7
1602674810.5306,-12
1602674810.5307,-14
1602674810.5309,-9
1602674810.5311,-2
1602674810.5312,2
1602674810.5314,4
1602674810.5316,9
1602674810.5318,17
1602674811.0712,21
1602674811.0731,26
1602674811.0751,31
1602674811.0767,36
1602674811.0781,34
1602674811.0792,29
1602674811.0802,29
1602674811.0812,34
1602674811.0823,36
1602674811.0836,36
1602674811.0848,38
1602674811.0859,43
1602674811.0869,48
1602674811.0876,51
1602674811.0883,53
1602674811.0891,48
1602674811.0899,46
1602674811.0908,51
1602674811.0916,55
1602674811.0922,58
1602674811.0927,55
1602674811.0933,55
1602674811.0938,60
1602674811.0944,63
1602674811.0952,63
1602674811.0959,63
1602674811.0965,68
1602674811.0969,70
1602674811.0974,65
1602674811.0979,65
1602674811.0983,72
1602674811.0988,72
1602674811.0992,72
1602674811.0997,72
1602674811.1001,72
1602674811.1003,75
1602674811.1006,75
1602674811.1008,75
1602674811.1010,75
1602674811.1013,72
1602674811.1015,65
1602674811.1017,58
1602674811.1020,60
1602674811.1022,65
1602674811.1024,65
1602674811.1026,63
1602674811.1029,65
1602674811.1031,65
1602674811.1033,68
1602674811.1036,70
1602674811.1038,75
1602674811.1040,75
1602674811.1042,75
1602674811.1044,77
1602674811.1045,80
1602674811.1047,77
1602674811.1049,85
1602674811.1050,99
1602674811.1052,107
1602674811.1054,102
1602674811.1055,94
1602674811.1057,80
1602674811.1059,65
1602674811.1061,63
1602674811.1062,60
1602674811.1064,63
1602674811.1066,70
1602674811.1067,70
1602674811.1069,70
1602674811.1071,70
1602674811.1073,72
1602674811.1074,138
1602674811.1076,340
1602674811.6705,613
1602674811.6723,737
1602674811.6744,472
1602674811.6760,-55
1602674811.6775,-233
1602674811.6786,-12
1602674811.6796,43
1602674811.6806,-36
1602674811.6816,12
1602674811.6826,43
1602674811.6836,12
1602674811.6846,24
1602674811.6858,43
1602674811.6867,34
1602674811.6876,36
1602674811.6883,51
1602674811.6891,55
1602674811.6899,60
1602674811.6905,68
1602674811.6912,72
1602674811.6917,77
1602674811.6923,82
1602674811.6928,90
1602674811.6934,99
1602674811.6939,109
1602674811.6944,119
1602674811.6949,131
1602674811.6953,145
1602674811.6958,160
1602674811.6962,175
1602674811.6967,189
1602674811.6972,206
1602674811.6977,218
1602674811.6982,216
1602674811.6986,209
1602674811.6989,206
1602674811.6991,182
1602674811.6993,138
1602674811.6995,92
1602674811.6998,46
1602674811.7000,12
1602674811.7002,-2
1602674811.7005,-7
1602674811.7007,-12
1602674811.7009,-12
1602674811.7012,-7
1602674811.7014,0
1602674811.7016,7
1602674811.7018,9
1602674811.7021,14
1602674811.7023,17
1602674811.7025,24
1602674811.7027,31
1602674811.7029,34
1602674811.7031,43
1602674811.7033,51
1602674811.7034,48
1602674811.7036,43
1602674811.7038,48
1602674811.7039,58
1602674811.7041,53
1602674811.7043,53
1602674811.7044,55
1602674811.7046,51
1602674811.7048,51
1602674811.7050,55
1602674811.7051,55
1602674811.7053,58
1602674811.7055,58
1602674811.7056,55
1602674811.7058,60
1602674811.7060,65
1602674811.7062,65
1602674812.2117,63
1602674812.2139,65
1602674812.2155,68
1602674812.2169,65
1602674812.2187,68
1602674812.2197,72
1602674812.2208,72
1602674812.2218,70
1602674812.2228,70
1602674812.2235,77
1602674812.2244,72
1602674812.2252,60
1602674812.2260,63
1602674812.2267,72
1602674812.2274,70
1602674812.2280,65
1602674812.2285,72
1602674812.2291,75
1602674812.2297,72
1602674812.2302,72
1602674812.2308,75
1602674812.2313,70
1602674812.2319,68
1602674812.2324,70
1602674812.2328,75
1602674812.2331,72
1602674812.2335,63
1602674812.2339,60
1602674812.2342,70
1602674812.2346,70
1602674812.2350,70
1602674812.2355,70
1602674812.2358,75
1602674812.2361,90
1602674812.2364,99
1602674812.2366,104
1602674812.2368,102
1602674812.2371,92
1602674812.2373,77
1602674812.2375,70
1602674812.2378,65
1602674812.2380,65
1602674812.2382,65
1602674812.2385,63
1602674812.2387,68
1602674812.2389,70
1602674812.2392,68
1602674812.2394,94
1602674812.2396,233
1602674812.2399,491
1602674812.2401,712
1602674812.2403,656
1602674812.2405,197
1602674812.2407,-236
1602674812.2409,-143
1602674812.2410,68
1602674812.2412,9
1602674812.2414,-24
1602674812.2416,41
1602674812.2417,41
1602674812.2419,26
1602674812.2421,46
1602674812.2423,51
1602674812.2424,48
1602674812.2426,55
1602674812.2428,58
1602674812.2430,58
1602674812.2431,65
1602674812.2433,70
1602674812.2435,72
1602674812.2437,80
1602674812.2438,92
1602674812.2440,99
1602674812.7802,104
1602674812.7821,111
1602674812.7837,126
1602674812.7852,141
1602674812.7866,153
1602674812.7881,163
1602674812.7892,182
1602674812.7903,194
1602674812.7914,199
1602674812.7927,211
1602674812.7936,218
1602674812.7945,209
1602674812.7953,184
1602674812.7960,145
1602674812.7968,102
1602674812.7974,58
1602674812.7979,24
1602674812.7985,0
1602674812.7990,-21
1602674812.7998,-36
1602674812.8004,-31
1602674812.8010,-24
1602674812.8015,-19
1602674812.8019,-14
1602674812.8023,-7
1602674812.8026,0
1602674812.8030,4
1602674812.8034,12
1602674812.8038,19
1602674812.8041,24
1602674812.8045,24
1602674812.8048,29
1602674812.8052,31
1602674812.8055,36
1602674812.8058,43
1602674812.8060,43
1602674812.8062,41
1602674812.8064,46
1602674812.8067,51
1602674812.8069,48
1602674812.8072,48
1602674812.8074,53
1602674812.8077,55
1602674812.8079,51
1602674812.8081,46
1602674812.8084,51
1602674812.8086,51
1602674812.8088,51
1602674812.8091,55
1602674812.8093,55
1602674812.8095,55
1602674812.8097,58
1602674812.8099,60
1602674812.8100,63
1602674812.8102,63
1602674812.8104,58
1602674812.8106,58
1602674812.8107,65
1602674812.8109,68
1602674812.8111,68
1602674812.8113,65
1602674812.8115,68
1602674812.8117,68
1602674812.8119,68
1602674812.8120,75
1602674812.8122,77
1602674812.8124,72
1602674812.8126,72
1602674812.8127,77
1602674812.8129,80
1602674812.8131,77
1602674812.8132,72
1602674812.8134,75
1602674813.3205,77
1602674813.3223,80
1602674813.3238,75
1602674813.3254,70
1602674813.3269,70
1602674813.3284,72
1602674813.3294,72
1602674813.3305,72
1602674813.3315,70
1602674813.3325,63
1602674813.3332,58
1602674813.3340,55
1602674813.3347,53
1602674813.3354,55
1602674813.3361,70
1602674813.3369,85
1602674813.3374,90
1602674813.3380,87
1602674813.3385,75
1602674813.3391,63
1602674813.3396,60
1602674813.3402,60
1602674813.3409,63
1602674813.3416,63
1602674813.3419,63
1602674813.3423,63
1602674813.3427,63
1602674813.3430,60
1602674813.3434,68
1602674813.3437,160
1602674813.3441,389
1602674813.3445,644
1602674813.3448,703
1602674813.3452,362
1602674813.3455,-143
1602674813.3457,-214
1602674813.3460,21
1602674813.3462,34
1602674813.3465,-34
1602674813.3468,17
1602674813.3470,41
1602674813.3472,17
1602674813.3475,31
1602674813.3477,48
1602674813.3479,43
1602674813.3482,51
1602674813.3484,65
1602674813.3486,65
1602674813.3489,63
1602674813.3491,68
1602674813.3494,70
1602674813.3495,72
1602674813.3497,77
1602674813.3499,85
1602674813.3501,92
1602674813.3502,102
1602674813.3504,111
1602674813.3506,124
1602674813.3508,138
1602674813.3510,155
1602674813.3511,167
1602674813.3513,182
1602674813.3515,199
1602674813.3517,211
1602674813.3518,216
1602674813.3520,214
1602674813.3522,194
1602674813.3524,160
1602674813.3525,116
1602674813.3527,72
1602674813.3529,34
1602674813.3531,4
1602674813.3533,-14
1602674813.8900,-17
1602674813.8921,-14
1602674813.8936,-14
1602674813.8950,-17
1602674813.8964,-19
1602674813.8978,-21
1602674813.8988,-19
1602674813.8997,-12
1602674813.9007,-2
1602674813.9016,4
1602674813.9027,4
1602674813.9038,7
1602674813.9048,17
1602674813.9058,24
1602674813.9067,24
1602674813.9074,26
1602674813.9085,31
1602674813.9094,36
1602674813.9102,34
1602674813.9109,38
1602674813.9116,43
1602674813.9122,46
1602674813.9129,46
1602674813.9137,46
1602674813.9145,48
1602674813.9152,46
1602674813.9158,43
1602674813.9163,46
1602674813.9168,48
1602674813.9174,46
1602674813.9179,46
1602674813.9184,51
1602674813.9190,53
1602674813.9196,53
1602674813.9201,55
1602674813.9206,55
1602674813.9211,58
1602674813.9217,60
1602674813.9222,60
1602674813.9227,63
1602674813.9232,63
1602674813.9238,63
1602674813.9242,63
1602674813.9248,65
1602674813.9253,68
1602674813.9257,68
1602674813.9261,68
1602674813.9266,70
1602674813.9270,72
1602674813.9274,70
1602674813.9279,70
1602674813.9284,75
1602674813.9287,75
1602674813.9291,68
1602674813.9294,70
1602674813.9298,77
1602674813.9301,77
1602674813.9305,75
1602674813.9308,70
1602674813.9312,70
1602674813.9315,70
1602674813.9319,72
1602674813.9322,77
1602674813.9326,80
1602674813.9329,75
1602674813.9333,72
1602674813.9336,72
1602674813.9341,75
1602674813.9344,77
1602674813.9348,75
1602674813.9351,68
1602674813.9354,72
1602674813.9358,87
1602674814.4330,94
1602674814.4347,97
1602674814.4361,94
1602674814.4371,80
1602674814.4380,63
1602674814.4390,63
1602674814.4399,60
1602674814.4409,51
1602674814.4421,51
1602674814.4432,58
1602674814.4442,55
1602674814.4452,51
1602674814.4459,53
1602674814.4466,72
1602674814.4473,187
1602674814.4480,428
1602674814.4488,661
1602674814.4496,652
1602674814.4504,245
1602674814.4511,-209
1602674814.4518,-175
1602674814.4525,48
1602674814.4532,14
1602674814.4539,-36
1602674814.4545,29
1602674814.4550,41
1602674814.4556,17
1602674814.4561,34
1602674814.4567,48
1602674814.4572,46
1602674814.4577,53
1602674814.4583,60
1602674814.4589,63
1602674814.4595,63
1602674814.4600,65
1602674814.4605,68
1602674814.4611,72
1602674814.4616,80
1602674814.4621,90
1602674814.4626,97
1602674814.4631,104
1602674814.4635,114
1602674814.4640,126
1602674814.4644,141
1602674814.4649,158
1602674814.4655,172
1602674814.4661,187
1602674814.4666,201
1602674814.4671,216
1602674814.4676,216
1602674814.4680,204
1602674814.4683,189
1602674814.4687,158
1602674814.4690,109
1602674814.4694,63
1602674814.4697,26
1602674814.4701,2
1602674814.4704,-12
1602674814.4708,-19
1602674814.4711,-17
1602674814.4715,-14
1602674814.4718,-12
1602674814.4720,-14
1602674814.4722,-12
1602674814.4724,-4
1602674814.4727,2
1602674814.4729,7
1602674814.4731,14
1602674814.4733,17
1602674814.4736,17
1602674814.4738,24
1602674814.4740,31
1602674814.4742,36
1602674815.0309,38
1602674815.0327,38
1602674815.0342,38
1602674815.0356,36
1602674815.0370,29
1602674815.0384,31
1602674815.0394,38
1602674815.0404,36
1602674815.0413,31
1602674815.0425,31
1602674815.0434,36
1602674815.0445,38
1602674815.0454,38
1602674815.0464,41
1602674815.0474,43
1602674815.0482,38
1602674815.0489,46
1602674815.0496,53
1602674815.0503,53
1602674815.0510,51
1602674815.0517,48
1602674815.0524,51
1602674815.0531,55
1602674815.0541,60
1602674815.0548,60
1602674815.0556,63
1602674815.0563,63
1602674815.0569,55
1602674815.0574,58
1602674815.0580,65
1602674815.0585,68
1602674815.0591,65
1602674815.0596,68
1602674815.0601,65
1602674815.0606,65
1602674815.0612,70
1602674815.0617,72
1602674815.0622,72
1602674815.0628,72
1602674815.0633,68
1602674815.0640,60
1602674815.0645,63
1602674815.0650,70
1602674815.0655,72
1602674815.0659,70
1602674815.0664,70
1602674815.0668,70
1602674815.0673,72
1602674815.0677,75
1602674815.0681,77
1602674815.0686,77
1602674815.0690,77
1602674815.0694,75
1602674815.0698,77
1602674815.0702,80
1602674815.0706,87
1602674815.0710,94
1602674815.0714,94
1602674815.0718,82
1602674815.0724,68
1602674815.0727,55
1602674815.0731,53
1602674815.0734,51
1602674815.0738,51
1602674815.0741,53
1602674815.0746,58
1602674815.0749,63
1602674815.0753,65
1602674815.0757,60
1602674815.0761,114
1602674815.0764,296
1602674815.0766,562
1602674815.0768,725
1602674815.6008,530
1602674815.6031,2
1602674815.6047,-267
1602674815.6064,-58
1602674815.6078,55
1602674815.6092,-36
1602674815.6102,-7
1602674815.6112,51
1602674815.6122,21
1602674815.6131,9
1602674815.6142,31
1602674815.6152,34
1602674815.6162,29
1602674815.6172,36
1602674815.6181,43
1602674815.6189,46
1602674815.6196,48
1602674815.6202,53
1602674815.6209,65
1602674815.6216,72
1602674815.6224,75
1602674815.6231,85
1602674815.6238,94
1602674815.6245,107
1602674815.6252,119
1602674815.6262,128
1602674815.6269,143
1602674815.6275,165
1602674815.6280,182
1602674815.6285,197
1602674815.6291,209
1602674815.6296,214
1602674815.6302,209
1602674815.6307,201
1602674815.6312,180
1602674815.6317,138
1602674815.6321,87
1602674815.6326,41
1602674815.6330,9
1602674815.6335,-9
1602674815.6339,-19
1602674815.6343,-21
1602674815.6348,-17
1602674815.6352,-17
1602674815.6358,-14
1602674815.6361,-4
1602674815.6363,0
1602674815.6365,-9
1602674815.6368,-9
1602674815.6370,0
1602674815.6372,7
1602674815.6375,12
1602674815.6378,17
1602674815.6380,21
1602674815.6382,29
1602674815.6385,34
1602674815.6387,34
1602674815.6389,36
1602674815.6391,41
1602674815.6394,41
1602674815.6396,43
1602674815.6398,43
1602674815.6401,41
1602674815.6403,34
1602674815.6405,36
1602674815.6407,41
1602674815.6410,43
1602674815.6412,41
1602674815.6414,41
1602674815.6417,43
1602674815.6419,46
1602674815.6421,46
1602674815.6424,48
1602674816.1404,48
1602674816.1422,51
1602674816.1438,51
1602674816.1453,53
1602674816.1467,58
1602674816.1482,58
1602674816.1492,53
1602674816.1502,53
1602674816.1511,58
1602674816.1521,58
1602674816.1531,53
1602674816.1543,51
1602674816.1553,55
1602674816.1563,58
1602674816.1574,53
1602674816.1581,55
1602674816.1589,60
1602674816.1596,60
1602674816.1603,58
1602674816.1610,58
1602674816.1617,60
1602674816.1627,60
1602674816.1635,55
1602674816.1642,58
1602674816.1649,60
1602674816.1657,60
1602674816.1664,60
1602674816.1670,63
1602674816.1676,63
1602674816.1681,63
1602674816.1689,63
1602674816.1696,65
1602674816.1702,68
1602674816.1708,65
1602674816.1713,65
1602674816.1717,75
1602674816.1721,87
1602674816.1726,90
1602674816.1730,85
1602674816.1735,75
1602674816.1739,58
1602674816.1744,43
1602674816.1748,41
1602674816.1753,41
1602674816.1757,43
1602674816.1761,46
1602674816.1765,43
1602674816.1768,48
1602674816.1772,53
1602674816.1775,46
1602674816.1779,60
1602674816.1782,172
1602674816.1786,411
1602674816.1789,659
1602674816.1793,693
1602674816.1795,321
1602674816.1797,-177
1602674816.1799,-209
1602674816.1802,29
1602674816.1804,19
1602674816.1806,-48
1602674816.1809,4
1602674816.1811,17
1602674816.1813,-4
1602674816.1815,14
1602674816.1818,29
1602674816.1820,24
1602674816.1822,31
1602674816.1824,38
1602674816.1827,38
1602674816.1829,48
1602674816.1831,60
1602674816.1833,60
1602674816.7109,63
1602674816.7126,72
1602674816.7141,82
1602674816.7156,90
1602674816.7171,97
1602674816.7181,111
1602674816.7191,121
1602674816.7201,128
1602674816.7214,141
1602674816.7225,163
1602674816.7235,180
1602674816.7245,192
1602674816.7255,201
1602674816.7265,204
1602674816.7272,199
1602674816.7279,184
1602674816.7285,158
1602674816.7292,114
1602674816.7299,60
1602674816.7307,19
1602674816.7315,-4
1602674816.7321,-14
1602674816.7328,-21
1602674816.7335,-26
1602674816.7342,-24
1602674816.7348,-17
1602674816.7353,-9
1602674816.7359,-4
1602674816.7364,0
1602674816.7370,4
1602674816.7375,12
1602674816.7382,12
1602674816.7388,7
1602674816.7393,9
1602674816.7397,14
1602674816.7402,21
1602674816.7407,26
1602674816.7411,29
1602674816.7416,31
1602674816.7420,38
1602674816.7425,41
1602674816.7431,38
1602674816.7435,38
1602674816.7438,41
1602674816.7442,43
1602674816.7445,38
1602674816.7449,38
1602674816.7452,38
1602674816.7456,41
1602674816.7460,43
1602674816.7463,48
1602674816.7467,51
1602674816.7470,51
1602674816.7473,51
1602674816.7476,48
1602674816.7478,48
1602674816.7480,53
1602674816.7482,58
1602674816.7485,55
1602674816.7488,55
1602674816.7491,60
1602674816.7493,63
1602674816.7495,65
1602674816.7498,68
1602674816.7500,68
1602674816.7502,68
1602674816.7505,65
1602674816.7507,70
1602674816.7509,70
1602674816.7512,70
1602674816.7514,70
1602674816.7516,70
1602674816.7517,70
1602674817.2508,68
1602674817.2529,70
1602674817.2545,72
1602674817.2560,72
1602674817.2575,63
1602674817.2585,60
1602674817.2596,65
1602674817.2607,68
1602674817.2619,60
1602674817.2629,58
1602674817.2641,63
1602674817.2653,63
1602674817.2664,60
1602674817.2673,65
1602674817.2684,70
1602674817.2693,65
1602674817.2703,63
1602674817.2712,65
1602674817.2721,68
1602674817.2730,70
1602674817.2739,80
1602674817.2746,92
1602674817.2754,92
1602674817.2763,82
1602674817.2772,63
1602674817.2781,46
1602674817.2789,46
1602674817.2797,51
1602674817.2804,46
1602674817.2810,46
1602674817.2815,51
1602674817.2820,53
1602674817.2825,53
1602674817.2827,55
1602674817.2829,70
1602674817.2832,172
1602674817.2834,411
1602674817.2838,659
1602674817.2841,683
1602674817.2843,296
1602674817.2845,-187
1602674817.2848,-194
1602674817.2850,34
1602674817.2852,9
1602674817.2855,-53
1602674817.2857,9
1602674817.2859,24
1602674817.2862,-2
1602674817.2864,17
1602674817.2866,36
1602674817.2867,29
1602674817.2869,31
1602674817.2871,41
1602674817.2873,48
1602674817.2874,53
1602674817.2876,60
1602674817.2878,68
1602674817.2880,75
1602674817.2881,80
1602674817.2883,82
1602674817.2885,87
1602674817.2886,104
1602674817.2888,119
1602674817.2890,124
1602674817.2892,138
1602674817.2894,158
1602674817.2895,175
1602674817.2897,184
1602674817.2899,194
1602674817.2900,209
1602674817.2902,216
1602674817.2904,211
1602674817.2906,201
1602674817.8205,175
1602674817.8226,126
1602674817.8241,75
1602674817.8256,36
1602674817.8273,7
1602674817.8288,-17
1602674817.8298,-31
1602674817.8309,-26
1602674817.8319,-19
1602674817.8329,-19
1602674817.8339,-17
1602674817.8349,-9
1602674817.8359,-4
1602674817.8370,0
1602674817.8377,7
1602674817.8387,12
1602674817.8395,17
1602674817.8404,17
1602674817.8411,17
1602674817.8417,21
1602674817.8422,24
1602674817.8428,26
1602674817.8434,29
1602674817.8441,36
1602674817.8446,34
1602674817.8453,29
1602674817.8457,31
1602674817.8462,34
1602674817.8467,31
1602674817.8471,31
1602674817.8476,34
1602674817.8480,36
1602674817.8485,41
1602674817.8489,41
1602674817.8494,43
1602674817.8498,46
1602674817.8501,48
1602674817.8503,46
1602674817.8505,48
1602674817.8508,53
1602674817.8510,51
1602674817.8513,46
1602674817.8515,53
1602674817.8517,58
1602674817.8520,55
1602674817.8522,53
1602674817.8524,53
1602674817.8527,58
1602674817.8529,60
1602674817.8531,63
1602674817.8533,65
1602674817.8536,65
1602674817.8538,60
1602674817.8540,63
1602674817.8541,68
1602674817.8543,65
1602674817.8545,63
1602674817.8547,65
1602674817.8548,65
1602674817.8550,58
1602674817.8552,58
1602674817.8553,63
1602674817.8555,65
1602674817.8557,63
1602674817.8559,63
1602674817.8560,68
1602674817.8563,70
1602674817.8564,68
1602674817.8566,68
1602674817.8568,72
1602674817.8570,85
1602674817.8571,92
1602674817.8573,92
1602674818.4204,92
1602674818.4226,85
1602674818.4242,68
1602674818.4257,53
1602674818.4273,48
1602674818.4284,51
1602674818.4295,51
1602674818.4306,46
1602674818.4316,46
1602674818.4327,41
1602674818.4338,29
1602674818.4349,63
1602674818.4361,209
1602674818.4369,462
1602674818.4376,683
1602674818.4384,632
1602674818.4391,175
1602674818.4398,-255
1602674818.4405,-165
1602674818.4412,36
1602674818.4417,-21
1602674818.4423,-48
1602674818.4428,19
1602674818.4434,19
1602674818.4440,4
1602674818.4446,26
1602674818.4451,31
1602674818.4456,24
1602674818.4461,29
1602674818.4466,36
1602674818.4470,41
1602674818.4475,48
1602674818.4479,51
1602674818.4483,51
1602674818.4488,58
1602674818.4492,72
1602674818.4494,82
1602674818.4497,87
1602674818.4499,92
1602674818.4502,107
1602674818.4504,124
1602674818.4506,138
1602674818.4509,148
1602674818.4511,167
1602674818.4515,189
1602674818.4517,201
1602674818.4520,214
1602674818.4522,218
1602674818.4524,216
1602674818.4527,194
1602674818.4529,148
1602674818.4531,97
1602674818.4533,51
1602674818.4535,17
1602674818.4537,-7
1602674818.4539,-17
1602674818.4541,-21
1602674818.4543,-24
1602674818.4545,-21
1602674818.4546,-12
1602674818.4548,-7
1602674818.4550,-2
1602674818.4552,4
1602674818.4553,9
1602674818.4555,12
1602674818.4557,14
1602674818.4559,19
1602674818.4561,29
1602674818.4562,34
1602674818.4564,36
1602674818.4566,38
1602674818.4568,43
1602674818.4570,43
1602674818.9903,46
1602674818.9921,51
1602674818.9938,43
1602674818.9954,34
1602674818.9971,36
1602674818.9988,43
1602674818.9999,41
1602674819.0011,41
1602674819.0021,41
1602674819.0033,41
1602674819.0045,38
1602674819.0055,34
1602674819.0066,29
1602674819.0076,31
1602674819.0084,38
1602674819.0092,34
1602674819.0101,36
1602674819.0111,43
1602674819.0119,48
1602674819.0124,48
1602674819.0129,48
1602674819.0134,51
1602674819.0141,53
1602674819.0146,53
1602674819.0152,55
1602674819.0157,58
1602674819.0162,60
1602674819.0167,60
1602674819.0169,63
1602674819.0171,63
1602674819.0174,65
1602674819.0176,65
1602674819.0179,65
1602674819.0181,65
1602674819.0183,63
1602674819.0186,65
1602674819.0188,70
1602674819.0190,70
1602674819.0193,68
1602674819.0195,65
1602674819.0198,63
1602674819.0200,63
1602674819.0202,65
1602674819.0205,65
1602674819.0207,60
1602674819.0209,65
1602674819.0211,70
1602674819.0212,75
1602674819.0214,85
1602674819.0216,94
1602674819.0218,92
1602674819.0220,87
1602674819.0221,80
1602674819.0223,68
1602674819.0225,63
1602674819.0227,63
1602674819.0229,65
1602674819.0230,65
1602674819.0232,65
1602674819.0234,63
1602674819.0236,60
1602674819.0237,60
1602674819.0239,102
1602674819.0241,262
1602674819.0243,528
1602674819.0244,722
1602674819.0246,593
1602674819.0248,87
1602674819.0250,-277
1602674819.0252,-119
1602674819.0254,51
1602674819.0255,-26
1602674819.0257,-34
1602674819.5301,19
1602674819.5320,7
1602674819.5338,2
1602674819.5353,31
1602674819.5364,34
1602674819.5374,31
1602674819.5384,41
1602674819.5395,46
1602674819.5405,43
1602674819.5415,46
1602674819.5427,51
1602674819.5439,53
1602674819.5447,53
1602674819.5455,53
1602674819.5462,63
1602674819.5470,77
1602674819.5477,85
1602674819.5483,94
1602674819.5489,111
1602674819.5495,126
1602674819.5500,141
1602674819.5506,160
1602674819.5512,177
1602674819.5517,192
1602674819.5523,199
1602674819.5528,199
1602674819.5531,192
1602674819.5533,175
1602674819.5536,138
1602674819.5538,87
1602674819.5540,41
1602674819.5543,4
1602674819.5545,-21
1602674819.5548,-29
1602674819.5550,-31
1602674819.5552,-31
1602674819.5555,-29
1602674819.5557,-24
1602674819.5559,-17
1602674819.5562,-12
1602674819.5564,-4
1602674819.5566,2
1602674819.5568,4
1602674819.5570,9
1602674819.5572,14
1602674819.5574,19
1602674819.5576,24
1602674819.5577,26
1602674819.5579,26
1602674819.5581,31
1602674819.5583,36
1602674819.5585,38
1602674819.5587,38
1602674819.5589,41
1602674819.5591,41
1602674819.5592,41
1602674819.5594,43
1602674819.5596,43
1602674819.5598,41
1602674819.5600,41
1602674819.5602,36
1602674819.5603,26
1602674819.5605,31
1602674819.5607,36
1602674819.5609,36
1602674819.5611,34
1602674819.5612,36
1602674819.5614,34
1602674819.5616,36
1602674819.5618,41
1602674819.5620,41
1602674819.5621,43
1602674819.5623,46
1602674820.0706,46
1602674820.0724,46
1602674820.0741,51
1602674820.0757,51
1602674820.0772,51
1602674820.0787,53
1602674820.0798,51
1602674820.0809,53
1602674820.0819,58
1602674820.0829,51
1602674820.0840,43
1602674820.0850,48
1602674820.0861,48
1602674820.0868,43
1602674820.0875,48
1602674820.0882,53
1602674820.0890,55
1602674820.0897,55
1602674820.0905,53
1602674820.0910,53
1602674820.0915,60
1602674820.0920,58
1602674820.0925,55
1602674820.0930,55
1602674820.0936,58
1602674820.0941,55
1602674820.0947,53
1602674820.0950,58
1602674820.0953,65
1602674820.0956,60
1602674820.0959,60
1602674820.0961,75
1602674820.0963,85
1602674820.0966,87
1602674820.0968,90
1602674820.0971,85
1602674820.0973,65
1602674820.0975,58
1602674820.0978,60
1602674820.0980,58
1602674820.0983,53
1602674820.0985,51
1602674820.0987,51
1602674820.0989,53
1602674820.0991,53
1602674820.0993,55
1602674820.0994,131
1602674820.0996,347
1602674820.0998,608
1602674820.1001,710
1602674820.1002,445
1602674820.1004,-70
1602674820.1006,-240
1602674820.1008,-19
1602674820.1009,31
1602674820.1011,-55
1602674820.1013,-17
1602674820.1014,24
1602674820.1016,0
1602674820.1017,4
1602674820.1019,26
1602674820.1021,26
1602674820.1023,26
1602674820.1024,38
1602674820.1026,41
1602674820.1028,38
1602674820.1029,41
1602674820.1031,48
1602674820.1032,53
1602674820.1034,55
1602674820.1036,70
1602674820.1037,80
1602674820.1039,85
1602674820.6405,94
1602674820.6423,107
1602674820.6439,119
1602674820.6455,136
1602674820.6470,153
1602674820.6484,167
1602674820.6494,177
1602674820.6506,184
1602674820.6517,192
1602674820.6527,194
1602674820.6538,184
1602674820.6548,155
1602674820.6557,114
1602674820.6567,65
1602674820.6576,17
1602674820.6583,-14
1602674820.6589,-31
1602674820.6596,-41
1602674820.6603,-41
1602674820.6610,-41
1602674820.6617,-36
1602674820.6624,-26
1602674820.6631,-19
1602674820.6637,-19
1602674820.6644,-12
1602674820.6651,-4
1602674820.6658,0
1602674820.6663,4
1602674820.6668,14
1602674820.6674,17
1602674820.6679,17
1602674820.6684,21
1602674820.6689,29
1602674820.6695,29
1602674820.6700,26
1602674820.6705,31
1602674820.6710,36
1602674820.6715,36
1602674820.6721,38
1602674820.6726,41
1602674820.6732,41
1602674820.6737,38
1602674820.6742,38
1602674820.6747,41
1602674820.6751,43
1602674820.6756,41
1602674820.6761,34
1602674820.6766,34
1602674820.6770,38
1602674820.6774,36
1602674820.6779,36
1602674820.6784,43
1602674820.6789,46
1602674820.6792,43
1602674820.6796,43
1602674820.6799,48
1602674820.6802,51
1602674820.6806,51
1602674820.6810,48
1602674820.6814,51
1602674820.6817,53
1602674820.6821,53
1602674820.6824,53
1602674820.6828,55
1602674820.6831,58
1602674820.6835,55
1602674820.6838,58
1602674820.6841,60
1602674820.6845,58
1602674820.6848,58
1602674820.6852,60
1602674820.6855,58
1602674820.6859,58
1602674821.1809,60
1602674821.1829,65
1602674821.1843,63
1602674821.1857,63
1602674821.1871,60
1602674821.1881,53
1602674821.1891,55
1602674821.1900,58
1602674821.1910,51
1602674821.1920,48
1602674821.1929,51
1602674821.1940,51
1602674821.1951,51
1602674821.1961,55
1602674821.1969,58
1602674821.1976,58
1602674821.1984,58
1602674821.1992,63
1602674821.1999,60
1602674821.2005,60
1602674821.2013,75
1602674821.2020,85
1602674821.2029,87
1602674821.2037,82
1602674821.2044,70
1602674821.2051,53
1602674821.2057,46
1602674821.2062,46
1602674821.2068,41
1602674821.2073,46
1602674821.2078,51
1602674821.2084,48
1602674821.2089,48
1602674821.2095,48
1602674821.2101,48
1602674821.2106,107
1602674821.2115,301
1602674821.2121,562
1602674821.2127,691
1602674821.2132,457
1602674821.2137,-58
1602674821.2141,-267
1602674821.2145,-48
1602674821.2150,41
1602674821.2154,-41
1602674821.2158,-17
1602674821.2162,21
1602674821.2167,-2
1602674821.2171,-2
1602674821.2176,17
1602674821.2181,17
1602674821.2184,17
1602674821.2188,29
1602674821.2191,34
1602674821.2194,34
1602674821.2198,38
1602674821.2201,48
1602674821.2205,58
1602674821.2208,60
1602674821.2211,65
1602674821.2215,77
1602674821.2218,87
1602674821.2221,97
1602674821.2224,107
1602674821.2226,119
1602674821.2228,136
1602674821.2230,153
1602674821.2233,167
1602674821.2235,180
1602674821.2237,189
1602674821.2239,199
1602674821.2241,201
1602674821.2244,194
1602674821.7803,172
1602674821.7821,138
1602674821.7836,90
1602674821.7850,41
1602674821.7863,4
1602674821.7877,-21
1602674821.7888,-34
1602674821.7897,-34
1602674821.7907,-34
1602674821.7916,-34
1602674821.7925,-24
1602674821.7935,-14
1602674821.7945,-12
1602674821.7955,-7
1602674821.7967,2
1602674821.7975,9
1602674821.7984,9
1602674821.7991,9
1602674821.7998,19
1602674821.8004,24
1602674821.8011,21
1602674821.8018,24
1602674821.8024,31
1602674821.8031,36
1602674821.8038,38
1602674821.8045,41
1602674821.8052,43
1602674821.8058,38
1602674821.8063,29
1602674821.8068,31
1602674821.8073,38
1602674821.8079,34
1602674821.8084,21
1602674821.8089,24
1602674821.8094,31
1602674821.8101,31
1602674821.8107,34
1602674821.8112,38
1602674821.8118,41
1602674821.8125,41
1602674821.8130,38
1602674821.8135,43
1602674821.8140,48
1602674821.8151,53
1602674821.8156,48
1602674821.8161,48
1602674821.8165,58
1602674821.8170,55
1602674821.8175,51
1602674821.8179,55
1602674821.8184,60
1602674821.8188,58
1602674821.8191,63
1602674821.8195,68
1602674821.8198,68
1602674821.8202,65
1602674821.8205,65
1602674821.8209,68
1602674821.8212,68
1602674821.8216,63
1602674821.8219,60
1602674821.8223,65
1602674821.8226,70
1602674821.8228,65
1602674821.8230,63
1602674821.8233,68
1602674821.8235,72
1602674821.8238,72
1602674821.8240,70
1602674821.8242,68
1602674821.8244,72
1602674821.8247,72
1602674821.8249,68
1602674822.3206,72
1602674822.3225,75
1602674822.3240,65
1602674822.3255,63
1602674822.3265,72
1602674822.3275,85
1602674822.3285,90
1602674822.3296,92
1602674822.3306,85
1602674822.3316,68
1602674822.3325,48
1602674822.3335,48
1602674822.3345,53
1602674822.3352,51
1602674822.3359,46
1602674822.3366,48
1602674822.3373,53
1602674822.3379,55
1602674822.3386,51
1602674822.3393,77
1602674822.3400,221
1602674822.3407,481
1602674822.3415,698
1602674822.3422,625
1602674822.3429,148
1602674822.3435,-272
1602674822.3440,-170
1602674822.3446,24
1602674822.3451,-36
1602674822.3458,-53
1602674822.3464,14
1602674822.3470,0
1602674822.3475,-14
1602674822.3479,14
1602674822.3483,24
1602674822.3488,24
1602674822.3493,36
1602674822.3497,38
1602674822.3501,41
1602674822.3506,55
1602674822.3510,63
1602674822.3515,63
1602674822.3519,68
1602674822.3524,77
1602674822.3527,85
1602674822.3531,92
1602674822.3534,104
1602674822.3538,116
1602674822.3541,128
1602674822.3545,143
1602674822.3548,155
1602674822.3552,167
1602674822.3555,187
1602674822.3557,201
1602674822.3559,214
1602674822.3562,221
1602674822.3564,218
1602674822.3566,199
1602674822.3568,165
1602674822.3571,116
1602674822.3573,63
1602674822.3575,24
1602674822.3577,0
1602674822.3580,-14
1602674822.3582,-24
1602674822.3584,-26
1602674822.3587,-19
1602674822.3589,-12
1602674822.3591,-14
1602674822.3593,-14
1602674822.3596,-2
1602674822.3597,0
1602674822.3599,2
1602674822.9202,12
1602674822.9221,19
1602674822.9236,19
1602674822.9252,17
1602674822.9267,26
1602674822.9281,34
1602674822.9292,31
1602674822.9302,24
1602674822.9311,24
1602674822.9321,24
1602674822.9331,21
1602674822.9341,24
1602674822.9350,31
1602674822.9360,31
1602674822.9370,31
1602674822.9377,29
1602674822.9384,24
1602674822.9390,19
1602674822.9397,19
1602674822.9404,21
1602674822.9411,26
1602674822.9420,31
1602674822.9429,29
1602674822.9436,29
1602674822.9443,34
1602674822.9451,36
1602674822.9457,36
1602674822.9463,41
1602674822.9468,41
1602674822.9473,43
1602674822.9479,43
1602674822.9485,43
1602674822.9490,48
1602674822.9496,53
1602674822.9500,51
1602674822.9505,51
1602674822.9509,53
1602674822.9514,53
1602674822.9518,55
1602674822.9523,58
1602674822.9527,53
1602674822.9531,48
1602674822.9536,46
1602674822.9540,46
1602674822.9545,48
1602674822.9549,51
1602674822.9552,53
1602674822.9556,55
1602674822.9559,58
1602674822.9563,55
1602674822.9566,55
1602674822.9570,60
1602674822.9573,58
1602674822.9577,53
1602674822.9580,58
1602674822.9584,72
1602674822.9587,77
1602674822.9589,72
1602674822.9591,68
1602674822.9594,58
1602674822.9596,48
1602674822.9598,46
1602674822.9600,48
1602674822.9603,48
1602674822.9605,51
1602674822.9607,48
1602674822.9609,51
1602674822.9612,53
1602674822.9614,51
1602674822.9616,97
1602674822.9619,279
1602674822.9621,557
1602674822.9624,737
1602674823.4319,571
1602674823.4330,41
1602674823.4341,-287
1602674823.4351,-107
1602674823.4361,34
1602674823.4371,-46
1602674823.4380,-34
1602674823.4390,19
1602674823.4400,-4
1602674823.4410,-14
1602674823.4417,12
1602674823.4424,17
1602674823.4431,4
1602674823.4438,12
1602674823.4445,26
1602674823.4454,29
1602674823.4463,36
1602674823.4470,48
1602674823.4477,53
1602674823.4484,55
1602674823.4491,65
1602674823.4497,77
1602674823.4502,87
1602674823.4508,94
1602674823.4513,107
1602674823.4518,121
1602674823.4524,136
1602674823.4529,150
1602674823.4534,170
1602674823.4539,189
1602674823.4543,204
1602674823.4548,214
1602674823.4552,214
1602674823.4557,204
1602674823.4561,180
1602674823.4566,143
1602674823.4571,90
1602674823.4575,38
1602674823.4580,4
1602674823.4584,-17
1602674823.4587,-26
1602674823.4591,-31
1602674823.4594,-29
1602674823.4598,-26
1602674823.4601,-19
1602674823.4605,-14
1602674823.4608,-9
1602674823.4612,-7
1602674823.4616,-4
1602674823.4619,4
1602674823.4622,14
1602674823.4624,19
1602674823.4626,21
1602674823.4629,21
1602674823.4631,21
1602674823.4633,29
1602674823.4635,34
1602674823.4638,38
1602674823.4640,38
1602674823.4642,38
1602674823.4644,43
1602674823.4647,43
1602674823.4649,41
1602674823.4651,43
1602674823.4653,43
1602674823.4656,38
1602674823.4658,34
1602674823.4660,36
1602674823.4662,41
1602674823.4663,41
1602674823.4665,41
1602674823.4667,41
1602674823.4668,43
1602674824.0004,46
1602674824.0023,43
1602674824.0040,34
1602674824.0054,34
1602674824.0069,36
1602674824.0083,29
1602674824.0094,24
1602674824.0104,31
1602674824.0114,31
1602674824.0124,31
1602674824.0136,36
1602674824.0148,41
1602674824.0158,41
1602674824.0168,41
1602674824.0175,43
1602674824.0182,48
1602674824.0190,46
1602674824.0196,43
1602674824.0203,48
1602674824.0210,53
1602674824.0217,53
1602674824.0225,53
1602674824.0232,51
1602674824.0238,48
1602674824.0245,46
1602674824.0253,48
1602674824.0258,51
1602674824.0264,53
1602674824.0272,55
1602674824.0279,53
1602674824.0286,53
1602674824.0292,58
1602674824.0298,58
1602674824.0302,60
1602674824.0307,63
1602674824.0312,55
1602674824.0316,53
1602674824.0321,65
1602674824.0325,80
1602674824.0330,82
1602674824.0334,77
1602674824.0339,70
1602674824.0343,55
1602674824.0346,46
1602674824.0350,46
1602674824.0353,51
1602674824.0357,53
1602674824.0360,51
1602674824.0364,53
1602674824.0367,55
1602674824.0371,53
1602674824.0374,60
1602674824.0378,143
1602674824.0381,364
1602674824.0383,627
1602674824.0385,717
1602674824.0388,420
1602674824.0390,-107
1602674824.0392,-257
1602674824.0394,-24
1602674824.0397,26
1602674824.0399,-58
1602674824.0401,-17
1602674824.0403,19
1602674824.0406,-7
1602674824.0408,0
1602674824.0410,17
1602674824.0412,7
1602674824.0415,4
1602674824.0417,21
1602674824.0419,24
1602674824.0421,26
1602674824.0423,36
1602674824.5403,46
1602674824.5420,53
1602674824.5435,63
1602674824.5449,68
1602674824.5465,72
1602674824.5475,85
1602674824.5488,87
1602674824.5500,97
1602674824.5510,119
1602674824.5520,133
1602674824.5530,143
1602674824.5540,158
1602674824.5550,182
1602674824.5559,197
1602674824.5566,197
1602674824.5573,194
1602674824.5580,184
1602674824.5587,163
1602674824.5593,124
1602674824.5600,77
1602674824.5607,34
1602674824.5614,0
1602674824.5621,-21
1602674824.5628,-31
1602674824.5635,-34
1602674824.5644,-31
1602674824.5651,-29
1602674824.5656,-26
1602674824.5662,-19
1602674824.5667,-14
1602674824.5673,-7
1602674824.5678,0
1602674824.5683,4
1602674824.5688,7
1602674824.5693,7
1602674824.5697,14
1602674824.5701,21
1602674824.5706,24
1602674824.5710,29
1602674824.5715,34
1602674824.5719,34
1602674824.5723,31
1602674824.5728,31
1602674824.5732,38
1602674824.5734,43
1602674824.5737,38
1602674824.5739,34
1602674824.5741,34
1602674824.5744,36
1602674824.5746,36
1602674824.5748,36
1602674824.5750,36
1602674824.5753,38
1602674824.5755,41
1602674824.5757,43
1602674824.5759,46
1602674824.5762,43
1602674824.5765,41
1602674824.5767,43
1602674824.5769,38
1602674824.5771,29
1602674824.5774,31
1602674824.5776,38
1602674824.5778,38
1602674824.5780,36
1602674824.5783,36
1602674824.5785,43
1602674824.5787,46
1602674824.5790,46
1602674824.5792,43
1602674824.5794,43
1602674824.5796,43
1602674824.5799,46
1602674825.1400,51
1602674825.1421,55
1602674825.1437,51
1602674825.1453,41
1602674825.1470,36
1602674825.1482,34
1602674825.1493,31
1602674825.1504,34
1602674825.1514,38
1602674825.1525,38
1602674825.1536,38
1602674825.1547,41
1602674825.1557,43
1602674825.1565,43
1602674825.1573,46
1602674825.1580,43
1602674825.1587,43
1602674825.1594,48
1602674825.1603,48
1602674825.1610,46
1602674825.1617,46
1602674825.1625,51
1602674825.1632,51
1602674825.1639,55
1602674825.1645,65
1602674825.1652,72
1602674825.1658,68
1602674825.1664,60
1602674825.1669,51
1602674825.1675,41
1602674825.1680,36
1602674825.1686,31
1602674825.1691,31
1602674825.1695,36
1602674825.1700,34
1602674825.1707,34
1602674825.1712,38
1602674825.1718,31
1602674825.1722,38
1602674825.1727,153
1602674825.1731,399
1602674825.1734,639
1602674825.1738,659
1602674825.1741,277
1602674825.1745,-204
1602674825.1748,-214
1602674825.1752,12
1602674825.1755,-4
1602674825.1759,-63
1602674825.1762,-9
1602674825.1766,0
1602674825.1769,-29
1602674825.1771,-17
1602674825.1774,-2
1602674825.1776,-4
1602674825.1778,0
1602674825.1780,9
1602674825.1783,14
1602674825.1785,21
1602674825.1787,31
1602674825.1790,36
1602674825.1792,41
1602674825.1794,48
1602674825.1797,53
1602674825.1799,60
1602674825.1801,70
1602674825.1804,82
1602674825.1806,99
1602674825.1808,114
1602674825.1810,124
1602674825.1812,138
1602674825.1814,158
1602674825.1815,172
1602674825.7103,182
1602674825.7120,192
1602674825.7137,192
1602674825.7152,177
1602674825.7162,150
1602674825.7173,109
1602674825.7184,60
1602674825.7194,14
1602674825.7204,-21
1602674825.7214,-43
1602674825.7224,-46
1602674825.7234,-46
1602674825.7244,-46
1602674825.7254,-46
1602674825.7262,-36
1602674825.7270,-26
1602674825.7276,-21
1602674825.7284,-19
1602674825.7291,-9
1602674825.7298,-2
1602674825.7306,-2
1602674825.7312,-2
1602674825.7319,2
1602674825.7326,9
1602674825.7332,14
1602674825.7337,17
1602674825.7342,19
1602674825.7348,19
1602674825.7353,14
1602674825.7359,14
1602674825.7364,21
1602674825.7369,21
1602674825.7374,21
1602674825.7378,21
1602674825.7383,24
1602674825.7387,24
1602674825.7391,24
1602674825.7396,24
1602674825.7401,24
1602674825.7405,26
1602674825.7409,29
1602674825.7414,31
1602674825.7419,29
1602674825.7422,21
1602674825.7426,17
1602674825.7430,17
1602674825.7433,19
1602674825.7437,21
1602674825.7440,24
1602674825.7444,26
1602674825.7447,29
1602674825.7451,31
1602674825.7454,31
1602674825.7458,31
1602674825.7461,34
1602674825.7463,34
1602674825.7465,36
1602674825.7467,36
1602674825.7470,34
1602674825.7472,31
1602674825.7474,34
1602674825.7477,31
1602674825.7479,29
1602674825.7481,31
1602674825.7484,36
1602674825.7486,41
1602674825.7489,38
1602674825.7491,36
1602674825.7493,38
1602674825.7495,43
1602674825.7498,43
1602674825.7500,41
1602674825.7501,46
1602674826.2502,46
1602674826.2519,43
1602674826.2534,46
1602674826.2548,51
1602674826.2558,63
1602674826.2568,72
1602674826.2578,72
1602674826.2588,68
1602674826.2597,60
1602674826.2607,38
1602674826.2617,24
1602674826.2627,26
1602674826.2640,29
1602674826.2647,26
1602674826.2654,26
1602674826.2662,31
1602674826.2669,34
1602674826.2676,26
1602674826.2683,43
1602674826.2691,158
1602674826.2697,403
1602674826.2704,652
1602674826.2711,666
1602674826.2718,262
1602674826.2725,-228
1602674826.2731,-226
1602674826.2736,7
1602674826.2742,-14
1602674826.2747,-63
1602674826.2753,4
1602674826.2758,12
1602674826.2763,-19
1602674826.2769,-2
1602674826.2773,12
1602674826.2778,7
1602674826.2782,14
1602674826.2787,19
1602674826.2791,9
1602674826.2796,9
1602674826.2800,24
1602674826.2805,31
1602674826.2810,36
1602674826.2815,46
1602674826.2817,53
1602674826.2819,60
1602674826.2822,68
1602674826.2824,82
1602674826.2826,97
1602674826.2828,107
1602674826.2831,119
1602674826.2833,138
1602674826.2835,153
1602674826.2838,163
1602674826.2840,180
1602674826.2842,192
1602674826.2844,187
1602674826.2847,172
1602674826.2849,145
1602674826.2851,99
1602674826.2853,48
1602674826.2856,4
1602674826.2858,-24
1602674826.2860,-41
1602674826.2863,-51
1602674826.2865,-51
1602674826.2867,-46
1602674826.2869,-43
1602674826.2872,-38
1602674826.2874,-31
1602674826.2876,-24
1602674826.2878,-19
1602674826.2881,-17
1602674826.2883,-14
1602674826.8203,-9
1602674826.8220,-2
1602674826.8234,0
1602674826.8250,4
1602674826.8265,12
1602674826.8275,14
1602674826.8285,7
1602674826.8295,4
1602674826.8306,12
1602674826.8316,14
1602674826.8326,9
1602674826.8336,7
1602674826.8345,12
1602674826.8353,14
1602674826.8360,17
1602674826.8367,17
1602674826.8374,19
1602674826.8381,19
1602674826.8387,19
1602674826.8394,21
1602674826.8404,21
1602674826.8413,24
1602674826.8420,26
1602674826.8428,29
1602674826.8435,29
1602674826.8440,29
1602674826.8446,26
1602674826.8451,29
1602674826.8457,26
1602674826.8462,19
1602674826.8467,17
1602674826.8473,21
1602674826.8481,24
1602674826.8487,29
1602674826.8492,31
1602674826.8498,31
1602674826.8503,31
1602674826.8509,31
1602674826.8514,34
1602674826.8519,36
1602674826.8524,38
1602674826.8529,36
1602674826.8533,29
1602674826.8537,29
1602674826.8542,36
1602674826.8546,38
1602674826.8551,34
1602674826.8555,34
1602674826.8560,36
1602674826.8565,43
1602674826.8569,55
1602674826.8572,68
1602674826.8576,68
1602674826.8579,58
1602674826.8583,43
1602674826.8586,34
1602674826.8590,31
1602674826.8593,34
1602674826.8597,34
1602674826.8600,29
1602674826.8604,24
1602674826.8607,26
1602674826.8609,29
1602674826.8611,31
1602674826.8614,77
1602674826.8616,255
1602674826.8618,532
1602674826.8620,715
1602674826.8623,557
1602674826.8625,34
1602674826.8627,-299
1602674826.8630,-121
1602674826.8632,29
1602674827.3899,-51
1602674827.3918,-46
1602674827.3933,7
1602674827.3947,-7
1602674827.3961,-9
1602674827.3973,14
1602674827.3984,17
1602674827.3993,9
1602674827.4003,12
1602674827.4012,19
1602674827.4022,21
1602674827.4032,19
1602674827.4042,24
1602674827.4053,34
1602674827.4061,41
1602674827.4070,43
1602674827.4078,51
1602674827.4086,63
1602674827.4094,72
1602674827.4104,80
1602674827.4113,94
1602674827.4122,109
1602674827.4132,114
1602674827.4142,124
1602674827.4150,148
1602674827.4156,167
1602674827.4164,172
1602674827.4171,175
1602674827.4179,172
1602674827.4186,150
1602674827.4192,116
1602674827.4197,68
1602674827.4202,17
1602674827.4208,-21
1602674827.4213,-46
1602674827.4218,-60
1602674827.4223,-63
1602674827.4228,-55
1602674827.4232,-53
1602674827.4237,-46
1602674827.4241,-41
1602674827.4245,-36
1602674827.4251,-31
1602674827.4255,-24
1602674827.4260,-14
1602674827.4265,-9
1602674827.4269,-7
1602674827.4273,-2
1602674827.4277,4
1602674827.4284,12
1602674827.4289,14
1602674827.4295,17
1602674827.4299,17
1602674827.4303,21
1602674827.4308,24
1602674827.4312,24
1602674827.4315,24
1602674827.4319,31
1602674827.4322,29
1602674827.4326,26
1602674827.4329,29
1602674827.4333,29
1602674827.4336,31
1602674827.4340,36
1602674827.4343,34
1602674827.4345,26
1602674827.4347,26
1602674827.4350,31
1602674827.4352,34
1602674827.4354,36
1602674827.4356,36
1602674827.4359,34
1602674827.4361,38
1602674827.9306,43
1602674827.9328,43
1602674827.9343,46
1602674827.9358,46
1602674827.9372,43
1602674827.9382,46
1602674827.9392,51
1602674827.9402,51
1602674827.9411,46
1602674827.9421,41
1602674827.9431,41
1602674827.9440,41
1602674827.9450,41
1602674827.9460,43
1602674827.9470,43
1602674827.9479,38
1602674827.9486,36
1602674827.9493,43
1602674827.9499,46
1602674827.9506,46
1602674827.9513,48
1602674827.9520,46
1602674827.9526,43
1602674827.9533,46
1602674827.9540,43
1602674827.9547,38
1602674827.9554,46
1602674827.9565,53
1602674827.9572,60
1602674827.9578,68
1602674827.9584,70
1602674827.9589,68
1602674827.9594,55
1602674827.9600,43
1602674827.9605,41
1602674827.9610,41
1602674827.9615,38
1602674827.9621,43
1602674827.9626,48
1602674827.9631,46
1602674827.9637,43
1602674827.9643,43
1602674827.9648,72
1602674827.9652,226
1602674827.9657,493
1602674827.9661,688
1602674827.9666,586
1602674827.9671,114
1602674827.9676,-257
1602674827.9680,-131
1602674827.9684,46
1602674827.9690,-24
1602674827.9693,-48
1602674827.9697,14
1602674827.9700,9
1602674827.9704,-4
1602674827.9707,14
1602674827.9711,19
1602674827.9714,14
1602674827.9718,26
1602674827.9721,36
1602674827.9725,38
1602674827.9728,43
1602674827.9731,43
1602674827.9733,41
1602674827.9736,48
1602674827.9738,53
1602674827.9740,55
1602674827.9742,68
1602674827.9744,80
1602674827.9747,85
1602674827.9749,94
1602674827.9751,111
1602674828.5294,126
1602674828.5307,138
1602674828.5319,153
1602674828.5329,165
1602674828.5339,177
1602674828.5351,175
1602674828.5362,163
1602674828.5372,141
1602674828.5379,104
1602674828.5387,58
1602674828.5393,14
1602674828.5400,-17
1602674828.5407,-43
1602674828.5414,-60
1602674828.5422,-68
1602674828.5430,-70
1602674828.5438,-63
1602674828.5445,-55
1602674828.5452,-53
1602674828.5459,-46
1602674828.5465,-38
1602674828.5470,-36
1602674828.5476,-29
1602674828.5482,-14
1602674828.5488,-14
1602674828.5493,-12
1602674828.5499,-4
1602674828.5504,0
1602674828.5509,2
1602674828.5515,4
1602674828.5520,9
1602674828.5526,14
1602674828.5531,17
1602674828.5538,14
1602674828.5544,17
1602674828.5549,21
1602674828.5554,21
1602674828.5559,24
1602674828.5563,24
1602674828.5568,24
1602674828.5573,24
1602674828.5577,24
1602674828.5581,26
1602674828.5586,31
1602674828.5590,31
1602674828.5595,29
1602674828.5599,29
1602674828.5602,26
1602674828.5606,26
1602674828.5609,29
1602674828.5613,31
1602674828.5616,31
1602674828.5620,31
1602674828.5623,36
1602674828.5627,38
1602674828.5630,38
1602674828.5635,38
1602674828.5638,38
1602674828.5642,43
1602674828.5646,46
1602674828.5649,46
1602674828.5653,48
1602674828.5656,48
1602674828.5660,51
1602674828.5663,48
1602674828.5667,48
1602674828.5670,51
1602674828.5674,51
1602674828.5677,48
1602674828.5680,46
1602674828.5682,51
1602674828.5685,53
1602674828.5687,51
1602674829.0697,43
1602674829.0714,43
1602674829.0729,43
1602674829.0744,43
1602674829.0758,46
1602674829.0772,55
1602674829.0782,63
1602674829.0792,65
1602674829.0801,68
1602674829.0811,58
1602674829.0822,36
1602674829.0832,21
1602674829.0842,21
1602674829.0851,24
1602674829.0861,24
1602674829.0868,29
1602674829.0875,36
1602674829.0881,43
1602674829.0888,41
1602674829.0895,41
1602674829.0902,104
1602674829.0909,301
1602674829.0916,564
1602674829.0923,698
1602674829.0929,469
1602674829.0936,-51
1602674829.0944,-262
1602674829.0950,-41
1602674829.0955,43
1602674829.0961,-51
1602674829.0966,-21
1602674829.0971,24
1602674829.0977,-2
1602674829.0982,-2
1602674829.0990,21
1602674829.0997,24
1602674829.1003,29
1602674829.1009,34
1602674829.1014,29
1602674829.1020,36
1602674829.1025,51
1602674829.1031,55
1602674829.1035,55
1602674829.1040,60
1602674829.1044,65
1602674829.1049,75
1602674829.1053,87
1602674829.1059,102
1602674829.1063,111
1602674829.1068,116
1602674829.1072,121
1602674829.1077,136
1602674829.1081,153
1602674829.1084,165
1602674829.1088,177
1602674829.1091,187
1602674829.1095,182
1602674829.1098,175
1602674829.1102,153
1602674829.1105,111
1602674829.1109,60
1602674829.1112,14
1602674829.1116,-19
1602674829.1119,-38
1602674829.1123,-48
1602674829.1126,-55
1602674829.1130,-60
1602674829.1133,-55
1602674829.1137,-48
1602674829.1140,-46
1602674829.1144,-43
1602674829.1147,-36
1602674829.1151,-31
1602674829.6403,-29
1602674829.6420,-24
1602674829.6434,-19
1602674829.6449,-12
1602674829.6463,-7
1602674829.6478,-2
1602674829.6490,2
1602674829.6500,2
1602674829.6510,-2
1602674829.6520,0
1602674829.6531,4
1602674829.6542,7
1602674829.6556,4
1602674829.6566,4
1602674829.6573,9
1602674829.6580,17
1602674829.6587,17
1602674829.6594,17
1602674829.6600,17
1602674829.6607,12
1602674829.6616,14
1602674829.6625,26
1602674829.6633,29
1602674829.6641,24
1602674829.6648,26
1602674829.6654,31
1602674829.6660,26
1602674829.6665,26
1602674829.6671,29
1602674829.6676,26
1602674829.6681,24
1602674829.6688,29
1602674829.6695,31
1602674829.6701,34
1602674829.6707,34
1602674829.6712,36
1602674829.6718,41
1602674829.6723,38
1602674829.6729,38
1602674829.6734,41
1602674829.6738,41
1602674829.6743,41
1602674829.6747,43
1602674829.6752,41
1602674829.6757,41
1602674829.6761,43
1602674829.6766,46
1602674829.6770,48
1602674829.6774,65
1602674829.6779,77
1602674829.6783,75
1602674829.6787,68
1602674829.6791,55
1602674829.6795,41
1602674829.6799,31
1602674829.6803,34
1602674829.6808,41
1602674829.6812,41
1602674829.6817,31
1602674829.6821,31
1602674829.6825,34
1602674829.6828,29
1602674829.6832,80
1602674829.6836,282
1602674829.6839,571
1602674829.6843,729
1602674829.6846,506
1602674829.6850,-46
1602674829.6853,-301
1602674829.6856,-80
1602674829.6858,26
1602674829.6861,-55
1602674829.6863,-14
1602674830.1797,31
1602674830.1817,2
1602674830.1834,7
1602674830.1850,36
1602674830.1864,36
1602674830.1874,31
1602674830.1884,46
1602674830.1896,51
1602674830.1906,43
1602674830.1915,41
1602674830.1925,53
1602674830.1937,60
1602674830.1948,60
1602674830.1955,63
1602674830.1962,75
1602674830.1969,90
1602674830.1976,99
1602674830.1983,107
1602674830.1991,119
1602674830.2000,131
1602674830.2008,143
1602674830.2015,163
1602674830.2021,182
1602674830.2028,194
1602674830.2035,199
1602674830.2042,201
1602674830.2049,194
1602674830.2056,165
1602674830.2063,121
1602674830.2070,70
1602674830.2075,21
1602674830.2081,-17
1602674830.2087,-41
1602674830.2092,-53
1602674830.2097,-58
1602674830.2103,-55
1602674830.2108,-51
1602674830.2113,-46
1602674830.2118,-41
1602674830.2122,-41
1602674830.2127,-38
1602674830.2134,-31
1602674830.2139,-21
1602674830.2144,-19
1602674830.2149,-14
1602674830.2154,-7
1602674830.2159,-2
1602674830.2165,0
1602674830.2169,0
1602674830.2174,2
1602674830.2179,0
1602674830.2183,-7
1602674830.2188,-7
1602674830.2192,-2
1602674830.2197,0
1602674830.2202,0
1602674830.2205,2
1602674830.2209,4
1602674830.2212,7
1602674830.2216,12
1602674830.2219,12
1602674830.2223,12
1602674830.2226,17
1602674830.2230,19
1602674830.2233,14
1602674830.2237,17
1602674830.2240,21
1602674830.2243,21
1602674830.2245,24
1602674830.2248,29
1602674830.2250,26
1602674830.2252,26
1602674830.2254,29
1602674830.7505,34
1602674830.7525,34
1602674830.7540,34
1602674830.7554,36
1602674830.7564,38
1602674830.7573,34
1602674830.7583,26
1602674830.7592,29
1602674830.7602,36
1602674830.7612,38
1602674830.7621,31
1602674830.7631,24
1602674830.7641,29
1602674830.7649,34
1602674830.7656,34
1602674830.7664,38
1602674830.7670,38
1602674830.7677,36
1602674830.7684,43
1602674830.7694,60
1602674830.7703,70
1602674830.7710,70
1602674830.7717,60
1602674830.7723,48
1602674830.7729,41
1602674830.7734,34
1602674830.7740,34
1602674830.7745,41
1602674830.7750,41
1602674830.7756,36
1602674830.7761,43
1602674830.7766,48
1602674830.7772,43
1602674830.7777,92
1602674830.7782,272
1602674830.7787,545
1602674830.7793,725
1602674830.7798,566
1602674830.7803,41
1602674830.7808,-287
1602674830.7813,-102
1602674830.7817,48
1602674830.7822,-36
1602674830.7827,-41
1602674830.7832,4
1602674830.7837,-7
1602674830.7841,-4
1602674830.7845,17
1602674830.7850,19
1602674830.7856,21
1602674830.7861,34
1602674830.7866,38
1602674830.7871,38
1602674830.7875,43
1602674830.7879,48
1602674830.7884,53
1602674830.7888,60
1602674830.7892,68
1602674830.7897,72
1602674830.7900,80
1602674830.7904,87
1602674830.7907,102
1602674830.7911,119
1602674830.7914,131
1602674830.7918,143
1602674830.7921,160
1602674830.7925,175
1602674830.7929,189
1602674830.7932,199
1602674830.7936,199
1602674830.7939,189
1602674830.7941,165
1602674830.7944,124
1602674831.2896,77
1602674831.2915,31
1602674831.2930,-12
1602674831.2945,-41
1602674831.2960,-51
1602674831.2970,-58
1602674831.2980,-63
1602674831.2990,-65
1602674831.3000,-60
1602674831.3010,-51
1602674831.3019,-48
1602674831.3029,-46
1602674831.3039,-41
1602674831.3048,-31
1602674831.3056,-29
1602674831.3063,-24
1602674831.3070,-17
1602674831.3077,-14
1602674831.3084,-12
1602674831.3090,-7
1602674831.3097,0
1602674831.3104,4
1602674831.3111,4
1602674831.3118,4
1602674831.3124,7
1602674831.3131,12
1602674831.3137,12
1602674831.3142,12
1602674831.3148,14
1602674831.3153,14
1602674831.3159,14
1602674831.3164,19
1602674831.3170,24
1602674831.3175,17
1602674831.3180,9
1602674831.3185,9
1602674831.3191,7
1602674831.3196,4
1602674831.3201,4
1602674831.3206,12
1602674831.3212,17
1602674831.3217,19
1602674831.3221,19
1602674831.3226,21
1602674831.3230,26
1602674831.3234,26
1602674831.3239,26
1602674831.3243,31
1602674831.3250,31
1602674831.3255,31
1602674831.3261,31
1602674831.3266,38
1602674831.3270,36
1602674831.3274,36
1602674831.3278,38
1602674831.3283,41
1602674831.3287,43
1602674831.3291,43
1602674831.3295,43
1602674831.3299,46
1602674831.3305,51
1602674831.3308,48
1602674831.3311,43
1602674831.3315,48
1602674831.3319,51
1602674831.3322,48
1602674831.3326,43
1602674831.3330,46
1602674831.3333,48
1602674831.3336,46
1602674831.3340,48
1602674831.3343,60
1602674831.3347,75
1602674831.8896,77
1602674831.8915,72
1602674831.8931,63
1602674831.8947,48
1602674831.8961,34
1602674831.8975,29
1602674831.8985,34
1602674831.8995,38
1602674831.9007,36
1602674831.9017,34
1602674831.9028,43
1602674831.9038,43
1602674831.9048,41
1602674831.9058,99
1602674831.9065,294
1602674831.9072,562
1602674831.9078,715
1602674831.9085,520
1602674831.9092,0
1602674831.9099,-270
1602674831.9106,-68
1602674831.9112,48
1602674831.9119,-36
1602674831.9126,-21
1602674831.9133,24
1602674831.9140,0
1602674831.9150,-2
1602674831.9157,24
1602674831.9164,19
1602674831.9169,14
1602674831.9175,21
1602674831.9180,31
1602674831.9186,34
1602674831.9191,34
1602674831.9196,41
1602674831.9202,48
1602674831.9207,55
1602674831.9212,63
1602674831.9217,68
1602674831.9223,72
1602674831.9228,85
1602674831.9233,102
1602674831.9238,114
1602674831.9242,126
1602674831.9247,141
1602674831.9251,160
1602674831.9256,177
1602674831.9260,189
1602674831.9265,197
1602674831.9269,199
1602674831.9273,187
1602674831.9278,163
1602674831.9283,124
1602674831.9286,75
1602674831.9290,24
1602674831.9293,-12
1602674831.9297,-38
1602674831.9300,-58
1602674831.9304,-65
1602674831.9307,-60
1602674831.9311,-55
1602674831.9314,-51
1602674831.9318,-46
1602674831.9321,-43
1602674831.9325,-38
1602674831.9329,-31
1602674831.9332,-29
1602674831.9336,-21
1602674831.9339,-14
1602674831.9343,-12
1602674831.9346,-12
1602674831.9349,-7
1602674831.9353,0
1602674832.4615,4
1602674832.4631,7
1602674832.4646,7
1602674832.4660,9
1602674832.4675,12
1602674832.4686,12
1602674832.4697,14
1602674832.4708,17
1602674832.4719,9
1602674832.4729,4
1602674832.4739,9
1602674832.4746,17
1602674832.4753,19
1602674832.4759,17
1602674832.4766,14
1602674832.4773,14
1602674832.4780,12
1602674832.4787,12
1602674832.4793,19
1602674832.4800,19
1602674832.4809,14
1602674832.4816,12
1602674832.4825,12
1602674832.4832,14
1602674832.4839,19
1602674832.4846,19
1602674832.4853,21
1602674832.4859,24
1602674832.4866,24
1602674832.4872,29
1602674832.4877,34
1602674832.4883,34
1602674832.4888,31
1602674832.4893,34
1602674832.4898,38
1602674832.4904,38
1602674832.4909,38
1602674832.4914,41
1602674832.4918,46
1602674832.4922,46
1602674832.4927,48
1602674832.4931,51
1602674832.4936,53
1602674832.4941,51
1602674832.4945,46
1602674832.4949,48
1602674832.4953,53
1602674832.4958,53
1602674832.4962,48
1602674832.4966,48
1602674832.4970,51
1602674832.4974,48
1602674832.4978,51
1602674832.4982,58
1602674832.4986,60
1602674832.4993,60
1602674832.4997,68
1602674832.5000,80
1602674832.5004,82
1602674832.5007,77
1602674832.5011,70
1602674832.5014,58
1602674832.5018,48
1602674832.5021,46
1602674832.5025,48
1602674832.5028,48
1602674832.5032,48
1602674832.5035,51
1602674832.5037,53
1602674832.5039,55
1602674832.5042,58
1602674832.5044,107
1602674832.5046,282
1602674833.0000,545
1602674833.0018,712
1602674833.0034,542
1602674833.0048,34
1602674833.0062,-257
1602674833.0072,-70
1602674833.0082,55
1602674833.0091,-36
1602674833.0101,-21
1602674833.0110,31
1602674833.0120,0
1602674833.0130,-9
1602674833.0139,19
1602674833.0149,19
1602674833.0159,9
1602674833.0167,24
1602674833.0175,31
1602674833.0182,26
1602674833.0189,34
1602674833.0196,46
1602674833.0202,55
1602674833.0209,60
1602674833.0216,70
1602674833.0223,77
1602674833.0230,85
1602674833.0236,92
1602674833.0244,102
1602674833.0250,119
1602674833.0255,136
1602674833.0260,153
1602674833.0266,163
1602674833.0271,175
1602674833.0276,187
1602674833.0284,194
1602674833.0290,194
1602674833.0296,187
1602674833.0302,167
1602674833.0307,124
1602674833.0312,68
1602674833.0318,17
1602674833.0323,-19
1602674833.0328,-41
1602674833.0333,-55
1602674833.0338,-60
1602674833.0342,-58
1602674833.0347,-55
1602674833.0351,-48
1602674833.0356,-41
1602674833.0361,-38
1602674833.0365,-34
1602674833.0370,-24
1602674833.0375,-17
1602674833.0378,-17
1602674833.0382,-12
1602674833.0385,-7
1602674833.0389,-2
1602674833.0392,2
1602674833.0396,4
1602674833.0399,9
1602674833.0403,17
1602674833.0406,19
1602674833.0410,14
1602674833.0413,17
1602674833.0416,24
1602674833.0418,24
1602674833.0421,21
1602674833.0423,26
1602674833.0425,26
1602674833.0427,29
1602674833.0430,29
1602674833.0432,26
1602674833.0434,21
1602674833.0436,24
1602674833.5700,26
1602674833.5717,29
1602674833.5728,31
1602674833.5737,31
1602674833.5748,34
1602674833.5759,34
1602674833.5769,19
1602674833.5778,4
1602674833.5788,12
1602674833.5795,26
1602674833.5802,24
1602674833.5813,17
1602674833.5821,19
1602674833.5830,24
1602674833.5837,29
1602674833.5844,31
1602674833.5852,34
1602674833.5859,34
1602674833.5865,31
1602674833.5872,34
1602674833.5878,38
1602674833.5883,41
1602674833.5889,41
1602674833.5895,43
1602674833.5900,46
1602674833.5906,46
1602674833.5911,43
1602674833.5916,43
1602674833.5922,51
1602674833.5927,48
1602674833.5932,43
1602674833.5937,41
1602674833.5943,46
1602674833.5949,53
1602674833.5954,68
1602674833.5959,75
1602674833.5964,72
1602674833.5969,60
1602674833.5976,46
1602674833.5981,38
1602674833.5985,43
1602674833.5989,41
1602674833.5994,38
1602674833.5998,43
1602674833.6004,46
1602674833.6008,48
1602674833.6011,48
1602674833.6015,48
1602674833.6018,109
1602674833.6022,311
1602674833.6025,588
1602674833.6029,732
1602674833.6032,496
1602674833.6036,-48
1602674833.6039,-287
1602674833.6043,-65
1602674833.6046,31
1602674833.6050,-53
1602674833.6053,-19
1602674833.6057,29
1602674833.6061,4
1602674833.6064,7
1602674833.6069,26
1602674833.6072,21
1602674833.6076,24
1602674833.6079,34
1602674833.6083,38
1602674833.6086,43
1602674833.6088,51
1602674833.6091,55
1602674833.6093,60
1602674833.6095,68
1602674833.6097,65
1602674834.1100,58
1602674834.1119,68
1602674834.1134,80
1602674834.1144,87
1602674834.1154,94
1602674834.1164,109
1602674834.1175,128
1602674834.1185,143
1602674834.1195,155
1602674834.1206,165
1602674834.1219,175
1602674834.1227,177
1602674834.1236,170
1602674834.1244,145
1602674834.1251,104
1602674834.1258,51
1602674834.1265,2
1602674834.1272,-29
1602674834.1279,-46
1602674834.1286,-55
1602674834.1293,-63
1602674834.1299,-63
1602674834.1306,-58
1602674834.1313,-53
1602674834.1320,-46
1602674834.1327,-38
1602674834.1335,-34
1602674834.1343,-29
1602674834.1349,-24
1602674834.1355,-17
1602674834.1360,-12
1602674834.1365,-4
1602674834.1370,0
1602674834.1376,4
1602674834.1382,9
1602674834.1387,9
1602674834.1392,12
1602674834.1397,12
1602674834.1401,17
1602674834.1406,21
1602674834.1413,19
1602674834.1418,21
1602674834.1423,24
1602674834.1428,21
1602674834.1432,21
1602674834.1436,26
1602674834.1440,26
1602674834.1444,24
1602674834.1448,26
1602674834.1452,31
1602674834.1457,29
1602674834.1462,26
1602674834.1466,24
1602674834.1471,24
1602674834.1476,24
1602674834.1480,29
1602674834.1483,29
1602674834.1487,29
1602674834.1490,31
1602674834.1494,31
1602674834.1497,34
1602674834.1501,36
1602674834.1505,38
1602674834.1508,38
1602674834.1512,36
1602674834.1515,24
1602674834.1517,17
1602674834.1519,26
1602674834.1521,34
1602674834.1524,34
1602674834.1526,34
1602674834.1528,34
1602674834.1530,36
1602674834.6798,36
1602674834.6819,36
1602674834.6837,38
1602674834.6854,41
1602674834.6868,41
1602674834.6878,34
1602674834.6888,31
1602674834.6898,36
1602674834.6907,38
1602674834.6917,38
1602674834.6926,38
1602674834.6937,46
1602674834.6947,55
1602674834.6957,58
1602674834.6966,60
1602674834.6973,51
1602674834.6980,36
1602674834.6988,26
1602674834.6998,29
1602674834.7008,34
1602674834.7016,34
1602674834.7023,34
1602674834.7031,36
1602674834.7038,34
1602674834.7045,29
1602674834.7053,38
1602674834.7058,133
1602674834.7063,364
1602674834.7069,620
1602674834.7074,691
1602674834.7080,364
1602674834.7086,-155
1602674834.7092,-253
1602674834.7097,-9
1602674834.7103,14
1602674834.7108,-60
1602674834.7114,-9
1602674834.7119,19
1602674834.7124,-4
1602674834.7130,7
1602674834.7135,26
1602674834.7139,24
1602674834.7143,29
1602674834.7148,36
1602674834.7153,29
1602674834.7157,29
1602674834.7161,34
1602674834.7167,34
1602674834.7172,34
1602674834.7176,41
1602674834.7179,51
1602674834.7183,58
1602674834.7186,65
1602674834.7190,77
1602674834.7193,92
1602674834.7197,107
1602674834.7200,116
1602674834.7204,124
1602674834.7207,133
1602674834.7211,150
1602674834.7214,172
1602674834.7217,177
1602674834.7220,172
1602674834.7222,160
1602674834.7224,136
1602674834.7226,94
1602674834.7228,46
1602674834.7231,2
1602674834.7233,-26
1602674834.7236,-38
1602674834.7238,-48
1602674834.7240,-55
1602674834.7243,-53
1602674835.2794,-41
1602674835.2812,-36
1602674835.2828,-36
1602674835.2845,-34
1602674835.2861,-24
1602674835.2872,-19
1602674835.2882,-24
1602674835.2892,-24
1602674835.2902,-14
1602674835.2912,-9
1602674835.2922,-7
1602674835.2933,0
1602674835.2943,7
1602674835.2951,7
1602674835.2958,7
1602674835.2965,12
1602674835.2972,14
1602674835.2979,14
1602674835.2986,17
1602674835.2993,21
1602674835.3000,21
1602674835.3008,21
1602674835.3016,19
1602674835.3022,21
1602674835.3030,26
1602674835.3035,29
1602674835.3041,29
1602674835.3046,29
1602674835.3052,31
1602674835.3057,36
1602674835.3062,34
1602674835.3068,34
1602674835.3073,36
1602674835.3078,36
1602674835.3084,36
1602674835.3089,36
1602674835.3094,38
1602674835.3099,38
1602674835.3105,38
1602674835.3110,36
1602674835.3116,38
1602674835.3120,41
1602674835.3125,43
1602674835.3129,51
1602674835.3133,48
1602674835.3138,43
1602674835.3142,43
1602674835.3149,48
1602674835.3154,51
1602674835.3160,51
1602674835.3164,43
1602674835.3169,38
1602674835.3173,43
1602674835.3179,48
1602674835.3183,46
1602674835.3188,46
1602674835.3192,48
1602674835.3196,48
1602674835.3200,51
1602674835.3204,53
1602674835.3209,53
1602674835.3213,53
1602674835.3216,55
1602674835.3220,53
1602674835.3223,58
1602674835.3227,70
1602674835.3230,82
1602674835.3234,80
1602674835.3237,72
1602674835.3241,63
1602674835.3244,53
1602674835.3248,46
1602674835.3251,41
1602674835.8497,41
1602674835.8517,46
1602674835.8532,48
1602674835.8547,43
1602674835.8560,41
1602674835.8570,43
1602674835.8580,46
1602674835.8591,102
1602674835.8602,291
1602674835.8612,559
1602674835.8622,705
1602674835.8632,489
1602674835.8639,-34
1602674835.8646,-272
1602674835.8653,-63
1602674835.8659,41
1602674835.8666,-46
1602674835.8673,-24
1602674835.8681,26
1602674835.8688,2
1602674835.8695,0
1602674835.8702,29
1602674835.8709,31
1602674835.8716,29
1602674835.8721,36
1602674835.8729,34
1602674835.8736,29
1602674835.8742,34
1602674835.8748,38
1602674835.8754,41
1602674835.8759,48
1602674835.8764,55
1602674835.8770,60
1602674835.8776,70
1602674835.8781,80
1602674835.8786,90
1602674835.8792,109
1602674835.8797,126
1602674835.8803,133
1602674835.8808,153
1602674835.8812,172
1602674835.8817,180
1602674835.8821,184
1602674835.8825,184
1602674835.8830,175
1602674835.8835,158
1602674835.8839,121
1602674835.8845,70
1602674835.8851,26
1602674835.8855,-2
1602674835.8860,-26
1602674835.8865,-41
1602674835.8869,-43
1602674835.8873,-41
1602674835.8878,-36
1602674835.8882,-34
1602674835.8887,-26
1602674835.8891,-24
1602674835.8894,-26
1602674835.8898,-17
1602674835.8901,0
1602674835.8905,0
1602674835.8908,-4
1602674835.8912,2
1602674835.8915,12
1602674835.8919,14
1602674835.8922,14
1602674835.8926,21
1602674835.8929,26
1602674835.8931,24
1602674835.8933,24
1602674835.8936,34
1602674835.8938,34
1602674836.3897,29
1602674836.3914,26
1602674836.3930,31
1602674836.3949,31
1602674836.3963,31
1602674836.3973,34
1602674836.3983,38
1602674836.3992,34
1602674836.4002,24
1602674836.4012,21
1602674836.4023,26
1602674836.4035,29
1602674836.4045,21
1602674836.4052,17
1602674836.4059,24
1602674836.4066,24
1602674836.4073,24
1602674836.4080,26
1602674836.4087,26
1602674836.4094,26
1602674836.4101,29
1602674836.4108,29
1602674836.4115,34
1602674836.4121,36
1602674836.4128,31
1602674836.4134,29
1602674836.4139,34
1602674836.4144,41
1602674836.4151,41
1602674836.4157,43
1602674836.4164,43
1602674836.4169,41
1602674836.4175,38
1602674836.4181,43
1602674836.4187,46
1602674836.4192,36
1602674836.4197,26
1602674836.4202,31
1602674836.4208,46
1602674836.4213,53
1602674836.4218,55
1602674836.4222,70
1602674836.4226,60
1602674836.4231,36
1602674836.4235,31
1602674836.4239,36
1602674836.4244,38
1602674836.4248,34
1602674836.4253,19
1602674836.4257,26
1602674836.4262,48
1602674836.4266,48
1602674836.4271,48
1602674836.4275,143
1602674836.4280,379
1602674836.4286,635
1602674836.4292,693
1602674836.4296,357
1602674836.4300,-158
1602674836.4306,-233
1602674836.4309,2
1602674836.4313,7
1602674836.4316,-65
1602674836.4320,-7
1602674836.4323,26
1602674836.4326,12
1602674836.4330,17
1602674836.4333,26
1602674836.4337,36
1602674836.4340,41
1602674836.4344,41
1602674836.4347,48
1602674836.4350,58
1602674836.9296,51
1602674836.9317,55
1602674836.9332,70
1602674836.9348,77
1602674836.9363,75
1602674836.9372,82
1602674836.9383,104
1602674836.9392,111
1602674836.9404,109
1602674836.9415,109
1602674836.9425,107
1602674836.9436,126
1602674836.9445,158
1602674836.9453,160
1602674836.9460,148
1602674836.9467,155
1602674836.9474,167
1602674836.9481,160
1602674836.9488,131
1602674836.9495,82
1602674836.9502,24
1602674836.9509,-19
1602674836.9516,-31
1602674836.9524,-41
1602674836.9531,-60
1602674836.9536,-51
1602674836.9541,-34
1602674836.9547,-43
1602674836.9552,-58
1602674836.9558,-46
1602674836.9563,-41
1602674836.9568,-43
1602674836.9577,-7
1602674836.9583,29
1602674836.9589,31
1602674836.9595,31
1602674836.9600,43
1602674836.9605,48
1602674836.9611,60
1602674836.9616,80
1602674836.9621,70
1602674836.9625,46
1602674836.9629,63
1602674836.9634,94
1602674836.9638,87
1602674836.9642,63
1602674836.9647,65
1602674836.9651,68
1602674836.9656,38
1602674836.9662,26
1602674836.9667,43
1602674836.9671,53
1602674836.9675,38
1602674836.9679,36
1602674836.9684,48
1602674836.9689,46
1602674836.9694,31
1602674836.9698,26
1602674836.9703,24
1602674836.9707,29
1602674836.9710,43
1602674836.9714,51
1602674836.9717,51
1602674836.9721,51
1602674836.9724,53
1602674836.9727,51
1602674836.9731,36
1602674836.9734,24
1602674836.9738,38
1602674836.9741,53
1602674836.9744,53
1602674836.9746,46
1602674836.9749,46
1602674837.4987,51
1602674837.5003,46
1602674837.5019,41
1602674837.5033,43
1602674837.5048,43
1602674837.5058,63
1602674837.5067,77
1602674837.5077,68
1602674837.5087,77
1602674837.5096,70
1602674837.5109,36
1602674837.5120,36
1602674837.5130,46
1602674837.5140,36
1602674837.5147,34
1602674837.5154,46
1602674837.5161,55
1602674837.5168,51
1602674837.5176,43
1602674837.5183,65
1602674837.5191,182
1602674837.5198,403
1602674837.5205,613
1602674837.5212,586
1602674837.5219,182
1602674837.5226,-211
1602674837.5232,-143
1602674837.5238,29
1602674837.5243,-19
1602674837.5248,-31
1602674837.5253,31
1602674837.5259,7
1602674837.5264,-17
1602674837.5269,29
1602674837.5274,43
1602674837.5280,12
1602674837.5285,19
1602674837.5291,48
1602674837.5296,46
1602674837.5301,34
1602674837.5307,43
1602674837.5312,55
1602674837.5317,60
1602674837.5321,68
1602674837.5325,77
1602674837.5330,87
1602674837.5334,85
1602674837.5338,87
1602674837.5343,107
1602674837.5348,126
1602674837.5353,148
1602674837.5358,165
1602674837.5362,163
1602674837.5365,155
1602674837.5369,170
1602674837.5372,187
1602674837.5376,182
1602674837.5379,158
1602674837.5383,131
1602674837.5386,97
1602674837.5390,34
1602674837.5394,-19
1602674837.5398,-26
1602674837.5401,-24
1602674837.5405,-36
1602674837.5408,-51
1602674837.5411,-51
1602674837.5415,-34
1602674837.5418,-24
1602674837.5422,-36
1602674837.5425,-38
1602674837.5429,-24
1602674837.5432,-17
1602674838.0399,-9
1602674838.0419,0
1602674838.0434,2
1602674838.0449,2
1602674838.0465,2
1602674838.0480,4
1602674838.0489,0
1602674838.0499,-2
1602674838.0509,2
1602674838.0519,7
1602674838.0532,4
1602674838.0543,7
1602674838.0554,14
1602674838.0565,12
1602674838.0572,9
1602674838.0579,17
1602674838.0586,7
1602674838.0593,-12
1602674838.0600,-2
1602674838.0607,19
1602674838.0614,19
1602674838.0621,4
1602674838.0628,9
1602674838.0635,24
1602674838.0642,29
1602674838.0650,29
1602674838.0656,21
1602674838.0661,7
1602674838.0666,12
1602674838.0671,38
1602674838.0677,46
1602674838.0682,31
1602674838.0688,29
1602674838.0694,48
1602674838.0699,53
1602674838.0704,48
1602674838.0710,55
1602674838.0715,70
1602674838.0720,75
1602674838.0728,75
1602674838.0734,63
1602674838.0740,46
1602674838.0745,41
1602674838.0749,41
1602674838.0754,38
1602674838.0758,36
1602674838.0763,38
1602674838.0767,43
1602674838.0772,46
1602674838.0776,38
1602674838.0780,38
1602674838.0785,119
1602674838.0789,309
1602674838.0793,530
1602674838.0797,630
1602674838.0801,401
1602674838.0805,-75
1602674838.0809,-253
1602674838.0814,-58
1602674838.0819,21
1602674838.0824,-36
1602674838.0827,-19
1602674838.0831,17
1602674838.0834,14
1602674838.0838,14
1602674838.0841,21
1602674838.0845,26
1602674838.0849,36
1602674838.0852,53
1602674838.0856,63
1602674838.0860,55
1602674838.0863,51
1602674838.0865,58
1602674838.6402,65
1602674838.6426,65
1602674838.6443,65
1602674838.6453,75
1602674838.6463,82
1602674838.6472,90
1602674838.6482,102
1602674838.6492,111
1602674838.6501,116
1602674838.6511,128
1602674838.6521,148
1602674838.6531,163
1602674838.6541,165
1602674838.6549,170
1602674838.6556,172
1602674838.6563,158
1602674838.6570,119
1602674838.6581,77
1602674838.6588,38
1602674838.6597,4
1602674838.6606,-14
1602674838.6614,-26
1602674838.6621,-34
1602674838.6627,-34
1602674838.6632,-36
1602674838.6638,-29
1602674838.6643,-14
1602674838.6649,-14
1602674838.6654,-14
1602674838.6660,2
1602674838.6665,12
1602674838.6670,-2
1602674838.6676,-7
1602674838.6681,7
1602674838.6687,9
1602674838.6693,4
1602674838.6699,21
1602674838.6704,17
1602674838.6709,-24
1602674838.6714,-29
1602674838.6719,2
1602674838.6723,2
1602674838.6727,-14
1602674838.6732,-4
1602674838.6736,9
1602674838.6740,-9
1602674838.6745,-24
1602674838.6749,-26
1602674838.6754,-24
1602674838.6758,-19
1602674838.6761,-12
1602674838.6765,-2
1602674838.6768,0
1602674838.6772,-7
1602674838.6775,-4
1602674838.6779,7
1602674838.6782,7
1602674838.6785,-2
1602674838.6789,-2
1602674838.6792,21
1602674838.6795,46
1602674838.6798,46
1602674838.6800,24
1602674838.6802,14
1602674838.6804,9
1602674838.6807,-2
1602674838.6809,-7
1602674838.6811,-4
1602674838.6814,0
1602674838.6816,2
1602674838.6818,9
1602674838.6821,17
1602674838.6823,7
1602674839.2095,-4
1602674839.2112,21
1602674839.2128,136
1602674839.2142,362
1602674839.2157,591
1602674839.2171,583
1602674839.2181,175
1602674839.2191,-265
1602674839.2202,-221
1602674839.2212,-4
1602674839.2223,-31
1602674839.2235,-72
1602674839.2245,0
1602674839.2255,19
1602674839.2263,-17
1602674839.2270,-14
1602674839.2277,12
1602674839.2284,9
1602674839.2291,12
1602674839.2298,36
1602674839.2305,34
1602674839.2312,31
1602674839.2319,75
1602674839.2325,109
1602674839.2332,102
1602674839.2341,90
1602674839.2347,102
1602674839.2352,116
1602674839.2358,128
1602674839.2364,145
1602674839.2370,153
1602674839.2375,153
1602674839.2381,165
1602674839.2386,180
1602674839.2391,187
1602674839.2397,184
1602674839.2402,187
1602674839.2407,199
1602674839.2412,199
1602674839.2418,167
1602674839.2423,119
1602674839.2428,72
1602674839.2432,36
1602674839.2436,7
1602674839.2441,-21
1602674839.2445,-38
1602674839.2452,-38
1602674839.2458,-55
1602674839.2463,-80
1602674839.2467,-53
1602674839.2471,-24
1602674839.2476,-48
1602674839.2480,-46
1602674839.2484,2
1602674839.2488,2
1602674839.2492,-26
1602674839.2496,-24
1602674839.2501,-29
1602674839.2505,-43
1602674839.2509,-21
1602674839.2514,17
1602674839.2517,24
1602674839.2521,12
1602674839.2525,2
1602674839.2528,-2
1602674839.2532,-9
1602674839.2535,-2
1602674839.2539,2
1602674839.2542,-4
1602674839.2546,-7
1602674839.2549,-17
1602674839.2553,-26
1602674839.2556,-19
1602674839.7495,-7
1602674839.7511,0
1602674839.7526,0
1602674839.7541,-4
1602674839.7552,9
1602674839.7563,24
1602674839.7573,19
1602674839.7583,19
1602674839.7594,41
1602674839.7604,58
1602674839.7613,38
1602674839.7623,24
1602674839.7630,31
1602674839.7637,29
1602674839.7644,7
1602674839.7651,-7
1602674839.7658,-4
1602674839.7665,-2
1602674839.7672,-2
1602674839.7679,17
1602674839.7686,29
1602674839.7693,0
1602674839.7700,-14
1602674839.7707,9
1602674839.7715,107
1602674839.7721,360
1602674839.7728,642
1602674839.7734,656
1602674839.7740,228
1602674839.7745,-279
1602674839.7751,-277
1602674839.7757,-29
1602674839.7762,-17
1602674839.7768,-65
1602674839.7773,-26
1602674839.7778,-19
1602674839.7784,-21
1602674839.7789,12
1602674839.7794,14
1602674839.7799,0
1602674839.7803,14
1602674839.7808,29
1602674839.7812,34
1602674839.7816,38
1602674839.7821,31
1602674839.7825,31
1602674839.7829,48
1602674839.7834,75
1602674839.7838,87
1602674839.7843,85
1602674839.7847,87
1602674839.7851,94
1602674839.7854,111
1602674839.7858,136
1602674839.7861,141
1602674839.7865,153
1602674839.7868,175
1602674839.7872,172
1602674839.7875,170
1602674839.7879,177
1602674839.7882,172
1602674839.7885,143
1602674839.7887,107
1602674839.7890,70
1602674839.7892,21
1602674839.7894,-14
1602674839.7896,-29
1602674839.7898,-26
1602674839.7901,-24
1602674839.7903,-34
1602674839.7905,-26
1602674839.7907,-14
1602674839.7910,-21
1602674840.2893,-17
1602674840.2912,0
1602674840.2931,-4
1602674840.2942,-2
1602674840.2953,14
1602674840.2964,9
1602674840.2973,0
1602674840.2983,14
1602674840.2993,26
1602674840.3002,14
1602674840.3012,9
1602674840.3021,24
1602674840.3029,26
1602674840.3037,12
1602674840.3044,19
1602674840.3050,31
1602674840.3057,24
1602674840.3064,12
1602674840.3071,14
1602674840.3078,17
1602674840.3085,14
1602674840.3092,14
1602674840.3099,26
1602674840.3105,29
1602674840.3111,26
1602674840.3116,29
1602674840.3122,34
1602674840.3127,34
1602674840.3133,29
1602674840.3140,29
1602674840.3147,31
1602674840.3153,43
1602674840.3159,63
1602674840.3164,72
1602674840.3170,70
1602674840.3175,60
1602674840.3180,51
1602674840.3186,36
1602674840.3191,31
1602674840.3196,36
1602674840.3200,29
1602674840.3205,26
1602674840.3209,36
1602674840.3214,38
1602674840.3218,36
1602674840.3222,38
1602674840.3227,31
1602674840.3232,51
1602674840.3237,199
1602674840.3241,476
1602674840.3244,688
1602674840.3248,576
1602674840.3251,72
1602674840.3256,-328
1602674840.3259,-192
1602674840.3263,4
1602674840.3266,-48
1602674840.3269,-55
1602674840.3273,2
1602674840.3276,-12
1602674840.3278,-12
1602674840.3280,24
1602674840.3283,26
1602674840.3285,21
1602674840.3287,31
1602674840.3289,29
1602674840.3291,21
1602674840.3294,26
1602674840.3296,36
1602674840.3298,43
1602674840.3300,51
1602674840.3303,63
1602674840.3305,68
1602674840.8593,68
1602674840.8614,77
1602674840.8629,92
1602674840.8643,102
1602674840.8657,111
1602674840.8667,121
1602674840.8677,138
1602674840.8688,155
1602674840.8699,167
1602674840.8710,167
1602674840.8722,165
1602674840.8733,153
1602674840.8743,124
1602674840.8750,80
1602674840.8757,36
1602674840.8764,2
1602674840.8771,-24
1602674840.8777,-38
1602674840.8784,-38
1602674840.8791,-38
1602674840.8798,-41
1602674840.8806,-34
1602674840.8813,-24
1602674840.8820,-24
1602674840.8827,-24
1602674840.8833,-19
1602674840.8838,-12
1602674840.8844,-4
1602674840.8849,-2
1602674840.8854,0
1602674840.8860,4
1602674840.8869,12
1602674840.8875,17
1602674840.8882,19
1602674840.8887,19
1602674840.8893,19
1602674840.8898,19
1602674840.8903,17
1602674840.8908,21
1602674840.8913,24
1602674840.8918,14
1602674840.8923,7
1602674840.8927,14
1602674840.8931,17
1602674840.8936,12
1602674840.8940,14
1602674840.8945,21
1602674840.8950,19
1602674840.8954,19
1602674840.8958,24
1602674840.8962,29
1602674840.8967,26
1602674840.8971,26
1602674840.8975,29
1602674840.8979,34
1602674840.8983,34
1602674840.8988,31
1602674840.8992,31
1602674840.8997,36
1602674840.9000,36
1602674840.9004,36
1602674840.9007,41
1602674840.9011,43
1602674840.9014,41
1602674840.9018,34
1602674840.9021,34
1602674840.9025,38
1602674840.9028,46
1602674840.9032,46
1602674840.9036,48
1602674840.9038,53
1602674840.9040,60
1602674840.9042,68
1602674841.3996,65
1602674841.4015,60
1602674841.4031,46
1602674841.4046,31
1602674841.4060,26
1602674841.4074,24
1602674841.4085,17
1602674841.4094,14
1602674841.4104,19
1602674841.4117,21
1602674841.4130,19
1602674841.4141,19
1602674841.4151,26
1602674841.4161,87
1602674841.4168,282
1602674841.4175,547
1602674841.4181,678
1602674841.4188,430
1602674841.4195,-107
1602674841.4202,-316
1602674841.4211,-77
1602674841.4218,19
1602674841.4225,-60
1602674841.4233,-26
1602674841.4240,21
1602674841.4248,-4
1602674841.4253,-4
1602674841.4260,19
1602674841.4265,19
1602674841.4271,19
1602674841.4276,29
1602674841.4281,29
1602674841.4287,26
1602674841.4292,24
1602674841.4297,19
1602674841.4302,26
1602674841.4308,36
1602674841.4313,41
1602674841.4319,46
1602674841.4325,55
1602674841.4330,65
1602674841.4335,75
1602674841.4340,85
1602674841.4344,99
1602674841.4349,116
1602674841.4353,133
1602674841.4358,148
1602674841.4362,160
1602674841.4367,163
1602674841.4372,158
1602674841.4376,150
1602674841.4381,126
1602674841.4385,85
1602674841.4388,41
1602674841.4392,9
1602674841.4395,-14
1602674841.4398,-31
1602674841.4402,-38
1602674841.4405,-38
1602674841.4409,-31
1602674841.4413,-29
1602674841.4417,-26
1602674841.4420,-17
1602674841.4424,-14
1602674841.4427,-19
1602674841.4431,-14
1602674841.4434,-2
1602674841.4437,0
1602674841.4441,2
1602674841.4445,7
1602674841.4448,7
1602674841.4452,12
1602674841.4455,14
1602674841.9996,17
1602674842.0014,17
1602674842.0029,14
1602674842.0045,4
1602674842.0060,2
1602674842.0070,7
1602674842.0079,9
1602674842.0089,7
1602674842.0099,9
1602674842.0108,14
1602674842.0118,17
1602674842.0130,12
1602674842.0142,12
1602674842.0152,19
1602674842.0159,19
1602674842.0167,14
1602674842.0174,19
1602674842.0180,31
1602674842.0187,31
1602674842.0194,21
1602674842.0201,21
1602674842.0209,24
1602674842.0216,21
1602674842.0223,19
1602674842.0230,26
1602674842.0236,29
1602674842.0243,21
1602674842.0248,17
1602674842.0253,21
1602674842.0258,26
1602674842.0264,19
1602674842.0269,19
1602674842.0274,29
