,hr,rr,ecg,gsr,temperature
1602674794.8128,69.0,827.0,46.0,180.84580805310688,34.5
1602674794.8146,69.0,827.0,491.0,180.98681262757918,34.5
1602674794.8164,69.0,827.0,2564.0,181.1225636784124,34.5
1602674794.8179,69.0,827.0,5764.0,181.2530612056066,34.5
1602674794.8193,69.0,827.0,7888.0,181.37830520916174,34.5
1602674794.8202,69.0,827.0,9039.0,181.4982956890778,34.5
1602674794.8212,69.0,827.0,10426.0,181.61303264535482,34.5
1602674794.8221,69.0,827.0,11650.0,181.72251607799276,34.5
1602674794.8231,69.0,827.0,12451.0,181.82674598699165,34.5
1602674794.824,69.0,827.0,13239.0,181.92572237235152,34.5
1602674794.8249,69.0,827.0,13981.0,182.0194452340723,34.5
1602674794.8259,69.0,827.0,14538.0,182.10791457215402,34.5
1602674794.8268,69.0,827.0,15057.0,182.19113038659668,34.5
1602674794.8277,69.0,827.0,15546.0,182.2690926774003,34.5
1602674794.8285,69.0,827.0,15933.0,182.34180144456485,34.5
1602674794.8292,69.0,827.0,16273.0,182.40925668809035,34.5
1602674794.8298,69.0,827.0,16602.0,182.47145840797677,34.5
1602674794.8305,69.0,827.0,16884.0,182.52840660422416,34.5
1602674794.8312,69.0,827.0,17125.0,182.5801012768325,34.5
1602674794.8319,69.0,827.0,17349.0,182.62654242580174,34.5
1602674794.8327,69.0,827.0,17563.0,182.66773005113197,34.5
1602674794.8335,69.0,827.0,17743.0,182.7036641528231,34.5
1602674794.8342,69.0,827.0,17882.0,182.73434473087522,34.5
1602674794.8349,69.0,827.0,18018.0,182.75977178528825,34.5
1602674794.8356,69.0,827.0,18159.0,182.77994531606222,34.5
1602674794.8363,69.0,827.0,18271.0,182.79486532319717,34.5
1602674794.8369,69.0,827.0,18359.0,182.80453180669303,34.5
1602674794.8374,69.0,827.0,18434.0,182.80894476654984,34.5
1602674794.8379,69.0,827.0,18507.0,182.8081042027676,34.5
1602674794.8384,69.0,827.0,18568.0,182.8020101153463,34.5
1602674794.839,69.0,827.0,18609.0,182.79066250428593,34.5
1602674794.8395,69.0,827.0,18651.0,182.77406136958652,34.5
1602674794.84,69.0,827.0,18694.0,182.75220671124802,34.5
1602674794.8405,69.0,827.0,18714.0,182.7250985292705,34.5
1602674794.8411,69.0,827.0,18706.0,182.69273682365392,34.5
1602674794.8416,69.0,827.0,18711.0,182.65512159439825,34.5
1602674794.8422,69.0,827.0,18738.0,182.61225284150356,34.5
1602674794.8427,69.0,827.0,18736.0,182.5641305649698,34.5
1602674794.8432,69.0,827.0,18711.0,182.51075476479699,34.5
1602674794.8437,69.0,827.0,18702.0,182.4521254409851,34.5
1602674794.8443,69.0,827.0,18680.0,182.38824259353416,34.5
1602674794.8449,69.0,827.0,18631.0,182.31910622244416,34.5
1602674794.8453,69.0,827.0,18587.0,182.2447163277151,34.5
1602674794.8458,69.0,827.0,18558.0,182.16507290934703,34.5
1602674794.8462,69.0,827.0,18536.0,182.08017596733987,34.5
1602674794.8466,69.0,827.0,18485.0,181.99002550169362,34.5
1602674794.847,69.0,827.0,18400.0,181.89462151240835,34.5
1602674794.8475,69.0,827.0,18349.0,181.79396399948402,34.5
1602674794.8479,69.0,827.0,18315.0,181.68805296292064,34.5
1602674794.8483,69.0,827.0,18244.0,181.5768884027182,34.5
1602674794.8497,69.0,827.0,18171.0,181.46047031885055,34.5
1602674794.8504,69.0,827.0,18115.0,181.30815411635652,34.5
1602674794.8509,69.0,827.0,18047.0,181.14957515166398,34.5
1602674794.8514,69.0,827.0,17964.0,180.9850247160379,34.5
1602674794.8518,69.0,827.0,17884.0,180.8147941007434,34.5
1602674794.8523,69.0,827.0,17813.0,180.63917459704547,34.5
1602674794.8527,69.0,827.0,17745.0,180.4584574962092,34.5
1602674794.8531,69.0,827.0,17653.0,180.2729340894996,34.5
1602674794.8537,69.0,827.0,17573.0,180.08289566818178,34.5
1602674794.8541,69.0,827.0,17507.0,179.88863352352075,34.5
1602674794.8545,69.0,827.0,17390.0,179.69043894678154,34.5
1602674794.8548,69.0,827.0,17271.0,179.48860322922923,34.5
1602674794.8552,69.0,827.0,17198.0,179.28341766212887,34.5
1602674794.8555,69.0,827.0,17115.0,179.07517353674547,34.5
1602674794.8559,69.0,827.0,17006.0,178.86416214434414,34.5
1602674794.8562,69.0,827.0,16906.0,178.65067477618987,34.5
1602674794.8566,69.0,827.0,16813.0,178.43500272354774,34.5
1602674794.8569,69.0,827.0,16721.0,178.2174372776828,34.5
1602674794.8573,69.0,827.0,16628.0,177.99826972986008,34.5
1602674794.8576,69.0,827.0,16519.0,177.77779137134465,34.5
1602674794.8578,69.0,827.0,16407.0,177.55629349340154,34.5
1602674794.858,69.0,827.0,16319.0,177.33406738729582,34.5
1602674794.8582,69.0,827.0,16232.0,177.11140434429254,34.5
1602674795.3521,69.0,827.0,16125.0,176.8885956556567,34.56
1602674795.354,69.0,827.0,16025.0,176.6659326126534,34.56
1602674795.3555,69.0,827.0,15920.0,176.44370650654767,34.56
1602674795.3569,69.0,827.0,15801.0,176.22220862860456,34.56
1602674795.3583,69.0,827.0,15677.0,176.00173027008915,34.56
1602674795.3596,69.0,827.0,15551.0,175.78256272226645,34.56
1602674795.3606,69.0,827.0,15448.0,175.56499727640153,34.56
1602674795.3616,69.0,827.0,15356.0,175.3493252237594,34.56
1602674795.3626,69.0,827.0,15237.0,175.13583785560513,34.56
1602674795.3636,69.0,827.0,15117.0,174.9248264632038,34.56
1602674795.3646,69.0,827.0,15035.0,174.71658233782043,34.56
1602674795.3656,69.0,827.0,14928.0,174.51139677072007,34.56
1602674795.3666,69.0,827.0,14774.0,174.30956105316776,34.56
1602674795.3677,69.0,827.0,14692.0,174.11136647642854,34.56
1602674795.3684,69.0,827.0,14728.0,173.91710433176752,34.56
1602674795.3691,69.0,827.0,14850.0,173.72706591044968,34.56
1602674795.3697,69.0,827.0,14957.0,173.5415425037401,34.56
1602674795.3704,69.0,827.0,14821.0,173.36082540290383,34.56
1602674795.3711,69.0,827.0,14278.0,173.1852058992059,34.56
1602674795.3718,69.0,827.0,13745.0,173.01497528391138,34.56
1602674795.3725,69.0,827.0,13718.0,172.85042484828534,34.56
1602674795.3732,69.0,827.0,13811.0,172.69184588359278,34.56
1602674795.3739,69.0,827.0,13648.0,172.53952968109874,34.56
1602674795.3746,69.0,827.0,13499.0,172.49268130694097,34.56
1602674795.3752,69.0,827.0,13451.0,172.44258503517787,34.56
1602674795.3759,69.0,827.0,13346.0,172.38973606096008,34.56
1602674795.3765,69.0,827.0,13222.0,172.33462957943814,34.56
1602674795.377,69.0,827.0,13122.0,172.27776078576267,34.56
1602674795.3779,69.0,827.0,13022.0,172.21962487508424,34.56
1602674795.3785,69.0,827.0,12920.0,172.16071704255342,34.56
1602674795.3791,69.0,827.0,12820.0,172.1015324833208,34.56
1602674795.3797,69.0,827.0,12716.0,172.04256639253697,34.56
1602674795.3802,69.0,827.0,12609.0,171.9843139653525,34.56
1602674795.3808,69.0,827.0,12509.0,171.927270396918,34.56
1602674795.3813,69.0,827.0,12412.0,171.87193088238402,34.56
1602674795.3819,69.0,827.0,12314.0,171.81879061690117,34.56
1602674795.3824,69.0,827.0,12210.0,171.76834479562004,34.56
1602674795.383,69.0,827.0,12105.0,171.72108861369117,34.56
1602674795.3837,69.0,827.0,12005.0,171.67751726626517,34.56
1602674795.3843,69.0,827.0,11903.0,171.63812594849261,34.56
1602674795.3848,69.0,827.0,11808.0,171.60340985552412,34.56
1602674795.3853,69.0,827.0,11725.0,171.57386418251022,34.56
1602674795.3858,69.0,827.0,11638.0,171.5499841246015,34.56
1602674795.3862,69.0,827.0,11543.0,171.5322648769486,34.56
1602674795.3866,69.0,827.0,11455.0,171.52120163470204,34.56
1602674795.3871,69.0,827.0,11373.0,171.51728959301244,34.56
1602674795.3875,69.0,827.0,11285.0,171.52102394703036,34.56
1602674795.3879,69.0,827.0,11193.0,171.5328998919064,34.56
1602674795.3884,69.0,827.0,11105.0,171.55341262279114,34.56
1602674795.3889,69.0,827.0,11015.0,171.58305733483516,34.56
1602674795.3893,69.0,827.0,10908.0,171.622329223189,34.56
1602674795.3897,69.0,827.0,10789.0,171.5157078814432,34.56
1602674795.3901,69.0,827.0,10640.0,171.40470260615842,34.56
1602674795.3905,69.0,827.0,10475.0,171.28951730122017,34.56
1602674795.3909,69.0,827.0,10346.0,171.17035587051402,34.56
1602674795.3914,69.0,827.0,10234.0,171.0474222179255,34.56
1602674795.3918,69.0,827.0,10102.0,170.9209202473401,34.56
1602674795.3922,69.0,827.0,9991.0,170.7910538626434,34.56
1602674795.3926,69.0,827.0,9900.0,170.6580269677209,34.56
1602674795.393,69.0,827.0,9808.0,170.52204346645817,34.56
1602674795.3935,69.0,827.0,9725.0,170.38330726274074,34.56
1602674795.3939,69.0,827.0,9643.0,170.24202226045415,34.56
1602674795.3942,69.0,827.0,9545.0,170.09839236348387,34.56
1602674795.3946,69.0,827.0,9450.0,169.9526214757155,34.56
1602674795.3949,69.0,827.0,9377.0,169.80491350103455,34.56
1602674795.3953,69.0,827.0,9299.0,169.65547234332658,34.56
1602674795.3956,69.0,827.0,9207.0,169.5045019064771,34.56
1602674795.3959,69.0,827.0,9127.0,169.3522060943716,34.56
1602674795.3963,69.0,827.0,9046.0,169.1987888108957,34.56
1602674795.3966,69.0,827.0,8947.0,169.04445395993488,34.56
1602674795.397,69.0,827.0,8859.0,168.8894054453747,34.56
1602674795.3973,69.0,827.0,8791.0,168.73384717110068,34.56
1602674795.3976,69.0,827.0,8713.0,168.57798304099836,34.56
1602674795.9226,69.0,883.0,8628.0,168.4220169589533,34.5
1602674795.9251,69.0,883.0,8538.0,168.266152828851,34.5
1602674795.9266,69.0,883.0,8460.0,168.110594554577,34.5
1602674795.928,69.0,883.0,8392.0,167.95554604001686,34.5
1602674795.929,69.0,883.0,8307.0,167.80121118905606,34.5
1602674795.93,69.0,883.0,8219.0,167.64779390558016,34.5
1602674795.9315,69.0,883.0,8149.0,167.4954980934747,34.5
1602674795.9325,69.0,883.0,8071.0,167.34452765662522,34.5
1602674795.9338,69.0,883.0,7971.0,167.19508649891722,34.5
1602674795.9348,69.0,883.0,7878.0,167.04737852423628,34.5
1602674795.9358,69.0,883.0,7808.0,166.90160763646793,34.5
1602674795.9369,69.0,883.0,7740.0,166.75797773949768,34.5
1602674795.9376,69.0,883.0,7657.0,166.61669273721105,34.5
1602674795.9383,69.0,883.0,7577.0,166.4779565334936,34.5
1602674795.939,69.0,883.0,7509.0,166.34197303223087,34.5
1602674795.9397,69.0,883.0,7443.0,166.2089461373084,34.5
1602674795.9404,69.0,883.0,7367.0,166.0790797526117,34.5
1602674795.941,69.0,883.0,7290.0,165.9525777820263,34.5
1602674795.9417,69.0,883.0,7226.0,165.82964412943775,34.5
1602674795.9424,69.0,883.0,7161.0,165.7104826987316,34.5
1602674795.943,69.0,883.0,7085.0,165.59529739379335,34.5
1602674795.9437,69.0,883.0,7015.0,165.48429211850856,34.5
1602674795.9444,69.0,883.0,6954.0,165.37767077676273,34.5
1602674795.9451,69.0,883.0,6888.0,165.37455104731407,34.5
1602674795.9456,69.0,883.0,6820.0,165.3661298168415,34.5
1602674795.9461,69.0,883.0,6752.0,165.35281489311612,34.5
1602674795.9466,69.0,883.0,6686.0,165.335014083909,34.5
1602674795.9472,69.0,883.0,6620.0,165.31313519699117,34.5
1602674795.9477,69.0,883.0,6547.0,165.28758604013373,34.5
1602674795.9483,69.0,883.0,6484.0,165.25877442110777,34.5
1602674795.9488,69.0,883.0,6426.0,165.2271081476843,34.5
1602674795.9493,69.0,883.0,6358.0,165.19299502763445,34.5
1602674795.9499,69.0,883.0,6292.0,165.15684286872926,34.5
1602674795.9505,69.0,883.0,6236.0,165.11905947873976,34.5
1602674795.951,69.0,883.0,6180.0,165.08005266543708,34.5
1602674795.9516,69.0,883.0,6117.0,165.04023023659227,34.5
1602674795.9521,69.0,883.0,6053.0,164.99999999997638,34.5
1602674795.9526,69.0,883.0,5995.0,164.95976976336047,34.5
1602674795.9531,69.0,883.0,5937.0,164.91994733451565,34.5
1602674795.9536,69.0,883.0,5878.0,164.88094052121298,34.5
1602674795.9541,69.0,883.0,5822.0,164.8431571312235,34.5
1602674795.9545,69.0,883.0,5766.0,164.80700497231828,34.5
1602674795.955,69.0,883.0,5715.0,164.77289185226843,34.5
1602674795.9556,69.0,883.0,5671.0,164.74122557884496,34.5
1602674795.9561,69.0,883.0,5620.0,164.712413959819,34.5
1602674795.9565,69.0,883.0,5555.0,164.68686480296157,34.5
1602674795.957,69.0,883.0,5496.0,164.66498591604375,34.5
1602674795.9574,69.0,883.0,5433.0,164.64718510683662,34.5
1602674795.9578,69.0,883.0,5360.0,164.63387018311124,34.5
1602674795.9584,69.0,883.0,5302.0,164.62544895263866,34.5
1602674795.9587,69.0,883.0,5255.0,164.62232922319,34.5
1602674795.9591,69.0,883.0,5204.0,164.5157078814442,34.5
1602674795.9594,69.0,883.0,5151.0,164.4047026061594,34.5
1602674795.9598,69.0,883.0,5102.0,164.28951730122117,34.5
1602674795.9601,69.0,883.0,5056.0,164.170355870515,34.5
1602674795.9605,69.0,883.0,5007.0,164.04742221792645,34.5
1602674795.9608,69.0,883.0,4951.0,163.9209202473411,34.5
1602674795.9613,69.0,883.0,4922.0,163.7910538626444,34.5
1602674795.9617,69.0,883.0,4993.0,163.6580269677219,34.5
1602674795.962,69.0,883.0,5192.0,163.52204346645917,34.5
1602674795.9623,69.0,883.0,5384.0,163.3833072627417,34.5
1602674795.9625,69.0,883.0,5328.0,163.2420222604551,34.5
1602674795.9627,69.0,883.0,4851.0,163.09839236348483,34.5
1602674795.963,69.0,883.0,4336.0,162.95262147571646,34.5
1602674795.9632,69.0,883.0,4340.0,162.80491350103551,34.5
1602674795.9634,69.0,883.0,4525.0,162.65547234332755,34.5
1602674795.9636,69.0,883.0,4440.0,162.50450190647805,34.5
1602674795.9639,69.0,883.0,4353.0,162.3522060943726,34.5
1602674795.9641,69.0,883.0,4377.0,162.1987888108967,34.5
1602674795.9643,69.0,883.0,4336.0,162.0444539599359,34.5
1602674795.9645,69.0,883.0,4275.0,161.88940544537573,34.5
1602674795.9648,69.0,883.0,4253.0,161.73384717110173,34.5
1602674795.965,69.0,883.0,4221.0,161.5779830409994,34.5
1602674796.4619,69.0,940.0,4173.0,161.42201695895432,34.5
1602674796.4636,69.0,940.0,4141.0,161.266152828852,34.5
1602674796.4655,69.0,940.0,4109.0,161.110594554578,34.5
1602674796.4671,69.0,940.0,4070.0,160.95554604001782,34.5
1602674796.4686,69.0,940.0,4034.0,160.801211189057,34.5
1602674796.4698,69.0,940.0,4002.0,160.6477939055811,34.5
1602674796.4708,69.0,940.0,3966.0,160.49549809347565,34.5
1602674796.4719,69.0,940.0,3927.0,160.34452765662616,34.5
1602674796.4729,69.0,940.0,3900.0,160.19508649891816,34.5
1602674796.474,69.0,940.0,3866.0,160.04737852423722,34.5
1602674796.4751,69.0,940.0,3822.0,159.90160763646887,34.5
1602674796.4761,69.0,940.0,3798.0,159.7579777394986,34.5
1602674796.4771,69.0,940.0,3781.0,159.616692737212,34.5
1602674796.4779,69.0,940.0,3754.0,159.47795653349456,34.5
1602674796.4787,69.0,940.0,3722.0,159.34197303223183,34.5
1602674796.4795,69.0,940.0,3701.0,159.20894613730934,34.5
1602674796.4802,69.0,940.0,3683.0,159.07907975261264,34.5
1602674796.4809,69.0,940.0,3664.0,158.95257778202725,34.5
1602674796.4816,69.0,940.0,3632.0,158.82964412943872,34.5
1602674796.4822,69.0,940.0,3603.0,158.71048269873256,34.5
1602674796.4829,69.0,940.0,3576.0,158.5952973937943,34.5
1602674796.4836,69.0,940.0,3535.0,158.4842921185095,34.5
1602674796.4844,69.0,940.0,3474.0,158.3776707767637,34.5
1602674796.4851,69.0,940.0,3401.0,158.33215942951247,34.5
1602674796.4859,69.0,940.0,3321.0,158.28567225652336,34.5
1602674796.4866,69.0,940.0,3241.0,158.23852967818786,34.5
1602674796.4872,69.0,940.0,3177.0,158.19105211489753,34.5
1602674796.4877,69.0,940.0,3129.0,158.143559987044,34.5
1602674796.4882,69.0,940.0,3082.0,158.09637371501873,34.5
1602674796.4888,69.0,940.0,3048.0,158.04981371921332,34.5
1602674796.4893,69.0,940.0,3019.0,158.00420042001934,34.5
1602674796.4898,69.0,940.0,2992.0,157.95985423782832,34.5
1602674796.4904,69.0,940.0,2978.0,157.9170955930318,34.5
1602674796.4908,69.0,940.0,2968.0,157.87624490602136,34.5
1602674796.4913,69.0,940.0,2941.0,157.83762259718853,34.5
1602674796.4919,69.0,940.0,2900.0,157.8015490869249,34.5
1602674796.4925,69.0,940.0,2856.0,157.768344795622,34.5
1602674796.493,69.0,940.0,2827.0,157.73833014367136,34.5
1602674796.4934,69.0,940.0,2812.0,157.71182555146456,34.5
1602674796.4939,69.0,940.0,2795.0,157.68915143939316,34.5
1602674796.4943,69.0,940.0,2759.0,157.6706282278487,34.5
1602674796.4948,69.0,940.0,2717.0,157.65657633722276,34.5
1602674796.4952,69.0,940.0,2698.0,157.64731618790685,34.5
1602674796.4955,69.0,940.0,2686.0,157.64316820029256,34.5
1602674796.4959,69.0,940.0,2669.0,157.64445279477144,34.5
1602674796.4963,69.0,940.0,2652.0,157.65149039173502,34.5
1602674796.4966,69.0,940.0,2630.0,157.66460141157486,34.5
1602674796.497,69.0,940.0,2608.0,157.68410627468253,34.5
1602674796.4973,69.0,940.0,2579.0,157.71032540144958,34.5
1602674796.4977,69.0,940.0,2547.0,157.74357921226755,34.5
1602674796.498,69.0,940.0,2515.0,157.78418812752798,34.5
1602674796.4983,69.0,940.0,2486.0,157.72326164653037,34.5
1602674796.4987,69.0,940.0,2464.0,157.65983006065335,34.5
1602674796.4989,69.0,940.0,2445.0,157.59400988640294,34.5
1602674796.4991,69.0,940.0,2425.0,157.52591764028512,34.5
1602674796.4994,69.0,940.0,2404.0,157.45566983880596,34.5
1602674796.4996,69.0,940.0,2382.0,157.38338299847143,34.5
1602674796.4998,69.0,940.0,2357.0,157.30917363578763,34.5
1602674796.5,69.0,940.0,2340.0,157.23315826726048,34.5
1602674796.5003,69.0,940.0,2326.0,157.15545340939607,34.5
1602674796.5005,69.0,940.0,2301.0,157.0761755787004,34.5
1602674796.5007,69.0,940.0,2272.0,156.99544129167947,34.5
1602674796.501,69.0,940.0,2253.0,156.91336706483932,34.5
1602674796.5012,69.0,940.0,2241.0,156.83006941468597,34.5
1602674796.5014,69.0,940.0,2214.0,156.74566485772542,34.5
1602674796.5016,69.0,940.0,2185.0,156.6602699104637,34.5
1602674796.5019,69.0,940.0,2172.0,156.57400108940686,34.5
1602674796.5021,69.0,940.0,2160.0,156.48697491106088,34.5
1602674796.5023,69.0,940.0,2138.0,156.3993078919318,34.5
1602674796.5026,69.0,940.0,2126.0,156.31111654852566,34.5
1602674796.5028,69.0,940.0,2114.0,156.2225173973484,34.5
1602674796.5029,69.0,940.0,2087.0,156.1336269549061,34.5
1602674796.5031,69.0,940.0,2060.0,156.04456173770478,34.5
1602674797.0318,69.0,940.0,2036.0,155.95543826225045,34.5
1602674797.0337,69.0,940.0,2026.0,155.86637304504913,34.5
1602674797.0354,69.0,940.0,2022.0,155.77748260260685,34.5
1602674797.0369,69.0,940.0,2000.0,155.68888345142963,34.5
1602674797.0379,69.0,940.0,1966.0,155.60069210802345,34.5
1602674797.0389,69.0,940.0,1944.0,155.51302508889435,34.5
1602674797.0398,69.0,940.0,1927.0,155.42599891054837,34.5
1602674797.0408,69.0,940.0,1907.0,155.33973008949152,34.5
1602674797.0418,69.0,940.0,1895.0,155.25433514222982,34.5
1602674797.0428,69.0,940.0,1878.0,155.1699305852693,34.5
1602674797.0438,69.0,940.0,1856.0,155.08663293511594,34.5
1602674797.0449,69.0,940.0,1839.0,155.0045587082758,34.5
1602674797.0459,69.0,940.0,1837.0,154.92382442125486,34.5
1602674797.0469,69.0,940.0,1829.0,154.8445465905592,34.5
1602674797.0477,69.0,940.0,1803.0,154.76684173269476,34.5
1602674797.0485,69.0,940.0,1766.0,154.69082636416763,34.5
1602674797.0491,69.0,940.0,1754.0,154.6166170014838,34.5
1602674797.0498,69.0,940.0,1754.0,154.5443301611493,34.5
1602674797.0505,69.0,940.0,1737.0,154.47408235967012,34.5
1602674797.0513,69.0,940.0,1722.0,154.40599011355232,34.5
1602674797.052,69.0,940.0,1730.0,154.3401699393019,34.5
1602674797.0527,69.0,940.0,1732.0,154.27673835342486,34.5
1602674797.0533,69.0,940.0,1708.0,154.21581187242728,34.5
1602674797.054,69.0,940.0,1686.0,154.1575070128151,34.5
1602674797.0547,69.0,940.0,1671.0,154.1019402910944,34.5
1602674797.0552,69.0,940.0,1637.0,154.04922822377117,34.5
1602674797.0558,69.0,940.0,1603.0,153.99948732735143,34.5
1602674797.0565,69.0,940.0,1601.0,153.95283411834123,34.5
1602674797.0571,69.0,940.0,1591.0,153.90938511324654,34.5
1602674797.0577,69.0,940.0,1554.0,153.8692568285734,34.5
1602674797.0582,69.0,940.0,1535.0,153.83256578082788,34.5
1602674797.0588,69.0,940.0,1535.0,153.79942848651592,34.5
1602674797.0592,69.0,940.0,1528.0,153.76996146214358,34.5
1602674797.0597,69.0,940.0,1508.0,153.74428122421688,34.5
1602674797.0601,69.0,940.0,1508.0,153.72250428924184,34.5
1602674797.0606,69.0,940.0,1593.0,153.70474717372446,34.5
1602674797.061,69.0,940.0,1803.0,153.6911263941708,34.5
1602674797.0614,69.0,940.0,2036.0,153.6817584670868,34.5
1602674797.0619,69.0,940.0,2073.0,153.67675990897857,34.5
1602674797.0623,69.0,940.0,1710.0,153.67624723635208,34.5
1602674797.0627,69.0,940.0,1211.0,153.68033696571337,34.5
1602674797.0632,69.0,940.0,1155.0,153.68914561356846,34.5
1602674797.0637,69.0,940.0,1374.0,153.70278969642334,34.5
1602674797.0641,69.0,940.0,1369.0,153.72138573078405,34.5
1602674797.0644,69.0,940.0,1294.0,153.7450502331566,34.5
1602674797.0648,69.0,940.0,1335.0,153.77389972004704,34.5
1602674797.0651,69.0,940.0,1350.0,153.80805070796137,34.5
1602674797.0655,69.0,940.0,1313.0,153.8476197134056,34.5
1602674797.0658,69.0,940.0,1313.0,153.89272325288576,34.5
1602674797.0662,69.0,940.0,1321.0,153.94347784290784,34.5
1602674797.0665,69.0,940.0,1294.0,153.99999999997792,34.5
1602674797.0669,69.0,940.0,1287.0,153.99999999997792,34.5
1602674797.0672,69.0,940.0,1299.0,153.99999999997792,34.5
1602674797.0676,69.0,940.0,1282.0,153.99999999997792,34.5
1602674797.0678,69.0,940.0,1272.0,153.99999999997792,34.5
1602674797.068,69.0,940.0,1287.0,153.99999999997792,34.5
1602674797.0683,69.0,940.0,1279.0,153.99999999997792,34.5
1602674797.0685,69.0,940.0,1253.0,153.99999999997792,34.5
1602674797.0687,69.0,940.0,1245.0,153.99999999997792,34.5
1602674797.0689,69.0,940.0,1253.0,153.99999999997792,34.5
1602674797.0692,69.0,940.0,1248.0,153.99999999997792,34.5
1602674797.0694,69.0,940.0,1245.0,153.99999999997792,34.5
1602674797.0696,69.0,940.0,1257.0,153.99999999997792,34.5
1602674797.0698,69.0,940.0,1265.0,153.99999999997792,34.5
1602674797.0701,69.0,940.0,1262.0,153.99999999997792,34.5
1602674797.0703,69.0,940.0,1265.0,153.99999999997792,34.5
1602674797.0706,69.0,940.0,1270.0,153.99999999997792,34.5
1602674797.0708,69.0,940.0,1265.0,153.99999999997792,34.5
1602674797.071,69.0,940.0,1270.0,153.99999999997792,34.5
1602674797.0712,69.0,940.0,1284.0,153.99999999997792,34.5
1602674797.0715,69.0,940.0,1282.0,153.99999999997792,34.5
1602674797.0717,69.0,940.0,1255.0,153.99999999997792,34.5
1602674797.0718,69.0,940.0,1216.0,153.99999999997792,34.5
1602674797.5719,69.0,973.0,1175.0,153.99999999997792,34.5
1602674797.5736,69.0,973.0,1121.0,153.99999999997792,34.5
1602674797.5752,69.0,973.0,1073.0,153.99999999997792,34.5
1602674797.5767,69.0,973.0,1029.0,153.99999999997792,34.5
1602674797.5781,69.0,973.0,983.0,153.99999999997792,34.5
1602674797.5791,69.0,973.0,961.0,153.99999999997792,34.5
1602674797.5801,69.0,973.0,956.0,153.99999999997792,34.5
1602674797.5811,69.0,973.0,944.0,153.99999999997792,34.5
1602674797.5821,69.0,973.0,931.0,153.99999999997792,34.5
1602674797.583,69.0,973.0,924.0,153.99999999997792,34.5
1602674797.584,69.0,973.0,922.0,153.99999999997792,34.5
1602674797.5852,69.0,973.0,917.0,153.99999999997792,34.5
1602674797.5863,69.0,973.0,912.0,153.99999999997792,34.5
1602674797.5873,69.0,973.0,912.0,153.99999999997792,34.5
1602674797.588,69.0,973.0,914.0,153.99999999997792,34.5
1602674797.5887,69.0,973.0,907.0,153.99999999997792,34.5
1602674797.5894,69.0,973.0,902.0,153.99999999997792,34.5
1602674797.59,69.0,973.0,905.0,153.99999999997792,34.5
1602674797.5907,69.0,973.0,910.0,153.99999999997792,34.5
1602674797.5914,69.0,973.0,907.0,153.99999999997792,34.5
1602674797.5925,69.0,973.0,897.0,153.99999999997792,34.5
1602674797.5932,69.0,973.0,885.0,153.99999999997792,34.5
1602674797.5939,69.0,973.0,875.0,153.99999999997792,34.5
1602674797.5946,69.0,973.0,868.0,154.04239161778048,34.5
1602674797.5953,69.0,973.0,866.0,154.08045756029705,34.5
1602674797.596,69.0,973.0,863.0,154.11428521490717,34.5
1602674797.5968,69.0,973.0,854.0,154.14396196899034,34.5
1602674797.5974,69.0,973.0,844.0,154.16957520992608,34.5
1602674797.5979,69.0,973.0,846.0,154.1912123250939,34.5
1602674797.5985,69.0,973.0,849.0,154.2089607018733,34.5
1602674797.5991,69.0,973.0,844.0,154.22290772764387,34.5
1602674797.5997,69.0,973.0,837.0,154.233140789785,34.5
1602674797.6003,69.0,973.0,829.0,154.23974727567634,34.5
1602674797.6008,69.0,973.0,820.0,154.24281457269728,34.5
1602674797.6012,69.0,973.0,815.0,154.24243006822743,34.5
1602674797.6016,69.0,973.0,805.0,154.23868114964625,34.5
1602674797.6019,69.0,973.0,805.0,154.2316552043333,34.5
1602674797.6023,69.0,973.0,810.0,154.22143961966802,34.5
1602674797.6026,69.0,973.0,805.0,154.20812178302998,34.5
1602674797.603,69.0,973.0,793.0,154.1917890817987,34.5
1602674797.6034,69.0,973.0,788.0,154.17252890335368,34.5
1602674797.6037,69.0,973.0,790.0,154.15042863507443,34.5
1602674797.6042,69.0,973.0,793.0,154.12557566434046,34.5
1602674797.6046,69.0,973.0,783.0,154.0980573785313,34.5
1602674797.6048,69.0,973.0,778.0,154.06796116502647,34.5
1602674797.605,69.0,973.0,778.0,154.03537441120545,34.5
1602674797.6053,69.0,973.0,768.0,154.0003845044478,34.5
1602674797.6055,69.0,973.0,761.0,153.963078832133,34.5
1602674797.6057,69.0,973.0,761.0,153.92354478164057,34.5
1602674797.6059,69.0,973.0,761.0,153.88186974035006,34.5
1602674797.6062,69.0,973.0,756.0,153.8381410956409,34.5
1602674797.6064,69.0,973.0,751.0,153.7924462348927,34.5
1602674797.6066,69.0,973.0,747.0,153.74487254548495,34.5
1602674797.6069,69.0,973.0,747.0,153.69550741479713,34.5
1602674797.6071,69.0,973.0,751.0,153.64443823020878,34.5
1602674797.6073,69.0,973.0,739.0,153.5917523790994,34.5
1602674797.6075,69.0,973.0,725.0,153.5375372488485,34.5
1602674797.6078,69.0,973.0,722.0,153.48188022683564,34.5
1602674797.608,69.0,973.0,725.0,153.4248687004403,34.5
1602674797.6082,69.0,973.0,717.0,153.36659005704198,34.5
1602674797.6085,69.0,973.0,715.0,153.30713168402022,34.5
1602674797.6087,69.0,973.0,717.0,153.24658096875453,34.5
1602674797.6089,69.0,973.0,710.0,153.18502529862442,34.5
1602674797.6091,69.0,973.0,703.0,153.12255206100943,34.5
1602674797.6093,69.0,973.0,700.0,153.059248643289,34.5
1602674797.6094,69.0,973.0,693.0,152.99520243284275,34.5
1602674797.6096,69.0,973.0,683.0,152.9305008170501,34.5
1602674797.6098,69.0,973.0,686.0,152.86523118329063,34.5
1602674797.61,69.0,973.0,686.0,152.7994809189438,34.5
1602674797.6101,69.0,973.0,674.0,152.7333374113892,34.5
1602674797.6103,69.0,973.0,666.0,152.66688804800626,34.5
1602674797.6105,69.0,973.0,671.0,152.60022021617453,34.5
1602674797.6106,69.0,973.0,676.0,152.53342130327354,34.5
1602674798.172,69.0,973.0,678.0,152.4665786966828,34.5
1602674798.1742,69.0,973.0,686.0,152.39977978378184,34.5
1602674798.1758,69.0,973.0,691.0,152.33311195195012,34.5
1602674798.1773,69.0,973.0,683.0,152.2666625885672,34.5
1602674798.1789,69.0,973.0,661.0,152.20051908101254,34.5
1602674798.18,69.0,973.0,639.0,152.13476881666574,34.5
1602674798.181,69.0,973.0,632.0,152.06949918290624,34.5
1602674798.182,69.0,973.0,625.0,152.00479756711363,34.5
1602674798.183,69.0,973.0,618.0,151.94075135666733,34.5
1602674798.1841,69.0,973.0,618.0,151.87744793894694,34.5
1602674798.1851,69.0,973.0,618.0,151.81497470133192,34.5
1602674798.1862,69.0,973.0,615.0,151.7534190312018,34.5
1602674798.1873,69.0,973.0,610.0,151.6928683159361,34.5
1602674798.188,69.0,973.0,610.0,151.63340994291434,34.5
1602674798.1888,69.0,973.0,601.0,151.57513129951604,34.5
1602674798.1897,69.0,973.0,622.0,151.51811977312067,34.5
1602674798.1905,69.0,973.0,761.0,151.4624627511078,34.5
1602674798.1912,69.0,973.0,1009.0,151.40824762085694,34.5
1602674798.1919,69.0,973.0,1199.0,151.35556176974757,34.5
1602674798.1925,69.0,973.0,1107.0,151.3044925851592,34.5
1602674798.1934,69.0,973.0,652.0,151.2551274544714,34.5
1602674798.194,69.0,973.0,289.0,151.2075537650636,34.5
1602674798.1946,69.0,973.0,418.0,151.1618589043154,34.5
1602674798.1952,69.0,973.0,593.0,151.1181302596063,34.5
1602674798.1957,69.0,973.0,510.0,151.07645521831574,34.5
1602674798.1963,69.0,973.0,479.0,151.03692116782332,34.5
1602674798.1968,69.0,973.0,532.0,150.99961549550852,34.5
1602674798.1973,69.0,973.0,525.0,150.96462558875086,34.5
1602674798.1978,69.0,973.0,508.0,150.93203883492987,34.5
1602674798.1982,69.0,973.0,528.0,150.90194262142504,34.5
1602674798.1987,69.0,973.0,535.0,150.87442433561586,34.5
1602674798.1992,69.0,973.0,530.0,150.8495713648819,34.5
1602674798.1996,69.0,973.0,535.0,150.82747109660264,34.5
1602674798.2001,69.0,973.0,542.0,150.8082109181576,34.5
1602674798.2006,69.0,973.0,545.0,150.79187821692634,34.5
1602674798.201,69.0,973.0,552.0,150.7785603802883,34.5
1602674798.2012,69.0,973.0,549.0,150.76834479562305,34.5
1602674798.2015,69.0,973.0,547.0,150.76131885031006,34.5
1602674798.2017,69.0,973.0,552.0,150.75756993172888,34.5
1602674798.2019,69.0,973.0,557.0,150.75718542725903,34.5
1602674798.2022,69.0,973.0,562.0,150.76025272427998,34.5
1602674798.2024,69.0,973.0,569.0,150.7668592101713,34.5
1602674798.2026,69.0,973.0,576.0,150.77709227231244,34.5
1602674798.2028,69.0,973.0,586.0,150.79103929808298,34.5
1602674798.2031,69.0,973.0,598.0,150.8087876748624,34.5
1602674798.2033,69.0,973.0,608.0,150.83042479003024,34.5
1602674798.2035,69.0,973.0,613.0,150.85603803096598,34.5
1602674798.2038,69.0,973.0,620.0,150.88571478504915,34.5
1602674798.204,69.0,973.0,635.0,150.91954243965927,34.5
1602674798.2042,69.0,973.0,649.0,150.95760838217583,34.5
1602674798.2044,69.0,973.0,647.0,150.9999999999784,34.5
1602674798.2047,69.0,973.0,637.0,150.9999999999784,34.5
1602674798.2049,69.0,973.0,622.0,150.9999999999784,34.5
1602674798.2051,69.0,973.0,591.0,150.9999999999784,34.5
1602674798.2052,69.0,973.0,547.0,150.9999999999784,34.5
1602674798.2054,69.0,973.0,501.0,150.9999999999784,34.5
1602674798.2056,69.0,973.0,459.0,150.9999999999784,34.5
1602674798.2058,69.0,973.0,428.0,150.9999999999784,34.5
1602674798.2059,69.0,973.0,406.0,150.9999999999784,34.5
1602674798.2061,69.0,973.0,394.0,150.9999999999784,34.5
1602674798.2063,69.0,973.0,394.0,150.9999999999784,34.5
1602674798.2064,69.0,973.0,399.0,150.9999999999784,34.5
1602674798.2066,69.0,973.0,396.0,150.9999999999784,34.5
1602674798.2068,69.0,973.0,386.0,150.9999999999784,34.5
1602674798.2069,69.0,973.0,391.0,150.9999999999784,34.5
1602674798.2071,69.0,973.0,401.0,150.9999999999784,34.5
1602674798.2073,69.0,973.0,406.0,150.9999999999784,34.5
1602674798.2075,69.0,973.0,408.0,150.9999999999784,34.5
1602674798.2076,69.0,973.0,413.0,150.9999999999784,34.5
1602674798.2078,69.0,973.0,416.0,150.9999999999784,34.5
1602674798.208,69.0,973.0,406.0,150.9999999999784,34.5
1602674798.2082,69.0,973.0,411.0,150.9999999999784,34.5
1602674798.2084,69.0,973.0,420.0,150.9999999999784,34.5
1602674798.7418,69.0,923.0,423.0,150.9999999999784,34.5
1602674798.7437,69.0,923.0,425.0,150.9999999999784,34.5
1602674798.7452,69.0,923.0,425.0,150.9999999999784,34.5
1602674798.7467,69.0,923.0,418.0,150.9999999999784,34.5
1602674798.7481,69.0,923.0,420.0,150.9999999999784,34.5
1602674798.7496,69.0,923.0,430.0,150.9999999999784,34.5
1602674798.7507,69.0,923.0,420.0,150.9999999999784,34.5
1602674798.7518,69.0,923.0,396.0,150.9999999999784,34.5
1602674798.753,69.0,923.0,394.0,150.9999999999784,34.5
1602674798.754,69.0,923.0,401.0,150.9999999999784,34.5
1602674798.7551,69.0,923.0,394.0,150.9999999999784,34.5
1602674798.7562,69.0,923.0,394.0,150.9999999999784,34.5
1602674798.7573,69.0,923.0,403.0,150.9999999999784,34.5
1602674798.7583,69.0,923.0,399.0,150.9999999999784,34.5
1602674798.7591,69.0,923.0,389.0,150.9999999999784,34.5
1602674798.7598,69.0,923.0,389.0,150.9999999999784,34.5
1602674798.7605,69.0,923.0,391.0,150.9999999999784,34.5
1602674798.7612,69.0,923.0,391.0,150.9999999999784,34.5
1602674798.7619,69.0,923.0,396.0,150.9999999999784,34.5
1602674798.7626,69.0,923.0,396.0,150.9999999999784,34.5
1602674798.7631,69.0,923.0,394.0,150.9999999999784,34.5
1602674798.7637,69.0,923.0,391.0,150.9999999999784,34.5
1602674798.7642,69.0,923.0,399.0,150.9999999999784,34.5
1602674798.7648,69.0,923.0,406.0,151.02826107851342,34.5
1602674798.7653,69.0,923.0,403.0,151.05363837352448,34.5
1602674798.7658,69.0,923.0,399.0,151.07619014326454,34.5
1602674798.7664,69.0,923.0,399.0,151.09597464598667,34.5
1602674798.767,69.0,923.0,396.0,151.11305013994382,34.5
1602674798.7675,69.0,923.0,394.0,151.12747488338903,34.5
1602674798.7679,69.0,923.0,399.0,151.13930713457532,34.5
1602674798.7684,69.0,923.0,399.0,151.14860515175567,34.5
1602674798.7689,69.0,923.0,399.0,151.15542719318313,34.5
1602674798.7694,69.0,923.0,401.0,151.15983151711066,34.5
1602674798.7698,69.0,923.0,399.0,151.1618763817913,34.5
1602674798.7703,69.0,923.0,399.0,151.16162004547806,34.5
1602674798.7707,69.0,923.0,396.0,151.15912076642394,34.5
1602674798.7711,69.0,923.0,396.0,151.15443680288197,34.5
1602674798.7716,69.0,923.0,399.0,151.14762641310512,34.5
1602674798.7718,69.0,923.0,401.0,151.13874785534642,34.5
1602674798.7721,69.0,923.0,394.0,151.1278593878589,34.5
1602674798.7723,69.0,923.0,386.0,151.11501926889557,34.5
1602674798.7725,69.0,923.0,386.0,151.10028575670938,34.5
1602674798.7727,69.0,923.0,394.0,151.08371710955342,34.5
1602674798.773,69.0,923.0,394.0,151.06537158568065,34.5
1602674798.7732,69.0,923.0,389.0,151.0453074433441,34.5
1602674798.7734,69.0,923.0,386.0,151.02358294079676,34.5
1602674798.7737,69.0,923.0,384.0,151.00025633629164,34.5
1602674798.7739,69.0,923.0,382.0,150.97538588808177,34.5
1602674798.7741,69.0,923.0,389.0,150.94902985442016,34.5
1602674798.7744,69.0,923.0,399.0,150.9212464935598,34.5
1602674798.7747,69.0,923.0,399.0,150.89209406375372,34.5
1602674798.7749,69.0,923.0,399.0,150.86163082325493,34.5
1602674798.7751,69.0,923.0,399.0,150.8299150303164,34.5
1602674798.7754,69.0,923.0,384.0,150.79700494319118,34.5
1602674798.7756,69.0,923.0,369.0,150.7629588201323,34.5
1602674798.7758,69.0,923.0,367.0,150.7278349193927,34.5
1602674798.7759,69.0,923.0,364.0,150.69169149922544,34.5
1602674798.7761,69.0,923.0,360.0,150.65458681788354,34.5
1602674798.7763,69.0,923.0,364.0,150.61657913361995,34.5
1602674798.7764,69.0,923.0,369.0,150.57772670468776,34.5
1602674798.7766,69.0,923.0,372.0,150.53808778933993,34.5
1602674798.7768,69.0,923.0,367.0,150.49772064582945,34.5
1602674798.7769,69.0,923.0,369.0,150.4566835324094,34.5
1602674798.7771,69.0,923.0,418.0,150.4150347073327,34.5
1602674798.7773,69.0,923.0,581.0,150.37283242885243,34.5
1602674798.7775,69.0,923.0,841.0,150.33013495522158,34.5
1602674798.7776,69.0,923.0,1017.0,150.28700054469314,34.5
1602674798.7778,69.0,923.0,839.0,150.24348745552015,34.5
1602674798.778,69.0,923.0,316.0,150.19965394595562,34.5
1602674798.7781,69.0,923.0,38.0,150.1555582742525,34.5
1602674798.7783,69.0,923.0,245.0,150.11125869866387,34.5
1602674798.7785,69.0,923.0,364.0,150.06681347744274,34.5
1602674798.7787,69.0,923.0,260.0,150.02228086884207,34.5
1602674799.281,69.0,923.0,272.0,149.97771913111492,34.5
1602674799.2819,69.0,923.0,333.0,149.93318652251426,34.5
1602674799.2824,69.0,923.0,309.0,149.88874130129312,34.5
1602674799.2829,69.0,923.0,296.0,149.8444417257045,34.5
1602674799.2834,69.0,923.0,316.0,149.80034605400144,34.5
1602674799.2839,69.0,923.0,313.0,149.7565125444369,34.5
1602674799.2846,69.0,923.0,311.0,149.7129994552639,34.5
1602674799.2852,69.0,923.0,321.0,149.66986504473547,34.5
1602674799.2857,69.0,923.0,326.0,149.62716757110462,34.5
1602674799.2862,69.0,923.0,326.0,149.58496529262436,34.5
1602674799.2867,69.0,923.0,328.0,149.5433164675477,34.5
1602674799.2872,69.0,923.0,330.0,149.5022793541276,34.5
1602674799.2878,69.0,923.0,338.0,149.46191221061716,34.5
1602674799.2884,69.0,923.0,345.0,149.4222732952693,34.5
1602674799.2889,69.0,923.0,347.0,149.38342086633708,34.5
1602674799.2894,69.0,923.0,355.0,149.34541318207351,34.5
1602674799.2899,69.0,923.0,364.0,149.3083085007316,34.5
1602674799.2905,69.0,923.0,372.0,149.27216508056435,34.5
1602674799.291,69.0,923.0,382.0,149.23704117982476,34.5
1602674799.2915,69.0,923.0,396.0,149.20299505676587,34.5
1602674799.292,69.0,923.0,411.0,149.17008496964064,34.5
1602674799.2925,69.0,923.0,425.0,149.13836917670213,34.5
1602674799.293,69.0,923.0,440.0,149.10790593620334,34.5
1602674799.2935,69.0,923.0,455.0,149.10701458493227,34.5
1602674799.294,69.0,923.0,467.0,149.10460851908297,34.5
1602674799.2946,69.0,923.0,469.0,149.10080425516145,34.5
1602674799.295,69.0,923.0,462.0,149.09571830967369,34.5
1602674799.2955,69.0,923.0,445.0,149.08946719912575,34.5
1602674799.2958,69.0,923.0,416.0,149.08216744002362,34.5
1602674799.2962,69.0,923.0,367.0,149.07393554887335,34.5
1602674799.2965,69.0,923.0,316.0,149.06488804218094,34.5
1602674799.2969,69.0,923.0,274.0,149.0551414364524,34.5
1602674799.2972,69.0,923.0,245.0,149.04481224819378,34.5
1602674799.2976,69.0,923.0,226.0,149.03401699391105,34.5
1602674799.2979,69.0,923.0,214.0,149.0228721901103,34.5
1602674799.2983,69.0,923.0,214.0,149.01149435329748,34.5
1602674799.2986,69.0,923.0,214.0,148.99999999997866,34.5
1602674799.2988,69.0,923.0,211.0,148.98850564665983,34.5
1602674799.299,69.0,923.0,214.0,148.97712780984702,34.5
1602674799.2992,69.0,923.0,221.0,148.96598300604626,34.5
1602674799.2995,69.0,923.0,226.0,148.95518775176356,34.5
1602674799.2997,69.0,923.0,226.0,148.9448585635049,34.5
1602674799.2999,69.0,923.0,233.0,148.9351119577764,34.5
1602674799.3001,69.0,923.0,243.0,148.92606445108396,34.5
1602674799.3004,69.0,923.0,243.0,148.9178325599337,34.5
1602674799.3006,69.0,923.0,243.0,148.91053280083156,34.5
1602674799.3008,69.0,923.0,248.0,148.90428169028363,34.5
1602674799.301,69.0,923.0,257.0,148.89919574479586,34.5
1602674799.3013,69.0,923.0,262.0,148.89539148087434,34.5
1602674799.3015,69.0,923.0,260.0,148.89298541502504,34.5
1602674799.3017,69.0,923.0,260.0,148.89209406375397,34.5
1602674799.302,69.0,923.0,272.0,148.86163082325518,34.5
1602674799.3022,69.0,923.0,274.0,148.82991503031667,34.5
1602674799.3024,69.0,923.0,267.0,148.79700494319144,34.5
1602674799.3026,69.0,923.0,262.0,148.76295882013255,34.5
1602674799.3028,69.0,923.0,265.0,148.72783491939296,34.5
1602674799.303,69.0,923.0,267.0,148.6916914992257,34.5
1602674799.3031,69.0,923.0,267.0,148.6545868178838,34.5
1602674799.3033,69.0,923.0,270.0,148.61657913362023,34.5
1602674799.3035,69.0,923.0,270.0,148.57772670468802,34.5
1602674799.3036,69.0,923.0,267.0,148.53808778934018,34.5
1602674799.3038,69.0,923.0,265.0,148.49772064582973,34.5
1602674799.304,69.0,923.0,267.0,148.45668353240967,34.5
1602674799.3041,69.0,923.0,272.0,148.41503470733298,34.5
1602674799.3043,69.0,923.0,267.0,148.37283242885272,34.5
1602674799.3045,69.0,923.0,260.0,148.33013495522187,34.5
1602674799.3047,69.0,923.0,262.0,148.28700054469343,34.5
1602674799.3048,69.0,923.0,270.0,148.24348745552044,34.5
1602674799.305,69.0,923.0,267.0,148.1996539459559,34.5
1602674799.3052,69.0,923.0,255.0,148.15555827425283,34.5
1602674799.3053,69.0,923.0,255.0,148.11125869866422,34.5
1602674799.3055,69.0,923.0,265.0,148.06681347744308,34.5
1602674799.3057,69.0,923.0,265.0,148.02228086884242,34.5
1602674799.8514,68.0,971.0,260.0,147.97771913111524,34.5
1602674799.8533,68.0,971.0,267.0,147.93318652251457,34.5
1602674799.8549,68.0,971.0,272.0,147.8887413012934,34.5
1602674799.8564,68.0,971.0,270.0,147.84444172570477,34.5
1602674799.8579,68.0,971.0,270.0,147.8003460540017,34.5
1602674799.8592,68.0,971.0,272.0,147.75651254443713,34.5
1602674799.8604,68.0,971.0,270.0,147.71299945526414,34.5
1602674799.8616,68.0,971.0,262.0,147.66986504473573,34.5
1602674799.8626,68.0,971.0,257.0,147.62716757110488,34.5
1602674799.8637,68.0,971.0,262.0,147.58496529262464,34.5
1602674799.8648,68.0,971.0,267.0,147.54331646754795,34.5
1602674799.8659,68.0,971.0,262.0,147.5022793541279,34.5
1602674799.8669,68.0,971.0,262.0,147.4619122106174,34.5
1602674799.8677,68.0,971.0,267.0,147.42227329526958,34.5
1602674799.8684,68.0,971.0,270.0,147.3834208663374,34.5
1602674799.8692,68.0,971.0,262.0,147.3454131820738,34.5
1602674799.8701,68.0,971.0,260.0,147.3083085007319,34.5
1602674799.8709,68.0,971.0,267.0,147.27216508056463,34.5
1602674799.8716,68.0,971.0,272.0,147.23704117982507,34.5
1602674799.8721,68.0,971.0,267.0,147.20299505676616,34.5
1602674799.8726,68.0,971.0,265.0,147.17008496964095,34.5
1602674799.873,68.0,971.0,270.0,147.13836917670244,34.5
1602674799.8735,68.0,971.0,274.0,147.10790593620362,34.5
1602674799.8739,68.0,971.0,277.0,147.10701458493259,34.5
1602674799.8744,68.0,971.0,289.0,147.10460851908329,34.5
1602674799.8748,68.0,971.0,299.0,147.10080425516173,34.5
1602674799.8753,68.0,971.0,294.0,147.095718309674,34.5
1602674799.8758,68.0,971.0,284.0,147.08946719912603,34.5
1602674799.8763,68.0,971.0,267.0,147.08216744002394,34.5
1602674799.8766,68.0,971.0,255.0,147.07393554887364,34.5
1602674799.8769,68.0,971.0,253.0,147.06488804218122,34.5
1602674799.8771,68.0,971.0,253.0,147.0551414364527,34.5
1602674799.8773,68.0,971.0,257.0,147.04481224819406,34.5
1602674799.8776,68.0,971.0,257.0,147.03401699391137,34.5
1602674799.8778,68.0,971.0,255.0,147.0228721901106,34.5
1602674799.8781,68.0,971.0,257.0,147.0114943532978,34.5
1602674799.8783,68.0,971.0,260.0,146.99999999997897,34.5
1602674799.8785,68.0,971.0,267.0,146.98850564666014,34.5
1602674799.8788,68.0,971.0,338.0,146.97712780984733,34.5
1602674799.879,68.0,971.0,545.0,146.96598300604657,34.5
1602674799.8792,68.0,971.0,805.0,146.95518775176387,34.5
1602674799.8795,68.0,971.0,905.0,146.94485856350522,34.5
1602674799.8797,68.0,971.0,618.0,146.93511195777668,34.5
1602674799.8799,68.0,971.0,102.0,146.92606445108427,34.5
1602674799.8802,68.0,971.0,-31.0,146.917832559934,34.5
1602674799.8803,68.0,971.0,204.0,146.91053280083187,34.5
1602674799.8805,68.0,971.0,250.0,146.90428169028394,34.5
1602674799.8807,68.0,971.0,165.0,146.89919574479617,34.5
1602674799.8809,68.0,971.0,204.0,146.89539148087462,34.5
1602674799.881,68.0,971.0,238.0,146.89298541502532,34.5
1602674799.8812,68.0,971.0,211.0,146.89209406375429,34.5
1602674799.8814,68.0,971.0,221.0,146.86163082325547,34.5
1602674799.8816,68.0,971.0,240.0,146.82991503031695,34.5
1602674799.8817,68.0,971.0,236.0,146.79700494319175,34.5
1602674799.8819,68.0,971.0,233.0,146.76295882013284,34.5
1602674799.8821,68.0,971.0,243.0,146.72783491939327,34.5
1602674799.8823,68.0,971.0,245.0,146.691691499226,34.5
1602674799.8825,68.0,971.0,240.0,146.6545868178841,34.5
1602674799.8827,68.0,971.0,243.0,146.61657913362052,34.5
1602674799.8828,68.0,971.0,248.0,146.57772670468833,34.5
1602674799.883,68.0,971.0,248.0,146.5380877893405,34.5
1602674799.8832,68.0,971.0,250.0,146.49772064583001,34.5
1602674799.8834,68.0,971.0,260.0,146.45668353240995,34.5
1602674799.8835,68.0,971.0,272.0,146.41503470733326,34.5
1602674799.8837,68.0,971.0,282.0,146.372832428853,34.5
1602674799.8839,68.0,971.0,291.0,146.33013495522215,34.5
1602674799.8841,68.0,971.0,299.0,146.2870005446937,34.5
1602674799.8842,68.0,971.0,313.0,146.24348745552072,34.5
1602674799.8844,68.0,971.0,328.0,146.1996539459562,34.5
1602674799.8846,68.0,971.0,340.0,146.15555827425308,34.5
1602674799.8848,68.0,971.0,347.0,146.11125869866447,34.5
1602674799.8849,68.0,971.0,360.0,146.06681347744333,34.5
1602674799.8851,68.0,971.0,369.0,146.02228086884267,34.5
1602674800.3914,68.0,971.0,369.0,145.9777191311155,34.5
1602674800.3932,68.0,971.0,367.0,145.93318652251483,34.5
1602674800.395,68.0,971.0,355.0,145.8887413012937,34.5
1602674800.3967,68.0,971.0,326.0,145.84444172570508,34.5
1602674800.3982,68.0,971.0,279.0,145.80034605400198,34.5
1602674800.3998,68.0,971.0,226.0,145.75651254443744,34.5
1602674800.4008,68.0,971.0,187.0,145.71299945526445,34.5
1602674800.4019,68.0,971.0,165.0,145.66986504473604,34.5
1602674800.403,68.0,971.0,145.0,145.6271675711052,34.5
1602674800.404,68.0,971.0,128.0,145.5849652926249,34.5
1602674800.4047,68.0,971.0,126.0,145.54331646754824,34.5
1602674800.4055,68.0,971.0,133.0,145.50227935412815,34.5
1602674800.4062,68.0,971.0,136.0,145.4619122106177,34.5
1602674800.407,68.0,971.0,141.0,145.42227329526983,34.5
1602674800.4077,68.0,971.0,150.0,145.38342086633762,34.5
1602674800.4084,68.0,971.0,158.0,145.34541318207405,34.5
1602674800.409,68.0,971.0,160.0,145.30830850073215,34.5
1602674800.4095,68.0,971.0,163.0,145.2721650805649,34.5
1602674800.4101,68.0,971.0,165.0,145.2370411798253,34.5
1602674800.4107,68.0,971.0,170.0,145.2029950567664,34.5
1602674800.4112,68.0,971.0,170.0,145.17008496964118,34.5
1602674800.4119,68.0,971.0,172.0,145.1383691767027,34.5
1602674800.4124,68.0,971.0,180.0,145.10790593620388,34.5
1602674800.413,68.0,971.0,184.0,145.0787535063978,34.5
1602674800.4134,68.0,971.0,187.0,145.05097014553743,34.5
1602674800.4138,68.0,971.0,189.0,145.02461411187582,34.5
1602674800.4141,68.0,971.0,192.0,144.99974366366595,34.5
1602674800.4145,68.0,971.0,194.0,144.97641705916087,34.5
1602674800.4148,68.0,971.0,194.0,144.9546925566135,34.5
1602674800.4152,68.0,971.0,192.0,144.93462841427694,34.5
1602674800.4156,68.0,971.0,197.0,144.91628289040418,34.5
1602674800.4159,68.0,971.0,199.0,144.8997142432482,34.5
1602674800.4163,68.0,971.0,201.0,144.88498073106203,34.5
1602674800.4167,68.0,971.0,201.0,144.8721406120987,34.5
1602674800.4171,68.0,971.0,199.0,144.86125214461117,34.5
1602674800.4173,68.0,971.0,197.0,144.85237358685248,34.5
1602674800.4175,68.0,971.0,199.0,144.84556319707562,34.5
1602674800.4178,68.0,971.0,204.0,144.84087923353366,34.5
1602674800.418,68.0,971.0,206.0,144.83837995447954,34.5
1602674800.4182,68.0,971.0,204.0,144.8381236181663,34.5
1602674800.4185,68.0,971.0,206.0,144.84016848284693,34.5
1602674800.4187,68.0,971.0,211.0,144.84457280677447,34.5
1602674800.419,68.0,971.0,211.0,144.85139484820192,34.5
1602674800.4192,68.0,971.0,206.0,144.86069286538228,34.5
1602674800.4194,68.0,971.0,211.0,144.87252511656854,34.5
1602674800.4197,68.0,971.0,216.0,144.88694986001377,34.5
1602674800.4199,68.0,971.0,214.0,144.90402535397092,34.5
1602674800.4201,68.0,971.0,211.0,144.92380985669305,34.5
1602674800.4204,68.0,971.0,214.0,144.94636162643312,34.5
1602674800.4206,68.0,971.0,211.0,144.97173892144417,34.5
1602674800.4208,68.0,971.0,199.0,144.9999999999792,34.5
1602674800.4211,68.0,971.0,194.0,144.9999999999792,34.5
1602674800.4212,68.0,971.0,197.0,144.9999999999792,34.5
1602674800.4214,68.0,971.0,197.0,144.9999999999792,34.5
1602674800.4216,68.0,971.0,197.0,144.9999999999792,34.5
1602674800.4218,68.0,971.0,201.0,144.9999999999792,34.5
1602674800.4219,68.0,971.0,204.0,144.9999999999792,34.5
1602674800.4221,68.0,971.0,206.0,144.9999999999792,34.5
1602674800.4223,68.0,971.0,206.0,144.9999999999792,34.5
1602674800.4225,68.0,971.0,204.0,144.9999999999792,34.5
1602674800.4226,68.0,971.0,206.0,144.9999999999792,34.5
1602674800.4228,68.0,971.0,211.0,144.9999999999792,34.5
1602674800.423,68.0,971.0,211.0,144.9999999999792,34.5
1602674800.4232,68.0,971.0,209.0,144.9999999999792,34.5
1602674800.4233,68.0,971.0,214.0,144.9999999999792,34.5
1602674800.4236,68.0,971.0,214.0,144.9999999999792,34.5
1602674800.4238,68.0,971.0,211.0,144.9999999999792,34.5
1602674800.4239,68.0,971.0,211.0,144.9999999999792,34.5
1602674800.4241,68.0,971.0,216.0,144.9999999999792,34.5
1602674800.4243,68.0,971.0,221.0,144.9999999999792,34.5
1602674800.4244,68.0,971.0,216.0,144.9999999999792,34.5
1602674800.4246,68.0,971.0,211.0,144.9999999999792,34.5
1602674800.4247,68.0,971.0,221.0,144.9999999999792,34.5
1602674800.9618,68.0,998.0,236.0,144.9999999999792,34.5
1602674800.9637,68.0,998.0,240.0,144.9999999999792,34.5
1602674800.9652,68.0,998.0,243.0,144.9999999999792,34.5
1602674800.9666,68.0,998.0,243.0,144.9999999999792,34.5
1602674800.9681,68.0,998.0,226.0,144.9999999999792,34.5
1602674800.9695,68.0,998.0,204.0,144.9999999999792,34.5
1602674800.9705,68.0,998.0,194.0,144.9999999999792,34.5
1602674800.9715,68.0,998.0,189.0,144.9999999999792,34.5
1602674800.9724,68.0,998.0,192.0,144.9999999999792,34.5
1602674800.9733,68.0,998.0,194.0,144.9999999999792,34.5
1602674800.9743,68.0,998.0,192.0,144.9999999999792,34.5
1602674800.9753,68.0,998.0,197.0,144.9999999999792,34.5
1602674800.9766,68.0,998.0,201.0,144.9999999999792,34.5
1602674800.9776,68.0,998.0,194.0,144.9999999999792,34.5
1602674800.9786,68.0,998.0,223.0,144.9999999999792,34.5
1602674800.9794,68.0,998.0,377.0,144.9999999999792,34.5
1602674800.9802,68.0,998.0,632.0,144.9999999999792,34.5
1602674800.9809,68.0,998.0,824.0,144.9999999999792,34.5
1602674800.9817,68.0,998.0,729.0,144.9999999999792,34.5
1602674800.9823,68.0,998.0,270.0,144.9999999999792,34.5
1602674800.983,68.0,998.0,-94.0,144.9999999999792,34.5
1602674800.9837,68.0,998.0,38.0,144.9999999999792,34.5
1602674800.9843,68.0,998.0,211.0,144.9999999999792,34.5
1602674800.985,68.0,998.0,143.0,145.02826107851425,34.5
1602674800.9857,68.0,998.0,124.0,145.0536383735253,34.5
1602674800.9865,68.0,998.0,177.0,145.07619014326536,34.5
1602674800.9872,68.0,998.0,170.0,145.09597464598747,34.5
1602674800.9877,68.0,998.0,155.0,145.11305013994465,34.5
1602674800.9882,68.0,998.0,172.0,145.12747488338985,34.5
1602674800.9888,68.0,998.0,180.0,145.13930713457614,34.5
1602674800.9893,68.0,998.0,182.0,145.1486051517565,34.5
1602674800.9898,68.0,998.0,192.0,145.15542719318393,34.5
1602674800.9904,68.0,998.0,197.0,145.15983151711148,34.5
1602674800.9909,68.0,998.0,197.0,145.16187638179213,34.5
1602674800.9914,68.0,998.0,204.0,145.16162004547888,34.5
1602674800.9919,68.0,998.0,211.0,145.15912076642476,34.5
1602674800.9924,68.0,998.0,214.0,145.15443680288277,34.5
1602674800.993,68.0,998.0,218.0,145.14762641310594,34.5
1602674800.9935,68.0,998.0,226.0,145.13874785534725,34.5
1602674800.994,68.0,998.0,233.0,145.12785938785973,34.5
1602674800.9945,68.0,998.0,240.0,145.11501926889636,34.5
1602674800.995,68.0,998.0,250.0,145.1002857567102,34.5
1602674800.9955,68.0,998.0,255.0,145.08371710955421,34.5
1602674800.996,68.0,998.0,260.0,145.06537158568145,34.5
1602674800.9964,68.0,998.0,267.0,145.04530744334488,34.5
1602674800.9968,68.0,998.0,279.0,145.02358294079755,34.5
1602674800.9972,68.0,998.0,291.0,145.00025633629244,34.5
1602674800.9977,68.0,998.0,306.0,144.97538588808257,34.5
1602674800.9981,68.0,998.0,321.0,144.94902985442096,34.5
1602674800.9986,68.0,998.0,323.0,144.9212464935606,34.5
1602674800.999,68.0,998.0,321.0,144.89209406375454,34.5
1602674800.9994,68.0,998.0,313.0,144.86163082325572,34.5
1602674800.9998,68.0,998.0,287.0,144.8299150303172,34.5
1602674801.0004,68.0,998.0,245.0,144.797004943192,34.5
1602674801.0007,68.0,998.0,204.0,144.7629588201331,34.5
1602674801.0011,68.0,998.0,163.0,144.7278349193935,34.5
1602674801.0014,68.0,998.0,126.0,144.69169149922627,34.5
1602674801.0018,68.0,998.0,107.0,144.65458681788434,34.5
1602674801.0021,68.0,998.0,97.0,144.61657913362077,34.5
1602674801.0025,68.0,998.0,94.0,144.57772670468856,34.5
1602674801.0029,68.0,998.0,97.0,144.53808778934072,34.5
1602674801.0032,68.0,998.0,99.0,144.49772064583027,34.5
1602674801.0035,68.0,998.0,107.0,144.4566835324102,34.5
1602674801.0041,68.0,998.0,109.0,144.41503470733355,34.5
1602674801.0045,68.0,998.0,111.0,144.3728324288533,34.5
1602674801.0049,68.0,998.0,119.0,144.33013495522243,34.5
1602674801.0052,68.0,998.0,128.0,144.287000544694,34.5
1602674801.0056,68.0,998.0,131.0,144.243487455521,34.5
1602674801.0059,68.0,998.0,133.0,144.19965394595647,34.5
1602674801.0062,68.0,998.0,138.0,144.15555827425337,34.5
1602674801.0066,68.0,998.0,143.0,144.11125869866476,34.5
1602674801.0069,68.0,998.0,148.0,144.06681347744362,34.5
1602674801.0073,68.0,998.0,150.0,144.02228086884296,34.5
1602674801.5613,67.0,952.0,145.0,143.97771913111578,34.5
1602674801.5629,67.0,952.0,145.0,143.93318652251511,34.5
1602674801.5645,67.0,952.0,150.0,143.88874130129395,34.5
1602674801.5659,67.0,952.0,148.0,143.84444172570537,34.5
1602674801.5673,67.0,952.0,148.0,143.8003460540023,34.5
1602674801.5683,67.0,952.0,153.0,143.75651254443775,34.5
1602674801.5693,67.0,952.0,153.0,143.71299945526474,34.5
1602674801.5703,67.0,952.0,145.0,143.66986504473633,34.5
1602674801.5713,67.0,952.0,145.0,143.62716757110545,34.5
1602674801.5722,67.0,952.0,153.0,143.58496529262518,34.5
1602674801.5731,67.0,952.0,155.0,143.54331646754852,34.5
1602674801.5741,67.0,952.0,155.0,143.50227935412843,34.5
1602674801.5751,67.0,952.0,155.0,143.46191221061795,34.5
1602674801.576,67.0,952.0,153.0,143.42227329527012,34.5
1602674801.5769,67.0,952.0,155.0,143.38342086633796,34.5
1602674801.5777,67.0,952.0,155.0,143.34541318207434,34.5
1602674801.5784,67.0,952.0,158.0,143.30830850073247,34.5
1602674801.579,67.0,952.0,163.0,143.2721650805652,34.5
1602674801.5797,67.0,952.0,165.0,143.23704117982564,34.5
1602674801.5804,67.0,952.0,165.0,143.2029950567667,34.5
1602674801.581,67.0,952.0,165.0,143.17008496964152,34.5
1602674801.5817,67.0,952.0,165.0,143.13836917670298,34.5
1602674801.5823,67.0,952.0,165.0,143.10790593620416,34.5
1602674801.583,67.0,952.0,167.0,143.12114512420064,34.5
1602674801.5837,67.0,952.0,172.0,143.13142770585685,34.5
1602674801.5843,67.0,952.0,175.0,143.1388993268054,34.5
1602674801.585,67.0,952.0,172.0,143.14370563267866,34.5
1602674801.5857,67.0,952.0,175.0,143.1459922691093,34.5
1602674801.5863,67.0,952.0,177.0,143.14590488172982,34.5
1602674801.5869,67.0,952.0,175.0,143.14358911617265,34.5
1602674801.5874,67.0,952.0,172.0,143.13919061807044,34.5
1602674801.588,67.0,952.0,172.0,143.13285503305562,34.5
1602674801.5886,67.0,952.0,172.0,143.12472800676076,34.5
1602674801.5891,67.0,952.0,170.0,143.11495518481834,34.5
1602674801.5897,67.0,952.0,167.0,143.103682212861,34.5
1602674801.5902,67.0,952.0,165.0,143.0910547365211,34.5
1602674801.5907,67.0,952.0,165.0,143.07721840143128,34.5
1602674801.5912,67.0,952.0,160.0,143.06231885322407,34.5
1602674801.5918,67.0,952.0,160.0,143.04650173753188,34.5
1602674801.5923,67.0,952.0,163.0,143.02991269998736,34.5
1602674801.5928,67.0,952.0,160.0,143.01269738622298,34.5
1602674801.5935,67.0,952.0,163.0,142.99500144187127,34.5
1602674801.594,67.0,952.0,165.0,142.97697051256475,34.5
1602674801.5946,67.0,952.0,170.0,142.95875024393595,34.5
1602674801.5951,67.0,952.0,170.0,142.9404862816174,34.5
1602674801.5955,67.0,952.0,167.0,142.9223242712416,34.5
1602674801.596,67.0,952.0,175.0,142.90440985844108,34.5
1602674801.5964,67.0,952.0,189.0,142.88688868884842,34.5
1602674801.5969,67.0,952.0,201.0,142.86990640809606,34.5
1602674801.5973,67.0,952.0,199.0,142.8536086618166,34.5
1602674801.5978,67.0,952.0,192.0,142.8381410956425,34.5
1602674801.5982,67.0,952.0,182.0,142.7924462348943,34.5
1602674801.5985,67.0,952.0,170.0,142.74487254548652,34.5
1602674801.5989,67.0,952.0,163.0,142.6955074147987,34.5
1602674801.5992,67.0,952.0,165.0,142.64443823021034,34.5
1602674801.5995,67.0,952.0,167.0,142.591752379101,34.5
1602674801.5999,67.0,952.0,167.0,142.5375372488501,34.5
1602674801.6002,67.0,952.0,165.0,142.4818802268372,34.5
1602674801.6006,67.0,952.0,167.0,142.42486870044186,34.5
1602674801.6009,67.0,952.0,172.0,142.36659005704357,34.5
1602674801.6013,67.0,952.0,175.0,142.3071316840218,34.5
1602674801.6016,67.0,952.0,226.0,142.2465809687561,34.5
1602674801.6019,67.0,952.0,396.0,142.18502529862602,34.5
1602674801.6023,67.0,952.0,656.0,142.12255206101096,34.5
1602674801.6027,67.0,952.0,820.0,142.0592486432906,34.5
1602674801.603,67.0,952.0,635.0,141.9952024328443,34.5
1602674801.6034,67.0,952.0,119.0,141.93050081705164,34.5
1602674801.6037,67.0,952.0,-153.0,141.8652311832922,34.5
1602674801.604,67.0,952.0,43.0,141.79948091894536,34.5
1602674801.6044,67.0,952.0,160.0,141.73333741139075,34.5
1602674801.6047,67.0,952.0,75.0,141.6668880480078,34.5
1602674801.6051,67.0,952.0,97.0,141.6002202161761,34.5
1602674801.6054,67.0,952.0,153.0,141.5334213032751,34.5
1602674802.1016,67.0,952.0,128.0,141.46657869668437,34.5
1602674802.1038,67.0,952.0,124.0,141.39977978378337,34.5
1602674802.1053,67.0,952.0,150.0,141.33311195195165,34.5
1602674802.1068,67.0,952.0,153.0,141.26666258856872,34.5
1602674802.1082,67.0,952.0,150.0,141.20051908101408,34.5
1602674802.1092,67.0,952.0,158.0,141.13476881666725,34.5
1602674802.1101,67.0,952.0,160.0,141.06949918290778,34.5
1602674802.1111,67.0,952.0,163.0,141.00479756711516,34.5
1602674802.112,67.0,952.0,167.0,140.94075135666887,34.5
1602674802.1129,67.0,952.0,175.0,140.87744793894848,34.5
1602674802.1139,67.0,952.0,180.0,140.81497470133345,34.5
1602674802.1149,67.0,952.0,177.0,140.75341903120335,34.5
1602674802.1158,67.0,952.0,177.0,140.69286831593766,34.5
1602674802.1168,67.0,952.0,184.0,140.63340994291588,34.5
1602674802.1177,67.0,952.0,197.0,140.57513129951758,34.5
1602674802.1184,67.0,952.0,204.0,140.51811977312224,34.5
1602674802.1191,67.0,952.0,218.0,140.46246275110934,34.5
1602674802.12,67.0,952.0,233.0,140.40824762085845,34.5
1602674802.1208,67.0,952.0,243.0,140.35556176974907,34.5
1602674802.1218,67.0,952.0,255.0,140.30449258516072,34.5
1602674802.1226,67.0,952.0,274.0,140.2551274544729,34.5
1602674802.1234,67.0,952.0,296.0,140.20755376506514,34.5
1602674802.1241,67.0,952.0,311.0,140.16185890431694,34.5
1602674802.1247,67.0,952.0,309.0,140.17465241667787,34.5
1602674802.1254,67.0,952.0,304.0,140.18373196540944,34.5
1602674802.1261,67.0,952.0,296.0,140.18930145439717,34.5
1602674802.1267,67.0,952.0,270.0,140.1915647875266,34.5
1602674802.1273,67.0,952.0,221.0,140.19072586868327,34.5
1602674802.1278,67.0,952.0,163.0,140.1869886017527,34.5
1602674802.1283,67.0,952.0,111.0,140.1805568906204,34.5
1602674802.1288,67.0,952.0,77.0,140.17163463917197,34.5
1602674802.1293,67.0,952.0,68.0,140.1604257512929,34.5
1602674802.1299,67.0,952.0,63.0,140.14713413086872,34.5
1602674802.1304,67.0,952.0,58.0,140.13196368178498,34.5
1602674802.1309,67.0,952.0,55.0,140.1151183079272,34.5
1602674802.1314,67.0,952.0,60.0,140.09680191318094,34.5
1602674802.1319,67.0,952.0,70.0,140.0772184014317,34.5
1602674802.1324,67.0,952.0,75.0,140.05657167656506,34.5
1602674802.133,67.0,952.0,75.0,140.0350656424665,34.5
1602674802.1335,67.0,952.0,82.0,140.01290420302158,34.5
1602674802.134,67.0,952.0,92.0,139.99029126211585,34.5
1602674802.1345,67.0,952.0,104.0,139.9674307236348,34.5
1602674802.135,67.0,952.0,109.0,139.94452649146402,34.5
1602674802.1354,67.0,952.0,107.0,139.92178246948902,34.5
1602674802.1358,67.0,952.0,102.0,139.8994025615953,34.5
1602674802.1363,67.0,952.0,109.0,139.87759067166846,34.5
1602674802.1368,67.0,952.0,119.0,139.856550703594,34.5
1602674802.1372,67.0,952.0,119.0,139.83648656125743,34.5
1602674802.1376,67.0,952.0,121.0,139.81760214854432,34.5
1602674802.138,67.0,952.0,126.0,139.80010136934018,34.5
1602674802.1385,67.0,952.0,128.0,139.78418812753057,34.5
1602674802.1392,67.0,952.0,128.0,139.72326164653296,34.5
1602674802.1396,67.0,952.0,133.0,139.65983006065593,34.5
1602674802.1399,67.0,952.0,136.0,139.5940098864055,34.5
1602674802.1403,67.0,952.0,133.0,139.5259176402877,34.5
1602674802.1406,67.0,952.0,128.0,139.45566983880855,34.5
1602674802.141,67.0,952.0,124.0,139.38338299847402,34.5
1602674802.1413,67.0,952.0,128.0,139.3091736357902,34.5
1602674802.1417,67.0,952.0,131.0,139.23315826726306,34.5
1602674802.142,67.0,952.0,133.0,139.15545340939866,34.5
1602674802.1424,67.0,952.0,138.0,139.076175578703,34.5
1602674802.1427,67.0,952.0,141.0,138.99544129168206,34.5
1602674802.1431,67.0,952.0,141.0,138.9133670648419,34.5
1602674802.1434,67.0,952.0,141.0,138.83006941468855,34.5
1602674802.1436,67.0,952.0,143.0,138.745664857728,34.5
1602674802.1438,67.0,952.0,143.0,138.6602699104663,34.5
1602674802.1441,67.0,952.0,145.0,138.57400108940945,34.5
1602674802.1443,67.0,952.0,145.0,138.48697491106347,34.5
1602674802.1445,67.0,952.0,150.0,138.39930789193437,34.5
1602674802.1447,67.0,952.0,153.0,138.31111654852822,34.5
1602674802.145,67.0,952.0,153.0,138.22251739735097,34.5
1602674802.1452,67.0,952.0,155.0,138.1336269549087,34.5
1602674802.1455,67.0,952.0,163.0,138.0445617377074,34.5
1602674802.6714,67.0,952.0,158.0,137.95543826225307,34.5
1602674802.6731,67.0,952.0,155.0,137.86637304505174,34.5
1602674802.6747,67.0,952.0,160.0,137.77748260260947,34.5
1602674802.6761,67.0,952.0,165.0,137.68888345143222,34.5
1602674802.6771,67.0,952.0,165.0,137.60069210802604,34.5
1602674802.6781,67.0,952.0,167.0,137.51302508889694,34.5
1602674802.6791,67.0,952.0,167.0,137.42599891055096,34.5
1602674802.68,67.0,952.0,167.0,137.3397300894941,34.5
1602674802.681,67.0,952.0,160.0,137.2543351422324,34.5
1602674802.682,67.0,952.0,153.0,137.16993058527189,34.5
1602674802.6829,67.0,952.0,158.0,137.08663293511853,34.5
1602674802.6839,67.0,952.0,165.0,137.00455870827838,34.5
1602674802.6849,67.0,952.0,158.0,136.92382442125745,34.5
1602674802.6859,67.0,952.0,148.0,136.84454659056178,34.5
1602674802.6868,67.0,952.0,145.0,136.76684173269737,34.5
1602674802.6875,67.0,952.0,150.0,136.69082636417022,34.5
1602674802.6882,67.0,952.0,153.0,136.6166170014864,34.5
1602674802.689,67.0,952.0,153.0,136.5443301611519,34.5
1602674802.6897,67.0,952.0,153.0,136.47408235967274,34.5
1602674802.6904,67.0,952.0,153.0,136.4059901135549,34.5
1602674802.6911,67.0,952.0,163.0,136.3401699393045,34.5
1602674802.6918,67.0,952.0,170.0,136.27673835342748,34.5
1602674802.6925,67.0,952.0,172.0,136.21581187242987,34.5
1602674802.6932,67.0,952.0,177.0,136.1716375520852,34.5
1602674802.6938,67.0,952.0,170.0,136.12875947787003,34.5
1602674802.6944,67.0,952.0,150.0,136.08732329541684,34.5
1602674802.695,67.0,952.0,145.0,136.04747465035817,34.5
1602674802.6955,67.0,952.0,148.0,136.00935918832653,34.5
1602674802.6961,67.0,952.0,141.0,135.97312255495444,34.5
1602674802.6966,67.0,952.0,141.0,135.93891039587447,34.5
1602674802.6971,67.0,952.0,148.0,135.90686835671912,34.5
1602674802.6977,67.0,952.0,145.0,135.87714208312087,34.5
1602674802.6982,67.0,952.0,143.0,135.8498772207123,34.5
1602674802.6987,67.0,952.0,148.0,135.82521941512593,34.5
1602674802.6991,67.0,952.0,153.0,135.80331431199426,34.5
1602674802.6996,67.0,952.0,211.0,135.78430755694984,34.5
1602674802.7001,67.0,952.0,403.0,135.76834479562515,34.5
1602674802.7006,67.0,952.0,664.0,135.75557167365275,34.5
1602674802.701,67.0,952.0,793.0,135.7461338366652,34.5
1602674802.7015,67.0,952.0,574.0,135.74017693029495,34.5
1602674802.7019,67.0,952.0,70.0,135.73784660017455,34.5
1602674802.7024,67.0,952.0,-141.0,135.73928849193655,34.5
1602674802.7029,67.0,952.0,72.0,135.74464825121345,34.5
1602674802.7033,67.0,952.0,160.0,135.75407152363778,34.5
1602674802.7036,67.0,952.0,65.0,135.76770395484206,34.5
1602674802.704,67.0,952.0,87.0,135.7856911904588,34.5
1602674802.7043,67.0,952.0,133.0,135.8081788761206,34.5
1602674802.7047,67.0,952.0,107.0,135.83531265745987,34.5
1602674802.7052,67.0,952.0,107.0,135.86723818010924,34.5
1602674802.7055,67.0,952.0,128.0,135.90410108970116,34.5
1602674802.7059,67.0,952.0,128.0,135.94604703186818,34.5
1602674802.7062,67.0,952.0,133.0,135.93081541161877,34.5
1602674802.7065,67.0,952.0,143.0,135.91495751514952,34.5
1602674802.7069,67.0,952.0,141.0,135.8985024715869,34.5
1602674802.7071,67.0,952.0,143.0,135.88147941005747,34.5
1602674802.7073,67.0,952.0,150.0,135.86391745968766,34.5
1602674802.7075,67.0,952.0,153.0,135.84584574960402,34.5
1602674802.7078,67.0,952.0,160.0,135.8272934089331,34.5
1602674802.708,67.0,952.0,170.0,135.80828956680128,34.5
1602674802.7082,67.0,952.0,177.0,135.7888633523352,34.5
1602674802.7084,67.0,952.0,182.0,135.76904389466125,34.5
1602674802.7087,67.0,952.0,189.0,135.748860322906,34.5
1602674802.7089,67.0,952.0,201.0,135.72834176619597,34.5
1602674802.7091,67.0,952.0,216.0,135.70751735365764,34.5
1602674802.7093,67.0,952.0,228.0,135.6864162144175,34.5
1602674802.7095,67.0,952.0,238.0,135.6650674776021,34.5
1602674802.7098,67.0,952.0,250.0,135.6435002723379,34.5
1602674802.71,67.0,952.0,267.0,135.62174372775138,34.5
1602674802.7102,67.0,952.0,282.0,135.5998269729691,34.5
1602674802.7105,67.0,952.0,296.0,135.57777913711757,34.5
1602674802.7107,67.0,952.0,304.0,135.55562934932328,34.5
1602674802.7109,67.0,952.0,296.0,135.5334067387127,34.5
1602674802.7111,67.0,952.0,282.0,135.51114043441237,34.5
1602674803.2116,67.0,952.0,255.0,135.48885956554878,34.5
1602674803.2133,67.0,952.0,209.0,135.46659326124845,34.5
1602674803.2148,67.0,952.0,158.0,135.44437065063786,34.5
1602674803.2163,67.0,952.0,114.0,135.42222086284357,34.5
1602674803.2177,67.0,952.0,85.0,135.40017302699204,34.5
1602674803.2191,67.0,952.0,63.0,135.37825627220977,34.5
1602674803.2202,67.0,952.0,48.0,135.35649972762326,34.5
1602674803.2212,67.0,952.0,46.0,135.33493252235905,34.5
1602674803.2222,67.0,952.0,51.0,135.3135837855436,34.5
1602674803.2232,67.0,952.0,46.0,135.29248264630348,34.5
1602674803.2242,67.0,952.0,43.0,135.27165823376515,34.5
1602674803.2254,67.0,952.0,48.0,135.2511396770551,34.5
1602674803.2264,67.0,952.0,58.0,135.2309561052999,34.5
1602674803.2274,67.0,952.0,55.0,135.21113664762598,34.5
1602674803.2281,67.0,952.0,53.0,135.19171043315987,34.5
1602674803.2288,67.0,952.0,58.0,135.1727065910281,34.5
1602674803.2295,67.0,952.0,68.0,135.15415425035712,34.5
1602674803.2302,67.0,952.0,70.0,135.13608254027352,34.5
1602674803.2309,67.0,952.0,72.0,135.1185205899037,34.5
1602674803.2316,67.0,952.0,80.0,135.10149752837427,34.5
1602674803.2323,67.0,952.0,85.0,135.08504248481165,34.5
1602674803.233,67.0,952.0,87.0,135.0691845883424,34.5
1602674803.2336,67.0,952.0,92.0,135.053952968093,34.5
1602674803.2343,67.0,952.0,92.0,135.03937675318997,34.5
1602674803.235,67.0,952.0,92.0,135.02548507275978,34.5
1602674803.2357,67.0,952.0,94.0,135.01230705592897,34.5
1602674803.2365,67.0,952.0,97.0,134.99987183182404,34.5
1602674803.2373,67.0,952.0,97.0,134.9882085295715,34.5
1602674803.2379,67.0,952.0,97.0,134.97734627829783,34.5
1602674803.2385,67.0,952.0,97.0,134.96731420712953,34.5
1602674803.239,67.0,952.0,94.0,134.95814144519315,34.5
1602674803.2396,67.0,952.0,99.0,134.94985712161517,34.5
1602674803.2401,67.0,952.0,102.0,134.94249036552208,34.5
1602674803.2406,67.0,952.0,99.0,134.93607030604042,34.5
1602674803.241,67.0,952.0,102.0,134.93062607229663,34.5
1602674803.2415,67.0,952.0,107.0,134.92618679341732,34.5
1602674803.2419,67.0,952.0,102.0,134.92278159852887,34.5
1602674803.2423,67.0,952.0,97.0,134.92043961675788,34.5
1602674803.2428,67.0,952.0,99.0,134.91918997723081,34.5
1602674803.2432,67.0,952.0,104.0,134.9190618090742,34.5
1602674803.2437,67.0,952.0,104.0,134.92008424141451,34.5
1602674803.2441,67.0,952.0,104.0,134.9222864033783,34.5
1602674803.2446,67.0,952.0,107.0,134.92569742409202,34.5
1602674803.2451,67.0,952.0,111.0,134.9303464326822,34.5
1602674803.2454,67.0,952.0,116.0,134.93626255827533,34.5
1602674803.2458,67.0,952.0,116.0,134.94347492999796,34.5
1602674803.2461,67.0,952.0,119.0,134.95201267697652,34.5
1602674803.2465,67.0,952.0,124.0,134.9619049283376,34.5
1602674803.2468,67.0,952.0,124.0,134.97318081320762,34.5
1602674803.2472,67.0,952.0,121.0,134.98586946071316,34.5
1602674803.2475,67.0,952.0,126.0,134.99999999998067,34.5
1602674803.2479,67.0,952.0,131.0,134.99999999998067,34.5
1602674803.2482,67.0,952.0,131.0,134.99999999998067,34.5
1602674803.2486,67.0,952.0,133.0,134.99999999998067,34.5
1602674803.2489,67.0,952.0,133.0,134.99999999998067,34.5
1602674803.2492,67.0,952.0,133.0,134.99999999998067,34.5
1602674803.2495,67.0,952.0,133.0,134.99999999998067,34.5
1602674803.2497,67.0,952.0,136.0,134.99999999998067,34.5
1602674803.2499,67.0,952.0,138.0,134.99999999998067,34.5
1602674803.2502,67.0,952.0,141.0,134.99999999998067,34.5
1602674803.2504,67.0,952.0,138.0,134.99999999998067,34.5
1602674803.2506,67.0,952.0,136.0,134.99999999998067,34.5
1602674803.2508,67.0,952.0,141.0,134.99999999998067,34.5
1602674803.2511,67.0,952.0,143.0,134.99999999998067,34.5
1602674803.2513,67.0,952.0,141.0,134.99999999998067,34.5
1602674803.2515,67.0,952.0,143.0,134.99999999998067,34.5
1602674803.2517,67.0,952.0,145.0,134.99999999998067,34.5
1602674803.252,67.0,952.0,153.0,134.99999999998067,34.5
1602674803.2522,67.0,952.0,160.0,134.99999999998067,34.5
1602674803.2524,67.0,952.0,163.0,134.99999999998067,34.5
1602674803.2526,67.0,952.0,158.0,134.99999999998067,34.5
1602674803.2529,67.0,952.0,150.0,134.99999999998067,34.5
1602674803.2531,67.0,952.0,136.0,134.99999999998067,34.5
1602674803.7508,67.0,965.0,121.0,134.99999999998067,34.5
1602674803.7526,67.0,965.0,119.0,134.99999999998067,34.5
1602674803.7542,67.0,965.0,124.0,134.99999999998067,34.5
1602674803.7556,67.0,965.0,126.0,134.99999999998067,34.5
1602674803.7574,67.0,965.0,128.0,134.99999999998067,34.5
1602674803.7585,67.0,965.0,126.0,134.99999999998067,34.5
1602674803.7595,67.0,965.0,114.0,134.99999999998067,34.5
1602674803.7604,67.0,965.0,102.0,134.99999999998067,34.5
1602674803.7616,67.0,965.0,111.0,134.99999999998067,34.5
1602674803.7628,67.0,965.0,199.0,134.99999999998067,34.5
1602674803.7638,67.0,965.0,406.0,134.99999999998067,34.5
1602674803.7648,67.0,965.0,659.0,134.99999999998067,34.5
1602674803.7658,67.0,965.0,749.0,134.99999999998067,34.5
1602674803.7665,67.0,965.0,455.0,134.99999999998067,34.5
1602674803.7672,67.0,965.0,-51.0,134.99999999998067,34.5
1602674803.7678,67.0,965.0,-163.0,134.99999999998067,34.5
1602674803.7685,67.0,965.0,77.0,134.99999999998067,34.5
1602674803.7692,67.0,965.0,114.0,134.99999999998067,34.5
1602674803.7699,67.0,965.0,24.0,134.99999999998067,34.5
1602674803.7709,67.0,965.0,70.0,134.99999999998067,34.5
1602674803.7717,67.0,965.0,111.0,134.99999999998067,34.5
1602674803.7724,67.0,965.0,87.0,134.99999999998067,34.5
1602674803.7731,67.0,965.0,92.0,134.99999999998067,34.5
1602674803.7739,67.0,965.0,111.0,134.97173892144565,34.5
1602674803.7746,67.0,965.0,114.0,134.9463616264346,34.5
1602674803.7754,67.0,965.0,119.0,134.9238098566945,34.5
1602674803.7759,67.0,965.0,131.0,134.9040253539724,34.5
1602674803.7765,67.0,965.0,136.0,134.88694986001522,34.5
1602674803.7772,67.0,965.0,128.0,134.87252511657002,34.5
1602674803.7777,67.0,965.0,124.0,134.86069286538373,34.5
1602674803.7782,67.0,965.0,128.0,134.85139484820337,34.5
1602674803.7788,67.0,965.0,141.0,134.84457280677594,34.5
1602674803.7793,67.0,965.0,148.0,134.84016848284838,34.5
1602674803.7797,67.0,965.0,153.0,134.83812361816774,34.5
1602674803.7801,67.0,965.0,160.0,134.83837995448098,34.5
1602674803.7806,67.0,965.0,170.0,134.8408792335351,34.5
1602674803.7811,67.0,965.0,180.0,134.8455631970771,34.5
1602674803.7815,67.0,965.0,192.0,134.85237358685396,34.5
1602674803.7819,67.0,965.0,204.0,134.86125214461262,34.5
1602674803.7825,67.0,965.0,226.0,134.87214061210017,34.5
1602674803.783,67.0,965.0,245.0,134.8849807310635,34.5
1602674803.7835,67.0,965.0,255.0,134.89971424324966,34.5
1602674803.7839,67.0,965.0,262.0,134.91628289040565,34.5
1602674803.7843,67.0,965.0,274.0,134.93462841427842,34.5
1602674803.7846,67.0,965.0,287.0,134.954692556615,34.5
1602674803.785,67.0,965.0,284.0,134.97641705916232,34.5
1602674803.7853,67.0,965.0,265.0,134.99974366366743,34.5
1602674803.7857,67.0,965.0,228.0,135.0246141118773,34.5
1602674803.786,67.0,965.0,182.0,135.0509701455389,34.5
1602674803.7864,67.0,965.0,133.0,135.07875350639927,34.5
1602674803.7868,67.0,965.0,92.0,135.10790593620536,34.5
1602674803.7871,67.0,965.0,70.0,135.13836917670415,34.5
1602674803.7875,67.0,965.0,53.0,135.17008496964266,34.5
1602674803.7877,67.0,965.0,36.0,135.2029950567679,34.5
1602674803.7879,67.0,965.0,38.0,135.23704117982678,34.5
1602674803.7882,67.0,965.0,43.0,135.27216508056637,34.5
1602674803.7884,67.0,965.0,43.0,135.30830850073363,34.5
1602674803.7887,67.0,965.0,48.0,135.34541318207553,34.5
1602674803.7889,67.0,965.0,53.0,135.3834208663391,34.5
1602674803.7891,67.0,965.0,53.0,135.4222732952713,34.5
1602674803.7894,67.0,965.0,53.0,135.46191221061915,34.5
1602674803.7896,67.0,965.0,58.0,135.50227935412963,34.5
1602674803.7898,67.0,965.0,63.0,135.5433164675497,34.5
1602674803.7901,67.0,965.0,68.0,135.58496529262638,34.5
1602674803.7903,67.0,965.0,70.0,135.62716757110664,34.5
1602674803.7905,67.0,965.0,72.0,135.6698650447375,34.5
1602674803.7908,67.0,965.0,80.0,135.71299945526593,34.5
1602674803.791,67.0,965.0,85.0,135.75651254443892,34.5
1602674803.7912,67.0,965.0,85.0,135.80034605400346,34.5
1602674803.7914,67.0,965.0,82.0,135.84444172570653,34.5
1602674803.7917,67.0,965.0,87.0,135.88874130129514,34.5
1602674803.7918,67.0,965.0,85.0,135.93318652251628,34.5
1602674803.792,67.0,965.0,75.0,135.97771913111694,34.5
1602674804.3217,67.0,965.0,70.0,136.0222808688441,34.5
1602674804.3238,67.0,965.0,75.0,136.06681347744475,34.5
1602674804.3253,67.0,965.0,82.0,136.1112586986659,34.5
1602674804.3268,67.0,965.0,77.0,136.15555827425453,34.5
1602674804.3282,67.0,965.0,68.0,136.1996539459576,34.5
1602674804.3292,67.0,965.0,68.0,136.24348745552217,34.5
1602674804.3302,67.0,965.0,77.0,136.28700054469516,34.5
1602674804.3314,67.0,965.0,82.0,136.33013495522357,34.5
1602674804.3325,67.0,965.0,82.0,136.37283242885442,34.5
1602674804.3335,67.0,965.0,85.0,136.4150347073347,34.5
1602674804.3345,67.0,965.0,87.0,136.45668353241138,34.5
1602674804.3356,67.0,965.0,92.0,136.49772064583146,34.5
1602674804.3366,67.0,965.0,94.0,136.53808778934192,34.5
1602674804.3375,67.0,965.0,97.0,136.57772670468975,34.5
1602674804.3383,67.0,965.0,97.0,136.61657913362194,34.5
1602674804.339,67.0,965.0,102.0,136.65458681788553,34.5
1602674804.3397,67.0,965.0,102.0,136.69169149922743,34.5
1602674804.3404,67.0,965.0,107.0,136.7278349193947,34.5
1602674804.3411,67.0,965.0,111.0,136.7629588201343,34.5
1602674804.3417,67.0,965.0,107.0,136.79700494319317,34.5
1602674804.3422,67.0,965.0,104.0,136.82991503031838,34.5
1602674804.3428,67.0,965.0,109.0,136.8616308232569,34.5
1602674804.3433,67.0,965.0,114.0,136.8920940637557,34.5
1602674804.3439,67.0,965.0,114.0,136.89298541502674,34.5
1602674804.3445,67.0,965.0,114.0,136.89539148087604,34.5
1602674804.345,67.0,965.0,116.0,136.8991957447976,34.5
1602674804.3456,67.0,965.0,119.0,136.90428169028533,34.5
1602674804.3461,67.0,965.0,119.0,136.9105328008333,34.5
1602674804.3466,67.0,965.0,121.0,136.91783255993542,34.5
1602674804.3471,67.0,965.0,126.0,136.9260644510857,34.5
1602674804.3475,67.0,965.0,131.0,136.9351119577781,34.5
1602674804.3479,67.0,965.0,128.0,136.94485856350664,34.5
1602674804.3484,67.0,965.0,126.0,136.95518775176527,34.5
1602674804.3491,67.0,965.0,131.0,136.96598300604796,34.5
1602674804.3496,67.0,965.0,131.0,136.97712780984875,34.5
1602674804.3501,67.0,965.0,128.0,136.98850564666154,34.5
1602674804.3503,67.0,965.0,133.0,136.99999999998036,34.5
1602674804.3506,67.0,965.0,145.0,137.01149435329918,34.5
1602674804.3508,67.0,965.0,155.0,137.022872190112,34.5
1602674804.351,67.0,965.0,158.0,137.03401699391276,34.5
1602674804.3513,67.0,965.0,153.0,137.04481224819548,34.5
1602674804.3515,67.0,965.0,143.0,137.0551414364541,34.5
1602674804.3517,67.0,965.0,131.0,137.06488804218264,34.5
1602674804.352,67.0,965.0,128.0,137.07393554887506,34.5
1602674804.3522,67.0,965.0,128.0,137.08216744002533,34.5
1602674804.3524,67.0,965.0,133.0,137.08946719912745,34.5
1602674804.3527,67.0,965.0,133.0,137.09571830967542,34.5
1602674804.3529,67.0,965.0,131.0,137.10080425516315,34.5
1602674804.3531,67.0,965.0,131.0,137.10460851908468,34.5
1602674804.3534,67.0,965.0,136.0,137.107014584934,34.5
1602674804.3536,67.0,965.0,136.0,137.10790593620504,34.5
1602674804.3538,67.0,965.0,163.0,137.13836917670383,34.5
1602674804.3541,67.0,965.0,304.0,137.17008496964235,34.5
1602674804.3542,67.0,965.0,566.0,137.20299505676758,34.5
1602674804.3544,67.0,965.0,778.0,137.2370411798265,34.5
1602674804.3546,67.0,965.0,686.0,137.27216508056605,34.5
1602674804.3548,67.0,965.0,201.0,137.30830850073332,34.5
1602674804.3549,67.0,965.0,-182.0,137.34541318207522,34.5
1602674804.3551,67.0,965.0,-53.0,137.3834208663388,34.5
1602674804.3553,67.0,965.0,128.0,137.422273295271,34.5
1602674804.3554,67.0,965.0,63.0,137.46191221061883,34.5
1602674804.3556,67.0,965.0,53.0,137.5022793541293,34.5
1602674804.3558,67.0,965.0,114.0,137.54331646754937,34.5
1602674804.3559,67.0,965.0,97.0,137.58496529262607,34.5
1602674804.3561,67.0,965.0,80.0,137.62716757110633,34.5
1602674804.3563,67.0,965.0,99.0,137.66986504473718,34.5
1602674804.3565,67.0,965.0,102.0,137.7129994552656,34.5
1602674804.3566,67.0,965.0,99.0,137.75651254443858,34.5
1602674804.3568,67.0,965.0,114.0,137.8003460540031,34.5
1602674804.357,67.0,965.0,121.0,137.84444172570622,34.5
1602674804.3571,67.0,965.0,121.0,137.88874130129483,34.5
1602674804.3573,67.0,965.0,128.0,137.93318652251597,34.5
1602674804.3575,67.0,965.0,141.0,137.97771913111663,34.5
1602674804.921,67.0,944.0,145.0,138.0222808688438,34.5
1602674804.923,67.0,944.0,148.0,138.06681347744444,34.5
1602674804.9246,67.0,944.0,155.0,138.1112586986656,34.5
1602674804.926,67.0,944.0,163.0,138.15555827425425,34.5
1602674804.927,67.0,944.0,163.0,138.19965394595732,34.5
1602674804.9281,67.0,944.0,160.0,138.24348745552186,34.5
1602674804.9292,67.0,944.0,167.0,138.28700054469488,34.5
1602674804.9302,67.0,944.0,189.0,138.3301349552233,34.5
1602674804.9312,67.0,944.0,204.0,138.37283242885417,34.5
1602674804.9322,67.0,944.0,214.0,138.41503470733443,34.5
1602674804.9332,67.0,944.0,226.0,138.4566835324111,34.5
1602674804.9346,67.0,944.0,240.0,138.49772064583118,34.5
1602674804.9355,67.0,944.0,253.0,138.53808778934166,34.5
1602674804.9363,67.0,944.0,262.0,138.5777267046895,34.5
1602674804.937,67.0,944.0,267.0,138.61657913362166,34.5
1602674804.9379,67.0,944.0,260.0,138.65458681788522,34.5
1602674804.9386,67.0,944.0,226.0,138.69169149922715,34.5
1602674804.9393,67.0,944.0,180.0,138.7278349193944,34.5
1602674804.9399,67.0,944.0,136.0,138.76295882013397,34.5
1602674804.9405,67.0,944.0,97.0,138.79700494319292,34.5
1602674804.941,67.0,944.0,65.0,138.8299150303181,34.5
1602674804.9416,67.0,944.0,46.0,138.86163082325663,34.5
1602674804.9422,67.0,944.0,41.0,138.8920940637554,34.5
1602674804.9427,67.0,944.0,43.0,138.907115954294,34.5
1602674804.9433,67.0,944.0,41.0,138.9222106676488,34.5
1602674804.9438,67.0,944.0,41.0,138.9372908164404,34.5
1602674804.9442,67.0,944.0,43.0,138.9522690132892,34.5
1602674804.9448,67.0,944.0,48.0,138.96705787081572,34.5
1602674804.9453,67.0,944.0,48.0,138.98157000164048,34.5
1602674804.9458,67.0,944.0,48.0,138.99571801838385,34.5
1602674804.9463,67.0,944.0,55.0,139.00941453366647,34.5
1602674804.9467,67.0,944.0,63.0,139.02257216010872,34.5
1602674804.9472,67.0,944.0,68.0,139.0351035103311,34.5
1602674804.9476,67.0,944.0,68.0,139.04692119695414,34.5
1602674804.9481,67.0,944.0,70.0,139.05793783259827,34.5
1602674804.9483,67.0,944.0,75.0,139.06806602988405,34.5
1602674804.9486,67.0,944.0,77.0,139.07721840143188,34.5
1602674804.9488,67.0,944.0,82.0,139.08530755986226,34.5
1602674804.949,67.0,944.0,85.0,139.09224611779575,34.5
1602674804.9493,67.0,944.0,85.0,139.09794668785275,34.5
1602674804.9495,67.0,944.0,85.0,139.10232188265377,34.5
1602674804.9497,67.0,944.0,92.0,139.10528431481936,34.5
1602674804.95,67.0,944.0,90.0,139.10674659696986,34.5
1602674804.9502,67.0,944.0,85.0,139.10662134172588,34.5
1602674804.9504,67.0,944.0,82.0,139.1048211617079,34.5
1602674804.9506,67.0,944.0,85.0,139.10125866953638,34.5
1602674804.9509,67.0,944.0,85.0,139.09584647783174,34.5
1602674804.9511,67.0,944.0,90.0,139.0884971992146,34.5
1602674804.9513,67.0,944.0,92.0,139.0791234463053,34.5
1602674804.9516,67.0,944.0,94.0,139.06763783172443,34.5
1602674804.9518,67.0,944.0,97.0,139.05395296809246,34.5
1602674804.952,67.0,944.0,94.0,139.06918458834184,34.5
1602674804.9522,67.0,944.0,94.0,139.08504248481108,34.5
1602674804.9524,67.0,944.0,99.0,139.10149752837373,34.5
1602674804.9525,67.0,944.0,104.0,139.11852058990314,34.5
1602674804.9527,67.0,944.0,102.0,139.13608254027292,34.5
1602674804.9529,67.0,944.0,102.0,139.15415425035656,34.5
1602674804.953,67.0,944.0,97.0,139.17270659102752,34.5
1602674804.9532,67.0,944.0,90.0,139.1917104331593,34.5
1602674804.9534,67.0,944.0,92.0,139.21113664762544,34.5
1602674804.9536,67.0,944.0,99.0,139.23095610529936,34.5
1602674804.9537,67.0,944.0,102.0,139.2511396770546,34.5
1602674804.954,67.0,944.0,104.0,139.27165823376458,34.5
1602674804.9541,67.0,944.0,104.0,139.29248264630297,34.5
1602674804.9543,67.0,944.0,104.0,139.31358378554307,34.5
1602674804.9545,67.0,944.0,109.0,139.33493252235849,34.5
1602674804.9547,67.0,944.0,114.0,139.35649972762275,34.5
1602674804.9548,67.0,944.0,114.0,139.37825627220923,34.5
1602674804.955,67.0,944.0,116.0,139.40017302699147,34.5
1602674804.9552,67.0,944.0,119.0,139.422220862843,34.5
1602674804.9553,67.0,944.0,121.0,139.44437065063732,34.5
1602674804.9555,67.0,944.0,121.0,139.4665932612479,34.5
1602674804.9557,67.0,944.0,121.0,139.4888595655482,34.5
1602674805.461,66.0,945.0,126.0,139.5111404344118,34.5
1602674805.4628,66.0,945.0,119.0,139.53340673871213,34.5
1602674805.4643,66.0,945.0,109.0,139.5556293493227,34.5
1602674805.4658,66.0,945.0,114.0,139.577779137117,34.5
1602674805.4672,66.0,945.0,121.0,139.59982697296854,34.5
1602674805.4682,66.0,945.0,121.0,139.6217437277508,34.5
1602674805.4692,66.0,945.0,116.0,139.6435002723373,34.5
1602674805.4703,66.0,945.0,119.0,139.66506747760153,34.5
1602674805.4716,66.0,945.0,121.0,139.68641621441694,34.5
1602674805.4727,66.0,945.0,119.0,139.70751735365707,34.5
1602674805.4737,66.0,945.0,109.0,139.7283417661954,34.5
1602674805.4748,66.0,945.0,109.0,139.74886032290544,34.5
1602674805.4758,66.0,945.0,121.0,139.76904389466068,34.5
1602674805.4766,66.0,945.0,136.0,139.7888633523346,34.5
1602674805.4774,66.0,945.0,141.0,139.8082895668007,34.5
1602674805.4781,66.0,945.0,141.0,139.8272934089325,34.5
1602674805.4788,66.0,945.0,136.0,139.84584574960346,34.5
1602674805.4796,66.0,945.0,119.0,139.86391745968706,34.5
1602674805.4803,66.0,945.0,104.0,139.88147941005687,34.5
1602674805.4809,66.0,945.0,104.0,139.8985024715863,34.5
1602674805.4815,66.0,945.0,107.0,139.91495751514893,34.5
1602674805.4821,66.0,945.0,109.0,139.93081541161817,34.5
1602674805.4826,66.0,945.0,114.0,139.94604703186758,34.5
1602674805.4832,66.0,945.0,116.0,139.97475378603815,34.5
1602674805.4838,66.0,945.0,114.0,140.00133411397385,34.5
1602674805.4844,66.0,945.0,109.0,140.0257880156747,34.5
1602674805.4849,66.0,945.0,109.0,140.0481154911407,34.5
1602674805.4854,66.0,945.0,163.0,140.06831654037182,34.5
1602674805.486,66.0,945.0,343.0,140.0863911633681,34.5
1602674805.4866,66.0,945.0,608.0,140.10233936012952,34.5
1602674805.4871,66.0,945.0,771.0,140.11616113065608,34.5
1602674805.4876,66.0,945.0,598.0,140.12785647494778,34.5
1602674805.4882,66.0,945.0,85.0,140.13742539300463,34.5
1602674805.4886,66.0,945.0,-204.0,140.14486788482662,34.5
1602674805.4891,66.0,945.0,-12.0,140.15018395041378,34.5
1602674805.4894,66.0,945.0,119.0,140.15337358976606,34.5
1602674805.4896,66.0,945.0,36.0,140.15443680288348,34.5
1602674805.4899,66.0,945.0,43.0,140.15337358976606,34.5
1602674805.4901,66.0,945.0,92.0,140.15018395041378,34.5
1602674805.4903,66.0,945.0,80.0,140.14486788482662,34.5
1602674805.4907,66.0,945.0,77.0,140.13742539300463,34.5
1602674805.4909,66.0,945.0,97.0,140.12785647494778,34.5
1602674805.4911,66.0,945.0,99.0,140.11616113065608,34.5
1602674805.4914,66.0,945.0,102.0,140.10233936012952,34.5
1602674805.4916,66.0,945.0,111.0,140.0863911633681,34.5
1602674805.4919,66.0,945.0,119.0,140.06831654037182,34.5
1602674805.4921,66.0,945.0,121.0,140.0481154911407,34.5
1602674805.4924,66.0,945.0,131.0,140.0257880156747,34.5
1602674805.4926,66.0,945.0,138.0,140.00133411397385,34.5
1602674805.4928,66.0,945.0,138.0,139.97475378603815,34.5
1602674805.493,66.0,945.0,133.0,139.94604703186758,34.5
1602674805.4932,66.0,945.0,133.0,139.93081541161817,34.5
1602674805.4934,66.0,945.0,141.0,139.91495751514893,34.5
1602674805.4936,66.0,945.0,153.0,139.8985024715863,34.5
1602674805.4938,66.0,945.0,163.0,139.88147941005687,34.5
1602674805.4939,66.0,945.0,175.0,139.86391745968706,34.5
1602674805.4941,66.0,945.0,184.0,139.84584574960346,34.5
1602674805.4943,66.0,945.0,199.0,139.8272934089325,34.5
1602674805.4945,66.0,945.0,218.0,139.8082895668007,34.5
1602674805.4947,66.0,945.0,238.0,139.7888633523346,34.5
1602674805.4948,66.0,945.0,250.0,139.76904389466068,34.5
1602674805.495,66.0,945.0,257.0,139.74886032290544,34.5
1602674805.4952,66.0,945.0,262.0,139.7283417661954,34.5
1602674805.4954,66.0,945.0,265.0,139.70751735365707,34.5
1602674805.4956,66.0,945.0,255.0,139.68641621441694,34.5
1602674805.4957,66.0,945.0,221.0,139.66506747760153,34.5
1602674805.4959,66.0,945.0,172.0,139.6435002723373,34.5
1602674805.4961,66.0,945.0,124.0,139.6217437277508,34.5
1602674805.4963,66.0,945.0,82.0,139.59982697296854,34.5
1602674805.4965,66.0,945.0,55.0,139.577779137117,34.5
1602674805.4966,66.0,945.0,41.0,139.5556293493227,34.5
1602674805.4968,66.0,945.0,34.0,139.53340673871213,34.5
1602674805.497,66.0,945.0,24.0,139.5111404344118,34.5
1602674806.0305,66.0,945.0,24.0,139.4888595655482,34.5
1602674806.0323,66.0,945.0,31.0,139.4665932612479,34.5
1602674806.0339,66.0,945.0,29.0,139.44437065063732,34.5
1602674806.0356,66.0,945.0,24.0,139.422220862843,34.5
1602674806.0372,66.0,945.0,31.0,139.40017302699147,34.5
1602674806.0383,66.0,945.0,41.0,139.37825627220923,34.5
1602674806.0394,66.0,945.0,38.0,139.35649972762275,34.5
1602674806.0404,66.0,945.0,29.0,139.33493252235849,34.5
1602674806.0414,66.0,945.0,34.0,139.31358378554307,34.5
1602674806.0424,66.0,945.0,43.0,139.29248264630297,34.5
1602674806.0436,66.0,945.0,46.0,139.27165823376458,34.5
1602674806.0447,66.0,945.0,48.0,139.2511396770546,34.5
1602674806.0458,66.0,945.0,53.0,139.23095610529936,34.5
1602674806.0465,66.0,945.0,58.0,139.21113664762544,34.5
1602674806.0473,66.0,945.0,58.0,139.1917104331593,34.5
1602674806.048,66.0,945.0,60.0,139.17270659102752,34.5
1602674806.0488,66.0,945.0,65.0,139.15415425035656,34.5
1602674806.0495,66.0,945.0,70.0,139.13608254027292,34.5
1602674806.0505,66.0,945.0,70.0,139.11852058990314,34.5
1602674806.0511,66.0,945.0,70.0,139.10149752837373,34.5
1602674806.0516,66.0,945.0,72.0,139.08504248481108,34.5
1602674806.0521,66.0,945.0,75.0,139.06918458834184,34.5
1602674806.0525,66.0,945.0,75.0,139.05395296809246,34.5
1602674806.053,66.0,945.0,75.0,139.06763783172443,34.5
1602674806.0535,66.0,945.0,72.0,139.0791234463053,34.5
1602674806.054,66.0,945.0,70.0,139.0884971992146,34.5
1602674806.0545,66.0,945.0,72.0,139.09584647783174,34.5
1602674806.0549,66.0,945.0,75.0,139.10125866953638,34.5
1602674806.0551,66.0,945.0,77.0,139.1048211617079,34.5
1602674806.0554,66.0,945.0,82.0,139.10662134172588,34.5
1602674806.0556,66.0,945.0,82.0,139.10674659696986,34.5
1602674806.0559,66.0,945.0,82.0,139.10528431481936,34.5
1602674806.0561,66.0,945.0,85.0,139.10232188265377,34.5
1602674806.0563,66.0,945.0,87.0,139.09794668785275,34.5
1602674806.0566,66.0,945.0,90.0,139.09224611779575,34.5
1602674806.0568,66.0,945.0,97.0,139.08530755986226,34.5
1602674806.0571,66.0,945.0,97.0,139.07721840143188,34.5
1602674806.0573,66.0,945.0,92.0,139.06806602988405,34.5
1602674806.0576,66.0,945.0,90.0,139.05793783259827,34.5
1602674806.0578,66.0,945.0,94.0,139.04692119695414,34.5
1602674806.058,66.0,945.0,102.0,139.0351035103311,34.5
1602674806.0583,66.0,945.0,102.0,139.02257216010872,34.5
1602674806.0585,66.0,945.0,94.0,139.00941453366647,34.5
1602674806.0587,66.0,945.0,87.0,138.99571801838385,34.5
1602674806.0589,66.0,945.0,92.0,138.98157000164048,34.5
1602674806.0591,66.0,945.0,97.0,138.96705787081572,34.5
1602674806.0593,66.0,945.0,94.0,138.9522690132892,34.5
1602674806.0594,66.0,945.0,97.0,138.9372908164404,34.5
1602674806.0596,66.0,945.0,102.0,138.9222106676488,34.5
1602674806.0598,66.0,945.0,104.0,138.907115954294,34.5
1602674806.06,66.0,945.0,99.0,138.8920940637554,34.5
1602674806.0602,66.0,945.0,99.0,138.86163082325663,34.5
1602674806.0603,66.0,945.0,104.0,138.8299150303181,34.5
1602674806.0605,66.0,945.0,104.0,138.79700494319292,34.5
1602674806.0607,66.0,945.0,102.0,138.76295882013397,34.5
1602674806.0609,66.0,945.0,104.0,138.7278349193944,34.5
1602674806.0611,66.0,945.0,102.0,138.69169149922715,34.5
1602674806.0612,66.0,945.0,97.0,138.65458681788522,34.5
1602674806.0614,66.0,945.0,99.0,138.61657913362166,34.5
1602674806.0616,66.0,945.0,104.0,138.5777267046895,34.5
1602674806.0618,66.0,945.0,99.0,138.53808778934166,34.5
1602674806.062,66.0,945.0,97.0,138.49772064583118,34.5
1602674806.0621,66.0,945.0,102.0,138.4566835324111,34.5
1602674806.0623,66.0,945.0,107.0,138.41503470733443,34.5
1602674806.0625,66.0,945.0,107.0,138.37283242885417,34.5
1602674806.0627,66.0,945.0,107.0,138.3301349552233,34.5
1602674806.0629,66.0,945.0,109.0,138.28700054469488,34.5
1602674806.0631,66.0,945.0,111.0,138.24348745552186,34.5
1602674806.0632,66.0,945.0,116.0,138.19965394595732,34.5
1602674806.0635,66.0,945.0,124.0,138.15555827425425,34.5
1602674806.0637,66.0,945.0,133.0,138.1112586986656,34.5
1602674806.0638,66.0,945.0,138.0,138.06681347744444,34.5
1602674806.064,66.0,945.0,133.0,138.0222808688438,34.5
1602674806.6014,66.0,911.0,116.0,137.97771913111663,34.5
1602674806.6032,66.0,911.0,104.0,137.93318652251597,34.5
1602674806.605,66.0,911.0,102.0,137.88874130129483,34.5
1602674806.6066,66.0,911.0,99.0,137.84444172570622,34.5
1602674806.6081,66.0,911.0,99.0,137.8003460540031,34.5
1602674806.6097,66.0,911.0,102.0,137.75651254443858,34.5
1602674806.6109,66.0,911.0,104.0,137.7129994552656,34.5
1602674806.612,66.0,911.0,99.0,137.66986504473718,34.5
1602674806.613,66.0,911.0,90.0,137.62716757110633,34.5
1602674806.614,66.0,911.0,82.0,137.58496529262607,34.5
1602674806.6148,66.0,911.0,99.0,137.54331646754937,34.5
1602674806.6156,66.0,911.0,199.0,137.5022793541293,34.5
1602674806.6163,66.0,911.0,423.0,137.46191221061883,34.5
1602674806.617,66.0,911.0,671.0,137.422273295271,34.5
1602674806.6177,66.0,911.0,725.0,137.3834208663388,34.5
1602674806.6185,66.0,911.0,374.0,137.34541318207522,34.5
1602674806.619,66.0,911.0,-128.0,137.30830850073332,34.5
1602674806.6196,66.0,911.0,-175.0,137.27216508056605,34.5
1602674806.6203,66.0,911.0,65.0,137.2370411798265,34.5
1602674806.6209,66.0,911.0,70.0,137.20299505676758,34.5
1602674806.6216,66.0,911.0,-2.0,137.17008496964235,34.5
1602674806.6222,66.0,911.0,51.0,137.13836917670383,34.5
1602674806.6229,66.0,911.0,77.0,137.10790593620504,34.5
1602674806.6233,66.0,911.0,48.0,137.07875350639895,34.5
1602674806.6237,66.0,911.0,60.0,137.0509701455386,34.5
1602674806.6241,66.0,911.0,77.0,137.02461411187699,34.5
1602674806.6245,66.0,911.0,72.0,136.99974366366712,34.5
1602674806.6248,66.0,911.0,75.0,136.976417059162,34.5
1602674806.6252,66.0,911.0,87.0,136.95469255661467,34.5
1602674806.6256,66.0,911.0,90.0,136.9346284142781,34.5
1602674806.6259,66.0,911.0,90.0,136.91628289040534,34.5
1602674806.6263,66.0,911.0,97.0,136.89971424324938,34.5
1602674806.6267,66.0,911.0,107.0,136.8849807310632,34.5
1602674806.6271,66.0,911.0,116.0,136.87214061209986,34.5
1602674806.6274,66.0,911.0,114.0,136.86125214461234,34.5
1602674806.6276,66.0,911.0,107.0,136.85237358685364,34.5
1602674806.6279,66.0,911.0,114.0,136.8455631970768,34.5
1602674806.6281,66.0,911.0,133.0,136.84087923353482,34.5
1602674806.6283,66.0,911.0,145.0,136.8383799544807,34.5
1602674806.6286,66.0,911.0,153.0,136.83812361816746,34.5
1602674806.6288,66.0,911.0,167.0,136.8401684828481,34.5
1602674806.6291,66.0,911.0,187.0,136.84457280677563,34.5
1602674806.6293,66.0,911.0,204.0,136.85139484820309,34.5
1602674806.6296,66.0,911.0,216.0,136.86069286538344,34.5
1602674806.6298,66.0,911.0,231.0,136.87252511656973,34.5
1602674806.6301,66.0,911.0,240.0,136.88694986001494,34.5
1602674806.6303,66.0,911.0,240.0,136.9040253539721,34.5
1602674806.6306,66.0,911.0,228.0,136.92380985669422,34.5
1602674806.6308,66.0,911.0,204.0,136.94636162643428,34.5
1602674806.6311,66.0,911.0,170.0,136.97173892144534,34.5
1602674806.6313,66.0,911.0,124.0,136.99999999998036,34.5
1602674806.6316,66.0,911.0,75.0,136.99999999998036,34.5
1602674806.6317,66.0,911.0,36.0,136.99999999998036,34.5
1602674806.6319,66.0,911.0,12.0,136.99999999998036,34.5
1602674806.6321,66.0,911.0,0.0,136.99999999998036,34.5
1602674806.6323,66.0,911.0,-9.0,136.99999999998036,34.5
1602674806.6325,66.0,911.0,-12.0,136.99999999998036,34.5
1602674806.6326,66.0,911.0,-7.0,136.99999999998036,34.5
1602674806.6328,66.0,911.0,0.0,136.99999999998036,34.5
1602674806.633,66.0,911.0,2.0,136.99999999998036,34.5
1602674806.6332,66.0,911.0,4.0,136.99999999998036,34.5
1602674806.6333,66.0,911.0,14.0,136.99999999998036,34.5
1602674806.6335,66.0,911.0,19.0,136.99999999998036,34.5
1602674806.6337,66.0,911.0,21.0,136.99999999998036,34.5
1602674806.6339,66.0,911.0,29.0,136.99999999998036,34.5
1602674806.6341,66.0,911.0,34.0,136.99999999998036,34.5
1602674806.6343,66.0,911.0,31.0,136.99999999998036,34.5
1602674806.6344,66.0,911.0,36.0,136.99999999998036,34.5
1602674806.6346,66.0,911.0,46.0,136.99999999998036,34.5
1602674806.6348,66.0,911.0,51.0,136.99999999998036,34.5
1602674806.635,66.0,911.0,51.0,136.99999999998036,34.5
1602674806.6352,66.0,911.0,53.0,136.99999999998036,34.5
1602674806.6353,66.0,911.0,55.0,136.99999999998036,34.5
1602674807.1413,66.0,911.0,58.0,136.99999999998036,34.5
1602674807.1435,66.0,911.0,60.0,136.99999999998036,34.5
1602674807.1451,66.0,911.0,60.0,136.99999999998036,34.5
1602674807.1466,66.0,911.0,65.0,136.99999999998036,34.5
1602674807.1481,66.0,911.0,65.0,136.99999999998036,34.5
1602674807.1493,66.0,911.0,65.0,136.99999999998036,34.5
1602674807.1504,66.0,911.0,63.0,136.99999999998036,34.5
1602674807.1514,66.0,911.0,60.0,136.99999999998036,34.5
1602674807.1524,66.0,911.0,58.0,136.99999999998036,34.5
1602674807.1535,66.0,911.0,55.0,136.99999999998036,34.5
1602674807.1546,66.0,911.0,53.0,136.99999999998036,34.5
1602674807.1557,66.0,911.0,58.0,136.99999999998036,34.5
1602674807.1568,66.0,911.0,60.0,136.99999999998036,34.5
1602674807.1575,66.0,911.0,58.0,136.99999999998036,34.5
1602674807.1582,66.0,911.0,60.0,136.99999999998036,34.5
1602674807.159,66.0,911.0,65.0,136.99999999998036,34.5
1602674807.1597,66.0,911.0,68.0,136.99999999998036,34.5
1602674807.1605,66.0,911.0,68.0,136.99999999998036,34.5
1602674807.1613,66.0,911.0,70.0,136.99999999998036,34.5
1602674807.1618,66.0,911.0,75.0,136.99999999998036,34.5
1602674807.1623,66.0,911.0,75.0,136.99999999998036,34.5
1602674807.1629,66.0,911.0,75.0,136.99999999998036,34.5
1602674807.1634,66.0,911.0,80.0,136.99999999998036,34.5
1602674807.1638,66.0,911.0,80.0,136.99999999998036,34.5
1602674807.1642,66.0,911.0,80.0,136.99999999998036,34.5
1602674807.1651,66.0,911.0,82.0,136.99999999998036,34.5
1602674807.1656,66.0,911.0,82.0,136.99999999998036,34.5
1602674807.166,66.0,911.0,77.0,136.99999999998036,34.5
1602674807.1664,66.0,911.0,72.0,136.99999999998036,34.5
1602674807.1667,66.0,911.0,70.0,136.99999999998036,34.5
1602674807.1671,66.0,911.0,75.0,136.99999999998036,34.5
1602674807.1674,66.0,911.0,80.0,136.99999999998036,34.5
1602674807.1677,66.0,911.0,77.0,136.99999999998036,34.5
1602674807.1681,66.0,911.0,80.0,136.99999999998036,34.5
1602674807.1684,66.0,911.0,85.0,136.99999999998036,34.5
1602674807.1688,66.0,911.0,85.0,136.99999999998036,34.5
1602674807.1691,66.0,911.0,82.0,136.99999999998036,34.5
1602674807.1695,66.0,911.0,82.0,136.99999999998036,34.5
1602674807.1698,66.0,911.0,80.0,136.99999999998036,34.5
1602674807.17,66.0,911.0,77.0,136.99999999998036,34.5
1602674807.1702,66.0,911.0,82.0,136.99999999998036,34.5
1602674807.1705,66.0,911.0,85.0,136.99999999998036,34.5
1602674807.1707,66.0,911.0,87.0,136.99999999998036,34.5
1602674807.1709,66.0,911.0,90.0,136.99999999998036,34.5
1602674807.1711,66.0,911.0,87.0,136.99999999998036,34.5
1602674807.1714,66.0,911.0,87.0,136.99999999998036,34.5
1602674807.1716,66.0,911.0,90.0,136.99999999998036,34.5
1602674807.1718,66.0,911.0,90.0,136.99999999998036,34.5
1602674807.172,66.0,911.0,87.0,136.99999999998036,34.5
1602674807.1723,66.0,911.0,90.0,136.99999999998036,34.5
1602674807.1725,66.0,911.0,97.0,136.99999999998036,34.5
1602674807.1727,66.0,911.0,97.0,136.99999999998036,34.5
1602674807.1729,66.0,911.0,94.0,136.99999999998036,34.5
1602674807.1732,66.0,911.0,94.0,136.99999999998036,34.5
1602674807.1734,66.0,911.0,102.0,136.99999999998036,34.5
1602674807.1736,66.0,911.0,109.0,136.99999999998036,34.5
1602674807.1738,66.0,911.0,116.0,136.99999999998036,34.5
1602674807.174,66.0,911.0,126.0,136.99999999998036,34.5
1602674807.1743,66.0,911.0,131.0,136.99999999998036,34.5
1602674807.1745,66.0,911.0,121.0,136.99999999998036,34.5
1602674807.1747,66.0,911.0,107.0,136.99999999998036,34.5
1602674807.1749,66.0,911.0,102.0,136.99999999998036,34.5
1602674807.1751,66.0,911.0,94.0,136.99999999998036,34.5
1602674807.1753,66.0,911.0,90.0,136.99999999998036,34.5
1602674807.1756,66.0,911.0,90.0,136.99999999998036,34.5
1602674807.1758,66.0,911.0,94.0,136.99999999998036,34.5
1602674807.176,66.0,911.0,94.0,136.99999999998036,34.5
1602674807.1763,66.0,911.0,97.0,136.99999999998036,34.5
1602674807.1765,66.0,911.0,94.0,136.99999999998036,34.5
1602674807.1767,66.0,911.0,92.0,136.99999999998036,34.5
1602674807.1769,66.0,911.0,104.0,136.99999999998036,34.5
1602674807.1771,66.0,911.0,204.0,136.99999999998036,34.5
1602674807.1774,66.0,911.0,437.0,136.99999999998036,34.5
1602674807.6813,66.0,960.0,681.0,136.99999999998036,34.5
1602674807.6831,66.0,960.0,693.0,136.99999999998036,34.5
1602674807.6846,66.0,960.0,301.0,136.99999999998036,34.5
1602674807.6865,66.0,960.0,-167.0,136.99999999998036,34.5
1602674807.6877,66.0,960.0,-153.0,136.99999999998036,34.5
1602674807.6891,66.0,960.0,72.0,136.99999999998036,34.5
1602674807.6902,66.0,960.0,38.0,136.99999999998036,34.5
1602674807.6914,66.0,960.0,-21.0,136.99999999998036,34.5
1602674807.6925,66.0,960.0,41.0,136.99999999998036,34.5
1602674807.6936,66.0,960.0,55.0,136.99999999998036,34.5
1602674807.6947,66.0,960.0,31.0,136.99999999998036,34.5
1602674807.6956,66.0,960.0,51.0,136.99999999998036,34.5
1602674807.6965,66.0,960.0,68.0,136.99999999998036,34.5
1602674807.6973,66.0,960.0,63.0,136.99999999998036,34.5
1602674807.6981,66.0,960.0,70.0,136.99999999998036,34.5
1602674807.699,66.0,960.0,82.0,136.99999999998036,34.5
1602674807.6998,66.0,960.0,85.0,136.99999999998036,34.5
1602674807.7006,66.0,960.0,87.0,136.99999999998036,34.5
1602674807.7015,66.0,960.0,92.0,136.99999999998036,34.5
1602674807.7023,66.0,960.0,92.0,136.99999999998036,34.5
1602674807.703,66.0,960.0,90.0,136.99999999998036,34.5
1602674807.7037,66.0,960.0,90.0,136.99999999998036,34.5
1602674807.7044,66.0,960.0,97.0,136.99999999998036,34.5
1602674807.705,66.0,960.0,104.0,136.97173892144534,34.5
1602674807.7057,66.0,960.0,111.0,136.94636162643428,34.5
1602674807.7063,66.0,960.0,124.0,136.92380985669422,34.5
1602674807.707,66.0,960.0,133.0,136.9040253539721,34.5
1602674807.7076,66.0,960.0,148.0,136.88694986001494,34.5
1602674807.7083,66.0,960.0,163.0,136.87252511656973,34.5
1602674807.7089,66.0,960.0,172.0,136.86069286538344,34.5
1602674807.7096,66.0,960.0,184.0,136.85139484820309,34.5
1602674807.7102,66.0,960.0,201.0,136.84457280677563,34.5
1602674807.711,66.0,960.0,214.0,136.8401684828481,34.5
1602674807.7116,66.0,960.0,218.0,136.83812361816746,34.5
1602674807.7121,66.0,960.0,214.0,136.8383799544807,34.5
1602674807.7125,66.0,960.0,197.0,136.84087923353482,34.5
1602674807.713,66.0,960.0,163.0,136.8455631970768,34.5
1602674807.7134,66.0,960.0,119.0,136.85237358685364,34.5
1602674807.7139,66.0,960.0,72.0,136.86125214461234,34.5
1602674807.7143,66.0,960.0,36.0,136.87214061209986,34.5
1602674807.7148,66.0,960.0,9.0,136.8849807310632,34.5
1602674807.7152,66.0,960.0,-4.0,136.89971424324938,34.5
1602674807.7158,66.0,960.0,-9.0,136.91628289040534,34.5
1602674807.7163,66.0,960.0,-7.0,136.9346284142781,34.5
1602674807.7169,66.0,960.0,-4.0,136.95469255661467,34.5
1602674807.7174,66.0,960.0,-2.0,136.976417059162,34.5
1602674807.718,66.0,960.0,4.0,136.99974366366712,34.5
1602674807.7185,66.0,960.0,14.0,137.02461411187699,34.5
1602674807.7191,66.0,960.0,24.0,137.0509701455386,34.5
1602674807.7196,66.0,960.0,26.0,137.07875350639895,34.5
1602674807.72,66.0,960.0,29.0,137.10790593620504,34.5
1602674807.7203,66.0,960.0,36.0,137.13836917670383,34.5
1602674807.7207,66.0,960.0,36.0,137.17008496964235,34.5
1602674807.721,66.0,960.0,38.0,137.20299505676758,34.5
1602674807.7216,66.0,960.0,46.0,137.2370411798265,34.5
1602674807.722,66.0,960.0,53.0,137.27216508056605,34.5
1602674807.7223,66.0,960.0,53.0,137.30830850073332,34.5
1602674807.7227,66.0,960.0,55.0,137.34541318207522,34.5
1602674807.723,66.0,960.0,60.0,137.3834208663388,34.5
1602674807.7233,66.0,960.0,63.0,137.422273295271,34.5
1602674807.7236,66.0,960.0,63.0,137.46191221061883,34.5
1602674807.7239,66.0,960.0,63.0,137.5022793541293,34.5
1602674807.7241,66.0,960.0,60.0,137.54331646754937,34.5
1602674807.7243,66.0,960.0,63.0,137.58496529262607,34.5
1602674807.7245,66.0,960.0,63.0,137.62716757110633,34.5
1602674807.7248,66.0,960.0,65.0,137.66986504473718,34.5
1602674807.725,66.0,960.0,68.0,137.7129994552656,34.5
1602674807.7252,66.0,960.0,72.0,137.75651254443858,34.5
1602674807.7254,66.0,960.0,72.0,137.8003460540031,34.5
1602674807.7256,66.0,960.0,68.0,137.84444172570622,34.5
1602674807.7259,66.0,960.0,70.0,137.88874130129483,34.5
1602674807.7261,66.0,960.0,75.0,137.93318652251597,34.5
1602674807.7263,66.0,960.0,75.0,137.97771913111663,34.5
1602674808.2811,66.0,960.0,75.0,138.0222808688438,34.5
1602674808.2832,66.0,960.0,77.0,138.06681347744444,34.5
1602674808.2846,66.0,960.0,80.0,138.1112586986656,34.5
1602674808.2861,66.0,960.0,70.0,138.15555827425425,34.5
1602674808.2875,66.0,960.0,63.0,138.19965394595732,34.5
1602674808.2886,66.0,960.0,70.0,138.24348745552186,34.5
1602674808.2896,66.0,960.0,77.0,138.28700054469488,34.5
1602674808.2906,66.0,960.0,75.0,138.3301349552233,34.5
1602674808.2915,66.0,960.0,75.0,138.37283242885417,34.5
1602674808.2924,66.0,960.0,80.0,138.41503470733443,34.5
1602674808.2934,66.0,960.0,82.0,138.4566835324111,34.5
1602674808.2944,66.0,960.0,77.0,138.49772064583118,34.5
1602674808.2954,66.0,960.0,72.0,138.53808778934166,34.5
1602674808.2964,66.0,960.0,68.0,138.5777267046895,34.5
1602674808.2972,66.0,960.0,68.0,138.61657913362166,34.5
1602674808.2978,66.0,960.0,70.0,138.65458681788522,34.5
1602674808.2985,66.0,960.0,72.0,138.69169149922715,34.5
1602674808.2992,66.0,960.0,75.0,138.7278349193944,34.5
1602674808.2998,66.0,960.0,82.0,138.76295882013397,34.5
1602674808.3005,66.0,960.0,85.0,138.79700494319292,34.5
1602674808.3012,66.0,960.0,77.0,138.8299150303181,34.5
1602674808.3019,66.0,960.0,70.0,138.86163082325663,34.5
1602674808.3025,66.0,960.0,72.0,138.8920940637554,34.5
1602674808.3032,66.0,960.0,80.0,138.907115954294,34.5
1602674808.3039,66.0,960.0,82.0,138.9222106676488,34.5
1602674808.3046,66.0,960.0,82.0,138.9372908164404,34.5
1602674808.3054,66.0,960.0,85.0,138.9522690132892,34.5
1602674808.3062,66.0,960.0,85.0,138.96705787081572,34.5
1602674808.3067,66.0,960.0,87.0,138.98157000164048,34.5
1602674808.3073,66.0,960.0,90.0,138.99571801838385,34.5
1602674808.3078,66.0,960.0,90.0,139.00941453366647,34.5
1602674808.3084,66.0,960.0,87.0,139.02257216010872,34.5
1602674808.3092,66.0,960.0,90.0,139.0351035103311,34.5
1602674808.3098,66.0,960.0,92.0,139.04692119695414,34.5
1602674808.3104,66.0,960.0,92.0,139.05793783259827,34.5
1602674808.311,66.0,960.0,90.0,139.06806602988405,34.5
1602674808.3115,66.0,960.0,102.0,139.07721840143188,34.5
1602674808.312,66.0,960.0,116.0,139.08530755986226,34.5
1602674808.3125,66.0,960.0,121.0,139.09224611779575,34.5
1602674808.313,66.0,960.0,116.0,139.09794668785275,34.5
1602674808.3135,66.0,960.0,107.0,139.10232188265377,34.5
1602674808.314,66.0,960.0,92.0,139.10528431481936,34.5
1602674808.3144,66.0,960.0,80.0,139.10674659696986,34.5
1602674808.3148,66.0,960.0,77.0,139.10662134172588,34.5
1602674808.3152,66.0,960.0,80.0,139.1048211617079,34.5
1602674808.3157,66.0,960.0,80.0,139.10125866953638,34.5
1602674808.3161,66.0,960.0,77.0,139.09584647783174,34.5
1602674808.3165,66.0,960.0,77.0,139.0884971992146,34.5
1602674808.3169,66.0,960.0,82.0,139.0791234463053,34.5
1602674808.3174,66.0,960.0,85.0,139.06763783172443,34.5
1602674808.3179,66.0,960.0,82.0,139.05395296809246,34.5
1602674808.3184,66.0,960.0,133.0,139.06918458834184,34.5
1602674808.3187,66.0,960.0,318.0,139.08504248481108,34.5
1602674808.3191,66.0,960.0,581.0,139.10149752837373,34.5
1602674808.3194,66.0,960.0,737.0,139.11852058990314,34.5
1602674808.3198,66.0,960.0,537.0,139.13608254027292,34.5
1602674808.3201,66.0,960.0,19.0,139.15415425035656,34.5
1602674808.3205,66.0,960.0,-243.0,139.17270659102752,34.5
1602674808.3208,66.0,960.0,-36.0,139.1917104331593,34.5
1602674808.3212,66.0,960.0,80.0,139.21113664762544,34.5
1602674808.3215,66.0,960.0,-4.0,139.23095610529936,34.5
1602674808.3219,66.0,960.0,17.0,139.2511396770546,34.5
1602674808.3222,66.0,960.0,65.0,139.27165823376458,34.5
1602674808.3225,66.0,960.0,38.0,139.29248264630297,34.5
1602674808.3227,66.0,960.0,36.0,139.31358378554307,34.5
1602674808.323,66.0,960.0,58.0,139.33493252235849,34.5
1602674808.3232,66.0,960.0,55.0,139.35649972762275,34.5
1602674808.3234,66.0,960.0,55.0,139.37825627220923,34.5
1602674808.3236,66.0,960.0,65.0,139.40017302699147,34.5
1602674808.3238,66.0,960.0,65.0,139.422220862843,34.5
1602674808.3241,66.0,960.0,65.0,139.44437065063732,34.5
1602674808.3243,66.0,960.0,77.0,139.4665932612479,34.5
1602674808.3245,66.0,960.0,85.0,139.4888595655482,34.5
1602674808.851,66.0,1022.0,87.0,139.5111404344118,34.5
1602674808.8528,66.0,1022.0,92.0,139.53340673871213,34.5
1602674808.8544,66.0,1022.0,99.0,139.5556293493227,34.5
1602674808.8562,66.0,1022.0,109.0,139.577779137117,34.5
1602674808.8578,66.0,1022.0,116.0,139.59982697296854,34.5
1602674808.8588,66.0,1022.0,119.0,139.6217437277508,34.5
1602674808.8598,66.0,1022.0,128.0,139.6435002723373,34.5
1602674808.8607,66.0,1022.0,143.0,139.66506747760153,34.5
1602674808.8617,66.0,1022.0,148.0,139.68641621441694,34.5
1602674808.8628,66.0,1022.0,158.0,139.70751735365707,34.5
1602674808.8641,66.0,1022.0,180.0,139.7283417661954,34.5
1602674808.8653,66.0,1022.0,194.0,139.74886032290544,34.5
1602674808.8664,66.0,1022.0,201.0,139.76904389466068,34.5
1602674808.8674,66.0,1022.0,209.0,139.7888633523346,34.5
1602674808.8681,66.0,1022.0,211.0,139.8082895668007,34.5
1602674808.869,66.0,1022.0,199.0,139.8272934089325,34.5
1602674808.8697,66.0,1022.0,175.0,139.84584574960346,34.5
1602674808.8704,66.0,1022.0,136.0,139.86391745968706,34.5
1602674808.8711,66.0,1022.0,90.0,139.88147941005687,34.5
1602674808.8718,66.0,1022.0,46.0,139.8985024715863,34.5
1602674808.8726,66.0,1022.0,14.0,139.91495751514893,34.5
1602674808.8734,66.0,1022.0,-2.0,139.93081541161817,34.5
1602674808.8741,66.0,1022.0,-9.0,139.94604703186758,34.5
1602674808.8748,66.0,1022.0,-9.0,139.91823162896807,34.5
1602674808.8755,66.0,1022.0,-12.0,139.89405736688167,34.5
1602674808.8761,66.0,1022.0,-7.0,139.87340772910235,34.5
1602674808.8768,66.0,1022.0,2.0,139.85616619912412,34.5
1602674808.8773,66.0,1022.0,4.0,139.84221626044095,34.5
1602674808.8778,66.0,1022.0,9.0,139.83144139654678,34.5
1602674808.8784,66.0,1022.0,19.0,139.82372509093562,34.5
1602674808.8789,66.0,1022.0,21.0,139.81895082710147,34.5
1602674808.8794,66.0,1022.0,19.0,139.81700208853832,34.5
1602674808.88,66.0,1022.0,24.0,139.81776235874008,34.5
1602674808.8805,66.0,1022.0,34.0,139.8211151212008,34.5
1602674808.881,66.0,1022.0,43.0,139.82694385941443,34.5
1602674808.8814,66.0,1022.0,46.0,139.83513205687495,34.5
1602674808.8819,66.0,1022.0,48.0,139.84556319707633,34.5
1602674808.8823,66.0,1022.0,51.0,139.8581207635126,34.5
1602674808.8828,66.0,1022.0,55.0,139.87268823967767,34.5
1602674808.8832,66.0,1022.0,58.0,139.88914910906558,34.5
1602674808.8837,66.0,1022.0,58.0,139.9073868551703,34.5
1602674808.8841,66.0,1022.0,63.0,139.92728496148578,34.5
1602674808.8846,66.0,1022.0,65.0,139.94872691150601,34.5
1602674808.8851,66.0,1022.0,60.0,139.97159618872502,34.5
1602674808.8855,66.0,1022.0,55.0,139.99577627663672,34.5
1602674808.8858,66.0,1022.0,58.0,140.0211506587351,34.5
1602674808.8862,66.0,1022.0,63.0,140.04760281851418,34.5
1602674808.8865,66.0,1022.0,63.0,140.07501623946794,34.5
1602674808.8869,66.0,1022.0,65.0,140.1032744050903,34.5
1602674808.8872,66.0,1022.0,65.0,140.13226079887534,34.5
1602674808.8876,66.0,1022.0,65.0,140.16185890431694,34.5
1602674808.8879,66.0,1022.0,68.0,140.20755376506514,34.5
1602674808.8883,66.0,1022.0,68.0,140.2551274544729,34.5
1602674808.8886,66.0,1022.0,72.0,140.30449258516072,34.5
1602674808.889,66.0,1022.0,75.0,140.35556176974907,34.5
1602674808.8893,66.0,1022.0,72.0,140.40824762085845,34.5
1602674808.8895,66.0,1022.0,72.0,140.46246275110934,34.5
1602674808.8898,66.0,1022.0,75.0,140.51811977312224,34.5
1602674808.89,66.0,1022.0,77.0,140.57513129951758,34.5
1602674808.8902,66.0,1022.0,77.0,140.63340994291588,34.5
1602674808.8904,66.0,1022.0,80.0,140.69286831593766,34.5
1602674808.8907,66.0,1022.0,82.0,140.75341903120335,34.5
1602674808.8909,66.0,1022.0,80.0,140.81497470133345,34.5
1602674808.8912,66.0,1022.0,80.0,140.87744793894848,34.5
1602674808.8914,66.0,1022.0,85.0,140.94075135666887,34.5
1602674808.8916,66.0,1022.0,87.0,141.00479756711516,34.5
1602674808.8918,66.0,1022.0,87.0,141.06949918290778,34.5
1602674808.8921,66.0,1022.0,87.0,141.13476881666725,34.5
1602674808.8923,66.0,1022.0,87.0,141.20051908101408,34.5
1602674808.8925,66.0,1022.0,90.0,141.26666258856872,34.5
1602674808.8927,66.0,1022.0,90.0,141.33311195195165,34.5
1602674808.893,66.0,1022.0,82.0,141.39977978378337,34.5
1602674808.8932,66.0,1022.0,80.0,141.46657869668437,34.5
1602674809.3904,66.0,1022.0,85.0,141.5334213032751,34.5
1602674809.3923,66.0,1022.0,80.0,141.6002202161761,34.5
1602674809.3938,66.0,1022.0,75.0,141.6668880480078,34.5
1602674809.3953,66.0,1022.0,77.0,141.73333741139075,34.5
1602674809.3967,66.0,1022.0,85.0,141.79948091894536,34.5
1602674809.3977,66.0,1022.0,85.0,141.8652311832922,34.5
1602674809.3986,66.0,1022.0,82.0,141.93050081705164,34.5
1602674809.3996,66.0,1022.0,82.0,141.9952024328443,34.5
1602674809.4006,66.0,1022.0,85.0,142.0592486432906,34.5
1602674809.4015,66.0,1022.0,80.0,142.12255206101096,34.5
1602674809.4026,66.0,1022.0,75.0,142.18502529862602,34.5
1602674809.4038,66.0,1022.0,82.0,142.2465809687561,34.5
1602674809.4049,66.0,1022.0,85.0,142.3071316840218,34.5
1602674809.406,66.0,1022.0,80.0,142.36659005704357,34.5
1602674809.4068,66.0,1022.0,80.0,142.42486870044186,34.5
1602674809.4075,66.0,1022.0,85.0,142.4818802268372,34.5
1602674809.4083,66.0,1022.0,80.0,142.5375372488501,34.5
1602674809.409,66.0,1022.0,77.0,142.591752379101,34.5
1602674809.4098,66.0,1022.0,80.0,142.64443823021034,34.5
1602674809.4106,66.0,1022.0,80.0,142.6955074147987,34.5
1602674809.4113,66.0,1022.0,80.0,142.74487254548652,34.5
1602674809.412,66.0,1022.0,90.0,142.7924462348943,34.5
1602674809.4126,66.0,1022.0,104.0,142.8381410956425,34.5
1602674809.4133,66.0,1022.0,109.0,142.83947812254908,34.5
1602674809.414,66.0,1022.0,107.0,142.84308722132303,34.5
1602674809.4147,66.0,1022.0,97.0,142.84879361720536,34.5
1602674809.4153,66.0,1022.0,85.0,142.85642253543696,34.5
1602674809.4159,66.0,1022.0,80.0,142.8657992012589,34.5
1602674809.4164,66.0,1022.0,72.0,142.87674883991204,34.5
1602674809.4169,66.0,1022.0,68.0,142.88909667663748,34.5
1602674809.4175,66.0,1022.0,72.0,142.90266793667612,34.5
1602674809.4181,66.0,1022.0,77.0,142.91728784526893,34.5
1602674809.4187,66.0,1022.0,77.0,142.93278162765685,34.5
1602674809.4192,66.0,1022.0,77.0,142.9489745090809,34.5
1602674809.4197,66.0,1022.0,72.0,142.96569171478208,34.5
1602674809.4201,66.0,1022.0,72.0,142.98275847000124,34.5
1602674809.4205,66.0,1022.0,133.0,142.9999999999795,34.5
1602674809.421,66.0,1022.0,328.0,143.01724152995772,34.5
1602674809.4214,66.0,1022.0,593.0,143.03430828517693,34.5
1602674809.4221,66.0,1022.0,727.0,143.05102549087812,34.5
1602674809.4227,66.0,1022.0,496.0,143.06721837230216,34.5
1602674809.4234,66.0,1022.0,-24.0,143.08271215469009,34.5
1602674809.4237,66.0,1022.0,-240.0,143.0973320632829,34.5
1602674809.4241,66.0,1022.0,-26.0,143.11090332332154,34.5
1602674809.4244,66.0,1022.0,55.0,143.12325116004698,34.5
1602674809.4248,66.0,1022.0,-31.0,143.13420079870016,34.5
1602674809.4251,66.0,1022.0,-2.0,143.14357746452205,34.5
1602674809.4255,66.0,1022.0,46.0,143.1512063827537,34.5
1602674809.4258,66.0,1022.0,21.0,143.15691277863598,34.5
1602674809.4262,66.0,1022.0,21.0,143.16052187740993,34.5
1602674809.4265,66.0,1022.0,51.0,143.16185890431652,34.5
1602674809.4269,66.0,1022.0,51.0,143.20755376506472,34.5
1602674809.4272,66.0,1022.0,48.0,143.2551274544725,34.5
1602674809.4275,66.0,1022.0,60.0,143.30449258516032,34.5
1602674809.4278,66.0,1022.0,70.0,143.35556176974868,34.5
1602674809.428,66.0,1022.0,70.0,143.40824762085802,34.5
1602674809.4282,66.0,1022.0,72.0,143.46246275110892,34.5
1602674809.4284,66.0,1022.0,80.0,143.5181197731218,34.5
1602674809.4287,66.0,1022.0,90.0,143.57513129951715,34.5
1602674809.4289,66.0,1022.0,97.0,143.63340994291545,34.5
1602674809.4291,66.0,1022.0,99.0,143.6928683159372,34.5
1602674809.4293,66.0,1022.0,107.0,143.75341903120292,34.5
1602674809.4296,66.0,1022.0,116.0,143.814974701333,34.5
1602674809.4298,66.0,1022.0,126.0,143.87744793894805,34.5
1602674809.43,66.0,1022.0,128.0,143.94075135666841,34.5
1602674809.4302,66.0,1022.0,138.0,144.0047975671147,34.5
1602674809.4305,66.0,1022.0,150.0,144.06949918290732,34.5
1602674809.4307,66.0,1022.0,163.0,144.13476881666682,34.5
1602674809.4309,66.0,1022.0,182.0,144.20051908101365,34.5
1602674809.4311,66.0,1022.0,201.0,144.26666258856827,34.5
1602674809.4314,66.0,1022.0,216.0,144.33311195195117,34.5
1602674809.4316,66.0,1022.0,221.0,144.3997797837829,34.5
1602674809.4317,66.0,1022.0,218.0,144.46657869668388,34.5
1602674809.9612,66.0,1048.0,211.0,144.53342130327462,34.5
1602674809.9629,66.0,1048.0,187.0,144.60022021617561,34.5
1602674809.9645,66.0,1048.0,145.0,144.66688804800734,34.5
1602674809.9659,66.0,1048.0,97.0,144.73333741139027,34.5
1602674809.9674,66.0,1048.0,58.0,144.7994809189449,34.5
1602674809.9688,66.0,1048.0,26.0,144.8652311832917,34.5
1602674809.9698,66.0,1048.0,-2.0,144.9305008170512,34.5
1602674809.9707,66.0,1048.0,-19.0,144.99520243284385,34.5
1602674809.9717,66.0,1048.0,-19.0,145.05924864329012,34.5
1602674809.9727,66.0,1048.0,-14.0,145.12255206101054,34.5
1602674809.9739,66.0,1048.0,-12.0,145.18502529862556,34.5
1602674809.975,66.0,1048.0,-7.0,145.24658096875567,34.5
1602674809.976,66.0,1048.0,0.0,145.30713168402136,34.5
1602674809.977,66.0,1048.0,4.0,145.3665900570431,34.5
1602674809.9779,66.0,1048.0,9.0,145.42486870044144,34.5
1602674809.9787,66.0,1048.0,14.0,145.48188022683678,34.5
1602674809.9793,66.0,1048.0,24.0,145.53753724884965,34.5
1602674809.9803,66.0,1048.0,26.0,145.59175237910054,34.5
1602674809.9811,66.0,1048.0,29.0,145.64443823020991,34.5
1602674809.9819,66.0,1048.0,36.0,145.69550741479827,34.5
1602674809.9826,66.0,1048.0,43.0,145.7448725454861,34.5
1602674809.9833,66.0,1048.0,46.0,145.79244623489387,34.5
1602674809.984,66.0,1048.0,46.0,145.83814109564207,34.5
1602674809.9846,66.0,1048.0,51.0,145.8818697403512,34.5
1602674809.9853,66.0,1048.0,51.0,145.9235447816417,34.5
1602674809.9861,66.0,1048.0,46.0,145.96307883213413,34.5
1602674809.9868,66.0,1048.0,46.0,146.00038450444893,34.5
1602674809.9874,66.0,1048.0,48.0,146.0353744112066,34.5
1602674809.9879,66.0,1048.0,53.0,146.0679611650276,34.5
1602674809.9884,66.0,1048.0,55.0,146.09805737853245,34.5
1602674809.989,66.0,1048.0,53.0,146.12557566434162,34.5
1602674809.9895,66.0,1048.0,51.0,146.15042863507557,34.5
1602674809.9902,66.0,1048.0,55.0,146.17252890335482,34.5
1602674809.9907,66.0,1048.0,55.0,146.19178908179984,34.5
1602674809.9912,66.0,1048.0,55.0,146.20812178303115,34.5
1602674809.9917,66.0,1048.0,60.0,146.22143961966916,34.5
1602674809.9921,66.0,1048.0,63.0,146.23165520433443,34.5
1602674809.9926,66.0,1048.0,60.0,146.23868114964742,34.5
1602674809.993,66.0,1048.0,63.0,146.2424300682286,34.5
1602674809.9935,66.0,1048.0,65.0,146.24281457269845,34.5
1602674809.9939,66.0,1048.0,65.0,146.2397472756775,34.5
1602674809.9943,66.0,1048.0,63.0,146.23314078978618,34.5
1602674809.9948,66.0,1048.0,63.0,146.222907727645,34.5
1602674809.9952,66.0,1048.0,68.0,146.20896070187447,34.5
1602674809.9956,66.0,1048.0,70.0,146.19121232509505,34.5
1602674809.9961,66.0,1048.0,70.0,146.16957520992725,34.5
1602674809.9963,66.0,1048.0,70.0,146.1439619689915,34.5
1602674809.9965,66.0,1048.0,72.0,146.11428521490834,34.5
1602674809.9967,66.0,1048.0,72.0,146.0804575602982,34.5
1602674809.997,66.0,1048.0,75.0,146.04239161778162,34.5
1602674809.9972,66.0,1048.0,77.0,145.99999999997908,34.5
1602674809.9974,66.0,1048.0,80.0,145.99999999997908,34.5
1602674809.9977,66.0,1048.0,80.0,145.99999999997908,34.5
1602674809.9979,66.0,1048.0,75.0,145.99999999997908,34.5
1602674809.9981,66.0,1048.0,75.0,145.99999999997908,34.5
1602674809.9983,66.0,1048.0,75.0,145.99999999997908,34.5
1602674809.9986,66.0,1048.0,68.0,145.99999999997908,34.5
1602674809.9988,66.0,1048.0,60.0,145.99999999997908,34.5
1602674809.999,66.0,1048.0,60.0,145.99999999997908,34.5
1602674809.9992,66.0,1048.0,68.0,145.99999999997908,34.5
1602674809.9995,66.0,1048.0,68.0,145.99999999997908,34.5
1602674809.9997,66.0,1048.0,68.0,145.99999999997908,34.5
1602674809.9999,66.0,1048.0,70.0,145.99999999997908,34.5
1602674810.0001,66.0,1048.0,75.0,145.99999999997908,34.5
1602674810.0003,66.0,1048.0,75.0,145.99999999997908,34.5
1602674810.0006,66.0,1048.0,75.0,145.99999999997908,34.5
1602674810.0008,66.0,1048.0,77.0,145.99999999997908,34.5
1602674810.001,66.0,1048.0,77.0,145.99999999997908,34.5
1602674810.0013,66.0,1048.0,75.0,145.99999999997908,34.5
1602674810.0015,66.0,1048.0,75.0,145.99999999997908,34.5
1602674810.0017,66.0,1048.0,77.0,145.99999999997908,34.5
1602674810.002,66.0,1048.0,80.0,145.99999999997908,34.5
1602674810.0022,66.0,1048.0,77.0,145.99999999997908,34.5
1602674810.5002,65.0,997.0,72.0,145.99999999997908,34.5
1602674810.5014,65.0,997.0,72.0,145.99999999997908,34.5
1602674810.5024,65.0,997.0,77.0,145.99999999997908,34.5
1602674810.5034,65.0,997.0,77.0,145.99999999997908,34.5
1602674810.5044,65.0,997.0,72.0,145.99999999997908,34.5
1602674810.5055,65.0,997.0,77.0,145.99999999997908,34.5
1602674810.5065,65.0,997.0,90.0,145.99999999997908,34.5
1602674810.5077,65.0,997.0,94.0,145.99999999997908,34.5
1602674810.5087,65.0,997.0,92.0,145.99999999997908,34.5
1602674810.5097,65.0,997.0,87.0,145.99999999997908,34.5
1602674810.5109,65.0,997.0,75.0,145.99999999997908,34.5
1602674810.5116,65.0,997.0,58.0,145.99999999997908,34.5
1602674810.5126,65.0,997.0,55.0,145.99999999997908,34.5
1602674810.5135,65.0,997.0,60.0,145.99999999997908,34.5
1602674810.5143,65.0,997.0,60.0,145.99999999997908,34.5
1602674810.515,65.0,997.0,60.0,145.99999999997908,34.5
1602674810.5156,65.0,997.0,60.0,145.99999999997908,34.5
1602674810.5162,65.0,997.0,60.0,145.99999999997908,34.5
1602674810.5167,65.0,997.0,60.0,145.99999999997908,34.5
1602674810.5173,65.0,997.0,58.0,145.99999999997908,34.5
1602674810.5178,65.0,997.0,97.0,145.99999999997908,34.5
1602674810.5184,65.0,997.0,253.0,145.99999999997908,34.5
1602674810.5189,65.0,997.0,510.0,145.99999999997908,34.5
1602674810.5194,65.0,997.0,700.0,145.97173892144406,34.5
1602674810.5199,65.0,997.0,591.0,145.946361626433,34.5
1602674810.5203,65.0,997.0,109.0,145.9238098566929,34.5
1602674810.5208,65.0,997.0,-248.0,145.9040253539708,34.5
1602674810.5212,65.0,997.0,-107.0,145.88694986001363,34.5
1602674810.5217,65.0,997.0,58.0,145.87252511656843,34.5
1602674810.5223,65.0,997.0,-19.0,145.86069286538213,34.5
1602674810.5228,65.0,997.0,-31.0,145.85139484820178,34.5
1602674810.5233,65.0,997.0,31.0,145.84457280677435,34.5
1602674810.5238,65.0,997.0,21.0,145.84016848284682,34.5
1602674810.524,65.0,997.0,12.0,145.83812361816618,34.5
1602674810.5243,65.0,997.0,36.0,145.83837995447942,34.5
1602674810.5245,65.0,997.0,41.0,145.8408792335335,34.5
1602674810.5247,65.0,997.0,38.0,145.8455631970755,34.5
1602674810.525,65.0,997.0,51.0,145.85237358685234,34.5
1602674810.5252,65.0,997.0,60.0,145.86125214461103,34.5
1602674810.5254,65.0,997.0,60.0,145.87214061209855,34.5
1602674810.5257,65.0,997.0,65.0,145.88498073106192,34.5
1602674810.5259,65.0,997.0,72.0,145.89971424324807,34.5
1602674810.5261,65.0,997.0,80.0,145.91628289040406,34.5
1602674810.5264,65.0,997.0,85.0,145.93462841427683,34.5
1602674810.5266,65.0,997.0,90.0,145.9546925566134,34.5
1602674810.5268,65.0,997.0,99.0,145.97641705916072,34.5
1602674810.5271,65.0,997.0,109.0,145.99974366366584,34.5
1602674810.5274,65.0,997.0,111.0,146.0246141118757,34.5
1602674810.5276,65.0,997.0,114.0,146.05097014553732,34.5
1602674810.5278,65.0,997.0,116.0,146.07875350639767,34.5
1602674810.528,65.0,997.0,131.0,146.10790593620376,34.5
1602674810.5282,65.0,997.0,153.0,146.13836917670255,34.5
1602674810.5283,65.0,997.0,172.0,146.17008496964107,34.5
1602674810.5285,65.0,997.0,187.0,146.2029950567663,34.5
1602674810.5287,65.0,997.0,201.0,146.23704117982518,34.5
1602674810.5289,65.0,997.0,211.0,146.27216508056478,34.5
1602674810.529,65.0,997.0,216.0,146.30830850073204,34.5
1602674810.5292,65.0,997.0,214.0,146.34541318207394,34.5
1602674810.5294,65.0,997.0,192.0,146.3834208663375,34.5
1602674810.5296,65.0,997.0,153.0,146.42227329526972,34.5
1602674810.5297,65.0,997.0,107.0,146.46191221061756,34.5
1602674810.5299,65.0,997.0,63.0,146.50227935412804,34.5
1602674810.5301,65.0,997.0,26.0,146.5433164675481,34.5
1602674810.5302,65.0,997.0,4.0,146.5849652926248,34.5
1602674810.5304,65.0,997.0,-7.0,146.62716757110505,34.5
1602674810.5306,65.0,997.0,-12.0,146.6698650447359,34.5
1602674810.5307,65.0,997.0,-14.0,146.71299945526434,34.5
1602674810.5309,65.0,997.0,-9.0,146.75651254443733,34.5
1602674810.5311,65.0,997.0,-2.0,146.80034605400186,34.5
1602674810.5312,65.0,997.0,2.0,146.84444172570494,34.5
1602674810.5314,65.0,997.0,4.0,146.88874130129358,34.5
1602674810.5316,65.0,997.0,9.0,146.93318652251472,34.5
1602674810.5318,65.0,997.0,17.0,146.97771913111538,34.5
