,hr,rr,ecg,gsr,temperature
1602594924.0442,59.0,1183.0,193.0,470.1154191946892,36.38
1602594924.0466,59.0,1183.0,1191.0,470.10131873724197,36.38
1602594924.0493,59.0,1183.0,2924.0,470.08774363215866,36.38
1602594924.0516,59.0,1183.0,4193.0,470.0746938794393,36.38
1602594924.0536,59.0,1183.0,4838.0,470.06216947908376,36.38
1602594924.0556,59.0,1183.0,5561.0,470.05017043109217,36.38
1602594924.0578,59.0,1183.0,6235.0,470.03869673546444,36.38
1602594924.0596,59.0,1183.0,6651.0,470.0277483922007,36.38
1602594924.0618,59.0,1183.0,7023.0,470.0173254013008,36.38
1602594924.0639,59.0,1183.0,7379.0,470.0074277627648,36.38
1602594924.0659,59.0,1183.0,7620.0,469.99805547659275,36.38
1602594924.0679,59.0,1183.0,7818.0,469.9892085427846,36.38
1602594924.0702,59.0,1183.0,8012.0,469.98088696134033,36.38
1602594924.0721,59.0,1183.0,8164.0,469.97309073225995,36.38
1602594924.0736,59.0,1183.0,8275.0,469.96581985554354,36.38
1602594924.0756,59.0,1183.0,8365.0,469.95907433119095,36.38
1602594924.0779,59.0,1183.0,8428.0,469.95285415920233,36.38
1602594924.0796,59.0,1183.0,8502.0,469.9471593395776,36.38
1602594924.0816,59.0,1183.0,8689.0,469.94198987231675,36.38
1602594924.0836,59.0,1183.0,8950.0,469.93734575741985,36.38
1602594924.0856,59.0,1183.0,8967.0,469.93322699488687,36.38
1602594924.0876,59.0,1183.0,8473.0,469.92963358471775,36.38
1602594924.0896,59.0,1183.0,8014.0,469.92656552691255,36.38
1602594924.0916,59.0,1183.0,8179.0,469.9240228214712,36.38
1602594924.0936,59.0,1183.0,8430.0,469.9220054683938,36.38
1602594924.0956,59.0,1183.0,8353.0,469.92051346768034,36.38
1602594924.0976,59.0,1183.0,8297.0,469.9195468193308,36.38
1602594924.0996,59.0,1183.0,8316.0,469.9191055233451,36.38
1602594924.1016,59.0,1183.0,8246.0,469.9191895797233,36.38
1602594924.1035,59.0,1183.0,8164.0,469.91979898846546,36.38
1602594924.1055,59.0,1183.0,8133.0,469.9209337495715,36.38
1602594924.1076,59.0,1183.0,8082.0,469.9225938630414,36.38
1602594924.1095,59.0,1183.0,8002.0,469.9247793288753,36.38
1602594924.1116,59.0,1183.0,7915.0,469.92749014707306,36.38
1602594924.1135,59.0,1183.0,7847.0,469.9307263176347,36.38
1602594924.1155,59.0,1183.0,7785.0,469.9344878405603,36.38
1602594924.1175,59.0,1183.0,7710.0,469.9387747158498,36.38
1602594924.1196,59.0,1183.0,7625.0,469.94358694350313,36.38
1602594924.1216,59.0,1183.0,7555.0,469.9489245235204,36.38
1602594924.1236,59.0,1183.0,7485.0,469.9547874559016,36.38
1602594924.1256,59.0,1183.0,7405.0,469.9611757406467,36.38
1602594924.1276,59.0,1183.0,7323.0,469.9680893777557,36.38
1602594924.1295,59.0,1183.0,7248.0,469.9755283672286,36.38
1602594924.1317,59.0,1183.0,7173.0,469.9834927090654,36.38
1602594924.1336,59.0,1183.0,7096.0,469.99198240326615,36.38
1602594924.1356,59.0,1183.0,7021.0,470.0009974498308,36.38
1602594924.1375,59.0,1183.0,6948.0,470.01053784875927,36.38
1602594924.1396,59.0,1183.0,6873.0,470.02060360005174,36.38
1602594924.1415,59.0,1183.0,6796.0,470.0311947037081,36.38
1602594924.1435,59.0,1183.0,6721.0,470.0423111597283,36.38
1602594924.1463,59.0,1183.0,6653.0,470.05395296804505,36.38
1602594924.1476,59.0,1183.0,6579.0,470.0691845882945,36.38
1602594924.1495,59.0,1183.0,6499.0,470.08504248476373,36.38
1602594924.1516,59.0,1183.0,6429.0,470.1014975283263,36.38
1602594924.1535,59.0,1183.0,6359.0,470.1185205898558,36.38
1602594924.1555,59.0,1183.0,6286.0,470.1360825402256,36.38
1602594924.1575,59.0,1183.0,6211.0,470.1541542503092,36.38
1602594924.1595,59.0,1183.0,6134.0,470.1727065909802,36.38
1602594924.1615,59.0,1183.0,6061.0,470.19171043311195,36.38
1602594924.1635,59.0,1183.0,5991.0,470.21113664757803,36.38
1602594924.1655,59.0,1183.0,5914.0,470.230956105252,36.38
1602594924.1675,59.0,1183.0,5837.0,470.2511396770072,36.38
1602594924.1695,59.0,1183.0,5764.0,470.27165823371723,36.38
1602594924.1715,59.0,1183.0,5679.0,470.29248264625556,36.38
1602594924.1735,59.0,1183.0,5592.0,470.3135837854957,36.38
1602594924.1755,59.0,1183.0,5510.0,470.33493252231114,36.38
1602594924.1775,59.0,1183.0,5428.0,470.35649972757534,36.38
1602594924.1795,59.0,1183.0,5351.0,470.3782562721618,36.38
1602594924.1816,59.0,1183.0,5273.0,470.40017302694406,36.38
1602594924.1835,59.0,1183.0,5189.0,470.4222208627956,36.38
1602594924.1855,59.0,1183.0,5116.0,470.4443706505899,36.38
1602594924.1875,59.0,1183.0,5053.0,470.4665932612005,36.38
1602594924.1895,59.0,1183.0,4986.0,470.48885956550083,36.38
1602594924.5814,59.0,1198.0,4923.0,470.51114043436445,36.38
1602594924.582,59.0,1198.0,4875.0,470.5334067386648,36.38
1602594924.5844,59.0,1198.0,4814.0,470.55562934927536,36.38
1602594924.587,59.0,1198.0,4749.0,470.5777791370697,36.38
1602594924.589,59.0,1198.0,4698.0,470.5998269729212,36.38
1602594924.591,59.0,1198.0,4652.0,470.6217437277035,36.38
1602594924.593,59.0,1198.0,4589.0,470.64350027229005,36.38
1602594924.595,59.0,1198.0,4529.0,470.66506747755426,36.38
1602594924.597,59.0,1198.0,4483.0,470.6864162143697,36.38
1602594924.599,59.0,1198.0,4435.0,470.7075173536098,36.38
1602594924.6011,59.0,1198.0,4377.0,470.7283417661481,36.38
1602594924.603,59.0,1198.0,4307.0,470.74886032285815,36.38
1602594924.605,59.0,1198.0,4249.0,470.7690438946134,36.38
1602594924.607,59.0,1198.0,4212.0,470.7888633522873,36.38
1602594924.609,59.0,1198.0,4162.0,470.8082895667534,36.38
1602594924.611,59.0,1198.0,4099.0,470.82729340888517,36.38
1602594924.613,59.0,1198.0,4053.0,470.84584574955613,36.38
1602594924.615,59.0,1198.0,4012.0,470.86391745963977,36.38
1602594924.617,59.0,1198.0,3951.0,470.8814794100096,36.38
1602594924.619,59.0,1198.0,3893.0,470.898502471539,36.38
1602594924.621,59.0,1198.0,3852.0,470.91495751510166,36.38
1602594924.623,59.0,1198.0,3809.0,470.9308154115709,36.38
1602594924.625,59.0,1198.0,3760.0,470.9460470318203,36.38
1602594924.627,59.0,1198.0,3722.0,470.96062324672334,36.38
1602594924.629,59.0,1198.0,3671.0,470.9745149271535,36.38
1602594924.631,59.0,1198.0,3610.0,470.9876929439843,36.38
1602594924.633,59.0,1198.0,3569.0,471.00012816808925,36.38
1602594924.6349,59.0,1198.0,3531.0,471.0117914703418,36.38
1602594924.6371,59.0,1198.0,3480.0,471.0226537216155,36.38
1602594924.639,59.0,1198.0,3436.0,471.03268579278375,36.38
1602594924.641,59.0,1198.0,3405.0,471.04185855472014,36.38
1602594924.643,59.0,1198.0,3369.0,471.0501428782981,36.38
1602594924.6449,59.0,1198.0,3323.0,471.05750963439124,36.38
1602594924.6469,59.0,1198.0,3275.0,471.0639296938729,36.38
1602594924.6489,59.0,1198.0,3238.0,471.06937392761665,36.38
1602594924.651,59.0,1198.0,3209.0,471.073813206496,36.38
1602594924.653,59.0,1198.0,3171.0,471.0772184013844,36.38
1602594924.655,59.0,1198.0,3130.0,471.0795603831554,36.38
1602594924.6569,59.0,1198.0,3086.0,471.0808100226825,36.38
1602594924.6589,59.0,1198.0,3040.0,471.0809381908391,36.38
1602594924.661,59.0,1198.0,3001.0,471.07991575849877,36.38
1602594924.6629,59.0,1198.0,2975.0,471.07771359653503,36.38
1602594924.665,59.0,1198.0,2941.0,471.0743025758213,36.38
1602594924.6669,59.0,1198.0,2905.0,471.0696535672311,36.38
1602594924.6689,59.0,1198.0,2873.0,471.06373744163795,36.38
1602594924.671,59.0,1198.0,2839.0,471.0565250699154,36.38
1602594924.6729,59.0,1198.0,2803.0,471.04798732293676,36.38
1602594924.6749,59.0,1198.0,2769.0,471.0380950715757,36.38
1602594924.677,59.0,1198.0,2736.0,471.02681918670567,36.38
1602594924.6789,59.0,1198.0,2699.0,471.01413053920015,36.38
1602594924.681,59.0,1198.0,2663.0,470.99999999993264,36.38
1602594924.683,59.0,1198.0,2632.0,470.99999999993264,36.38
1602594924.6849,59.0,1198.0,2598.0,470.99999999993264,36.38
1602594924.6869,59.0,1198.0,2559.0,470.99999999993264,36.38
1602594924.689,59.0,1198.0,2537.0,470.99999999993264,36.38
1602594924.691,59.0,1198.0,2528.0,470.99999999993264,36.38
1602594924.6929,59.0,1198.0,2501.0,470.99999999993264,36.38
1602594924.695,59.0,1198.0,2453.0,470.99999999993264,36.38
1602594924.6969,59.0,1198.0,2414.0,470.99999999993264,36.38
1602594924.6989,59.0,1198.0,2395.0,470.99999999993264,36.38
1602594924.701,59.0,1198.0,2378.0,470.99999999993264,36.38
1602594924.7029,59.0,1198.0,2354.0,470.99999999993264,36.38
1602594924.7049,59.0,1198.0,2322.0,470.99999999993264,36.38
1602594924.7069,59.0,1198.0,2293.0,470.99999999993264,36.38
1602594924.7089,59.0,1198.0,2259.0,470.99999999993264,36.38
1602594924.711,59.0,1198.0,2216.0,470.99999999993264,36.38
1602594924.713,59.0,1198.0,2192.0,470.99999999993264,36.38
1602594924.7149,59.0,1198.0,2184.0,470.99999999993264,36.38
1602594924.7169,59.0,1198.0,2158.0,470.99999999993264,36.38
1602594924.7189,59.0,1198.0,2126.0,470.99999999993264,36.38
1602594924.721,59.0,1198.0,2105.0,470.99999999993264,36.38
1602594924.7229,59.0,1198.0,2081.0,470.99999999993264,36.38
1602594924.725,59.0,1198.0,2066.0,470.99999999993264,36.38
1602594925.1821,59.0,1198.0,2064.0,470.99999999993264,36.38
1602594925.1828,59.0,1198.0,2037.0,470.99999999993264,36.38
1602594925.1853,59.0,1198.0,1994.0,470.99999999993264,36.38
1602594925.188,59.0,1198.0,1965.0,470.99999999993264,36.38
1602594925.1899,59.0,1198.0,1948.0,470.99999999993264,36.38
1602594925.1919,59.0,1198.0,1926.0,470.99999999993264,36.38
1602594925.1942,59.0,1198.0,1899.0,470.99999999993264,36.38
1602594925.196,59.0,1198.0,1858.0,470.99999999993264,36.38
1602594925.1979,59.0,1198.0,1815.0,470.99999999993264,36.38
1602594925.1999,59.0,1198.0,1793.0,470.99999999993264,36.38
1602594925.202,59.0,1198.0,1781.0,470.99999999993264,36.38
1602594925.2039,59.0,1198.0,1759.0,470.99999999993264,36.38
1602594925.206,59.0,1198.0,1740.0,470.99999999993264,36.38
1602594925.2079,59.0,1198.0,1728.0,470.99999999993264,36.38
1602594925.21,59.0,1198.0,1711.0,470.99999999993264,36.38
1602594925.2119,59.0,1198.0,1723.0,470.99999999993264,36.38
1602594925.2139,59.0,1198.0,1853.0,470.99999999993264,36.38
1602594925.2159,59.0,1198.0,2059.0,470.99999999993264,36.38
1602594925.2179,59.0,1198.0,2042.0,470.99999999993264,36.38
1602594925.2199,59.0,1198.0,1563.0,470.99999999993264,36.38
1602594925.2219,59.0,1198.0,1135.0,470.99999999993264,36.38
1602594925.2239,59.0,1198.0,1302.0,470.99999999993264,36.38
1602594925.2259,59.0,1198.0,1556.0,470.99999999993264,36.38
1602594925.2279,59.0,1198.0,1508.0,470.99999999993264,36.38
1602594925.2299,59.0,1198.0,1484.0,470.99999999993264,36.38
1602594925.232,59.0,1198.0,1525.0,470.99999999993264,36.38
1602594925.2338,59.0,1198.0,1486.0,470.99999999993264,36.38
1602594925.2358,59.0,1198.0,1464.0,470.99999999993264,36.38
1602594925.2379,59.0,1198.0,1474.0,470.99999999993264,36.38
1602594925.2399,59.0,1198.0,1447.0,470.99999999993264,36.38
1602594925.2419,59.0,1198.0,1418.0,470.99999999993264,36.38
1602594925.2438,59.0,1198.0,1418.0,470.99999999993264,36.38
1602594925.2458,59.0,1198.0,1409.0,470.99999999993264,36.38
1602594925.2478,59.0,1198.0,1399.0,470.99999999993264,36.38
1602594925.2498,59.0,1198.0,1394.0,470.99999999993264,36.38
1602594925.2519,59.0,1198.0,1372.0,470.99999999993264,36.38
1602594925.2538,59.0,1198.0,1343.0,470.99999999993264,36.38
1602594925.2558,59.0,1198.0,1326.0,470.99999999993264,36.38
1602594925.2578,59.0,1198.0,1319.0,470.99999999993264,36.38
1602594925.2599,59.0,1198.0,1307.0,470.99999999993264,36.38
1602594925.2618,59.0,1198.0,1293.0,470.99999999993264,36.38
1602594925.2638,59.0,1198.0,1283.0,470.99999999993264,36.38
1602594925.2658,59.0,1198.0,1273.0,470.99999999993264,36.38
1602594925.2678,59.0,1198.0,1259.0,470.99999999993264,36.38
1602594925.2698,59.0,1198.0,1247.0,470.99999999993264,36.38
1602594925.2719,59.0,1198.0,1239.0,470.99999999993264,36.38
1602594925.2738,59.0,1198.0,1227.0,470.99999999993264,36.38
1602594925.2758,59.0,1198.0,1220.0,470.99999999993264,36.38
1602594925.278,59.0,1198.0,1210.0,470.99999999993264,36.38
1602594925.28,59.0,1198.0,1201.0,470.99999999993264,36.38
1602594925.2819,59.0,1198.0,1193.0,470.99999999993264,36.38
1602594925.2839,59.0,1198.0,1179.0,470.99999999993264,36.38
1602594925.2858,59.0,1198.0,1169.0,470.99999999993264,36.38
1602594925.2878,59.0,1198.0,1169.0,470.99999999993264,36.38
1602594925.2898,59.0,1198.0,1157.0,470.99999999993264,36.38
1602594925.2918,59.0,1198.0,1138.0,470.99999999993264,36.38
1602594925.2938,59.0,1198.0,1126.0,470.99999999993264,36.38
1602594925.296,59.0,1198.0,1111.0,470.99999999993264,36.38
1602594925.2979,59.0,1198.0,1090.0,470.99999999993264,36.38
1602594925.2998,59.0,1198.0,1073.0,470.99999999993264,36.38
1602594925.3018,59.0,1198.0,1053.0,470.99999999993264,36.38
1602594925.3038,59.0,1198.0,1024.0,470.99999999993264,36.38
1602594925.3058,59.0,1198.0,998.0,470.99999999993264,36.38
1602594925.3078,59.0,1198.0,986.0,470.99999999993264,36.38
1602594925.3098,59.0,1198.0,966.0,470.99999999993264,36.38
1602594925.3118,59.0,1198.0,937.0,470.99999999993264,36.38
1602594925.3138,59.0,1198.0,908.0,470.99999999993264,36.38
1602594925.3158,59.0,1198.0,889.0,470.99999999993264,36.38
1602594925.3178,59.0,1198.0,867.0,470.99999999993264,36.38
1602594925.3198,59.0,1198.0,848.0,470.99999999993264,36.38
1602594925.3219,59.0,1198.0,836.0,470.99999999993264,36.38
1602594925.3238,59.0,1198.0,833.0,470.99999999993264,36.38
1602594925.3258,59.0,1198.0,826.0,470.99999999993264,36.38
1602594925.6919,58.0,1107.0,812.0,470.99999999993264,36.38
1602594925.6927,58.0,1107.0,804.0,470.99999999993264,36.38
1602594925.6951,58.0,1107.0,797.0,470.99999999993264,36.38
1602594925.6978,58.0,1107.0,790.0,470.99999999993264,36.38
1602594925.6998,58.0,1107.0,787.0,470.99999999993264,36.38
1602594925.7018,58.0,1107.0,778.0,470.99999999993264,36.38
1602594925.7037,58.0,1107.0,768.0,470.99999999993264,36.38
1602594925.7057,58.0,1107.0,768.0,470.99999999993264,36.38
1602594925.7078,58.0,1107.0,771.0,470.99999999993264,36.38
1602594925.7097,58.0,1107.0,758.0,470.99999999993264,36.38
1602594925.7117,58.0,1107.0,739.0,470.99999999993264,36.38
1602594925.7137,58.0,1107.0,727.0,470.99999999993264,36.38
1602594925.7157,58.0,1107.0,715.0,470.99999999993264,36.38
1602594925.7177,58.0,1107.0,696.0,470.99999999993264,36.38
1602594925.7197,58.0,1107.0,688.0,470.99999999993264,36.38
1602594925.7217,58.0,1107.0,688.0,470.99999999993264,36.38
1602594925.7237,58.0,1107.0,674.0,470.99999999993264,36.38
1602594925.7257,58.0,1107.0,664.0,470.99999999993264,36.38
1602594925.7277,58.0,1107.0,667.0,470.99999999993264,36.38
1602594925.7297,58.0,1107.0,657.0,470.99999999993264,36.38
1602594925.7317,58.0,1107.0,633.0,470.99999999993264,36.38
1602594925.7337,58.0,1107.0,621.0,470.99999999993264,36.38
1602594925.7357,58.0,1107.0,618.0,470.99999999993264,36.38
1602594925.7377,58.0,1107.0,611.0,470.99999999993264,36.38
1602594925.7397,58.0,1107.0,606.0,470.99999999993264,36.38
1602594925.7418,58.0,1107.0,606.0,470.99999999993264,36.38
1602594925.7437,58.0,1107.0,601.0,470.99999999993264,36.38
1602594925.7457,58.0,1107.0,592.0,470.99999999993264,36.38
1602594925.7477,58.0,1107.0,587.0,470.99999999993264,36.38
1602594925.7497,58.0,1107.0,582.0,470.99999999993264,36.38
1602594925.7517,58.0,1107.0,580.0,470.99999999993264,36.38
1602594925.7537,58.0,1107.0,577.0,470.99999999993264,36.38
1602594925.7557,58.0,1107.0,567.0,470.99999999993264,36.38
1602594925.7577,58.0,1107.0,560.0,470.99999999993264,36.38
1602594925.7597,58.0,1107.0,553.0,470.99999999993264,36.38
1602594925.7619,58.0,1107.0,546.0,470.99999999993264,36.38
1602594925.7637,58.0,1107.0,538.0,470.99999999993264,36.38
1602594925.7657,58.0,1107.0,536.0,470.99999999993264,36.38
1602594925.7677,58.0,1107.0,534.0,470.99999999993264,36.38
1602594925.7697,58.0,1107.0,524.0,470.99999999993264,36.38
1602594925.7717,58.0,1107.0,512.0,470.99999999993264,36.38
1602594925.7737,58.0,1107.0,509.0,470.99999999993264,36.38
1602594925.7757,58.0,1107.0,507.0,470.99999999993264,36.38
1602594925.7777,58.0,1107.0,505.0,470.99999999993264,36.38
1602594925.7797,58.0,1107.0,507.0,470.99999999993264,36.38
1602594925.7817,58.0,1107.0,509.0,470.99999999993264,36.38
1602594925.7837,58.0,1107.0,500.0,470.99999999993264,36.38
1602594925.7858,58.0,1107.0,483.0,470.99999999993264,36.38
1602594925.7877,58.0,1107.0,473.0,470.99999999993264,36.38
1602594925.7897,58.0,1107.0,476.0,470.99999999993264,36.38
1602594925.7917,58.0,1107.0,471.0,470.99999999993264,36.38
1602594925.7936,58.0,1107.0,461.0,470.99999999993264,36.38
1602594925.7957,58.0,1107.0,454.0,470.99999999993264,36.38
1602594925.7977,58.0,1107.0,447.0,470.99999999993264,36.38
1602594925.7997,58.0,1107.0,439.0,470.99999999993264,36.38
1602594925.8017,58.0,1107.0,439.0,470.99999999993264,36.38
1602594925.8037,58.0,1107.0,444.0,470.99999999993264,36.38
1602594925.8057,58.0,1107.0,437.0,470.99999999993264,36.38
1602594925.8077,58.0,1107.0,415.0,470.99999999993264,36.38
1602594925.8097,58.0,1107.0,410.0,470.99999999993264,36.38
1602594925.8117,58.0,1107.0,420.0,470.99999999993264,36.38
1602594925.8137,58.0,1107.0,422.0,470.99999999993264,36.38
1602594925.8157,58.0,1107.0,418.0,470.99999999993264,36.38
1602594925.8177,58.0,1107.0,418.0,470.99999999993264,36.38
1602594925.8197,58.0,1107.0,422.0,470.99999999993264,36.38
1602594925.8218,58.0,1107.0,430.0,470.99999999993264,36.38
1602594925.8237,58.0,1107.0,432.0,470.99999999993264,36.38
1602594925.8257,58.0,1107.0,406.0,470.99999999993264,36.38
1602594925.8277,58.0,1107.0,384.0,470.99999999993264,36.38
1602594925.8297,58.0,1107.0,393.0,470.99999999993264,36.38
1602594925.8317,58.0,1107.0,403.0,470.99999999993264,36.38
1602594925.8337,58.0,1107.0,391.0,470.99999999993264,36.38
1602594925.8357,58.0,1107.0,367.0,470.99999999993264,36.38
1602594926.2622,57.0,1124.0,357.0,470.99999999993264,36.38
1602594926.263,57.0,1124.0,357.0,470.99999999993264,36.38
1602594926.265,57.0,1124.0,355.0,470.99999999993264,36.38
1602594926.2669,57.0,1124.0,345.0,470.99999999993264,36.38
1602594926.2689,57.0,1124.0,338.0,470.99999999993264,36.38
1602594926.271,57.0,1124.0,335.0,470.99999999993264,36.38
1602594926.2729,57.0,1124.0,326.0,470.99999999993264,36.38
1602594926.2749,57.0,1124.0,314.0,470.99999999993264,36.38
1602594926.2769,57.0,1124.0,374.0,470.99999999993264,36.38
1602594926.2789,57.0,1124.0,587.0,470.99999999993264,36.38
1602594926.281,57.0,1124.0,816.0,470.99999999993264,36.38
1602594926.2829,57.0,1124.0,650.0,470.99999999993264,36.38
1602594926.2849,57.0,1124.0,67.0,470.99999999993264,36.38
1602594926.287,57.0,1124.0,-188.0,470.99999999993264,36.38
1602594926.2889,57.0,1124.0,106.0,470.99999999993264,36.38
1602594926.2908,57.0,1124.0,277.0,470.99999999993264,36.38
1602594926.2928,57.0,1124.0,232.0,470.99999999993264,36.38
1602594926.2948,57.0,1124.0,287.0,470.99999999993264,36.38
1602594926.2968,57.0,1124.0,328.0,470.99999999993264,36.38
1602594926.2989,57.0,1124.0,282.0,470.99999999993264,36.38
1602594926.3009,57.0,1124.0,287.0,470.99999999993264,36.38
1602594926.3028,57.0,1124.0,319.0,470.99999999993264,36.38
1602594926.3048,57.0,1124.0,302.0,470.99999999993264,36.38
1602594926.3068,57.0,1124.0,292.0,470.99999999993264,36.38
1602594926.3088,57.0,1124.0,302.0,470.99999999993264,36.38
1602594926.3109,57.0,1124.0,297.0,470.99999999993264,36.38
1602594926.3128,57.0,1124.0,292.0,470.99999999993264,36.38
1602594926.3148,57.0,1124.0,304.0,470.99999999993264,36.38
1602594926.3169,57.0,1124.0,304.0,470.99999999993264,36.38
1602594926.3188,57.0,1124.0,292.0,470.99999999993264,36.38
1602594926.3209,57.0,1124.0,287.0,470.99999999993264,36.38
1602594926.3229,57.0,1124.0,297.0,470.99999999993264,36.38
1602594926.3248,57.0,1124.0,299.0,470.99999999993264,36.38
1602594926.3268,57.0,1124.0,294.0,470.99999999993264,36.38
1602594926.3289,57.0,1124.0,294.0,470.99999999993264,36.38
1602594926.3309,57.0,1124.0,299.0,470.99999999993264,36.38
1602594926.3328,57.0,1124.0,299.0,470.99999999993264,36.38
1602594926.3349,57.0,1124.0,294.0,470.99999999993264,36.38
1602594926.3368,57.0,1124.0,302.0,470.99999999993264,36.38
1602594926.3388,57.0,1124.0,306.0,470.99999999993264,36.38
1602594926.3408,57.0,1124.0,302.0,470.99999999993264,36.38
1602594926.3429,57.0,1124.0,302.0,470.99999999993264,36.38
1602594926.3448,57.0,1124.0,309.0,470.99999999993264,36.38
1602594926.3469,57.0,1124.0,314.0,470.99999999993264,36.38
1602594926.3488,57.0,1124.0,316.0,470.99999999993264,36.38
1602594926.3509,57.0,1124.0,309.0,470.99999999993264,36.38
1602594926.3528,57.0,1124.0,302.0,470.99999999993264,36.38
1602594926.3548,57.0,1124.0,299.0,470.99999999993264,36.38
1602594926.3568,57.0,1124.0,294.0,470.99999999993264,36.38
1602594926.3589,57.0,1124.0,292.0,470.99999999993264,36.38
1602594926.3609,57.0,1124.0,292.0,470.99999999993264,36.38
1602594926.3628,57.0,1124.0,280.0,470.99999999993264,36.38
1602594926.3648,57.0,1124.0,263.0,470.99999999993264,36.38
1602594926.3668,57.0,1124.0,256.0,470.99999999993264,36.38
1602594926.3688,57.0,1124.0,251.0,470.99999999993264,36.38
1602594926.3709,57.0,1124.0,232.0,470.99999999993264,36.38
1602594926.3728,57.0,1124.0,207.0,470.99999999993264,36.38
1602594926.3748,57.0,1124.0,186.0,470.99999999993264,36.38
1602594926.3768,57.0,1124.0,174.0,470.99999999993264,36.38
1602594926.3788,57.0,1124.0,171.0,470.99999999993264,36.38
1602594926.3809,57.0,1124.0,166.0,470.99999999993264,36.38
1602594926.3828,57.0,1124.0,157.0,470.99999999993264,36.38
1602594926.3848,57.0,1124.0,142.0,470.99999999993264,36.38
1602594926.3868,57.0,1124.0,135.0,470.99999999993264,36.38
1602594926.389,57.0,1124.0,135.0,470.99999999993264,36.38
1602594926.3909,57.0,1124.0,130.0,470.99999999993264,36.38
1602594926.3928,57.0,1124.0,128.0,470.99999999993264,36.38
1602594926.3948,57.0,1124.0,140.0,470.99999999993264,36.38
1602594926.3969,57.0,1124.0,145.0,470.99999999993264,36.38
1602594926.3988,57.0,1124.0,137.0,470.99999999993264,36.38
1602594926.4009,57.0,1124.0,142.0,470.99999999993264,36.38
1602594926.4028,57.0,1124.0,145.0,470.99999999993264,36.38
1602594926.4048,57.0,1124.0,140.0,470.99999999993264,36.38
1602594926.8018,57.0,1124.0,140.0,470.99999999993264,36.44
1602594926.8026,57.0,1124.0,140.0,470.99999999993264,36.44
1602594926.8051,57.0,1124.0,137.0,470.99999999993264,36.44
1602594926.8078,57.0,1124.0,135.0,470.99999999993264,36.44
1602594926.8097,57.0,1124.0,128.0,470.99999999993264,36.44
1602594926.8117,57.0,1124.0,128.0,470.99999999993264,36.44
1602594926.8137,57.0,1124.0,128.0,470.99999999993264,36.44
1602594926.8157,57.0,1124.0,111.0,470.99999999993264,36.44
1602594926.8177,57.0,1124.0,99.0,470.99999999993264,36.44
1602594926.8196,57.0,1124.0,101.0,470.99999999993264,36.44
1602594926.8216,57.0,1124.0,94.0,470.99999999993264,36.44
1602594926.8237,57.0,1124.0,94.0,470.99999999993264,36.44
1602594926.8256,57.0,1124.0,106.0,470.99999999993264,36.44
1602594926.8278,57.0,1124.0,116.0,470.99999999993264,36.44
1602594926.8297,57.0,1124.0,108.0,470.99999999993264,36.44
1602594926.8318,57.0,1124.0,103.0,470.99999999993264,36.44
1602594926.8336,57.0,1124.0,108.0,470.99999999993264,36.44
1602594926.8356,57.0,1124.0,116.0,470.99999999993264,36.44
1602594926.8376,57.0,1124.0,113.0,470.99999999993264,36.44
1602594926.8397,57.0,1124.0,99.0,470.99999999993264,36.44
1602594926.8417,57.0,1124.0,101.0,470.99999999993264,36.44
1602594926.8437,57.0,1124.0,106.0,470.99999999993264,36.44
1602594926.8456,57.0,1124.0,106.0,470.99999999993264,36.44
1602594926.8476,57.0,1124.0,111.0,470.99999999993264,36.44
1602594926.8496,57.0,1124.0,111.0,470.99999999993264,36.44
1602594926.8516,57.0,1124.0,103.0,470.99999999993264,36.44
1602594926.8536,57.0,1124.0,101.0,470.99999999993264,36.44
1602594926.8556,57.0,1124.0,103.0,470.99999999993264,36.44
1602594926.8576,57.0,1124.0,103.0,470.99999999993264,36.44
1602594926.8596,57.0,1124.0,103.0,470.99999999993264,36.44
1602594926.8616,57.0,1124.0,103.0,470.99999999993264,36.44
1602594926.8636,57.0,1124.0,106.0,470.99999999993264,36.44
1602594926.8656,57.0,1124.0,106.0,470.99999999993264,36.44
1602594926.8676,57.0,1124.0,106.0,470.99999999993264,36.44
1602594926.8696,57.0,1124.0,108.0,470.99999999993264,36.44
1602594926.8717,57.0,1124.0,113.0,470.99999999993264,36.44
1602594926.8736,57.0,1124.0,113.0,470.99999999993264,36.44
1602594926.8757,57.0,1124.0,113.0,470.99999999993264,36.44
1602594926.8776,57.0,1124.0,113.0,470.99999999993264,36.44
1602594926.8796,57.0,1124.0,108.0,470.99999999993264,36.44
1602594926.8817,57.0,1124.0,103.0,470.99999999993264,36.44
1602594926.8836,57.0,1124.0,106.0,470.99999999993264,36.44
1602594926.8858,57.0,1124.0,103.0,470.99999999993264,36.44
1602594926.8877,57.0,1124.0,101.0,470.99999999993264,36.44
1602594926.8896,57.0,1124.0,101.0,470.99999999993264,36.44
1602594926.8917,57.0,1124.0,106.0,470.99999999993264,36.44
1602594926.8936,57.0,1124.0,113.0,470.99999999993264,36.44
1602594926.8956,57.0,1124.0,116.0,470.99999999993264,36.44
1602594926.8976,57.0,1124.0,111.0,470.99999999993264,36.44
1602594926.8996,57.0,1124.0,103.0,470.99999999993264,36.44
1602594926.9016,57.0,1124.0,103.0,470.99999999993264,36.44
1602594926.9036,57.0,1124.0,116.0,470.99999999993264,36.44
1602594926.9056,57.0,1124.0,130.0,470.99999999993264,36.44
1602594926.9076,57.0,1124.0,130.0,470.99999999993264,36.44
1602594926.9096,57.0,1124.0,116.0,470.99999999993264,36.44
1602594926.9117,57.0,1124.0,108.0,470.99999999993264,36.44
1602594926.9136,57.0,1124.0,116.0,470.99999999993264,36.44
1602594926.9156,57.0,1124.0,113.0,470.99999999993264,36.44
1602594926.9176,57.0,1124.0,103.0,470.99999999993264,36.44
1602594926.9196,57.0,1124.0,96.0,470.99999999993264,36.44
1602594926.9216,57.0,1124.0,89.0,470.99999999993264,36.44
1602594926.9237,57.0,1124.0,77.0,470.99999999993264,36.44
1602594926.9256,57.0,1124.0,87.0,470.99999999993264,36.44
1602594926.9276,57.0,1124.0,96.0,470.99999999993264,36.44
1602594926.9296,57.0,1124.0,91.0,470.99999999993264,36.44
1602594926.9317,57.0,1124.0,94.0,470.99999999993264,36.44
1602594926.9336,57.0,1124.0,94.0,470.99999999993264,36.44
1602594926.9356,57.0,1124.0,79.0,470.99999999993264,36.44
1602594926.9376,57.0,1124.0,123.0,470.99999999993264,36.44
1602594926.9396,57.0,1124.0,321.0,470.99999999993264,36.44
1602594926.9416,57.0,1124.0,575.0,470.99999999993264,36.44
1602594926.9436,57.0,1124.0,497.0,470.99999999993264,36.44
1602594926.9456,57.0,1124.0,-62.0,470.99999999993264,36.44
1602594927.4018,57.0,1134.0,-418.0,470.99999999993264,36.44
1602594927.4029,57.0,1134.0,-149.0,470.99999999993264,36.44
1602594927.4053,57.0,1134.0,79.0,470.99999999993264,36.44
1602594927.4079,57.0,1134.0,24.0,470.99999999993264,36.44
1602594927.4099,57.0,1134.0,45.0,470.99999999993264,36.44
1602594927.4119,57.0,1134.0,101.0,470.99999999993264,36.44
1602594927.414,57.0,1134.0,72.0,470.99999999993264,36.44
1602594927.4159,57.0,1134.0,67.0,470.99999999993264,36.44
1602594927.4179,57.0,1134.0,91.0,470.99999999993264,36.44
1602594927.4199,57.0,1134.0,84.0,470.99999999993264,36.44
1602594927.4219,57.0,1134.0,79.0,470.99999999993264,36.44
1602594927.4238,57.0,1134.0,89.0,470.99999999993264,36.44
1602594927.4258,57.0,1134.0,94.0,470.99999999993264,36.44
1602594927.4278,57.0,1134.0,96.0,470.99999999993264,36.44
1602594927.4298,57.0,1134.0,101.0,470.99999999993264,36.44
1602594927.4318,57.0,1134.0,94.0,470.99999999993264,36.44
1602594927.4338,57.0,1134.0,87.0,470.99999999993264,36.44
1602594927.4358,57.0,1134.0,103.0,470.99999999993264,36.44
1602594927.4378,57.0,1134.0,123.0,470.99999999993264,36.44
1602594927.4398,57.0,1134.0,118.0,470.99999999993264,36.44
1602594927.442,57.0,1134.0,106.0,470.99999999993264,36.44
1602594927.4439,57.0,1134.0,106.0,470.99999999993264,36.44
1602594927.4458,57.0,1134.0,116.0,470.99999999993264,36.44
1602594927.4478,57.0,1134.0,123.0,471.02826107846766,36.44
1602594927.4498,57.0,1134.0,120.0,471.05363837347875,36.44
1602594927.4518,57.0,1134.0,125.0,471.0761901432188,36.44
1602594927.4538,57.0,1134.0,132.0,471.09597464594094,36.44
1602594927.4558,57.0,1134.0,132.0,471.11305013989806,36.44
1602594927.4578,57.0,1134.0,135.0,471.12747488334327,36.44
1602594927.4598,57.0,1134.0,145.0,471.1393071345296,36.44
1602594927.4618,57.0,1134.0,147.0,471.14860515170994,36.44
1602594927.4638,57.0,1134.0,147.0,471.15542719313737,36.44
1602594927.4658,57.0,1134.0,157.0,471.1598315170649,36.44
1602594927.4678,57.0,1134.0,169.0,471.16187638174557,36.44
1602594927.4698,57.0,1134.0,171.0,471.1616200454323,36.44
1602594927.4718,57.0,1134.0,166.0,471.1591207663782,36.44
1602594927.4738,57.0,1134.0,166.0,471.15443680283624,36.44
1602594927.4758,57.0,1134.0,164.0,471.14762641305936,36.44
1602594927.4778,57.0,1134.0,152.0,471.13874785530066,36.44
1602594927.4798,57.0,1134.0,132.0,471.12785938781315,36.44
1602594927.4818,57.0,1134.0,123.0,471.1150192688498,36.44
1602594927.4838,57.0,1134.0,118.0,471.10028575666365,36.44
1602594927.4858,57.0,1134.0,101.0,471.08371710950763,36.44
1602594927.4878,57.0,1134.0,79.0,471.06537158563486,36.44
1602594927.4898,57.0,1134.0,58.0,471.0453074432983,36.44
1602594927.4918,57.0,1134.0,38.0,471.023582940751,36.44
1602594927.4938,57.0,1134.0,31.0,471.00025633624585,36.44
1602594927.4958,57.0,1134.0,31.0,470.975385888036,36.44
1602594927.4978,57.0,1134.0,24.0,470.9490298543744,36.44
1602594927.4998,57.0,1134.0,19.0,470.92124649351405,36.44
1602594927.5018,57.0,1134.0,14.0,470.892094063708,36.44
1602594927.5038,57.0,1134.0,9.0,470.86163082320917,36.44
1602594927.5058,57.0,1134.0,9.0,470.8299150302706,36.44
1602594927.5078,57.0,1134.0,16.0,470.79700494314545,36.44
1602594927.5098,57.0,1134.0,21.0,470.7629588200865,36.44
1602594927.5118,57.0,1134.0,24.0,470.72783491934695,36.44
1602594927.5138,57.0,1134.0,24.0,470.6916914991797,36.44
1602594927.5158,57.0,1134.0,24.0,470.65458681783775,36.44
1602594927.5178,57.0,1134.0,31.0,470.6165791335742,36.44
1602594927.5198,57.0,1134.0,38.0,470.577726704642,36.44
1602594927.5218,57.0,1134.0,33.0,470.53808778929414,36.44
1602594927.5238,57.0,1134.0,31.0,470.4977206457837,36.44
1602594927.5258,57.0,1134.0,33.0,470.4566835323636,36.44
1602594927.5278,57.0,1134.0,29.0,470.41503470728696,36.44
1602594927.5298,57.0,1134.0,26.0,470.3728324288067,36.44
1602594927.5318,57.0,1134.0,31.0,470.3301349551759,36.44
1602594927.5338,57.0,1134.0,36.0,470.28700054464747,36.44
1602594927.5358,57.0,1134.0,38.0,470.24348745547445,36.44
1602594927.5378,57.0,1134.0,36.0,470.1996539459099,36.44
1602594927.5398,57.0,1134.0,31.0,470.15555827420684,36.44
1602594927.5418,57.0,1134.0,31.0,470.1112586986182,36.44
1602594927.544,57.0,1134.0,36.0,470.06681347739703,36.44
1602594927.5458,57.0,1134.0,36.0,470.0222808687964,36.44
1602594927.9714,57.0,1134.0,36.0,469.97771913106914,36.44
1602594927.9722,57.0,1134.0,31.0,469.9331865224685,36.44
1602594927.9746,57.0,1134.0,19.0,469.88874130124736,36.44
1602594927.9773,57.0,1134.0,19.0,469.8444417256587,36.44
1602594927.9793,57.0,1134.0,31.0,469.80034605395565,36.44
1602594927.9813,57.0,1134.0,29.0,469.7565125443911,36.44
1602594927.9834,57.0,1134.0,33.0,469.71299945521815,36.44
1602594927.9854,57.0,1134.0,50.0,469.66986504468974,36.44
1602594927.9873,57.0,1134.0,45.0,469.6271675710588,36.44
1602594927.9893,57.0,1134.0,19.0,469.5849652925786,36.44
1602594927.9912,57.0,1134.0,12.0,469.54331646750194,36.44
1602594927.9932,57.0,1134.0,24.0,469.50227935408185,36.44
1602594927.9952,57.0,1134.0,29.0,469.46191221057137,36.44
1602594927.9972,57.0,1134.0,31.0,469.42227329522353,36.44
1602594927.9992,57.0,1134.0,36.0,469.3834208662914,36.44
1602594928.0013,57.0,1134.0,38.0,469.3454131820278,36.44
1602594928.0032,57.0,1134.0,31.0,469.3083085006859,36.44
1602594928.0052,57.0,1134.0,26.0,469.2721650805186,36.44
1602594928.0072,57.0,1134.0,31.0,469.23704117977906,36.44
1602594928.0092,57.0,1134.0,38.0,469.2029950567201,36.44
1602594928.0112,57.0,1134.0,33.0,469.17008496959494,36.44
1602594928.0132,57.0,1134.0,31.0,469.13836917665645,36.44
1602594928.0152,57.0,1134.0,41.0,469.1079059361576,36.44
1602594928.0172,57.0,1134.0,43.0,469.0787535063516,36.44
1602594928.0192,57.0,1134.0,36.0,469.05097014549114,36.44
1602594928.0212,57.0,1134.0,36.0,469.0246141118295,36.44
1602594928.0232,57.0,1134.0,36.0,468.99974366361965,36.44
1602594928.0252,57.0,1134.0,33.0,468.97641705911457,36.44
1602594928.0272,57.0,1134.0,43.0,468.9546925565673,36.44
1602594928.0292,57.0,1134.0,48.0,468.93462841423064,36.44
1602594928.0313,57.0,1134.0,43.0,468.9162828903579,36.44
1602594928.0332,57.0,1134.0,41.0,468.8997142432019,36.44
1602594928.0352,57.0,1134.0,43.0,468.8849807310158,36.44
1602594928.0372,57.0,1134.0,45.0,468.8721406120524,36.44
1602594928.0392,57.0,1134.0,45.0,468.86125214456484,36.44
1602594928.0412,57.0,1134.0,48.0,468.8523735868062,36.44
1602594928.0432,57.0,1134.0,50.0,468.8455631970293,36.44
1602594928.0452,57.0,1134.0,45.0,468.8408792334873,36.44
1602594928.0472,57.0,1134.0,38.0,468.83837995443326,36.44
1602594928.0492,57.0,1134.0,45.0,468.83812361812005,36.44
1602594928.0514,57.0,1134.0,58.0,468.8401684828006,36.44
1602594928.0532,57.0,1134.0,67.0,468.8445728067282,36.44
1602594928.0552,57.0,1134.0,72.0,468.8513948481556,36.44
1602594928.0572,57.0,1134.0,72.0,468.86069286533603,36.44
1602594928.0592,57.0,1134.0,62.0,468.87252511652224,36.44
1602594928.0613,57.0,1134.0,58.0,468.8869498599675,36.44
1602594928.0632,57.0,1134.0,62.0,468.9040253539246,36.44
1602594928.0652,57.0,1134.0,58.0,468.92380985664676,36.44
1602594928.0672,57.0,1134.0,41.0,468.9463616263868,36.44
1602594928.0694,57.0,1134.0,33.0,468.97173892139784,36.44
1602594928.0712,57.0,1134.0,33.0,468.999999999933,36.44
1602594928.0732,57.0,1134.0,36.0,468.999999999933,36.44
1602594928.0752,57.0,1134.0,41.0,468.999999999933,36.44
1602594928.0772,57.0,1134.0,38.0,468.999999999933,36.44
1602594928.0792,57.0,1134.0,36.0,468.999999999933,36.44
1602594928.0812,57.0,1134.0,38.0,468.999999999933,36.44
1602594928.0832,57.0,1134.0,41.0,468.999999999933,36.44
1602594928.0852,57.0,1134.0,41.0,468.999999999933,36.44
1602594928.0872,57.0,1134.0,70.0,468.999999999933,36.44
1602594928.0892,57.0,1134.0,217.0,468.999999999933,36.44
1602594928.0912,57.0,1134.0,473.0,468.999999999933,36.44
1602594928.0932,57.0,1134.0,507.0,468.999999999933,36.44
1602594928.0952,57.0,1134.0,31.0,468.999999999933,36.44
1602594928.0972,57.0,1134.0,-425.0,468.999999999933,36.44
1602594928.0992,57.0,1134.0,-251.0,468.999999999933,36.44
1602594928.1013,57.0,1134.0,43.0,468.999999999933,36.44
1602594928.1032,57.0,1134.0,26.0,468.999999999933,36.44
1602594928.1052,57.0,1134.0,14.0,468.999999999933,36.44
1602594928.1072,57.0,1134.0,74.0,468.999999999933,36.44
1602594928.1092,57.0,1134.0,53.0,468.999999999933,36.44
1602594928.1112,57.0,1134.0,31.0,468.999999999933,36.44
1602594928.1132,57.0,1134.0,60.0,468.999999999933,36.44
1602594928.1152,57.0,1134.0,70.0,468.999999999933,36.44
1602594928.5119,57.0,1092.0,60.0,468.999999999933,36.44
1602594928.5125,57.0,1092.0,65.0,468.999999999933,36.44
1602594928.5149,57.0,1092.0,67.0,468.999999999933,36.44
1602594928.5176,57.0,1092.0,67.0,468.999999999933,36.44
1602594928.5196,57.0,1092.0,70.0,468.999999999933,36.44
1602594928.5216,57.0,1092.0,74.0,468.999999999933,36.44
1602594928.5235,57.0,1092.0,74.0,468.999999999933,36.44
1602594928.5255,57.0,1092.0,74.0,468.999999999933,36.44
1602594928.5276,57.0,1092.0,79.0,468.999999999933,36.44
1602594928.5296,57.0,1092.0,87.0,468.999999999933,36.44
1602594928.5316,57.0,1092.0,84.0,468.999999999933,36.44
1602594928.5335,57.0,1092.0,72.0,468.999999999933,36.44
1602594928.5355,57.0,1092.0,72.0,468.999999999933,36.44
1602594928.5376,57.0,1092.0,82.0,468.999999999933,36.44
1602594928.5395,57.0,1092.0,84.0,468.999999999933,36.44
1602594928.5415,57.0,1092.0,89.0,468.999999999933,36.44
1602594928.5435,57.0,1092.0,106.0,468.999999999933,36.44
1602594928.5455,57.0,1092.0,108.0,468.999999999933,36.44
1602594928.5475,57.0,1092.0,99.0,468.999999999933,36.44
1602594928.5496,57.0,1092.0,101.0,468.999999999933,36.44
1602594928.5516,57.0,1092.0,118.0,468.999999999933,36.44
1602594928.5535,57.0,1092.0,128.0,468.999999999933,36.44
1602594928.5555,57.0,1092.0,130.0,468.999999999933,36.44
1602594928.5575,57.0,1092.0,135.0,468.999999999933,36.44
1602594928.5595,57.0,1092.0,140.0,468.999999999933,36.44
1602594928.5616,57.0,1092.0,137.0,468.999999999933,36.44
1602594928.5635,57.0,1092.0,132.0,468.999999999933,36.44
1602594928.5658,57.0,1092.0,132.0,468.999999999933,36.44
1602594928.5675,57.0,1092.0,128.0,468.999999999933,36.44
1602594928.5695,57.0,1092.0,120.0,468.999999999933,36.44
1602594928.5715,57.0,1092.0,116.0,468.999999999933,36.44
1602594928.5735,57.0,1092.0,96.0,468.999999999933,36.44
1602594928.5755,57.0,1092.0,74.0,468.999999999933,36.44
1602594928.5775,57.0,1092.0,62.0,468.999999999933,36.44
1602594928.5795,57.0,1092.0,45.0,468.999999999933,36.44
1602594928.5815,57.0,1092.0,31.0,468.999999999933,36.44
1602594928.5835,57.0,1092.0,21.0,468.999999999933,36.44
1602594928.5855,57.0,1092.0,14.0,468.999999999933,36.44
1602594928.5875,57.0,1092.0,7.0,468.999999999933,36.44
1602594928.5895,57.0,1092.0,-4.0,468.999999999933,36.44
1602594928.5915,57.0,1092.0,-14.0,468.999999999933,36.44
1602594928.5935,57.0,1092.0,-16.0,468.999999999933,36.44
1602594928.5942,57.0,1092.0,-16.0,468.999999999933,36.44
1602594928.5966,57.0,1092.0,-14.0,468.999999999933,36.44
1602594928.5985,57.0,1092.0,-7.0,468.999999999933,36.44
1602594928.6005,57.0,1092.0,0.0,468.999999999933,36.44
1602594928.6025,57.0,1092.0,4.0,468.999999999933,36.44
1602594928.6045,57.0,1092.0,7.0,468.999999999933,36.44
1602594928.6065,57.0,1092.0,12.0,468.999999999933,36.44
1602594928.6085,57.0,1092.0,14.0,468.999999999933,36.44
1602594928.6105,57.0,1092.0,12.0,468.999999999933,36.44
1602594928.6125,57.0,1092.0,9.0,468.999999999933,36.44
1602594928.6145,57.0,1092.0,14.0,468.999999999933,36.44
1602594928.6165,57.0,1092.0,21.0,468.999999999933,36.44
1602594928.6185,57.0,1092.0,24.0,468.999999999933,36.44
1602594928.6205,57.0,1092.0,26.0,468.999999999933,36.44
1602594928.6225,57.0,1092.0,26.0,468.999999999933,36.44
1602594928.6245,57.0,1092.0,21.0,468.999999999933,36.44
1602594928.6252,57.0,1092.0,19.0,468.999999999933,36.44
1602594928.6275,57.0,1092.0,14.0,468.999999999933,36.44
1602594928.6295,57.0,1092.0,4.0,468.999999999933,36.44
1602594928.6315,57.0,1092.0,0.0,468.999999999933,36.44
1602594928.6335,57.0,1092.0,0.0,468.999999999933,36.44
1602594928.6355,57.0,1092.0,4.0,468.999999999933,36.44
1602594928.6375,57.0,1092.0,7.0,468.999999999933,36.44
1602594928.6395,57.0,1092.0,4.0,468.999999999933,36.44
1602594928.6415,57.0,1092.0,4.0,468.999999999933,36.44
1602594928.6435,57.0,1092.0,7.0,468.999999999933,36.44
1602594928.6455,57.0,1092.0,12.0,468.999999999933,36.44
1602594928.6475,57.0,1092.0,7.0,468.999999999933,36.44
1602594928.6495,57.0,1092.0,-2.0,468.999999999933,36.44
1602594928.6515,57.0,1092.0,0.0,468.999999999933,36.44
1602594928.6535,57.0,1092.0,2.0,468.999999999933,36.44
1602594929.0518,57.0,1092.0,4.0,468.999999999933,36.44
1602594929.0526,57.0,1092.0,14.0,468.999999999933,36.44
1602594929.055,57.0,1092.0,19.0,468.999999999933,36.44
1602594929.0577,57.0,1092.0,16.0,468.999999999933,36.44
1602594929.0597,57.0,1092.0,14.0,468.999999999933,36.44
1602594929.0617,57.0,1092.0,7.0,468.999999999933,36.44
1602594929.0637,57.0,1092.0,4.0,468.999999999933,36.44
1602594929.0656,57.0,1092.0,2.0,468.999999999933,36.44
1602594929.0676,57.0,1092.0,0.0,468.999999999933,36.44
1602594929.0696,57.0,1092.0,7.0,468.999999999933,36.44
1602594929.0716,57.0,1092.0,16.0,468.999999999933,36.44
1602594929.0736,57.0,1092.0,9.0,468.999999999933,36.44
1602594929.0755,57.0,1092.0,4.0,468.999999999933,36.44
1602594929.0775,57.0,1092.0,14.0,468.999999999933,36.44
1602594929.0795,57.0,1092.0,21.0,468.999999999933,36.44
1602594929.0816,57.0,1092.0,12.0,468.999999999933,36.44
1602594929.0835,57.0,1092.0,4.0,468.999999999933,36.44
1602594929.0843,57.0,1092.0,12.0,468.999999999933,36.44
1602594929.0866,57.0,1092.0,24.0,468.999999999933,36.44
1602594929.0885,57.0,1092.0,24.0,468.999999999933,36.44
1602594929.0907,57.0,1092.0,21.0,468.999999999933,36.44
1602594929.0925,57.0,1092.0,26.0,468.999999999933,36.44
1602594929.0945,57.0,1092.0,31.0,468.999999999933,36.44
1602594929.0966,57.0,1092.0,24.0,468.999999999933,36.44
1602594929.0985,57.0,1092.0,19.0,468.999999999933,36.44
1602594929.1006,57.0,1092.0,24.0,468.999999999933,36.44
1602594929.1025,57.0,1092.0,29.0,468.999999999933,36.44
1602594929.1045,57.0,1092.0,31.0,468.999999999933,36.44
1602594929.1065,57.0,1092.0,33.0,468.999999999933,36.44
1602594929.1085,57.0,1092.0,41.0,468.999999999933,36.44
1602594929.1106,57.0,1092.0,31.0,468.999999999933,36.44
1602594929.1126,57.0,1092.0,19.0,468.999999999933,36.44
1602594929.1133,57.0,1092.0,19.0,468.999999999933,36.44
1602594929.1155,57.0,1092.0,24.0,468.999999999933,36.44
1602594929.1175,57.0,1092.0,21.0,468.999999999933,36.44
1602594929.1195,57.0,1092.0,21.0,468.999999999933,36.44
1602594929.1216,57.0,1092.0,26.0,468.999999999933,36.44
1602594929.1236,57.0,1092.0,41.0,468.999999999933,36.44
1602594929.1255,57.0,1092.0,55.0,468.999999999933,36.44
1602594929.1275,57.0,1092.0,58.0,468.999999999933,36.44
1602594929.1295,57.0,1092.0,45.0,468.999999999933,36.44
1602594929.1316,57.0,1092.0,41.0,468.999999999933,36.44
1602594929.1335,57.0,1092.0,45.0,468.999999999933,36.44
1602594929.1355,57.0,1092.0,45.0,468.999999999933,36.44
1602594929.1375,57.0,1092.0,38.0,468.999999999933,36.44
1602594929.1395,57.0,1092.0,31.0,468.999999999933,36.44
1602594929.1415,57.0,1092.0,26.0,468.999999999933,36.44
1602594929.1435,57.0,1092.0,21.0,468.999999999933,36.44
1602594929.1442,57.0,1092.0,19.0,468.999999999933,36.44
1602594929.1466,57.0,1092.0,21.0,468.999999999933,36.44
1602594929.1485,57.0,1092.0,29.0,468.999999999933,36.44
1602594929.1506,57.0,1092.0,33.0,468.999999999933,36.44
1602594929.1525,57.0,1092.0,38.0,468.999999999933,36.44
1602594929.1545,57.0,1092.0,36.0,468.999999999933,36.44
1602594929.1566,57.0,1092.0,70.0,468.999999999933,36.44
1602594929.1586,57.0,1092.0,244.0,468.999999999933,36.44
1602594929.1608,57.0,1092.0,514.0,468.999999999933,36.44
1602594929.1626,57.0,1092.0,493.0,468.999999999933,36.44
1602594929.1646,57.0,1092.0,-45.0,468.999999999933,36.44
1602594929.1665,57.0,1092.0,-473.0,468.999999999933,36.44
1602594929.1685,57.0,1092.0,-256.0,468.999999999933,36.44
1602594929.1706,57.0,1092.0,9.0,468.999999999933,36.44
1602594929.1726,57.0,1092.0,-19.0,468.999999999933,36.44
1602594929.1745,57.0,1092.0,7.0,468.999999999933,36.44
1602594929.1752,57.0,1092.0,79.0,468.999999999933,36.44
1602594929.1775,57.0,1092.0,53.0,468.999999999933,36.44
1602594929.1795,57.0,1092.0,33.0,468.999999999933,36.44
1602594929.1816,57.0,1092.0,55.0,468.999999999933,36.44
1602594929.1836,57.0,1092.0,58.0,468.999999999933,36.44
1602594929.1856,57.0,1092.0,55.0,468.999999999933,36.44
1602594929.1875,57.0,1092.0,65.0,468.999999999933,36.44
1602594929.1895,57.0,1092.0,70.0,468.999999999933,36.44
1602594929.1915,57.0,1092.0,65.0,468.999999999933,36.44
1602594929.6221,57.0,1048.0,65.0,468.999999999933,36.44
1602594929.6229,57.0,1048.0,72.0,468.999999999933,36.44
1602594929.6254,57.0,1048.0,72.0,468.999999999933,36.44
1602594929.628,57.0,1048.0,74.0,468.999999999933,36.44
1602594929.6287,57.0,1048.0,77.0,468.999999999933,36.44
1602594929.631,57.0,1048.0,67.0,468.999999999933,36.44
1602594929.6329,57.0,1048.0,65.0,468.999999999933,36.44
1602594929.6349,57.0,1048.0,79.0,468.999999999933,36.44
1602594929.6369,57.0,1048.0,82.0,468.999999999933,36.44
1602594929.6389,57.0,1048.0,72.0,468.999999999933,36.44
1602594929.6409,57.0,1048.0,79.0,468.999999999933,36.44
1602594929.6429,57.0,1048.0,94.0,468.999999999933,36.44
1602594929.6449,57.0,1048.0,99.0,468.999999999933,36.44
1602594929.6469,57.0,1048.0,101.0,468.999999999933,36.44
1602594929.6489,57.0,1048.0,106.0,468.999999999933,36.44
1602594929.6509,57.0,1048.0,113.0,468.999999999933,36.44
1602594929.653,57.0,1048.0,120.0,468.999999999933,36.44
1602594929.6549,57.0,1048.0,116.0,468.999999999933,36.44
1602594929.6569,57.0,1048.0,116.0,468.999999999933,36.44
1602594929.6589,57.0,1048.0,125.0,468.999999999933,36.44
1602594929.6595,57.0,1048.0,130.0,468.999999999933,36.44
1602594929.6609,57.0,1048.0,125.0,468.999999999933,36.44
1602594929.6629,57.0,1048.0,120.0,468.999999999933,36.44
1602594929.6649,57.0,1048.0,116.0,468.999999999933,36.44
1602594929.6669,57.0,1048.0,106.0,468.999999999933,36.44
1602594929.6689,57.0,1048.0,96.0,468.999999999933,36.44
1602594929.671,57.0,1048.0,87.0,468.999999999933,36.44
1602594929.6729,57.0,1048.0,82.0,468.999999999933,36.44
1602594929.6749,57.0,1048.0,74.0,468.999999999933,36.44
1602594929.6769,57.0,1048.0,53.0,468.999999999933,36.44
1602594929.6789,57.0,1048.0,29.0,468.999999999933,36.44
1602594929.6809,57.0,1048.0,16.0,468.999999999933,36.44
1602594929.6829,57.0,1048.0,14.0,468.999999999933,36.44
1602594929.6849,57.0,1048.0,4.0,468.999999999933,36.44
1602594929.687,57.0,1048.0,-14.0,468.999999999933,36.44
1602594929.6889,57.0,1048.0,-24.0,468.999999999933,36.44
1602594929.6896,57.0,1048.0,-19.0,468.999999999933,36.44
1602594929.6919,57.0,1048.0,-16.0,468.999999999933,36.44
1602594929.6939,57.0,1048.0,-14.0,468.999999999933,36.44
1602594929.6959,57.0,1048.0,-7.0,468.999999999933,36.44
1602594929.6979,57.0,1048.0,-2.0,468.999999999933,36.44
1602594929.6999,57.0,1048.0,0.0,468.999999999933,36.44
1602594929.7019,57.0,1048.0,2.0,468.999999999933,36.44
1602594929.7039,57.0,1048.0,7.0,468.999999999933,36.44
1602594929.7059,57.0,1048.0,16.0,468.999999999933,36.44
1602594929.7079,57.0,1048.0,31.0,468.999999999933,36.44
1602594929.7099,57.0,1048.0,31.0,468.999999999933,36.44
1602594929.7119,57.0,1048.0,21.0,468.999999999933,36.44
1602594929.7139,57.0,1048.0,21.0,468.999999999933,36.44
1602594929.7159,57.0,1048.0,26.0,468.999999999933,36.44
1602594929.7179,57.0,1048.0,24.0,468.999999999933,36.44
1602594929.7199,57.0,1048.0,14.0,468.999999999933,36.44
1602594929.7206,57.0,1048.0,12.0,468.999999999933,36.44
1602594929.7229,57.0,1048.0,9.0,468.999999999933,36.44
1602594929.7249,57.0,1048.0,9.0,468.999999999933,36.44
1602594929.7269,57.0,1048.0,4.0,468.999999999933,36.44
1602594929.7289,57.0,1048.0,2.0,468.999999999933,36.44
1602594929.731,57.0,1048.0,4.0,468.999999999933,36.44
1602594929.7329,57.0,1048.0,4.0,468.999999999933,36.44
1602594929.7349,57.0,1048.0,-2.0,468.999999999933,36.44
1602594929.7369,57.0,1048.0,-2.0,468.999999999933,36.44
1602594929.7389,57.0,1048.0,2.0,468.999999999933,36.44
1602594929.7409,57.0,1048.0,7.0,468.999999999933,36.44
1602594929.7429,57.0,1048.0,4.0,468.999999999933,36.44
1602594929.7448,57.0,1048.0,0.0,468.999999999933,36.44
1602594929.7469,57.0,1048.0,-2.0,468.999999999933,36.44
1602594929.7489,57.0,1048.0,-2.0,468.999999999933,36.44
1602594929.7509,57.0,1048.0,2.0,468.999999999933,36.44
1602594929.7516,57.0,1048.0,4.0,468.999999999933,36.44
1602594929.7529,57.0,1048.0,9.0,468.999999999933,36.44
1602594929.7549,57.0,1048.0,12.0,468.999999999933,36.44
1602594929.7569,57.0,1048.0,12.0,468.999999999933,36.44
1602594929.7589,57.0,1048.0,12.0,468.999999999933,36.44
1602594930.1918,57.0,1048.0,12.0,468.999999999933,36.44
1602594930.1926,57.0,1048.0,12.0,468.999999999933,36.44
1602594930.1951,57.0,1048.0,9.0,468.999999999933,36.44
1602594930.1977,57.0,1048.0,9.0,468.999999999933,36.44
1602594930.1997,57.0,1048.0,16.0,468.999999999933,36.44
1602594930.2017,57.0,1048.0,24.0,468.999999999933,36.44
1602594930.2036,57.0,1048.0,9.0,468.999999999933,36.44
1602594930.2056,57.0,1048.0,-7.0,468.999999999933,36.44
1602594930.2076,57.0,1048.0,2.0,468.999999999933,36.44
1602594930.2083,57.0,1048.0,12.0,468.999999999933,36.44
1602594930.2107,57.0,1048.0,9.0,468.999999999933,36.44
1602594930.2126,57.0,1048.0,9.0,468.999999999933,36.44
1602594930.2147,57.0,1048.0,9.0,468.999999999933,36.44
1602594930.2167,57.0,1048.0,7.0,468.999999999933,36.44
1602594930.2186,57.0,1048.0,7.0,468.999999999933,36.44
1602594930.2206,57.0,1048.0,14.0,468.999999999933,36.44
1602594930.2226,57.0,1048.0,16.0,468.999999999933,36.44
1602594930.2245,57.0,1048.0,16.0,468.999999999933,36.44
1602594930.2266,57.0,1048.0,14.0,468.999999999933,36.44
1602594930.2285,57.0,1048.0,7.0,468.999999999933,36.44
1602594930.2306,57.0,1048.0,9.0,468.999999999933,36.44
1602594930.2325,57.0,1048.0,14.0,468.999999999933,36.44
1602594930.2345,57.0,1048.0,16.0,468.999999999933,36.44
1602594930.2365,57.0,1048.0,16.0,468.999999999933,36.44
1602594930.2386,57.0,1048.0,19.0,468.999999999933,36.44
1602594930.2393,57.0,1048.0,24.0,468.999999999933,36.44
1602594930.2406,57.0,1048.0,26.0,468.999999999933,36.44
1602594930.2426,57.0,1048.0,24.0,468.999999999933,36.44
1602594930.2446,57.0,1048.0,16.0,468.999999999933,36.44
1602594930.2466,57.0,1048.0,14.0,468.999999999933,36.44
1602594930.2486,57.0,1048.0,21.0,468.999999999933,36.44
1602594930.2506,57.0,1048.0,33.0,468.999999999933,36.44
1602594930.2526,57.0,1048.0,43.0,468.999999999933,36.44
1602594930.2546,57.0,1048.0,58.0,468.999999999933,36.44
1602594930.2566,57.0,1048.0,65.0,468.999999999933,36.44
1602594930.2586,57.0,1048.0,48.0,468.999999999933,36.44
1602594930.2606,57.0,1048.0,33.0,468.999999999933,36.44
1602594930.2626,57.0,1048.0,43.0,468.999999999933,36.44
1602594930.2646,57.0,1048.0,45.0,468.999999999933,36.44
1602594930.2666,57.0,1048.0,31.0,468.999999999933,36.44
1602594930.2686,57.0,1048.0,19.0,468.999999999933,36.44
1602594930.2706,57.0,1048.0,24.0,468.999999999933,36.44
1602594930.2726,57.0,1048.0,29.0,468.999999999933,36.44
1602594930.2746,57.0,1048.0,21.0,468.999999999933,36.44
1602594930.2766,57.0,1048.0,14.0,468.999999999933,36.44
1602594930.2786,57.0,1048.0,16.0,468.999999999933,36.44
1602594930.2807,57.0,1048.0,24.0,468.999999999933,36.44
1602594930.2826,57.0,1048.0,29.0,468.999999999933,36.44
1602594930.2847,57.0,1048.0,33.0,468.999999999933,36.44
1602594930.2866,57.0,1048.0,48.0,468.999999999933,36.44
1602594930.2886,57.0,1048.0,161.0,468.999999999933,36.44
1602594930.2906,57.0,1048.0,435.0,468.999999999933,36.44
1602594930.2926,57.0,1048.0,589.0,468.999999999933,36.44
1602594930.2946,57.0,1048.0,193.0,468.999999999933,36.44
1602594930.2966,57.0,1048.0,-420.0,468.999999999933,36.44
1602594930.2986,57.0,1048.0,-425.0,468.999999999933,36.44
1602594930.3006,57.0,1048.0,-70.0,468.999999999933,36.44
1602594930.3026,57.0,1048.0,-4.0,468.999999999933,36.44
1602594930.3046,57.0,1048.0,-26.0,468.999999999933,36.44
1602594930.3066,57.0,1048.0,53.0,468.999999999933,36.44
1602594930.3086,57.0,1048.0,53.0,468.999999999933,36.44
1602594930.3106,57.0,1048.0,24.0,468.999999999933,36.44
1602594930.3126,57.0,1048.0,50.0,468.999999999933,36.44
1602594930.3147,57.0,1048.0,60.0,468.999999999933,36.44
1602594930.3166,57.0,1048.0,43.0,468.999999999933,36.44
1602594930.3186,57.0,1048.0,50.0,468.999999999933,36.44
1602594930.3206,57.0,1048.0,62.0,468.999999999933,36.44
1602594930.3226,57.0,1048.0,60.0,468.999999999933,36.44
1602594930.3246,57.0,1048.0,58.0,468.999999999933,36.44
1602594930.3266,57.0,1048.0,65.0,468.999999999933,36.44
1602594930.3286,57.0,1048.0,65.0,468.999999999933,36.44
1602594930.3306,57.0,1048.0,62.0,468.999999999933,36.44
1602594930.3326,57.0,1048.0,67.0,468.999999999933,36.44
1602594930.7618,57.0,1060.0,67.0,468.999999999933,36.44
1602594930.7626,57.0,1060.0,70.0,468.999999999933,36.44
1602594930.7652,57.0,1060.0,82.0,468.999999999933,36.44
1602594930.7678,57.0,1060.0,87.0,468.999999999933,36.44
1602594930.7699,57.0,1060.0,79.0,468.999999999933,36.44
1602594930.7718,57.0,1060.0,82.0,468.999999999933,36.44
1602594930.7738,57.0,1060.0,89.0,468.999999999933,36.44
1602594930.7758,57.0,1060.0,79.0,468.999999999933,36.44
1602594930.7778,57.0,1060.0,74.0,468.999999999933,36.44
1602594930.7797,57.0,1060.0,87.0,468.999999999933,36.44
1602594930.7817,57.0,1060.0,94.0,468.999999999933,36.44
1602594930.7837,57.0,1060.0,91.0,468.999999999933,36.44
1602594930.7857,57.0,1060.0,96.0,468.999999999933,36.44
1602594930.7877,57.0,1060.0,103.0,468.999999999933,36.44
1602594930.7897,57.0,1060.0,103.0,468.999999999933,36.44
1602594930.7917,57.0,1060.0,103.0,468.999999999933,36.44
1602594930.7937,57.0,1060.0,106.0,468.999999999933,36.44
1602594930.7957,57.0,1060.0,103.0,468.999999999933,36.44
1602594930.7978,57.0,1060.0,99.0,468.999999999933,36.44
1602594930.7997,57.0,1060.0,96.0,468.999999999933,36.44
1602594930.8017,57.0,1060.0,94.0,468.999999999933,36.44
1602594930.8037,57.0,1060.0,84.0,468.999999999933,36.44
1602594930.8057,57.0,1060.0,72.0,468.999999999933,36.44
1602594930.8077,57.0,1060.0,60.0,468.999999999933,36.44
1602594930.8097,57.0,1060.0,45.0,468.999999999933,36.44
1602594930.8117,57.0,1060.0,24.0,468.999999999933,36.44
1602594930.8137,57.0,1060.0,9.0,468.999999999933,36.44
1602594930.8157,57.0,1060.0,2.0,468.999999999933,36.44
1602594930.8177,57.0,1060.0,-7.0,468.999999999933,36.44
1602594930.8197,57.0,1060.0,-16.0,468.999999999933,36.44
1602594930.8217,57.0,1060.0,-16.0,468.999999999933,36.44
1602594930.8236,57.0,1060.0,-19.0,468.999999999933,36.44
1602594930.8257,57.0,1060.0,-21.0,468.999999999933,36.44
1602594930.8276,57.0,1060.0,-24.0,468.999999999933,36.44
1602594930.8296,57.0,1060.0,-26.0,468.999999999933,36.44
1602594930.8317,57.0,1060.0,-29.0,468.999999999933,36.44
1602594930.8337,57.0,1060.0,-24.0,468.999999999933,36.44
1602594930.8357,57.0,1060.0,-7.0,468.999999999933,36.44
1602594930.8376,57.0,1060.0,0.0,468.999999999933,36.44
1602594930.8396,57.0,1060.0,-4.0,468.999999999933,36.44
1602594930.8416,57.0,1060.0,-7.0,468.999999999933,36.44
1602594930.8438,57.0,1060.0,2.0,468.999999999933,36.44
1602594930.8457,57.0,1060.0,7.0,468.999999999933,36.44
1602594930.8476,57.0,1060.0,2.0,468.999999999933,36.44
1602594930.8496,57.0,1060.0,2.0,468.999999999933,36.44
1602594930.8516,57.0,1060.0,12.0,468.999999999933,36.44
1602594930.8536,57.0,1060.0,12.0,468.999999999933,36.44
1602594930.8556,57.0,1060.0,0.0,468.999999999933,36.44
1602594930.8576,57.0,1060.0,-2.0,468.999999999933,36.44
1602594930.8596,57.0,1060.0,9.0,468.999999999933,36.44
1602594930.8616,57.0,1060.0,9.0,468.999999999933,36.44
1602594930.8636,57.0,1060.0,-2.0,468.999999999933,36.44
1602594930.8656,57.0,1060.0,-7.0,468.999999999933,36.44
1602594930.8676,57.0,1060.0,-2.0,468.999999999933,36.44
1602594930.8696,57.0,1060.0,2.0,468.999999999933,36.44
1602594930.8716,57.0,1060.0,0.0,468.999999999933,36.44
1602594930.8736,57.0,1060.0,-4.0,468.999999999933,36.44
1602594930.8756,57.0,1060.0,-7.0,468.999999999933,36.44
1602594930.8776,57.0,1060.0,0.0,468.999999999933,36.44
1602594930.8796,57.0,1060.0,-4.0,468.999999999933,36.44
1602594930.8816,57.0,1060.0,-7.0,468.999999999933,36.44
1602594930.8836,57.0,1060.0,0.0,468.999999999933,36.44
1602594930.8856,57.0,1060.0,4.0,468.999999999933,36.44
1602594930.8876,57.0,1060.0,4.0,468.999999999933,36.44
1602594930.8896,57.0,1060.0,2.0,468.999999999933,36.44
1602594930.8916,57.0,1060.0,4.0,468.999999999933,36.44
1602594930.8936,57.0,1060.0,7.0,468.999999999933,36.44
1602594930.8956,57.0,1060.0,4.0,468.999999999933,36.44
1602594930.8976,57.0,1060.0,-2.0,468.999999999933,36.44
1602594930.8996,57.0,1060.0,-2.0,468.999999999933,36.44
1602594930.9016,57.0,1060.0,4.0,468.999999999933,36.44
1602594930.9036,57.0,1060.0,2.0,468.999999999933,36.44
1602594930.9056,57.0,1060.0,-2.0,468.999999999933,36.44
1602594931.3319,57.0,1072.0,2.0,468.999999999933,36.44
1602594931.3326,57.0,1072.0,9.0,468.999999999933,36.44
1602594931.3346,57.0,1072.0,7.0,468.999999999933,36.44
1602594931.3366,57.0,1072.0,2.0,468.999999999933,36.44
1602594931.3386,57.0,1072.0,2.0,468.999999999933,36.44
1602594931.3405,57.0,1072.0,4.0,468.999999999933,36.44
1602594931.3425,57.0,1072.0,7.0,468.999999999933,36.44
1602594931.3445,57.0,1072.0,4.0,468.999999999933,36.44
1602594931.3466,57.0,1072.0,-2.0,468.999999999933,36.44
1602594931.3485,57.0,1072.0,-7.0,468.999999999933,36.44
1602594931.3506,57.0,1072.0,-4.0,468.999999999933,36.44
1602594931.3525,57.0,1072.0,2.0,468.999999999933,36.44
1602594931.3545,57.0,1072.0,0.0,468.999999999933,36.44
1602594931.3565,57.0,1072.0,-4.0,468.999999999933,36.44
1602594931.3585,57.0,1072.0,-2.0,468.999999999933,36.44
1602594931.3605,57.0,1072.0,2.0,468.999999999933,36.44
1602594931.3625,57.0,1072.0,9.0,468.999999999933,36.44
1602594931.3645,57.0,1072.0,12.0,468.999999999933,36.44
1602594931.3665,57.0,1072.0,12.0,468.999999999933,36.44
1602594931.3686,57.0,1072.0,9.0,468.999999999933,36.44
1602594931.3706,57.0,1072.0,4.0,468.999999999933,36.44
1602594931.3725,57.0,1072.0,7.0,468.999999999933,36.44
1602594931.3745,57.0,1072.0,16.0,468.999999999933,36.44
1602594931.3765,57.0,1072.0,16.0,468.999999999933,36.44
1602594931.3785,57.0,1072.0,14.0,468.999999999933,36.44
1602594931.3806,57.0,1072.0,14.0,468.999999999933,36.44
1602594931.3825,57.0,1072.0,14.0,468.999999999933,36.44
1602594931.3844,57.0,1072.0,12.0,468.999999999933,36.44
1602594931.3865,57.0,1072.0,12.0,468.999999999933,36.44
1602594931.3885,57.0,1072.0,19.0,468.999999999933,36.44
1602594931.3905,57.0,1072.0,21.0,468.999999999933,36.44
1602594931.3925,57.0,1072.0,14.0,468.999999999933,36.44
1602594931.3944,57.0,1072.0,9.0,468.999999999933,36.44
1602594931.3964,57.0,1072.0,14.0,468.999999999933,36.44
1602594931.3985,57.0,1072.0,19.0,468.999999999933,36.44
1602594931.4005,57.0,1072.0,21.0,468.999999999933,36.44
1602594931.4025,57.0,1072.0,24.0,468.999999999933,36.44
1602594931.4044,57.0,1072.0,29.0,468.999999999933,36.44
1602594931.4065,57.0,1072.0,38.0,468.999999999933,36.44
1602594931.4085,57.0,1072.0,45.0,468.999999999933,36.44
1602594931.4105,57.0,1072.0,41.0,468.999999999933,36.44
1602594931.4125,57.0,1072.0,33.0,468.999999999933,36.44
1602594931.4144,57.0,1072.0,38.0,468.999999999933,36.44
1602594931.4164,57.0,1072.0,43.0,468.999999999933,36.44
1602594931.4184,57.0,1072.0,38.0,468.999999999933,36.44
1602594931.4205,57.0,1072.0,31.0,468.999999999933,36.44
1602594931.4225,57.0,1072.0,21.0,468.999999999933,36.44
1602594931.4245,57.0,1072.0,14.0,468.999999999933,36.44
1602594931.4265,57.0,1072.0,14.0,468.999999999933,36.44
1602594931.4285,57.0,1072.0,16.0,468.999999999933,36.44
1602594931.4306,57.0,1072.0,16.0,468.999999999933,36.44
1602594931.4336,57.0,1072.0,16.0,468.999999999933,36.44
1602594931.4355,57.0,1072.0,19.0,468.999999999933,36.44
1602594931.4375,57.0,1072.0,21.0,468.999999999933,36.44
1602594931.4395,57.0,1072.0,19.0,468.999999999933,36.44
1602594931.4415,57.0,1072.0,65.0,468.999999999933,36.44
1602594931.4435,57.0,1072.0,239.0,468.999999999933,36.44
1602594931.4455,57.0,1072.0,488.0,468.999999999933,36.44
1602594931.4474,57.0,1072.0,464.0,468.999999999933,36.44
1602594931.4494,57.0,1072.0,-65.0,468.999999999933,36.44
1602594931.4515,57.0,1072.0,-483.0,468.999999999933,36.44
1602594931.4534,57.0,1072.0,-248.0,468.999999999933,36.44
1602594931.4555,57.0,1072.0,31.0,468.999999999933,36.44
1602594931.4575,57.0,1072.0,-16.0,468.999999999933,36.44
1602594931.4594,57.0,1072.0,-21.0,468.999999999933,36.44
1602594931.4615,57.0,1072.0,53.0,468.999999999933,36.44
1602594931.4634,57.0,1072.0,38.0,468.999999999933,36.44
1602594931.4654,57.0,1072.0,12.0,468.999999999933,36.44
1602594931.4675,57.0,1072.0,36.0,468.999999999933,36.44
1602594931.4695,57.0,1072.0,45.0,468.999999999933,36.44
1602594931.4716,57.0,1072.0,33.0,468.999999999933,36.44
1602594931.4735,57.0,1072.0,31.0,468.999999999933,36.44
1602594931.4754,57.0,1072.0,38.0,468.999999999933,36.44
1602594931.8711,57.0,1072.0,41.0,468.999999999933,36.44
1602594931.8715,57.0,1072.0,41.0,468.999999999933,36.44
1602594931.873,57.0,1072.0,43.0,468.999999999933,36.44
1602594931.8751,57.0,1072.0,43.0,468.999999999933,36.44
1602594931.8771,57.0,1072.0,45.0,468.999999999933,36.44
1602594931.879,57.0,1072.0,53.0,468.999999999933,36.44
1602594931.8811,57.0,1072.0,53.0,468.999999999933,36.44
1602594931.883,57.0,1072.0,55.0,468.999999999933,36.44
1602594931.885,57.0,1072.0,60.0,468.999999999933,36.44
1602594931.8871,57.0,1072.0,58.0,468.999999999933,36.44
1602594931.889,57.0,1072.0,48.0,468.999999999933,36.44
1602594931.8911,57.0,1072.0,50.0,468.999999999933,36.44
1602594931.893,57.0,1072.0,62.0,468.999999999933,36.44
1602594931.895,57.0,1072.0,72.0,468.999999999933,36.44
1602594931.8971,57.0,1072.0,74.0,468.999999999933,36.44
1602594931.899,57.0,1072.0,74.0,468.999999999933,36.44
1602594931.9011,57.0,1072.0,77.0,468.999999999933,36.44
1602594931.9031,57.0,1072.0,79.0,468.999999999933,36.44
1602594931.905,57.0,1072.0,82.0,468.999999999933,36.44
1602594931.907,57.0,1072.0,89.0,468.999999999933,36.44
1602594931.909,57.0,1072.0,103.0,468.999999999933,36.44
1602594931.9111,57.0,1072.0,103.0,468.999999999933,36.44
1602594931.9131,57.0,1072.0,94.0,468.999999999933,36.44
1602594931.915,57.0,1072.0,96.0,468.999999999933,36.44
1602594931.917,57.0,1072.0,103.0,468.999999999933,36.44
1602594931.919,57.0,1072.0,103.0,468.999999999933,36.44
1602594931.9211,57.0,1072.0,96.0,468.999999999933,36.44
1602594931.923,57.0,1072.0,84.0,468.999999999933,36.44
1602594931.925,57.0,1072.0,65.0,468.999999999933,36.44
1602594931.927,57.0,1072.0,48.0,468.999999999933,36.44
1602594931.929,57.0,1072.0,31.0,468.999999999933,36.44
1602594931.9311,57.0,1072.0,16.0,468.999999999933,36.44
1602594931.933,57.0,1072.0,7.0,468.999999999933,36.44
1602594931.9351,57.0,1072.0,-7.0,468.999999999933,36.44
1602594931.937,57.0,1072.0,-26.0,468.999999999933,36.44
1602594931.939,57.0,1072.0,-24.0,468.999999999933,36.44
1602594931.941,57.0,1072.0,-21.0,468.999999999933,36.44
1602594931.943,57.0,1072.0,-33.0,468.999999999933,36.44
1602594931.9451,57.0,1072.0,-31.0,468.999999999933,36.44
1602594931.947,57.0,1072.0,-21.0,468.999999999933,36.44
1602594931.949,57.0,1072.0,-24.0,468.999999999933,36.44
1602594931.9511,57.0,1072.0,-21.0,468.999999999933,36.44
1602594931.9531,57.0,1072.0,-12.0,468.999999999933,36.44
1602594931.955,57.0,1072.0,-9.0,468.999999999933,36.44
1602594931.9566,57.0,1072.0,-9.0,468.999999999933,36.44
1602594931.958,57.0,1072.0,-2.0,468.999999999933,36.44
1602594931.96,57.0,1072.0,4.0,468.999999999933,36.44
1602594931.962,57.0,1072.0,4.0,468.999999999933,36.44
1602594931.9642,57.0,1072.0,2.0,468.999999999933,36.44
1602594931.9662,57.0,1072.0,2.0,468.999999999933,36.44
1602594931.968,57.0,1072.0,4.0,468.999999999933,36.44
1602594931.97,57.0,1072.0,4.0,468.999999999933,36.44
1602594931.9721,57.0,1072.0,0.0,468.999999999933,36.44
1602594931.974,57.0,1072.0,4.0,468.999999999933,36.44
1602594931.976,57.0,1072.0,12.0,468.999999999933,36.44
1602594931.978,57.0,1072.0,9.0,468.999999999933,36.44
1602594931.98,57.0,1072.0,4.0,468.999999999933,36.44
1602594931.9821,57.0,1072.0,7.0,468.999999999933,36.44
1602594931.984,57.0,1072.0,7.0,468.999999999933,36.44
1602594931.986,57.0,1072.0,2.0,468.999999999933,36.44
1602594931.988,57.0,1072.0,2.0,468.999999999933,36.44
1602594931.9901,57.0,1072.0,2.0,468.999999999933,36.44
1602594931.992,57.0,1072.0,0.0,468.999999999933,36.44
1602594931.994,57.0,1072.0,-2.0,468.999999999933,36.44
1602594931.996,57.0,1072.0,-2.0,468.999999999933,36.44
1602594931.998,57.0,1072.0,0.0,468.999999999933,36.44
1602594932.0,57.0,1072.0,2.0,468.999999999933,36.44
1602594932.002,57.0,1072.0,2.0,468.999999999933,36.44
1602594932.004,57.0,1072.0,4.0,468.999999999933,36.44
1602594932.006,57.0,1072.0,7.0,468.999999999933,36.44
1602594932.008,57.0,1072.0,7.0,468.999999999933,36.44
1602594932.01,57.0,1072.0,2.0,468.999999999933,36.44
1602594932.012,57.0,1072.0,7.0,468.999999999933,36.44
1602594932.4411,57.0,1117.0,14.0,468.999999999933,36.44
1602594932.4417,57.0,1117.0,7.0,468.999999999933,36.44
1602594932.4442,57.0,1117.0,-2.0,468.999999999933,36.44
1602594932.4468,57.0,1117.0,0.0,468.999999999933,36.44
1602594932.4488,57.0,1117.0,14.0,468.999999999933,36.44
1602594932.4508,57.0,1117.0,19.0,468.999999999933,36.44
1602594932.4527,57.0,1117.0,12.0,468.999999999933,36.44
1602594932.4547,57.0,1117.0,4.0,468.999999999933,36.44
1602594932.4567,57.0,1117.0,2.0,468.999999999933,36.44
1602594932.4587,57.0,1117.0,4.0,468.999999999933,36.44
1602594932.4608,57.0,1117.0,2.0,468.999999999933,36.44
1602594932.4627,57.0,1117.0,2.0,468.999999999933,36.44
1602594932.4647,57.0,1117.0,7.0,468.999999999933,36.44
1602594932.4668,57.0,1117.0,9.0,468.999999999933,36.44
1602594932.4687,57.0,1117.0,0.0,468.999999999933,36.44
1602594932.4707,57.0,1117.0,-2.0,468.999999999933,36.44
1602594932.4727,57.0,1117.0,12.0,468.999999999933,36.44
1602594932.4747,57.0,1117.0,19.0,468.999999999933,36.44
1602594932.4767,57.0,1117.0,14.0,468.999999999933,36.44
1602594932.4787,57.0,1117.0,14.0,468.999999999933,36.44
1602594932.4807,57.0,1117.0,21.0,468.999999999933,36.44
1602594932.4827,57.0,1117.0,16.0,468.999999999933,36.44
1602594932.4847,57.0,1117.0,16.0,468.999999999933,36.44
1602594932.4867,57.0,1117.0,26.0,468.999999999933,36.44
1602594932.4887,57.0,1117.0,31.0,468.999999999933,36.44
1602594932.4907,57.0,1117.0,19.0,468.999999999933,36.44
1602594932.4929,57.0,1117.0,12.0,468.999999999933,36.44
1602594932.4947,57.0,1117.0,21.0,468.999999999933,36.44
1602594932.4967,57.0,1117.0,29.0,468.999999999933,36.44
1602594932.4987,57.0,1117.0,26.0,468.999999999933,36.44
1602594932.5008,57.0,1117.0,29.0,468.999999999933,36.44
1602594932.5027,57.0,1117.0,31.0,468.999999999933,36.44
1602594932.5047,57.0,1117.0,29.0,468.999999999933,36.44
1602594932.5067,57.0,1117.0,26.0,468.999999999933,36.44
1602594932.5087,57.0,1117.0,26.0,468.999999999933,36.44
1602594932.5108,57.0,1117.0,29.0,468.999999999933,36.44
1602594932.5127,57.0,1117.0,33.0,468.999999999933,36.44
1602594932.5147,57.0,1117.0,36.0,468.999999999933,36.44
1602594932.5167,57.0,1117.0,33.0,468.999999999933,36.44
1602594932.5187,57.0,1117.0,29.0,468.999999999933,36.44
1602594932.5207,57.0,1117.0,29.0,468.999999999933,36.44
1602594932.5227,57.0,1117.0,31.0,468.999999999933,36.44
1602594932.5247,57.0,1117.0,31.0,468.999999999933,36.44
1602594932.5267,57.0,1117.0,29.0,468.999999999933,36.44
1602594932.5287,57.0,1117.0,31.0,468.999999999933,36.44
1602594932.5307,57.0,1117.0,31.0,468.999999999933,36.44
1602594932.5327,57.0,1117.0,33.0,468.999999999933,36.44
1602594932.5347,57.0,1117.0,36.0,468.999999999933,36.44
1602594932.5367,57.0,1117.0,43.0,468.999999999933,36.44
1602594932.5387,57.0,1117.0,55.0,468.999999999933,36.44
1602594932.5407,57.0,1117.0,60.0,468.999999999933,36.44
1602594932.5427,57.0,1117.0,50.0,468.999999999933,36.44
1602594932.5447,57.0,1117.0,41.0,468.999999999933,36.44
1602594932.5467,57.0,1117.0,41.0,468.999999999933,36.44
1602594932.5487,57.0,1117.0,41.0,468.999999999933,36.44
1602594932.5508,57.0,1117.0,29.0,468.999999999933,36.44
1602594932.5527,57.0,1117.0,21.0,468.999999999933,36.44
1602594932.5547,57.0,1117.0,16.0,468.999999999933,36.44
1602594932.5567,57.0,1117.0,16.0,468.999999999933,36.44
1602594932.5587,57.0,1117.0,19.0,468.999999999933,36.44
1602594932.5607,57.0,1117.0,19.0,468.999999999933,36.44
1602594932.5627,57.0,1117.0,14.0,468.999999999933,36.44
1602594932.5647,57.0,1117.0,19.0,468.999999999933,36.44
1602594932.5667,57.0,1117.0,26.0,468.999999999933,36.44
1602594932.5687,57.0,1117.0,29.0,468.999999999933,36.44
1602594932.5707,57.0,1117.0,60.0,468.999999999933,36.44
1602594932.5727,57.0,1117.0,212.0,468.999999999933,36.44
1602594932.5747,57.0,1117.0,454.0,468.999999999933,36.44
1602594932.5767,57.0,1117.0,466.0,468.999999999933,36.44
1602594932.5787,57.0,1117.0,-24.0,468.999999999933,36.44
1602594932.5807,57.0,1117.0,-454.0,468.999999999933,36.44
1602594932.5827,57.0,1117.0,-253.0,468.999999999933,36.44
1602594932.5847,57.0,1117.0,29.0,468.999999999933,36.44
1602594932.9816,57.0,1117.0,-9.0,468.999999999933,36.44
1602594932.9823,57.0,1117.0,-24.0,468.999999999933,36.44
1602594932.9847,57.0,1117.0,50.0,468.999999999933,36.44
1602594932.9873,57.0,1117.0,41.0,468.999999999933,36.44
1602594932.9895,57.0,1117.0,16.0,468.999999999933,36.44
1602594932.9913,57.0,1117.0,38.0,468.999999999933,36.44
1602594932.9933,57.0,1117.0,48.0,468.999999999933,36.44
1602594932.9953,57.0,1117.0,38.0,468.999999999933,36.44
1602594932.9973,57.0,1117.0,26.0,468.999999999933,36.44
1602594932.9993,57.0,1117.0,24.0,468.999999999933,36.44
1602594933.0015,57.0,1117.0,33.0,468.999999999933,36.44
1602594933.0033,57.0,1117.0,38.0,468.999999999933,36.44
1602594933.0054,57.0,1117.0,33.0,468.999999999933,36.44
1602594933.0073,57.0,1117.0,38.0,468.999999999933,36.44
1602594933.0093,57.0,1117.0,53.0,468.999999999933,36.44
1602594933.0113,57.0,1117.0,60.0,468.999999999933,36.44
1602594933.0132,57.0,1117.0,55.0,468.999999999933,36.44
1602594933.0153,57.0,1117.0,55.0,468.999999999933,36.44
1602594933.0173,57.0,1117.0,58.0,468.999999999933,36.44
1602594933.0193,57.0,1117.0,58.0,468.999999999933,36.44
1602594933.0213,57.0,1117.0,62.0,468.999999999933,36.44
1602594933.0233,57.0,1117.0,72.0,468.999999999933,36.44
1602594933.0252,57.0,1117.0,82.0,468.999999999933,36.44
1602594933.0273,57.0,1117.0,82.0,468.999999999933,36.44
1602594933.0293,57.0,1117.0,79.0,468.999999999933,36.44
1602594933.0313,57.0,1117.0,82.0,468.999999999933,36.44
1602594933.0332,57.0,1117.0,84.0,468.999999999933,36.44
1602594933.0353,57.0,1117.0,87.0,468.999999999933,36.44
1602594933.0373,57.0,1117.0,94.0,468.999999999933,36.44
1602594933.0393,57.0,1117.0,103.0,468.999999999933,36.44
1602594933.0413,57.0,1117.0,106.0,468.999999999933,36.44
1602594933.0433,57.0,1117.0,99.0,468.999999999933,36.44
1602594933.0453,57.0,1117.0,99.0,468.999999999933,36.44
1602594933.0473,57.0,1117.0,103.0,468.999999999933,36.44
1602594933.0492,57.0,1117.0,101.0,468.999999999933,36.44
1602594933.0513,57.0,1117.0,91.0,468.999999999933,36.44
1602594933.0533,57.0,1117.0,84.0,468.999999999933,36.44
1602594933.0552,57.0,1117.0,79.0,468.999999999933,36.44
1602594933.0572,57.0,1117.0,70.0,468.999999999933,36.44
1602594933.0592,57.0,1117.0,55.0,468.999999999933,36.44
1602594933.0613,57.0,1117.0,45.0,468.999999999933,36.44
1602594933.0632,57.0,1117.0,33.0,468.999999999933,36.44
1602594933.0653,57.0,1117.0,12.0,468.999999999933,36.44
1602594933.0673,57.0,1117.0,-4.0,468.999999999933,36.44
1602594933.0693,57.0,1117.0,-4.0,468.999999999933,36.44
1602594933.0713,57.0,1117.0,-4.0,468.999999999933,36.44
1602594933.0733,57.0,1117.0,-14.0,468.999999999933,36.44
1602594933.0752,57.0,1117.0,-21.0,468.999999999933,36.44
1602594933.0773,57.0,1117.0,-21.0,468.999999999933,36.44
1602594933.0792,57.0,1117.0,-29.0,468.999999999933,36.44
1602594933.0813,57.0,1117.0,-29.0,468.999999999933,36.44
1602594933.0833,57.0,1117.0,-16.0,468.999999999933,36.44
1602594933.0852,57.0,1117.0,-7.0,468.999999999933,36.44
1602594933.0872,57.0,1117.0,-4.0,468.999999999933,36.44
1602594933.0893,57.0,1117.0,-4.0,468.999999999933,36.44
1602594933.0914,57.0,1117.0,-4.0,468.999999999933,36.44
1602594933.0933,57.0,1117.0,0.0,468.999999999933,36.44
1602594933.0953,57.0,1117.0,7.0,468.999999999933,36.44
1602594933.0973,57.0,1117.0,7.0,468.999999999933,36.44
1602594933.0993,57.0,1117.0,4.0,468.999999999933,36.44
1602594933.1013,57.0,1117.0,16.0,468.999999999933,36.44
1602594933.1026,57.0,1117.0,24.0,468.999999999933,36.44
1602594933.1043,57.0,1117.0,14.0,468.999999999933,36.44
1602594933.1062,57.0,1117.0,7.0,468.999999999933,36.44
1602594933.1083,57.0,1117.0,7.0,468.999999999933,36.44
1602594933.1103,57.0,1117.0,4.0,468.999999999933,36.44
1602594933.1123,57.0,1117.0,9.0,468.999999999933,36.44
1602594933.1143,57.0,1117.0,4.0,468.999999999933,36.44
1602594933.1163,57.0,1117.0,-2.0,468.999999999933,36.44
1602594933.1183,57.0,1117.0,-2.0,468.999999999933,36.44
1602594933.1203,57.0,1117.0,2.0,468.999999999933,36.44
1602594933.1223,57.0,1117.0,0.0,468.999999999933,36.44
1602594933.1242,57.0,1117.0,2.0,468.999999999933,36.44
1602594933.5511,57.0,1113.0,4.0,468.999999999933,36.44
1602594933.5517,57.0,1113.0,4.0,468.999999999933,36.44
1602594933.5541,57.0,1113.0,7.0,468.999999999933,36.44
1602594933.5567,57.0,1113.0,7.0,468.999999999933,36.44
1602594933.5587,57.0,1113.0,4.0,468.999999999933,36.44
1602594933.5608,57.0,1113.0,-7.0,468.999999999933,36.44
1602594933.5628,57.0,1113.0,-16.0,468.999999999933,36.44
1602594933.5647,57.0,1113.0,-7.0,468.999999999933,36.44
1602594933.5667,57.0,1113.0,7.0,468.999999999933,36.44
1602594933.5687,57.0,1113.0,4.0,468.999999999933,36.44
1602594933.5708,57.0,1113.0,-2.0,468.999999999933,36.44
1602594933.5727,57.0,1113.0,-4.0,468.999999999933,36.44
1602594933.5747,57.0,1113.0,2.0,468.999999999933,36.44
1602594933.5767,57.0,1113.0,7.0,468.999999999933,36.44
1602594933.5787,57.0,1113.0,-2.0,468.999999999933,36.44
1602594933.5807,57.0,1113.0,-2.0,468.999999999933,36.44
1602594933.5827,57.0,1113.0,7.0,468.999999999933,36.44
1602594933.5847,57.0,1113.0,12.0,468.999999999933,36.44
1602594933.5867,57.0,1113.0,12.0,468.999999999933,36.44
1602594933.5888,57.0,1113.0,12.0,468.999999999933,36.44
1602594933.5907,57.0,1113.0,12.0,468.999999999933,36.44
1602594933.5927,57.0,1113.0,9.0,468.999999999933,36.44
1602594933.5947,57.0,1113.0,12.0,468.999999999933,36.44
1602594933.5967,57.0,1113.0,16.0,468.999999999933,36.44
1602594933.5987,57.0,1113.0,16.0,468.999999999933,36.44
1602594933.6008,57.0,1113.0,14.0,468.999999999933,36.44
1602594933.6027,57.0,1113.0,9.0,468.999999999933,36.44
1602594933.6047,57.0,1113.0,14.0,468.999999999933,36.44
1602594933.6067,57.0,1113.0,19.0,468.999999999933,36.44
1602594933.6087,57.0,1113.0,16.0,468.999999999933,36.44
1602594933.6108,57.0,1113.0,21.0,468.999999999933,36.44
1602594933.6127,57.0,1113.0,21.0,468.999999999933,36.44
1602594933.6147,57.0,1113.0,14.0,468.999999999933,36.44
1602594933.6169,57.0,1113.0,4.0,468.999999999933,36.44
1602594933.6187,57.0,1113.0,12.0,468.999999999933,36.44
1602594933.6208,57.0,1113.0,24.0,468.999999999933,36.44
1602594933.6227,57.0,1113.0,26.0,468.999999999933,36.44
1602594933.6247,57.0,1113.0,21.0,468.999999999933,36.44
1602594933.6267,57.0,1113.0,21.0,468.999999999933,36.44
1602594933.6287,57.0,1113.0,21.0,468.999999999933,36.44
1602594933.6307,57.0,1113.0,26.0,468.999999999933,36.44
1602594933.6327,57.0,1113.0,21.0,468.999999999933,36.44
1602594933.6347,57.0,1113.0,12.0,468.999999999933,36.44
1602594933.6367,57.0,1113.0,21.0,468.999999999933,36.44
1602594933.6387,57.0,1113.0,26.0,468.999999999933,36.44
1602594933.6407,57.0,1113.0,19.0,468.999999999933,36.44
1602594933.6427,57.0,1113.0,14.0,468.999999999933,36.44
1602594933.6447,57.0,1113.0,16.0,468.999999999933,36.44
1602594933.6467,57.0,1113.0,16.0,468.999999999933,36.44
1602594933.6487,57.0,1113.0,16.0,468.999999999933,36.44
1602594933.6507,57.0,1113.0,21.0,468.999999999933,36.44
1602594933.6527,57.0,1113.0,29.0,468.999999999933,36.44
1602594933.6547,57.0,1113.0,31.0,468.999999999933,36.44
1602594933.6567,57.0,1113.0,29.0,468.999999999933,36.44
1602594933.6587,57.0,1113.0,29.0,468.999999999933,36.44
1602594933.6607,57.0,1113.0,24.0,468.999999999933,36.44
1602594933.6627,57.0,1113.0,24.0,468.999999999933,36.44
1602594933.6647,57.0,1113.0,36.0,468.999999999933,36.44
1602594933.6667,57.0,1113.0,50.0,468.999999999933,36.44
1602594933.6687,57.0,1113.0,50.0,468.999999999933,36.44
1602594933.6708,57.0,1113.0,38.0,468.999999999933,36.44
1602594933.6727,57.0,1113.0,36.0,468.999999999933,36.44
1602594933.6747,57.0,1113.0,43.0,468.999999999933,36.44
1602594933.6767,57.0,1113.0,43.0,468.999999999933,36.44
1602594933.6787,57.0,1113.0,31.0,468.999999999933,36.44
1602594933.6808,57.0,1113.0,19.0,468.999999999933,36.44
1602594933.6827,57.0,1113.0,14.0,468.999999999933,36.44
1602594933.6847,57.0,1113.0,12.0,468.999999999933,36.44
1602594933.6867,57.0,1113.0,16.0,468.999999999933,36.44
1602594933.6887,57.0,1113.0,21.0,468.999999999933,36.44
1602594933.6907,57.0,1113.0,29.0,468.999999999933,36.44
1602594933.6927,57.0,1113.0,31.0,468.999999999933,36.44
1602594933.6947,57.0,1113.0,24.0,468.999999999933,36.44
1602594934.1517,57.0,1113.0,16.0,468.999999999933,36.44
1602594934.1525,57.0,1113.0,55.0,468.999999999933,36.44
1602594934.1549,57.0,1113.0,217.0,468.999999999933,36.44
1602594934.1575,57.0,1113.0,461.0,468.999999999933,36.44
1602594934.1596,57.0,1113.0,461.0,468.999999999933,36.44
1602594934.1617,57.0,1113.0,-36.0,468.999999999933,36.44
1602594934.1635,57.0,1113.0,-476.0,468.999999999933,36.44
1602594934.1655,57.0,1113.0,-290.0,468.999999999933,36.44
1602594934.1675,57.0,1113.0,-7.0,468.999999999933,36.44
1602594934.1695,57.0,1113.0,-26.0,468.999999999933,36.44
1602594934.1715,57.0,1113.0,-26.0,468.999999999933,36.44
1602594934.1737,57.0,1113.0,41.0,468.999999999933,36.44
1602594934.1755,57.0,1113.0,29.0,468.999999999933,36.44
1602594934.1775,57.0,1113.0,9.0,468.999999999933,36.44
1602594934.1795,57.0,1113.0,24.0,468.999999999933,36.44
1602594934.1815,57.0,1113.0,24.0,468.999999999933,36.44
1602594934.1834,57.0,1113.0,26.0,468.999999999933,36.44
1602594934.1854,57.0,1113.0,41.0,468.999999999933,36.44
1602594934.1874,57.0,1113.0,36.0,468.999999999933,36.44
1602594934.1895,57.0,1113.0,29.0,468.999999999933,36.44
1602594934.1914,57.0,1113.0,33.0,468.999999999933,36.44
1602594934.1934,57.0,1113.0,43.0,468.999999999933,36.44
1602594934.1955,57.0,1113.0,41.0,468.999999999933,36.44
1602594934.1975,57.0,1113.0,43.0,468.999999999933,36.44
1602594934.1995,57.0,1113.0,55.0,468.999999999933,36.44
1602594934.2015,57.0,1113.0,58.0,468.999999999933,36.44
1602594934.2034,57.0,1113.0,45.0,468.999999999933,36.44
1602594934.2054,57.0,1113.0,41.0,468.999999999933,36.44
1602594934.2074,57.0,1113.0,53.0,468.999999999933,36.44
1602594934.2094,57.0,1113.0,60.0,468.999999999933,36.44
1602594934.2115,57.0,1113.0,60.0,468.999999999933,36.44
1602594934.2135,57.0,1113.0,65.0,468.999999999933,36.44
1602594934.2155,57.0,1113.0,77.0,468.999999999933,36.44
1602594934.2175,57.0,1113.0,77.0,468.999999999933,36.44
1602594934.2195,57.0,1113.0,72.0,468.999999999933,36.44
1602594934.2215,57.0,1113.0,70.0,468.999999999933,36.44
1602594934.2234,57.0,1113.0,79.0,468.999999999933,36.44
1602594934.2254,57.0,1113.0,87.0,468.999999999933,36.44
1602594934.2274,57.0,1113.0,89.0,468.999999999933,36.44
1602594934.2294,57.0,1113.0,91.0,468.999999999933,36.44
1602594934.2314,57.0,1113.0,94.0,468.999999999933,36.44
1602594934.2334,57.0,1113.0,99.0,468.999999999933,36.44
1602594934.2355,57.0,1113.0,103.0,468.999999999933,36.44
1602594934.2375,57.0,1113.0,101.0,468.999999999933,36.44
1602594934.2395,57.0,1113.0,89.0,468.999999999933,36.44
1602594934.2414,57.0,1113.0,77.0,468.999999999933,36.44
1602594934.2434,57.0,1113.0,74.0,468.999999999933,36.44
1602594934.2455,57.0,1113.0,70.0,468.999999999933,36.44
1602594934.2474,57.0,1113.0,55.0,468.999999999933,36.44
1602594934.2494,57.0,1113.0,41.0,468.999999999933,36.44
1602594934.2514,57.0,1113.0,31.0,468.999999999933,36.44
1602594934.2534,57.0,1113.0,16.0,468.999999999933,36.44
1602594934.2555,57.0,1113.0,2.0,468.999999999933,36.44
1602594934.2574,57.0,1113.0,-7.0,468.999999999933,36.44
1602594934.2595,57.0,1113.0,-14.0,468.999999999933,36.44
1602594934.2615,57.0,1113.0,-21.0,468.999999999933,36.44
1602594934.2634,57.0,1113.0,-24.0,468.999999999933,36.44
1602594934.2654,57.0,1113.0,-19.0,468.999999999933,36.44
1602594934.2675,57.0,1113.0,-14.0,468.999999999933,36.44
1602594934.2695,57.0,1113.0,-12.0,468.999999999933,36.44
1602594934.2715,57.0,1113.0,-12.0,468.999999999933,36.44
1602594934.2735,57.0,1113.0,-7.0,468.999999999933,36.44
1602594934.2756,57.0,1113.0,2.0,468.999999999933,36.44
1602594934.2775,57.0,1113.0,12.0,468.999999999933,36.44
1602594934.2795,57.0,1113.0,9.0,468.999999999933,36.44
1602594934.2815,57.0,1113.0,0.0,468.999999999933,36.44
1602594934.2835,57.0,1113.0,4.0,468.999999999933,36.44
1602594934.2854,57.0,1113.0,16.0,468.999999999933,36.44
1602594934.2875,57.0,1113.0,14.0,468.999999999933,36.44
1602594934.2895,57.0,1113.0,9.0,468.999999999933,36.44
1602594934.2915,57.0,1113.0,14.0,468.999999999933,36.44
1602594934.2935,57.0,1113.0,16.0,468.999999999933,36.44
1602594934.2955,57.0,1113.0,16.0,468.999999999933,36.44
1602594934.6917,57.0,1193.0,16.0,468.999999999933,36.44
1602594934.6925,57.0,1193.0,9.0,468.999999999933,36.44
1602594934.695,57.0,1193.0,4.0,468.999999999933,36.44
1602594934.6975,57.0,1193.0,9.0,468.999999999933,36.44
1602594934.6996,57.0,1193.0,12.0,468.999999999933,36.44
1602594934.7016,57.0,1193.0,4.0,468.999999999933,36.44
1602594934.7035,57.0,1193.0,2.0,468.999999999933,36.44
1602594934.7055,57.0,1193.0,2.0,468.999999999933,36.44
1602594934.7075,57.0,1193.0,2.0,468.999999999933,36.44
1602594934.7095,57.0,1193.0,4.0,468.999999999933,36.44
1602594934.7115,57.0,1193.0,0.0,468.999999999933,36.44
1602594934.7135,57.0,1193.0,-14.0,468.999999999933,36.44
1602594934.7154,57.0,1193.0,-19.0,468.999999999933,36.44
1602594934.7175,57.0,1193.0,-14.0,468.999999999933,36.44
1602594934.7195,57.0,1193.0,-14.0,468.999999999933,36.44
1602594934.7215,57.0,1193.0,-9.0,468.999999999933,36.44
1602594934.7235,57.0,1193.0,0.0,468.999999999933,36.44
1602594934.7255,57.0,1193.0,0.0,468.999999999933,36.44
1602594934.7275,57.0,1193.0,-4.0,468.999999999933,36.44
1602594934.7295,57.0,1193.0,-7.0,468.999999999933,36.44
1602594934.7315,57.0,1193.0,-4.0,468.999999999933,36.44
1602594934.7335,57.0,1193.0,2.0,468.999999999933,36.44
1602594934.7355,57.0,1193.0,2.0,468.999999999933,36.44
1602594934.7375,57.0,1193.0,2.0,468.999999999933,36.44
1602594934.7395,57.0,1193.0,2.0,468.999999999933,36.44
1602594934.7415,57.0,1193.0,2.0,468.999999999933,36.44
1602594934.7435,57.0,1193.0,0.0,468.999999999933,36.44
1602594934.7455,57.0,1193.0,2.0,468.999999999933,36.44
1602594934.7475,57.0,1193.0,9.0,468.999999999933,36.44
1602594934.7495,57.0,1193.0,2.0,468.999999999933,36.44
1602594934.7515,57.0,1193.0,-9.0,468.999999999933,36.44
1602594934.7535,57.0,1193.0,-2.0,468.999999999933,36.44
1602594934.7555,57.0,1193.0,7.0,468.999999999933,36.44
1602594934.7575,57.0,1193.0,7.0,468.999999999933,36.44
1602594934.7595,57.0,1193.0,4.0,468.999999999933,36.44
1602594934.7615,57.0,1193.0,9.0,468.999999999933,36.44
1602594934.7635,57.0,1193.0,12.0,468.999999999933,36.44
1602594934.7655,57.0,1193.0,2.0,468.999999999933,36.44
1602594934.7674,57.0,1193.0,-7.0,468.999999999933,36.44
1602594934.7694,57.0,1193.0,0.0,468.999999999933,36.44
1602594934.7716,57.0,1193.0,9.0,468.999999999933,36.44
1602594934.7735,57.0,1193.0,9.0,468.999999999933,36.44
1602594934.7755,57.0,1193.0,14.0,468.999999999933,36.44
1602594934.7775,57.0,1193.0,19.0,468.999999999933,36.44
1602594934.7794,57.0,1193.0,16.0,468.999999999933,36.44
1602594934.7815,57.0,1193.0,4.0,468.999999999933,36.44
1602594934.7835,57.0,1193.0,0.0,468.999999999933,36.44
1602594934.7855,57.0,1193.0,12.0,468.999999999933,36.44
1602594934.7875,57.0,1193.0,19.0,468.999999999933,36.44
1602594934.7894,57.0,1193.0,9.0,468.999999999933,36.44
1602594934.7915,57.0,1193.0,7.0,468.999999999933,36.44
1602594934.7935,57.0,1193.0,14.0,468.999999999933,36.44
1602594934.7955,57.0,1193.0,21.0,468.999999999933,36.44
1602594934.7975,57.0,1193.0,21.0,468.999999999933,36.44
1602594934.7994,57.0,1193.0,14.0,468.999999999933,36.44
1602594934.8015,57.0,1193.0,16.0,468.999999999933,36.44
1602594934.8035,57.0,1193.0,24.0,468.999999999933,36.44
1602594934.8054,57.0,1193.0,24.0,468.999999999933,36.44
1602594934.8075,57.0,1193.0,21.0,468.999999999933,36.44
1602594934.8095,57.0,1193.0,24.0,468.999999999933,36.44
1602594934.8115,57.0,1193.0,36.0,468.999999999933,36.44
1602594934.8135,57.0,1193.0,45.0,468.999999999933,36.44
1602594934.8155,57.0,1193.0,36.0,468.999999999933,36.44
1602594934.8175,57.0,1193.0,26.0,468.999999999933,36.44
1602594934.8195,57.0,1193.0,33.0,468.999999999933,36.44
1602594934.8215,57.0,1193.0,43.0,468.999999999933,36.44
1602594934.8234,57.0,1193.0,33.0,468.999999999933,36.44
1602594934.8255,57.0,1193.0,21.0,468.999999999933,36.44
1602594934.8274,57.0,1193.0,14.0,468.999999999933,36.44
1602594934.8294,57.0,1193.0,4.0,468.999999999933,36.44
1602594934.8314,57.0,1193.0,2.0,468.999999999933,36.44
1602594934.8334,57.0,1193.0,12.0,468.999999999933,36.44
1602594934.8354,57.0,1193.0,19.0,468.999999999933,36.44
1602594935.2323,56.0,1228.0,14.0,468.999999999933,36.44
1602594935.233,56.0,1228.0,9.0,468.999999999933,36.44
1602594935.2346,56.0,1228.0,7.0,468.999999999933,36.44
1602594935.2365,56.0,1228.0,21.0,468.999999999933,36.44
1602594935.2386,56.0,1228.0,132.0,468.999999999933,36.44
1602594935.2406,56.0,1228.0,398.0,468.999999999933,36.44
1602594935.2425,56.0,1228.0,565.0,468.999999999933,36.44
1602594935.2445,56.0,1228.0,203.0,468.999999999933,36.44
1602594935.2465,56.0,1228.0,-425.0,468.999999999933,36.44
1602594935.2485,56.0,1228.0,-483.0,468.999999999933,36.44
1602594935.2505,56.0,1228.0,-120.0,468.999999999933,36.44
1602594935.2525,56.0,1228.0,-31.0,468.999999999933,36.44
1602594935.2545,56.0,1228.0,-65.0,468.999999999933,36.44
1602594935.2565,56.0,1228.0,16.0,468.999999999933,36.44
1602594935.2585,56.0,1228.0,36.0,468.999999999933,36.44
1602594935.2605,56.0,1228.0,2.0,468.999999999933,36.44
1602594935.2625,56.0,1228.0,14.0,468.999999999933,36.44
1602594935.2645,56.0,1228.0,33.0,468.999999999933,36.44
1602594935.2666,56.0,1228.0,29.0,468.999999999933,36.44
1602594935.2685,56.0,1228.0,29.0,468.999999999933,36.44
1602594935.2705,56.0,1228.0,21.0,468.999999999933,36.44
1602594935.2711,56.0,1228.0,16.0,468.999999999933,36.44
1602594935.2734,56.0,1228.0,29.0,468.999999999933,36.44
1602594935.2754,56.0,1228.0,36.0,468.999999999933,36.44
1602594935.2774,56.0,1228.0,29.0,468.999999999933,36.44
1602594935.2794,56.0,1228.0,29.0,468.999999999933,36.44
1602594935.2814,56.0,1228.0,41.0,468.999999999933,36.44
1602594935.2835,56.0,1228.0,43.0,468.999999999933,36.44
1602594935.2854,56.0,1228.0,38.0,468.999999999933,36.44
1602594935.2876,56.0,1228.0,38.0,468.999999999933,36.44
1602594935.2894,56.0,1228.0,43.0,468.999999999933,36.44
1602594935.2914,56.0,1228.0,45.0,468.999999999933,36.44
1602594935.2935,56.0,1228.0,45.0,468.999999999933,36.44
1602594935.2954,56.0,1228.0,53.0,468.999999999933,36.44
1602594935.2974,56.0,1228.0,62.0,468.999999999933,36.44
1602594935.2994,56.0,1228.0,70.0,468.999999999933,36.44
1602594935.3015,56.0,1228.0,70.0,468.999999999933,36.44
1602594935.3021,56.0,1228.0,74.0,468.999999999933,36.44
1602594935.3044,56.0,1228.0,79.0,468.999999999933,36.44
1602594935.3064,56.0,1228.0,84.0,468.999999999933,36.44
1602594935.3084,56.0,1228.0,84.0,468.999999999933,36.44
1602594935.3105,56.0,1228.0,87.0,468.999999999933,36.44
1602594935.3124,56.0,1228.0,91.0,468.999999999933,36.44
1602594935.3144,56.0,1228.0,99.0,468.999999999933,36.44
1602594935.3164,56.0,1228.0,96.0,468.999999999933,36.44
1602594935.3184,56.0,1228.0,87.0,468.999999999933,36.44
1602594935.3205,56.0,1228.0,77.0,468.999999999933,36.44
1602594935.3224,56.0,1228.0,72.0,468.999999999933,36.44
1602594935.3244,56.0,1228.0,70.0,468.999999999933,36.44
1602594935.3264,56.0,1228.0,60.0,468.999999999933,36.44
1602594935.3284,56.0,1228.0,48.0,468.999999999933,36.44
1602594935.3305,56.0,1228.0,41.0,468.999999999933,36.44
1602594935.3325,56.0,1228.0,31.0,468.999999999933,36.44
1602594935.3331,56.0,1228.0,19.0,468.999999999933,36.44
1602594935.3344,56.0,1228.0,4.0,468.999999999933,36.44
1602594935.3364,56.0,1228.0,-12.0,468.999999999933,36.44
1602594935.3384,56.0,1228.0,-24.0,468.999999999933,36.44
1602594935.3405,56.0,1228.0,-24.0,468.999999999933,36.44
1602594935.3424,56.0,1228.0,-19.0,468.999999999933,36.44
1602594935.3444,56.0,1228.0,-24.0,468.999999999933,36.44
1602594935.3464,56.0,1228.0,-31.0,468.999999999933,36.44
1602594935.3484,56.0,1228.0,-29.0,468.999999999933,36.44
1602594935.3505,56.0,1228.0,-21.0,468.999999999933,36.44
1602594935.3524,56.0,1228.0,-19.0,468.999999999933,36.44
1602594935.3544,56.0,1228.0,-14.0,468.999999999933,36.44
1602594935.3564,56.0,1228.0,-7.0,468.999999999933,36.44
1602594935.3584,56.0,1228.0,-4.0,468.999999999933,36.44
1602594935.3604,56.0,1228.0,-4.0,468.999999999933,36.44
1602594935.3624,56.0,1228.0,2.0,468.999999999933,36.44
1602594935.3633,56.0,1228.0,7.0,468.999999999933,36.44
1602594935.3645,56.0,1228.0,9.0,468.999999999933,36.44
1602594935.3664,56.0,1228.0,9.0,468.999999999933,36.44
1602594935.3684,56.0,1228.0,7.0,468.999999999933,36.44
1602594935.8016,56.0,1228.0,2.0,468.999999999933,36.44
1602594935.8025,56.0,1228.0,2.0,468.999999999933,36.44
1602594935.8049,56.0,1228.0,-2.0,468.999999999933,36.44
1602594935.8076,56.0,1228.0,-7.0,468.999999999933,36.44
1602594935.8096,56.0,1228.0,-7.0,468.999999999933,36.44
1602594935.8116,56.0,1228.0,-7.0,468.999999999933,36.44
1602594935.8135,56.0,1228.0,-16.0,468.999999999933,36.44
1602594935.8155,56.0,1228.0,-21.0,468.999999999933,36.44
1602594935.8175,56.0,1228.0,-21.0,468.999999999933,36.44
1602594935.8195,56.0,1228.0,-21.0,468.999999999933,36.44
1602594935.8215,56.0,1228.0,-24.0,468.999999999933,36.44
1602594935.8222,56.0,1228.0,-21.0,468.999999999933,36.44
1602594935.8244,56.0,1228.0,-24.0,468.999999999933,36.44
1602594935.8265,56.0,1228.0,-26.0,468.999999999933,36.44
1602594935.8285,56.0,1228.0,-24.0,468.999999999933,36.44
1602594935.8305,56.0,1228.0,-21.0,468.999999999933,36.44
1602594935.8325,56.0,1228.0,-19.0,468.999999999933,36.44
1602594935.8344,56.0,1228.0,-14.0,468.999999999933,36.44
1602594935.8365,56.0,1228.0,-16.0,468.999999999933,36.44
1602594935.8385,56.0,1228.0,-24.0,468.999999999933,36.44
1602594935.8406,56.0,1228.0,-19.0,468.999999999933,36.44
1602594935.8424,56.0,1228.0,-12.0,468.999999999933,36.44
1602594935.8444,56.0,1228.0,-9.0,468.999999999933,36.44
1602594935.8464,56.0,1228.0,-9.0,468.999999999933,36.44
1602594935.8484,56.0,1228.0,-9.0,468.999999999933,36.44
1602594935.8505,56.0,1228.0,-9.0,468.999999999933,36.44
1602594935.8525,56.0,1228.0,-7.0,468.999999999933,36.44
1602594935.8531,56.0,1228.0,-7.0,468.999999999933,36.44
1602594935.8544,56.0,1228.0,-4.0,468.999999999933,36.44
1602594935.8564,56.0,1228.0,-4.0,468.999999999933,36.44
1602594935.8584,56.0,1228.0,-2.0,468.999999999933,36.44
1602594935.8605,56.0,1228.0,0.0,468.999999999933,36.44
1602594935.8624,56.0,1228.0,2.0,468.999999999933,36.44
1602594935.8645,56.0,1228.0,2.0,468.999999999933,36.44
1602594935.8665,56.0,1228.0,7.0,468.999999999933,36.44
1602594935.8684,56.0,1228.0,9.0,468.999999999933,36.44
1602594935.8705,56.0,1228.0,9.0,468.999999999933,36.44
1602594935.8724,56.0,1228.0,7.0,468.999999999933,36.44
1602594935.8744,56.0,1228.0,9.0,468.999999999933,36.44
1602594935.8765,56.0,1228.0,12.0,468.999999999933,36.44
1602594935.8785,56.0,1228.0,12.0,468.999999999933,36.44
1602594935.8805,56.0,1228.0,7.0,468.999999999933,36.44
1602594935.8824,56.0,1228.0,7.0,468.999999999933,36.44
1602594935.8832,56.0,1228.0,14.0,468.999999999933,36.44
1602594935.8854,56.0,1228.0,16.0,468.999999999933,36.44
1602594935.8876,56.0,1228.0,12.0,468.999999999933,36.44
1602594935.8894,56.0,1228.0,9.0,468.999999999933,36.44
1602594935.8916,56.0,1228.0,14.0,468.999999999933,36.44
1602594935.8936,56.0,1228.0,16.0,468.999999999933,36.44
1602594935.8955,56.0,1228.0,21.0,468.999999999933,36.44
1602594935.8974,56.0,1228.0,24.0,468.999999999933,36.44
1602594935.8995,56.0,1228.0,16.0,468.999999999933,36.44
1602594935.9015,56.0,1228.0,7.0,468.999999999933,36.44
1602594935.9034,56.0,1228.0,7.0,468.999999999933,36.44
1602594935.9054,56.0,1228.0,9.0,468.999999999933,36.44
1602594935.9074,56.0,1228.0,14.0,468.999999999933,36.44
1602594935.9094,56.0,1228.0,16.0,468.999999999933,36.44
1602594935.9115,56.0,1228.0,12.0,468.999999999933,36.44
1602594935.9121,56.0,1228.0,21.0,468.999999999933,36.44
1602594935.9134,56.0,1228.0,41.0,468.999999999933,36.44
1602594935.9154,56.0,1228.0,53.0,468.999999999933,36.44
1602594935.9174,56.0,1228.0,43.0,468.999999999933,36.44
1602594935.9194,56.0,1228.0,26.0,468.999999999933,36.44
1602594935.9215,56.0,1228.0,26.0,468.999999999933,36.44
1602594935.9235,56.0,1228.0,38.0,468.999999999933,36.44
1602594935.9254,56.0,1228.0,38.0,468.999999999933,36.44
1602594935.9274,56.0,1228.0,24.0,468.999999999933,36.44
1602594935.9294,56.0,1228.0,16.0,468.999999999933,36.44
1602594935.9315,56.0,1228.0,14.0,468.999999999933,36.44
1602594935.9334,56.0,1228.0,9.0,468.999999999933,36.44
1602594935.9355,56.0,1228.0,7.0,468.999999999933,36.44
1602594935.9374,56.0,1228.0,12.0,468.999999999933,36.44
1602594935.9394,56.0,1228.0,14.0,468.999999999933,36.44
1602594936.341,56.0,1220.0,16.0,468.999999999933,36.44
1602594936.3417,56.0,1220.0,16.0,468.999999999933,36.44
1602594936.3441,56.0,1220.0,31.0,468.999999999933,36.44
1602594936.3467,56.0,1220.0,149.0,468.999999999933,36.44
1602594936.3487,56.0,1220.0,406.0,468.999999999933,36.44
1602594936.3507,56.0,1220.0,553.0,468.999999999933,36.44
1602594936.3527,56.0,1220.0,176.0,468.999999999933,36.44
1602594936.3547,56.0,1220.0,-430.0,468.999999999933,36.44
1602594936.3566,56.0,1220.0,-444.0,468.999999999933,36.44
1602594936.3587,56.0,1220.0,-82.0,468.999999999933,36.44
1602594936.3607,56.0,1220.0,-21.0,468.999999999933,36.44
1602594936.3626,56.0,1220.0,-65.0,468.999999999933,36.44
1602594936.3646,56.0,1220.0,14.0,468.999999999933,36.44
1602594936.3666,56.0,1220.0,24.0,468.999999999933,36.44
1602594936.3674,56.0,1220.0,-14.0,468.999999999933,36.44
1602594936.3696,56.0,1220.0,14.0,468.999999999933,36.44
1602594936.3717,56.0,1220.0,41.0,468.999999999933,36.44
1602594936.3736,56.0,1220.0,26.0,468.999999999933,36.44
1602594936.3756,56.0,1220.0,21.0,468.999999999933,36.44
1602594936.3777,56.0,1220.0,26.0,468.999999999933,36.44
1602594936.3796,56.0,1220.0,26.0,468.999999999933,36.44
1602594936.3817,56.0,1220.0,31.0,468.999999999933,36.44
1602594936.3836,56.0,1220.0,36.0,468.999999999933,36.44
1602594936.3856,56.0,1220.0,33.0,468.999999999933,36.44
1602594936.3877,56.0,1220.0,36.0,468.999999999933,36.44
1602594936.3898,56.0,1220.0,41.0,468.999999999933,36.44
1602594936.3917,56.0,1220.0,41.0,468.999999999933,36.44
1602594936.3936,56.0,1220.0,43.0,468.999999999933,36.44
1602594936.3957,56.0,1220.0,55.0,468.999999999933,36.44
1602594936.3976,56.0,1220.0,60.0,468.999999999933,36.44
1602594936.3983,56.0,1220.0,55.0,468.999999999933,36.44
1602594936.3996,56.0,1220.0,50.0,468.999999999933,36.44
1602594936.4017,56.0,1220.0,62.0,468.999999999933,36.44
1602594936.4036,56.0,1220.0,74.0,468.999999999933,36.44
1602594936.4056,56.0,1220.0,74.0,468.999999999933,36.44
1602594936.4077,56.0,1220.0,72.0,468.999999999933,36.44
1602594936.4097,56.0,1220.0,84.0,468.999999999933,36.44
1602594936.4117,56.0,1220.0,91.0,468.999999999933,36.44
1602594936.4136,56.0,1220.0,87.0,468.999999999933,36.44
1602594936.4156,56.0,1220.0,87.0,468.999999999933,36.44
1602594936.4176,56.0,1220.0,94.0,468.999999999933,36.44
1602594936.4196,56.0,1220.0,99.0,468.999999999933,36.44
1602594936.4217,56.0,1220.0,94.0,468.999999999933,36.44
1602594936.4236,56.0,1220.0,84.0,468.999999999933,36.44
1602594936.4256,56.0,1220.0,89.0,468.999999999933,36.44
1602594936.4276,56.0,1220.0,89.0,468.999999999933,36.44
1602594936.4284,56.0,1220.0,74.0,468.999999999933,36.44
1602594936.4307,56.0,1220.0,67.0,468.999999999933,36.44
1602594936.4326,56.0,1220.0,67.0,468.999999999933,36.44
1602594936.4346,56.0,1220.0,55.0,468.999999999933,36.44
1602594936.4366,56.0,1220.0,36.0,468.999999999933,36.44
1602594936.4387,56.0,1220.0,21.0,468.999999999933,36.44
1602594936.4406,56.0,1220.0,12.0,468.999999999933,36.44
1602594936.4426,56.0,1220.0,0.0,468.999999999933,36.44
1602594936.4446,56.0,1220.0,-16.0,468.999999999933,36.44
1602594936.4466,56.0,1220.0,-29.0,468.999999999933,36.44
1602594936.4486,56.0,1220.0,-33.0,468.999999999933,36.44
1602594936.4507,56.0,1220.0,-33.0,468.999999999933,36.44
1602594936.4526,56.0,1220.0,-36.0,468.999999999933,36.44
1602594936.4546,56.0,1220.0,-38.0,468.999999999933,36.44
1602594936.4566,56.0,1220.0,-36.0,468.999999999933,36.44
1602594936.4586,56.0,1220.0,-33.0,468.999999999933,36.44
1602594936.4593,56.0,1220.0,-24.0,468.999999999933,36.44
1602594936.4607,56.0,1220.0,-14.0,468.999999999933,36.44
1602594936.4626,56.0,1220.0,-7.0,468.999999999933,36.44
1602594936.4646,56.0,1220.0,-7.0,468.999999999933,36.44
1602594936.4666,56.0,1220.0,-9.0,468.999999999933,36.44
1602594936.4686,56.0,1220.0,-9.0,468.999999999933,36.44
1602594936.4706,56.0,1220.0,-4.0,468.999999999933,36.44
1602594936.4726,56.0,1220.0,0.0,468.999999999933,36.44
1602594936.4747,56.0,1220.0,-4.0,468.999999999933,36.44
1602594936.4766,56.0,1220.0,-4.0,468.999999999933,36.44
1602594936.4786,56.0,1220.0,2.0,468.999999999933,36.44
1602594936.9111,56.0,1220.0,7.0,468.999999999933,36.44
1602594936.912,56.0,1220.0,2.0,468.999999999933,36.44
1602594936.9144,56.0,1220.0,-2.0,468.999999999933,36.44
1602594936.9173,56.0,1220.0,-9.0,468.999999999933,36.44
1602594936.918,56.0,1220.0,-19.0,468.999999999933,36.44
1602594936.9201,56.0,1220.0,-24.0,468.999999999933,36.44
1602594936.922,56.0,1220.0,-16.0,468.999999999933,36.44
1602594936.924,56.0,1220.0,-19.0,468.999999999933,36.44
1602594936.926,56.0,1220.0,-24.0,468.999999999933,36.44
1602594936.928,56.0,1220.0,-19.0,468.999999999933,36.44
1602594936.93,56.0,1220.0,-12.0,468.999999999933,36.44
1602594936.9319,56.0,1220.0,-16.0,468.999999999933,36.44
1602594936.934,56.0,1220.0,-19.0,468.999999999933,36.44
1602594936.936,56.0,1220.0,-12.0,468.999999999933,36.44
1602594936.938,56.0,1220.0,-7.0,468.999999999933,36.44
1602594936.94,56.0,1220.0,-12.0,468.999999999933,36.44
1602594936.942,56.0,1220.0,-19.0,468.999999999933,36.44
1602594936.944,56.0,1220.0,-16.0,468.999999999933,36.44
1602594936.946,56.0,1220.0,-2.0,468.999999999933,36.44
1602594936.948,56.0,1220.0,4.0,468.999999999933,36.44
1602594936.95,56.0,1220.0,0.0,468.999999999933,36.44
1602594936.9519,56.0,1220.0,-2.0,468.999999999933,36.44
1602594936.9541,56.0,1220.0,0.0,468.999999999933,36.44
1602594936.9559,56.0,1220.0,0.0,468.999999999933,36.44
1602594936.9579,56.0,1220.0,-2.0,468.999999999933,36.44
1602594936.96,56.0,1220.0,4.0,468.999999999933,36.44
1602594936.962,56.0,1220.0,7.0,468.999999999933,36.44
1602594936.964,56.0,1220.0,2.0,468.999999999933,36.44
1602594936.9659,56.0,1220.0,2.0,468.999999999933,36.44
1602594936.9679,56.0,1220.0,4.0,468.999999999933,36.44
1602594936.9699,56.0,1220.0,2.0,468.999999999933,36.44
1602594936.9719,56.0,1220.0,2.0,468.999999999933,36.44
1602594936.9739,56.0,1220.0,9.0,468.999999999933,36.44
1602594936.976,56.0,1220.0,14.0,468.999999999933,36.44
1602594936.9781,56.0,1220.0,9.0,468.999999999933,36.44
1602594936.9799,56.0,1220.0,2.0,468.999999999933,36.44
1602594936.9819,56.0,1220.0,4.0,468.999999999933,36.44
1602594936.9839,56.0,1220.0,9.0,468.999999999933,36.44
1602594936.986,56.0,1220.0,9.0,468.999999999933,36.44
1602594936.988,56.0,1220.0,4.0,468.999999999933,36.44
1602594936.99,56.0,1220.0,2.0,468.999999999933,36.44
1602594936.9919,56.0,1220.0,7.0,468.999999999933,36.44
1602594936.9939,56.0,1220.0,19.0,468.999999999933,36.44
1602594936.996,56.0,1220.0,19.0,468.999999999933,36.44
1602594936.9979,56.0,1220.0,12.0,468.999999999933,36.44
1602594936.9999,56.0,1220.0,4.0,468.999999999933,36.44
1602594937.0019,56.0,1220.0,9.0,468.999999999933,36.44
1602594937.0039,56.0,1220.0,16.0,468.999999999933,36.44
1602594937.0059,56.0,1220.0,16.0,468.999999999933,36.44
1602594937.008,56.0,1220.0,14.0,468.999999999933,36.44
1602594937.0099,56.0,1220.0,24.0,468.999999999933,36.44
1602594937.0119,56.0,1220.0,24.0,468.999999999933,36.44
1602594937.014,56.0,1220.0,16.0,468.999999999933,36.44
1602594937.0159,56.0,1220.0,19.0,468.999999999933,36.44
1602594937.0181,56.0,1220.0,19.0,468.999999999933,36.44
1602594937.02,56.0,1220.0,7.0,468.999999999933,36.44
1602594937.0219,56.0,1220.0,12.0,468.999999999933,36.44
1602594937.024,56.0,1220.0,26.0,468.999999999933,36.44
1602594937.0259,56.0,1220.0,26.0,468.999999999933,36.44
1602594937.0279,56.0,1220.0,29.0,468.999999999933,36.44
1602594937.0299,56.0,1220.0,45.0,468.999999999933,36.44
1602594937.032,56.0,1220.0,53.0,468.999999999933,36.44
1602594937.034,56.0,1220.0,36.0,468.999999999933,36.44
1602594937.036,56.0,1220.0,21.0,468.999999999933,36.44
1602594937.0379,56.0,1220.0,24.0,468.999999999933,36.44
1602594937.0399,56.0,1220.0,24.0,468.999999999933,36.44
1602594937.042,56.0,1220.0,9.0,468.999999999933,36.44
1602594937.044,56.0,1220.0,2.0,468.999999999933,36.44
1602594937.0459,56.0,1220.0,2.0,468.999999999933,36.44
1602594937.0479,56.0,1220.0,2.0,468.999999999933,36.44
1602594937.05,56.0,1220.0,0.0,468.999999999933,36.44
1602594937.0519,56.0,1220.0,-2.0,468.999999999933,36.44
1602594937.054,56.0,1220.0,0.0,468.999999999933,36.44
1602594937.541,56.0,1194.0,12.0,468.999999999933,36.44
1602594937.5418,56.0,1194.0,16.0,468.999999999933,36.44
1602594937.5442,56.0,1194.0,9.0,468.999999999933,36.44
1602594937.5469,56.0,1194.0,33.0,468.999999999933,36.44
1602594937.5488,56.0,1194.0,174.0,468.999999999933,36.44
1602594937.5509,56.0,1194.0,418.0,468.999999999933,36.44
1602594937.553,56.0,1194.0,485.0,468.999999999933,36.44
1602594937.5548,56.0,1194.0,53.0,468.999999999933,36.44
1602594937.5569,56.0,1194.0,-468.0,468.999999999933,36.44
1602594937.5589,56.0,1194.0,-372.0,468.999999999933,36.44
1602594937.5609,56.0,1194.0,-33.0,468.999999999933,36.44
1602594937.5628,56.0,1194.0,-14.0,468.999999999933,36.44
1602594937.5648,56.0,1194.0,-45.0,468.999999999933,36.44
1602594937.5668,56.0,1194.0,29.0,468.999999999933,36.44
1602594937.5688,56.0,1194.0,29.0,468.999999999933,36.44
1602594937.5709,56.0,1194.0,-2.0,468.999999999933,36.44
1602594937.5728,56.0,1194.0,24.0,468.999999999933,36.44
1602594937.5748,56.0,1194.0,36.0,468.999999999933,36.44
1602594937.5768,56.0,1194.0,21.0,468.999999999933,36.44
1602594937.5788,56.0,1194.0,26.0,468.999999999933,36.44
1602594937.5809,56.0,1194.0,33.0,468.999999999933,36.44
1602594937.5828,56.0,1194.0,31.0,468.999999999933,36.44
1602594937.5848,56.0,1194.0,33.0,468.999999999933,36.44
1602594937.5868,56.0,1194.0,33.0,468.999999999933,36.44
1602594937.5888,56.0,1194.0,31.0,468.999999999933,36.44
1602594937.5908,56.0,1194.0,36.0,468.999999999933,36.44
1602594937.5928,56.0,1194.0,45.0,468.999999999933,36.44
1602594937.5948,56.0,1194.0,48.0,468.999999999933,36.44
1602594937.5968,56.0,1194.0,43.0,468.999999999933,36.44
1602594937.5988,56.0,1194.0,45.0,468.999999999933,36.44
1602594937.6008,56.0,1194.0,50.0,468.999999999933,36.44
1602594937.6028,56.0,1194.0,55.0,468.999999999933,36.44
1602594937.6049,56.0,1194.0,58.0,468.999999999933,36.44
1602594937.6068,56.0,1194.0,62.0,468.999999999933,36.44
1602594937.6088,56.0,1194.0,67.0,468.999999999933,36.44
1602594937.6108,56.0,1194.0,74.0,468.999999999933,36.44
1602594937.6128,56.0,1194.0,74.0,468.999999999933,36.44
1602594937.6148,56.0,1194.0,77.0,468.999999999933,36.44
1602594937.6168,56.0,1194.0,82.0,468.999999999933,36.44
1602594937.6188,56.0,1194.0,91.0,468.999999999933,36.44
1602594937.6208,56.0,1194.0,96.0,468.999999999933,36.44
1602594937.6228,56.0,1194.0,99.0,468.999999999933,36.44
1602594937.6248,56.0,1194.0,101.0,468.999999999933,36.44
1602594937.6268,56.0,1194.0,99.0,468.999999999933,36.44
1602594937.6288,56.0,1194.0,89.0,468.999999999933,36.44
1602594937.6308,56.0,1194.0,84.0,468.999999999933,36.44
1602594937.6328,56.0,1194.0,89.0,468.999999999933,36.44
1602594937.6348,56.0,1194.0,82.0,468.999999999933,36.44
1602594937.6368,56.0,1194.0,65.0,468.999999999933,36.44
1602594937.6388,56.0,1194.0,53.0,468.999999999933,36.44
1602594937.6408,56.0,1194.0,45.0,468.999999999933,36.44
1602594937.6428,56.0,1194.0,33.0,468.999999999933,36.44
1602594937.6448,56.0,1194.0,14.0,468.999999999933,36.44
1602594937.6468,56.0,1194.0,-4.0,468.999999999933,36.44
1602594937.6488,56.0,1194.0,-19.0,468.999999999933,36.44
1602594937.6508,56.0,1194.0,-33.0,468.999999999933,36.44
1602594937.6528,56.0,1194.0,-45.0,468.999999999933,36.44
1602594937.6548,56.0,1194.0,-53.0,468.999999999933,36.44
1602594937.6568,56.0,1194.0,-55.0,468.999999999933,36.44
1602594937.6588,56.0,1194.0,-53.0,468.999999999933,36.44
1602594937.6608,56.0,1194.0,-48.0,468.999999999933,36.44
1602594937.6628,56.0,1194.0,-48.0,468.999999999933,36.44
1602594937.6648,56.0,1194.0,-45.0,468.999999999933,36.44
1602594937.6668,56.0,1194.0,-38.0,468.999999999933,36.44
1602594937.6688,56.0,1194.0,-36.0,468.999999999933,36.44
1602594937.6708,56.0,1194.0,-26.0,468.999999999933,36.44
1602594937.6728,56.0,1194.0,-21.0,468.999999999933,36.44
1602594937.6748,56.0,1194.0,-24.0,468.999999999933,36.44
1602594937.6768,56.0,1194.0,-21.0,468.999999999933,36.44
1602594937.6788,56.0,1194.0,-14.0,468.999999999933,36.44
1602594937.6808,56.0,1194.0,-9.0,468.999999999933,36.44
1602594937.6828,56.0,1194.0,-14.0,468.999999999933,36.44
1602594937.6848,56.0,1194.0,-9.0,468.999999999933,36.44
1602594938.0513,56.0,1194.0,0.0,468.999999999933,36.44
1602594938.0519,56.0,1194.0,-4.0,468.999999999933,36.44
1602594938.0536,56.0,1194.0,-12.0,468.999999999933,36.44
1602594938.0556,56.0,1194.0,-9.0,468.999999999933,36.44
1602594938.0576,56.0,1194.0,0.0,468.999999999933,36.44
1602594938.0597,56.0,1194.0,-2.0,468.999999999933,36.44
1602594938.0617,56.0,1194.0,-9.0,468.999999999933,36.44
1602594938.0637,56.0,1194.0,-14.0,468.999999999933,36.44
1602594938.0656,56.0,1194.0,-12.0,468.999999999933,36.44
1602594938.0676,56.0,1194.0,-2.0,468.999999999933,36.44
1602594938.0698,56.0,1194.0,-2.0,468.999999999933,36.44
1602594938.0716,56.0,1194.0,-16.0,468.999999999933,36.44
1602594938.0736,56.0,1194.0,-19.0,468.999999999933,36.44
1602594938.0756,56.0,1194.0,-9.0,468.999999999933,36.44
1602594938.0776,56.0,1194.0,-16.0,468.999999999933,36.44
1602594938.0796,56.0,1194.0,-33.0,468.999999999933,36.44
1602594938.0817,56.0,1194.0,-36.0,468.999999999933,36.44
1602594938.0836,56.0,1194.0,-24.0,468.999999999933,36.44
1602594938.0856,56.0,1194.0,-21.0,468.999999999933,36.44
1602594938.0876,56.0,1194.0,-24.0,468.999999999933,36.44
1602594938.0896,56.0,1194.0,-21.0,468.999999999933,36.44
1602594938.0916,56.0,1194.0,-19.0,468.999999999933,36.44
1602594938.0936,56.0,1194.0,-14.0,468.999999999933,36.44
1602594938.0957,56.0,1194.0,-12.0,468.999999999933,36.44
1602594938.0976,56.0,1194.0,-16.0,468.999999999933,36.44
1602594938.0996,56.0,1194.0,-19.0,468.999999999933,36.44
1602594938.1017,56.0,1194.0,-12.0,468.999999999933,36.44
1602594938.1036,56.0,1194.0,-9.0,468.999999999933,36.44
1602594938.1056,56.0,1194.0,-9.0,468.999999999933,36.44
1602594938.1076,56.0,1194.0,-4.0,468.999999999933,36.44
1602594938.1096,56.0,1194.0,-7.0,468.999999999933,36.44
1602594938.1116,56.0,1194.0,-7.0,468.999999999933,36.44
1602594938.1136,56.0,1194.0,-2.0,468.999999999933,36.44
1602594938.1156,56.0,1194.0,4.0,468.999999999933,36.44
1602594938.1176,56.0,1194.0,4.0,468.999999999933,36.44
1602594938.1196,56.0,1194.0,0.0,468.999999999933,36.44
1602594938.1216,56.0,1194.0,0.0,468.999999999933,36.44
1602594938.1236,56.0,1194.0,2.0,468.999999999933,36.44
1602594938.1256,56.0,1194.0,4.0,468.999999999933,36.44
1602594938.1276,56.0,1194.0,4.0,468.999999999933,36.44
1602594938.1296,56.0,1194.0,4.0,468.999999999933,36.44
1602594938.1317,56.0,1194.0,7.0,468.999999999933,36.44
1602594938.1336,56.0,1194.0,9.0,468.999999999933,36.44
1602594938.1356,56.0,1194.0,9.0,468.999999999933,36.44
1602594938.1376,56.0,1194.0,9.0,468.999999999933,36.44
1602594938.1396,56.0,1194.0,12.0,468.999999999933,36.44
1602594938.1416,56.0,1194.0,12.0,468.999999999933,36.44
1602594938.1436,56.0,1194.0,9.0,468.999999999933,36.44
1602594938.1457,56.0,1194.0,2.0,468.999999999933,36.44
1602594938.1477,56.0,1194.0,-2.0,468.999999999933,36.44
1602594938.1496,56.0,1194.0,2.0,468.999999999933,36.44
1602594938.1516,56.0,1194.0,7.0,468.999999999933,36.44
1602594938.1536,56.0,1194.0,9.0,468.999999999933,36.44
1602594938.1556,56.0,1194.0,7.0,468.999999999933,36.44
1602594938.1576,56.0,1194.0,4.0,468.999999999933,36.44
1602594938.1596,56.0,1194.0,7.0,468.999999999933,36.44
1602594938.1616,56.0,1194.0,7.0,468.999999999933,36.44
1602594938.1636,56.0,1194.0,12.0,468.999999999933,36.44
1602594938.1656,56.0,1194.0,12.0,468.999999999933,36.44
1602594938.1676,56.0,1194.0,9.0,468.999999999933,36.44
1602594938.1696,56.0,1194.0,14.0,468.999999999933,36.44
1602594938.1718,56.0,1194.0,24.0,468.999999999933,36.44
1602594938.1736,56.0,1194.0,33.0,468.999999999933,36.44
1602594938.1756,56.0,1194.0,45.0,468.999999999933,36.44
1602594938.1776,56.0,1194.0,48.0,468.999999999933,36.44
1602594938.1796,56.0,1194.0,31.0,468.999999999933,36.44
1602594938.1816,56.0,1194.0,24.0,468.999999999933,36.44
1602594938.1836,56.0,1194.0,33.0,468.999999999933,36.44
1602594938.1856,56.0,1194.0,33.0,468.999999999933,36.44
1602594938.1876,56.0,1194.0,24.0,468.999999999933,36.44
1602594938.1896,56.0,1194.0,19.0,468.999999999933,36.44
1602594938.1916,56.0,1194.0,12.0,468.999999999933,36.44
1602594938.1936,56.0,1194.0,7.0,468.999999999933,36.44
1602594938.6215,55.0,1168.0,9.0,468.999999999933,36.44
1602594938.6223,55.0,1168.0,12.0,468.999999999933,36.44
1602594938.6248,55.0,1168.0,12.0,468.999999999933,36.44
1602594938.6274,55.0,1168.0,16.0,468.999999999933,36.44
1602594938.6294,55.0,1168.0,21.0,468.999999999933,36.44
1602594938.6315,55.0,1168.0,24.0,468.999999999933,36.44
1602594938.6334,55.0,1168.0,99.0,468.999999999933,36.44
1602594938.6354,55.0,1168.0,302.0,468.999999999933,36.44
1602594938.6374,55.0,1168.0,493.0,468.999999999933,36.44
1602594938.6396,55.0,1168.0,285.0,468.999999999933,36.44
1602594938.6414,55.0,1168.0,-287.0,468.999999999933,36.44
1602594938.6433,55.0,1168.0,-476.0,468.999999999933,36.44
1602594938.6454,55.0,1168.0,-147.0,468.999999999933,36.44
1602594938.6474,55.0,1168.0,16.0,468.999999999933,36.44
1602594938.6493,55.0,1168.0,-43.0,468.999999999933,36.44
1602594938.6514,55.0,1168.0,-7.0,468.999999999933,36.44
1602594938.6533,55.0,1168.0,33.0,468.999999999933,36.44
1602594938.6553,55.0,1168.0,12.0,468.999999999933,36.44
1602594938.6573,55.0,1168.0,19.0,468.999999999933,36.44
1602594938.6593,55.0,1168.0,33.0,468.999999999933,36.44
1602594938.6613,55.0,1168.0,24.0,468.999999999933,36.44
1602594938.6633,55.0,1168.0,24.0,468.999999999933,36.44
1602594938.6653,55.0,1168.0,31.0,468.999999999933,36.44
1602594938.6673,55.0,1168.0,33.0,468.999999999933,36.44
1602594938.6693,55.0,1168.0,36.0,468.999999999933,36.44
1602594938.6714,55.0,1168.0,41.0,468.999999999933,36.44
1602594938.6733,55.0,1168.0,43.0,468.999999999933,36.44
1602594938.6753,55.0,1168.0,45.0,468.999999999933,36.44
1602594938.6773,55.0,1168.0,45.0,468.999999999933,36.44
1602594938.6793,55.0,1168.0,43.0,468.999999999933,36.44
1602594938.6813,55.0,1168.0,48.0,468.999999999933,36.44
1602594938.6833,55.0,1168.0,53.0,468.999999999933,36.44
1602594938.6853,55.0,1168.0,60.0,468.999999999933,36.44
1602594938.6873,55.0,1168.0,60.0,468.999999999933,36.44
1602594938.6894,55.0,1168.0,55.0,468.999999999933,36.44
1602594938.6914,55.0,1168.0,58.0,468.999999999933,36.44
1602594938.6933,55.0,1168.0,67.0,468.999999999933,36.44
1602594938.6953,55.0,1168.0,72.0,468.999999999933,36.44
1602594938.6973,55.0,1168.0,74.0,468.999999999933,36.44
1602594938.6995,55.0,1168.0,77.0,468.999999999933,36.44
1602594938.7014,55.0,1168.0,72.0,468.999999999933,36.44
1602594938.7033,55.0,1168.0,77.0,468.999999999933,36.44
1602594938.7053,55.0,1168.0,87.0,468.999999999933,36.44
1602594938.7073,55.0,1168.0,91.0,468.999999999933,36.44
1602594938.7093,55.0,1168.0,96.0,468.999999999933,36.44
1602594938.7114,55.0,1168.0,99.0,468.999999999933,36.44
1602594938.7134,55.0,1168.0,94.0,468.999999999933,36.44
1602594938.7153,55.0,1168.0,84.0,468.999999999933,36.44
1602594938.7173,55.0,1168.0,84.0,468.999999999933,36.44
1602594938.7193,55.0,1168.0,79.0,468.999999999933,36.44
1602594938.7213,55.0,1168.0,67.0,468.999999999933,36.44
1602594938.7233,55.0,1168.0,60.0,468.999999999933,36.44
1602594938.7253,55.0,1168.0,53.0,468.999999999933,36.44
1602594938.7273,55.0,1168.0,38.0,468.999999999933,36.44
1602594938.7293,55.0,1168.0,21.0,468.999999999933,36.44
1602594938.7314,55.0,1168.0,7.0,468.999999999933,36.44
1602594938.7333,55.0,1168.0,-4.0,468.999999999933,36.44
1602594938.7353,55.0,1168.0,-14.0,468.999999999933,36.44
1602594938.7373,55.0,1168.0,-31.0,468.999999999933,36.44
1602594938.7393,55.0,1168.0,-41.0,468.999999999933,36.44
1602594938.7414,55.0,1168.0,-41.0,468.999999999933,36.44
1602594938.7433,55.0,1168.0,-41.0,468.999999999933,36.44
1602594938.7453,55.0,1168.0,-41.0,468.999999999933,36.44
1602594938.7473,55.0,1168.0,-36.0,468.999999999933,36.44
1602594938.7493,55.0,1168.0,-33.0,468.999999999933,36.44
1602594938.7513,55.0,1168.0,-29.0,468.999999999933,36.44
1602594938.7533,55.0,1168.0,-24.0,468.999999999933,36.44
1602594938.7553,55.0,1168.0,-24.0,468.999999999933,36.44
1602594938.7573,55.0,1168.0,-19.0,468.999999999933,36.44
1602594938.7593,55.0,1168.0,-14.0,468.999999999933,36.44
1602594938.7613,55.0,1168.0,-12.0,468.999999999933,36.44
1602594938.7633,55.0,1168.0,-4.0,468.999999999933,36.44
1602594938.7653,55.0,1168.0,0.0,468.999999999933,36.44
1602594939.1615,55.0,1168.0,0.0,468.999999999933,36.44
1602594939.1623,55.0,1168.0,0.0,468.999999999933,36.44
1602594939.1647,55.0,1168.0,2.0,468.999999999933,36.44
1602594939.1674,55.0,1168.0,-2.0,468.999999999933,36.44
1602594939.1693,55.0,1168.0,-7.0,468.999999999933,36.44
1602594939.1714,55.0,1168.0,-2.0,468.999999999933,36.44
1602594939.1733,55.0,1168.0,2.0,468.999999999933,36.44
1602594939.1753,55.0,1168.0,0.0,468.999999999933,36.44
1602594939.1773,55.0,1168.0,-9.0,468.999999999933,36.44
1602594939.1793,55.0,1168.0,-19.0,468.999999999933,36.44
1602594939.1813,55.0,1168.0,-21.0,468.999999999933,36.44
1602594939.1833,55.0,1168.0,-19.0,468.999999999933,36.44
1602594939.1853,55.0,1168.0,-24.0,468.999999999933,36.44
1602594939.1873,55.0,1168.0,-24.0,468.999999999933,36.44
1602594939.1893,55.0,1168.0,-16.0,468.999999999933,36.44
1602594939.1912,55.0,1168.0,-14.0,468.999999999933,36.44
1602594939.1932,55.0,1168.0,-16.0,468.999999999933,36.44
1602594939.1954,55.0,1168.0,-14.0,468.999999999933,36.44
1602594939.1973,55.0,1168.0,-9.0,468.999999999933,36.44
1602594939.1992,55.0,1168.0,-4.0,468.999999999933,36.44
1602594939.2013,55.0,1168.0,-2.0,468.999999999933,36.44
1602594939.2032,55.0,1168.0,-7.0,468.999999999933,36.44
1602594939.2052,55.0,1168.0,-9.0,468.999999999933,36.44
1602594939.2073,55.0,1168.0,-4.0,468.999999999933,36.44
1602594939.2092,55.0,1168.0,-2.0,468.999999999933,36.44
1602594939.2113,55.0,1168.0,-2.0,468.999999999933,36.44
1602594939.2132,55.0,1168.0,0.0,468.999999999933,36.44
1602594939.2152,55.0,1168.0,0.0,468.999999999933,36.44
1602594939.2172,55.0,1168.0,-2.0,468.999999999933,36.44
1602594939.2193,55.0,1168.0,0.0,468.999999999933,36.44
1602594939.2213,55.0,1168.0,0.0,468.999999999933,36.44
1602594939.2232,55.0,1168.0,-7.0,468.999999999933,36.44
1602594939.2252,55.0,1168.0,-12.0,468.999999999933,36.44
1602594939.2272,55.0,1168.0,-9.0,468.999999999933,36.44
1602594939.2292,55.0,1168.0,-4.0,468.999999999933,36.44
1602594939.2313,55.0,1168.0,-2.0,468.999999999933,36.44
1602594939.2333,55.0,1168.0,-7.0,468.999999999933,36.44
1602594939.2352,55.0,1168.0,-7.0,468.999999999933,36.44
1602594939.2372,55.0,1168.0,0.0,468.999999999933,36.44
1602594939.2392,55.0,1168.0,9.0,468.999999999933,36.44
1602594939.2412,55.0,1168.0,9.0,468.999999999933,36.44
1602594939.2432,55.0,1168.0,0.0,468.999999999933,36.44
1602594939.2452,55.0,1168.0,0.0,468.999999999933,36.44
1602594939.2472,55.0,1168.0,7.0,468.999999999933,36.44
1602594939.2492,55.0,1168.0,7.0,468.999999999933,36.44
1602594939.2513,55.0,1168.0,7.0,468.999999999933,36.44
1602594939.2532,55.0,1168.0,14.0,468.999999999933,36.44
1602594939.2552,55.0,1168.0,14.0,468.999999999933,36.44
1602594939.2572,55.0,1168.0,7.0,468.999999999933,36.44
1602594939.2592,55.0,1168.0,4.0,468.999999999933,36.44
1602594939.2612,55.0,1168.0,12.0,468.999999999933,36.44
1602594939.2632,55.0,1168.0,14.0,468.999999999933,36.44
1602594939.2652,55.0,1168.0,12.0,468.999999999933,36.44
1602594939.2672,55.0,1168.0,12.0,468.999999999933,36.44
1602594939.2692,55.0,1168.0,14.0,468.999999999933,36.44
1602594939.2713,55.0,1168.0,16.0,468.999999999933,36.44
1602594939.2732,55.0,1168.0,16.0,468.999999999933,36.44
1602594939.2752,55.0,1168.0,14.0,468.999999999933,36.44
1602594939.2772,55.0,1168.0,16.0,468.999999999933,36.44
1602594939.2792,55.0,1168.0,16.0,468.999999999933,36.44
1602594939.2812,55.0,1168.0,16.0,468.999999999933,36.44
1602594939.2832,55.0,1168.0,21.0,468.999999999933,36.44
1602594939.2852,55.0,1168.0,29.0,468.999999999933,36.44
1602594939.2872,55.0,1168.0,41.0,468.999999999933,36.44
1602594939.2892,55.0,1168.0,45.0,468.999999999933,36.44
1602594939.2912,55.0,1168.0,31.0,468.999999999933,36.44
1602594939.2932,55.0,1168.0,14.0,468.999999999933,36.44
1602594939.2952,55.0,1168.0,19.0,468.999999999933,36.44
1602594939.2974,55.0,1168.0,24.0,468.999999999933,36.44
1602594939.2993,55.0,1168.0,21.0,468.999999999933,36.44
1602594939.3012,55.0,1168.0,16.0,468.999999999933,36.44
1602594939.3032,55.0,1168.0,9.0,468.999999999933,36.44
1602594939.3052,55.0,1168.0,4.0,468.999999999933,36.44
1602594939.7313,55.0,1141.0,4.0,468.999999999933,36.44
1602594939.7321,55.0,1141.0,2.0,468.999999999933,36.44
1602594939.7346,55.0,1141.0,7.0,468.999999999933,36.44
1602594939.7372,55.0,1141.0,16.0,468.999999999933,36.44
1602594939.7392,55.0,1141.0,21.0,468.999999999933,36.44
1602594939.7411,55.0,1141.0,9.0,468.999999999933,36.44
1602594939.7432,55.0,1141.0,43.0,468.999999999933,36.44
1602594939.7451,55.0,1141.0,236.0,468.999999999933,36.44
1602594939.7471,55.0,1141.0,509.0,468.999999999933,36.44
1602594939.7491,55.0,1141.0,444.0,468.999999999933,36.44
1602594939.7512,55.0,1141.0,-142.0,468.999999999933,36.44
1602594939.7531,55.0,1141.0,-553.0,468.999999999933,36.44
1602594939.7551,55.0,1141.0,-299.0,468.999999999933,36.44
1602594939.7571,55.0,1141.0,-31.0,468.999999999933,36.44
1602594939.7591,55.0,1141.0,-60.0,468.999999999933,36.44
1602594939.7611,55.0,1141.0,-21.0,468.999999999933,36.44
1602594939.7631,55.0,1141.0,48.0,468.999999999933,36.44
1602594939.7651,55.0,1141.0,19.0,468.999999999933,36.44
1602594939.7671,55.0,1141.0,12.0,468.999999999933,36.44
1602594939.7691,55.0,1141.0,41.0,468.999999999933,36.44
1602594939.7711,55.0,1141.0,33.0,468.999999999933,36.44
1602594939.7731,55.0,1141.0,21.0,468.999999999933,36.44
1602594939.7751,55.0,1141.0,33.0,468.999999999933,36.44
1602594939.7771,55.0,1141.0,45.0,468.999999999933,36.44
1602594939.7791,55.0,1141.0,41.0,468.999999999933,36.44
1602594939.7812,55.0,1141.0,31.0,468.999999999933,36.44
1602594939.7831,55.0,1141.0,26.0,468.999999999933,36.44
1602594939.7851,55.0,1141.0,31.0,468.999999999933,36.44
1602594939.7871,55.0,1141.0,38.0,468.999999999933,36.44
1602594939.7891,55.0,1141.0,38.0,468.999999999933,36.44
1602594939.7911,55.0,1141.0,36.0,468.999999999933,36.44
1602594939.7931,55.0,1141.0,36.0,468.999999999933,36.44
1602594939.7951,55.0,1141.0,43.0,468.999999999933,36.44
1602594939.7971,55.0,1141.0,50.0,468.999999999933,36.44
1602594939.7991,55.0,1141.0,53.0,468.999999999933,36.44
1602594939.8011,55.0,1141.0,53.0,468.999999999933,36.44
1602594939.8031,55.0,1141.0,60.0,468.999999999933,36.44
1602594939.8051,55.0,1141.0,70.0,468.999999999933,36.44
1602594939.8071,55.0,1141.0,79.0,468.999999999933,36.44
1602594939.8091,55.0,1141.0,82.0,468.999999999933,36.44
1602594939.8111,55.0,1141.0,74.0,468.999999999933,36.44
1602594939.8131,55.0,1141.0,74.0,468.999999999933,36.44
1602594939.8151,55.0,1141.0,91.0,468.999999999933,36.44
1602594939.8171,55.0,1141.0,101.0,468.999999999933,36.44
1602594939.8191,55.0,1141.0,99.0,468.999999999933,36.44
1602594939.8211,55.0,1141.0,96.0,468.999999999933,36.44
1602594939.8233,55.0,1141.0,89.0,468.999999999933,36.44
1602594939.8251,55.0,1141.0,79.0,468.999999999933,36.44
1602594939.8271,55.0,1141.0,74.0,468.999999999933,36.44
1602594939.8291,55.0,1141.0,77.0,468.999999999933,36.44
1602594939.8311,55.0,1141.0,72.0,468.999999999933,36.44
1602594939.8331,55.0,1141.0,62.0,468.999999999933,36.44
1602594939.8351,55.0,1141.0,48.0,468.999999999933,36.44
1602594939.8371,55.0,1141.0,26.0,468.999999999933,36.44
1602594939.8392,55.0,1141.0,12.0,468.999999999933,36.44
1602594939.8411,55.0,1141.0,2.0,468.999999999933,36.44
1602594939.8431,55.0,1141.0,-12.0,468.999999999933,36.44
1602594939.8451,55.0,1141.0,-21.0,468.999999999933,36.44
1602594939.8471,55.0,1141.0,-29.0,468.999999999933,36.44
1602594939.8491,55.0,1141.0,-36.0,468.999999999933,36.44
1602594939.8511,55.0,1141.0,-48.0,468.999999999933,36.44
1602594939.8531,55.0,1141.0,-50.0,468.999999999933,36.44
1602594939.8551,55.0,1141.0,-43.0,468.999999999933,36.44
1602594939.8571,55.0,1141.0,-33.0,468.999999999933,36.44
1602594939.8591,55.0,1141.0,-31.0,468.999999999933,36.44
1602594939.8611,55.0,1141.0,-31.0,468.999999999933,36.44
1602594939.8631,55.0,1141.0,-26.0,468.999999999933,36.44
1602594939.8651,55.0,1141.0,-21.0,468.999999999933,36.44
1602594939.8672,55.0,1141.0,-16.0,468.999999999933,36.44
1602594939.8691,55.0,1141.0,-9.0,468.999999999933,36.44
1602594939.8711,55.0,1141.0,-7.0,468.999999999933,36.44
