Time,ECG
1604060810.7304,638
1604060810.7329,2276
1604060810.7349,3855
1604060810.7369,4679
1604060810.7389,5403
1604060810.7409,6227
1604060810.7427,6812
1604060810.7447,7282
1604060810.7467,7782
1604060810.7487,8196
1604060810.7507,8530
1604060810.7529,8862
1604060810.7550,9157
1604060810.7571,9398
1604060810.7590,9629
1604060810.7610,9846
1604060810.7627,10032
1604060810.7647,10205
1604060810.7667,10368
1604060810.7687,10512
1604060810.7707,10641
1604060810.7727,10753
1604060810.7747,10858
1604060810.7767,10968
1604060810.7787,11063
1604060810.7807,11138
1604060810.7826,11216
1604060810.7846,11292
1604060810.7866,11350
1604060810.7886,11401
1604060810.7906,11455
1604060810.7926,11501
1604060810.7946,11540
1604060810.7966,11574
1604060810.7986,11604
1604060810.8006,11628
1604060810.8026,11640
1604060810.8046,11655
1604060810.8066,11674
1604060810.8086,11684
1604060810.8106,11674
1604060810.8126,11677
1604060810.8146,11694
1604060810.8166,11682
1604060810.8186,11645
1604060810.8206,11633
1604060810.8226,11628
1604060810.8246,11601
1604060810.8266,11572
1604060810.8286,11557
1604060810.8314,11540
1604060810.8326,11496
1604060810.8346,11448
1604060810.8366,11418
1604060810.8385,11387
1604060810.8406,11348
1604060810.8425,11304
1604060810.8446,11262
1604060810.8465,11216
1604060810.8485,11167
1604060810.8506,11116
1604060810.8525,11075
1604060810.8545,11046
1604060810.8565,11002
1604060810.8585,10953
1604060810.8605,10904
1604060810.8625,10836
1604060810.8646,10746
1604060810.8666,10675
1604060810.8685,10617
1604060810.8705,10548
1604060810.8725,10478
1604060810.8745,10409
1604060811.2983,10348
1604060811.2995,10288
1604060811.3020,10214
1604060811.3046,10141
1604060811.3066,10083
1604060811.3085,10027
1604060811.3106,9951
1604060811.3126,9893
1604060811.3145,9905
1604060811.3165,9958
1604060811.3185,9944
1604060811.3205,9849
1604060811.3225,9590
1604060811.3245,9101
1604060811.3265,8823
1604060811.3285,8981
1604060811.3305,9115
1604060811.3325,9093
1604060811.3345,9093
1604060811.3365,9042
1604060811.3385,8937
1604060811.3405,8867
1604060811.3425,8801
1604060811.3444,8715
1604060811.3464,8645
1604060811.3485,8581
1604060811.3505,8498
1604060811.3524,8423
1604060811.3546,8362
1604060811.3565,8289
1604060811.3584,8208
1604060811.3605,8145
1604060811.3624,8082
1604060811.3644,8004
1604060811.3664,7935
1604060811.3684,7884
1604060811.3704,7816
1604060811.3724,7733
1604060811.3744,7665
1604060811.3764,7606
1604060811.3784,7548
1604060811.3804,7487
1604060811.3824,7421
1604060811.3844,7363
1604060811.3864,7304
1604060811.3884,7234
1604060811.3904,7163
1604060811.3924,7107
1604060811.3944,7043
1604060811.3964,6956
1604060811.3984,6858
1604060811.4004,6763
1604060811.4024,6670
1604060811.4044,6575
1604060811.4064,6485
1604060811.4084,6407
1604060811.4104,6332
1604060811.4125,6254
1604060811.4144,6188
1604060811.4164,6137
1604060811.4184,6076
1604060811.4204,6015
1604060811.4224,5954
1604060811.4244,5898
1604060811.4264,5842
1604060811.4284,5783
1604060811.4304,5722
1604060811.4325,5666
1604060811.4344,5603
1604060811.4363,5537
1604060811.4384,5481
1604060811.4404,5425
1604060811.4424,5367
1604060811.8383,5306
1604060811.8391,5237
1604060811.8416,5184
1604060811.8443,5133
1604060811.8461,5072
1604060811.8481,5013
1604060811.8506,4967
1604060811.8522,4906
1604060811.8541,4842
1604060811.8561,4799
1604060811.8581,4760
1604060811.8601,4691
1604060811.8621,4623
1604060811.8641,4582
1604060811.8661,4540
1604060811.8681,4484
1604060811.8701,4435
1604060811.8721,4396
1604060811.8741,4353
1604060811.8761,4301
1604060811.8781,4250
1604060811.8801,4209
1604060811.8821,4165
1604060811.8841,4116
1604060811.8861,4070
1604060811.8882,4026
1604060811.8901,3977
1604060811.8921,3933
1604060811.8941,3887
1604060811.8961,3838
1604060811.8981,3794
1604060811.9001,3753
1604060811.9021,3714
1604060811.9041,3670
1604060811.9061,3624
1604060811.9080,3580
1604060811.9101,3543
1604060811.9121,3507
1604060811.9141,3465
1604060811.9161,3424
1604060811.9181,3387
1604060811.9201,3353
1604060811.9221,3314
1604060811.9241,3278
1604060811.9261,3244
1604060811.9281,3209
1604060811.9302,3175
1604060811.9321,3141
1604060811.9341,3107
1604060811.9361,3073
1604060811.9381,3046
1604060811.9401,3029
1604060811.9421,3019
1604060811.9441,2988
1604060811.9461,2924
1604060811.9481,2866
1604060811.9501,2837
1604060811.9522,2810
1604060811.9541,2768
1604060811.9561,2727
1604060811.9581,2695
1604060811.9601,2664
1604060811.9621,2632
1604060811.9641,2605
1604060811.9661,2576
1604060811.9681,2539
1604060811.9701,2508
1604060811.9721,2488
1604060811.9741,2495
1604060811.9760,2561
1604060811.9781,2671
1604060811.9801,2742
1604060811.9821,2639
1604060812.3780,2222
1604060812.3788,1803
1604060812.3813,1847
1604060812.3839,2052
1604060812.3859,2100
1604060812.3879,2154
1604060812.3898,2198
1604060812.3919,2149
1604060812.3938,2103
1604060812.3958,2093
1604060812.3979,2076
1604060812.3998,2049
1604060812.4019,2027
1604060812.4038,2005
1604060812.4058,1983
1604060812.4078,1969
1604060812.4098,1952
1604060812.4118,1927
1604060812.4138,1905
1604060812.4158,1893
1604060812.4178,1879
1604060812.4198,1854
1604060812.4218,1832
1604060812.4238,1820
1604060812.4258,1806
1604060812.4278,1791
1604060812.4297,1781
1604060812.4318,1769
1604060812.4338,1754
1604060812.4358,1745
1604060812.4378,1740
1604060812.4399,1730
1604060812.4419,1713
1604060812.4438,1701
1604060812.4458,1691
1604060812.4479,1667
1604060812.4498,1640
1604060812.4518,1620
1604060812.4537,1586
1604060812.4557,1535
1604060812.4578,1489
1604060812.4597,1452
1604060812.4618,1418
1604060812.4638,1386
1604060812.4657,1362
1604060812.4678,1350
1604060812.4697,1335
1604060812.4718,1313
1604060812.4737,1299
1604060812.4758,1296
1604060812.4778,1291
1604060812.4798,1277
1604060812.4818,1264
1604060812.4837,1252
1604060812.4858,1238
1604060812.4878,1221
1604060812.4898,1204
1604060812.4918,1191
1604060812.4938,1184
1604060812.4958,1172
1604060812.4978,1155
1604060812.4998,1140
1604060812.5018,1126
1604060812.5037,1106
1604060812.5058,1096
1604060812.5077,1089
1604060812.5098,1074
1604060812.5118,1062
1604060812.5138,1055
1604060812.5158,1040
1604060812.5178,1026
1604060812.5198,1013
1604060812.5218,1009
1604060812.9483,999
1604060812.9491,989
1604060812.9506,974
1604060812.9526,965
1604060812.9546,952
1604060812.9566,933
1604060812.9586,914
1604060812.9606,911
1604060812.9625,906
1604060812.9647,892
1604060812.9666,882
1604060812.9685,879
1604060812.9705,870
1604060812.9727,853
1604060812.9745,838
1604060812.9765,828
1604060812.9785,818
1604060812.9805,809
1604060812.9825,801
1604060812.9845,797
1604060812.9865,792
1604060812.9885,782
1604060812.9905,779
1604060812.9925,779
1604060812.9945,779
1604060812.9965,784
1604060812.9986,797
1604060813.0005,789
1604060813.0025,755
1604060813.0045,728
1604060813.0065,721
1604060813.0085,711
1604060813.0105,697
1604060813.0125,689
1604060813.0145,684
1604060813.0165,675
1604060813.0185,667
1604060813.0205,660
1604060813.0225,655
1604060813.0245,653
1604060813.0265,650
1604060813.0285,648
1604060813.0305,665
1604060813.0325,745
1604060813.0345,887
1604060813.0365,1001
1604060813.0385,945
1604060813.0405,553
1604060813.0425,102
1604060813.0445,134
1604060813.0465,385
1604060813.0485,453
1604060813.0505,519
1604060813.0525,604
1604060813.0545,592
1604060813.0565,560
1604060813.0585,570
1604060813.0605,567
1604060813.0625,553
1604060813.0645,553
1604060813.0665,548
1604060813.0685,541
1604060813.0705,543
1604060813.0725,545
1604060813.0746,541
1604060813.0766,531
1604060813.0785,531
1604060813.0805,531
1604060813.0825,531
1604060813.0845,536
1604060813.0865,536
1604060813.0885,533
1604060813.0905,531
1604060813.4879,538
1604060813.4887,543
1604060813.4913,545
1604060813.4938,548
1604060813.4958,553
1604060813.4978,550
1604060813.4999,543
1604060813.5017,531
1604060813.5038,531
1604060813.5057,528
1604060813.5078,519
1604060813.5097,504
1604060813.5118,477
1604060813.5137,443
1604060813.5157,414
1604060813.5177,392
1604060813.5197,372
1604060813.5217,355
1604060813.5237,346
1604060813.5257,343
1604060813.5277,343
1604060813.5297,341
1604060813.5318,338
1604060813.5337,343
1604060813.5357,350
1604060813.5377,355
1604060813.5397,353
1604060813.5419,348
1604060813.5437,348
1604060813.5457,343
1604060813.5477,341
1604060813.5498,338
1604060813.5517,338
1604060813.5537,333
1604060813.5557,329
1604060813.5577,326
1604060813.5597,324
1604060813.5618,316
1604060813.5637,311
1604060813.5657,311
1604060813.5677,309
1604060813.5697,304
1604060813.5719,309
1604060813.5738,311
1604060813.5757,304
1604060813.5777,299
1604060813.5797,294
1604060813.5818,294
1604060813.5838,292
1604060813.5857,287
1604060813.5877,290
1604060813.5897,290
1604060813.5918,282
1604060813.5937,277
1604060813.5958,282
1604060813.5977,285
1604060813.5997,280
1604060813.6018,275
1604060813.6037,272
1604060813.6057,272
1604060813.6078,272
1604060813.6097,270
1604060813.6118,270
1604060813.6137,270
1604060813.6157,263
1604060813.6177,255
1604060813.6198,255
1604060813.6217,258
1604060813.6237,263
1604060813.6258,255
1604060813.6277,248
1604060813.6297,246
1604060813.6318,241
1604060814.0883,236
1604060814.0891,238
1604060814.0917,241
1604060814.0942,238
1604060814.0962,243
1604060814.0982,265
1604060814.1003,282
1604060814.1021,268
1604060814.1041,238
1604060814.1061,224
1604060814.1081,221
1604060814.1101,216
1604060814.1121,209
1604060814.1141,209
1604060814.1161,207
1604060814.1181,202
1604060814.1201,199
1604060814.1221,202
1604060814.1241,202
1604060814.1261,202
1604060814.1283,214
1604060814.1301,226
1604060814.1321,265
1604060814.1341,368
1604060814.1361,472
1604060814.1381,499
1604060814.1401,346
1604060814.1421,-73
1604060814.1441,-358
1604060814.1461,-173
1604060814.1481,65
1604060814.1501,134
1604060814.1521,207
1604060814.1542,243
1604060814.1561,209
1604060814.1581,204
1604060814.1602,219
1604060814.1621,212
1604060814.1641,204
1604060814.1661,207
1604060814.1681,212
1604060814.1701,212
1604060814.1721,209
1604060814.1741,214
1604060814.1761,221
1604060814.1781,219
1604060814.1801,219
1604060814.1821,224
1604060814.1841,231
1604060814.1861,236
1604060814.1881,241
1604060814.1901,246
1604060814.1922,251
1604060814.1941,258
1604060814.1961,268
1604060814.1981,275
1604060814.2001,285
1604060814.2021,297
1604060814.2041,304
1604060814.2061,309
1604060814.2081,314
1604060814.2101,311
1604060814.2122,304
1604060814.2141,292
1604060814.2161,265
1604060814.2181,229
1604060814.2201,199
1604060814.2221,173
1604060814.2241,148
1604060814.2261,129
1604060814.2281,119
1604060814.2303,114
1604060814.2321,109
1604060814.6880,109
1604060814.6887,114
1604060814.6912,119
1604060814.6938,126
1604060814.6958,131
1604060814.6979,134
1604060814.6999,136
1604060814.7019,136
1604060814.7038,131
1604060814.7058,121
1604060814.7078,121
1604060814.7098,126
1604060814.7117,126
1604060814.7137,124
1604060814.7158,124
1604060814.7177,121
1604060814.7197,119
1604060814.7218,119
1604060814.7238,121
1604060814.7257,119
1604060814.7277,112
1604060814.7297,112
1604060814.7318,114
1604060814.7337,114
1604060814.7357,107
1604060814.7377,109
1604060814.7397,119
1604060814.7417,124
1604060814.7438,116
1604060814.7457,112
1604060814.7477,119
1604060814.7497,121
1604060814.7518,119
1604060814.7537,119
1604060814.7557,119
1604060814.7577,116
1604060814.7598,121
1604060814.7618,124
1604060814.7637,121
1604060814.7657,124
1604060814.7678,126
1604060814.7698,121
1604060814.7717,121
1604060814.7737,124
1604060814.7757,124
1604060814.7777,124
1604060814.7797,124
1604060814.7818,126
1604060814.7837,124
1604060814.7859,124
1604060814.7877,126
1604060814.7897,126
1604060814.7918,124
1604060814.7937,119
1604060814.7958,121
1604060814.7977,124
1604060814.7998,124
1604060814.8018,116
1604060814.8037,121
1604060814.8057,138
1604060814.8077,155
1604060814.8097,168
1604060814.8118,173
1604060814.8137,148
1604060814.8157,121
1604060814.8177,119
1604060814.8198,119
1604060814.8217,107
1604060814.8237,102
1604060814.8257,104
1604060814.8277,109
1604060814.8297,112
1604060814.8318,109
1604060815.1984,109
1604060815.1993,109
1604060815.2016,112
1604060815.2043,119
1604060815.2063,153
1604060815.2083,233
1604060815.2103,358
1604060815.2123,443
1604060815.2143,389
1604060815.2162,68
1604060815.2182,-336
1604060815.2202,-350
1604060815.2222,-107
1604060815.2243,0
1604060815.2262,60
1604060815.2282,129
1604060815.2303,126
1604060815.2322,107
1604060815.2342,116
1604060815.2362,121
1604060815.2382,112
1604060815.2402,112
1604060815.2422,116
1604060815.2443,121
1604060815.2462,121
1604060815.2482,121
1604060815.2502,129
1604060815.2524,134
1604060815.2543,136
1604060815.2549,136
1604060815.2573,141
1604060815.2592,146
1604060815.2612,151
1604060815.2632,153
1604060815.2652,158
1604060815.2672,168
1604060815.2692,180
1604060815.2712,185
1604060815.2732,192
1604060815.2752,209
1604060815.2772,221
1604060815.2792,221
1604060815.2812,221
1604060815.2832,224
1604060815.2852,226
1604060815.2859,224
1604060815.2882,209
1604060815.2902,187
1604060815.2923,160
1604060815.2943,129
1604060815.2962,97
1604060815.2982,73
1604060815.3002,60
1604060815.3022,51
1604060815.3042,51
1604060815.3062,53
1604060815.3082,51
1604060815.3102,56
1604060815.3122,65
1604060815.3142,70
1604060815.3162,73
1604060815.3169,73
1604060815.3182,77
1604060815.3202,87
1604060815.3223,87
1604060815.3242,85
1604060815.3262,85
1604060815.3282,82
1604060815.3302,77
1604060815.3322,75
1604060815.3342,75
1604060815.3362,77
1604060815.3382,80
1604060815.7680,77
1604060815.7688,70
1604060815.7713,68
1604060815.7739,68
1604060815.7759,70
1604060815.7781,73
1604060815.7800,70
1604060815.7818,58
1604060815.7838,51
1604060815.7858,58
1604060815.7878,65
1604060815.7898,63
1604060815.7918,58
1604060815.7938,60
1604060815.7958,65
1604060815.7978,68
1604060815.7985,70
1604060815.8008,70
1604060815.8028,65
1604060815.8048,63
1604060815.8068,65
1604060815.8088,73
1604060815.8109,77
1604060815.8128,75
1604060815.8148,75
1604060815.8168,75
1604060815.8188,77
1604060815.8209,77
1604060815.8228,82
1604060815.8248,90
1604060815.8268,99
1604060815.8288,114
1604060815.8295,136
1604060815.8318,129
1604060815.8338,92
1604060815.8358,70
1604060815.8378,73
1604060815.8398,75
1604060815.8419,70
1604060815.8438,68
1604060815.8458,70
1604060815.8478,73
1604060815.8498,63
1604060815.8518,56
1604060815.8538,63
1604060815.8558,70
1604060815.8578,70
1604060815.8598,80
1604060815.8605,121
1604060815.8628,236
1604060815.8648,392
1604060815.8668,467
1604060815.8688,285
1604060815.8709,-173
1604060815.8728,-438
1604060815.8748,-260
1604060815.8769,-85
1604060815.8788,-36
1604060815.8808,70
1604060815.8828,124
1604060815.8848,92
1604060815.8868,90
1604060815.8888,109
1604060815.8909,104
1604060815.8915,104
1604060815.8938,107
1604060815.8958,104
1604060815.8978,107
1604060815.8998,109
1604060815.9018,107
1604060815.9038,107
1604060815.9058,107
1604060815.9078,107
1604060816.3081,112
1604060816.3090,116
1604060816.3114,116
1604060816.3140,121
1604060816.3160,131
1604060816.3180,136
1604060816.3187,134
1604060816.3210,136
1604060816.3229,138
1604060816.3249,138
1604060816.3269,148
1604060816.3289,153
1604060816.3310,153
1604060816.3329,158
1604060816.3349,163
1604060816.3369,160
1604060816.3389,148
1604060816.3409,131
1604060816.3429,114
1604060816.3449,95
1604060816.3469,68
1604060816.3489,43
1604060816.3496,29
1604060816.3519,21
1604060816.3539,17
1604060816.3560,17
1604060816.3580,21
1604060816.3600,29
1604060816.3620,29
1604060816.3639,31
1604060816.3659,36
1604060816.3679,41
1604060816.3699,46
1604060816.3719,48
1604060816.3741,46
1604060816.3760,36
1604060816.3779,29
1604060816.3799,34
1604060816.3806,36
1604060816.3829,38
1604060816.3849,41
1604060816.3869,41
1604060816.3889,41
1604060816.3910,38
1604060816.3930,38
1604060816.3949,41
1604060816.3969,41
1604060816.3989,36
1604060816.4009,36
1604060816.4029,41
1604060816.4049,41
1604060816.4069,38
1604060816.4089,38
1604060816.4096,38
1604060816.4119,46
1604060816.4140,48
1604060816.4159,46
1604060816.4179,43
1604060816.4199,41
1604060816.4219,41
1604060816.4239,43
1604060816.4259,48
1604060816.4279,48
1604060816.4300,48
1604060816.4319,51
1604060816.4339,51
1604060816.4359,48
1604060816.4379,46
1604060816.4399,53
1604060816.4406,60
1604060816.4429,53
1604060816.4449,48
1604060816.4469,56
1604060816.9079,63
1604060816.9087,70
1604060816.9111,85
1604060816.9138,104
1604060816.9158,112
1604060816.9179,85
1604060816.9198,41
1604060816.9217,34
1604060816.9237,48
1604060816.9257,43
1604060816.9277,34
1604060816.9297,31
1604060816.9319,34
1604060816.9337,34
1604060816.9357,34
1604060816.9377,34
1604060816.9396,34
1604060816.9417,36
1604060816.9436,43
1604060816.9457,65
1604060816.9477,126
1604060816.9497,243
1604060816.9516,346
1604060816.9537,350
1604060816.9556,119
1604060816.9576,-333
1604060816.9596,-487
1604060816.9617,-233
1604060816.9636,-58
1604060816.9657,-2
1604060816.9676,80
1604060816.9696,95
1604060816.9716,65
1604060816.9736,73
1604060816.9756,85
1604060816.9777,85
1604060816.9797,87
1604060816.9817,87
1604060816.9836,85
1604060816.9856,90
1604060816.9876,92
1604060816.9897,92
1604060816.9917,92
1604060816.9936,95
1604060816.9956,97
1604060816.9976,104
1604060816.9996,107
1604060817.0017,107
1604060817.0036,112
1604060817.0056,121
1604060817.0076,131
1604060817.0097,138
1604060817.0117,141
1604060817.0136,146
1604060817.0156,158
1604060817.0176,168
1604060817.0196,170
1604060817.0216,173
1604060817.0237,177
1604060817.0256,180
1604060817.0276,173
1604060817.0297,158
1604060817.0317,138
1604060817.0338,112
1604060817.0357,73
1604060817.0376,43
1604060817.0396,26
1604060817.0417,14
1604060817.0437,4
1604060817.0457,0
1604060817.0477,-2
1604060817.0496,2
1604060817.0516,4
1604060817.4481,7
1604060817.4489,14
1604060817.4513,24
1604060817.4539,31
1604060817.4560,34
1604060817.4579,36
1604060817.4600,36
1604060817.4620,36
1604060817.4639,34
1604060817.4659,34
1604060817.4679,26
1604060817.4699,19
1604060817.4719,19
1604060817.4739,24
1604060817.4760,19
1604060817.4779,19
1604060817.4799,24
1604060817.4819,21
1604060817.4839,19
1604060817.4859,24
1604060817.4879,19
1604060817.4899,12
1604060817.4919,14
1604060817.4939,17
1604060817.4959,17
1604060817.4979,19
1604060817.4999,21
1604060817.5019,19
1604060817.5039,21
1604060817.5059,31
1604060817.5079,34
1604060817.5099,29
1604060817.5119,29
1604060817.5139,34
1604060817.5158,34
1604060817.5178,34
1604060817.5199,34
1604060817.5219,36
1604060817.5239,36
1604060817.5258,31
1604060817.5278,31
1604060817.5300,29
1604060817.5320,34
1604060817.5338,41
1604060817.5359,41
1604060817.5378,36
1604060817.5399,36
1604060817.5419,41
1604060817.5439,53
1604060817.5459,68
1604060817.5479,85
1604060817.5499,102
1604060817.5518,95
1604060817.5538,63
1604060817.5559,43
1604060817.5578,43
1604060817.5599,43
1604060817.5619,43
1604060817.5638,38
1604060817.5659,31
1604060817.5679,36
1604060817.5698,36
1604060817.5718,34
1604060817.5739,36
1604060817.5759,41
1604060817.5778,41
1604060817.5799,46
1604060817.5819,73
1604060817.5838,153
1604060817.5858,277
1604060817.5878,355
1604060817.5899,299
1604060817.5919,-4
1604060818.0179,-419
1604060818.0187,-450
1604060818.0212,-182
1604060818.0237,-43
1604060818.0257,21
1604060818.0277,92
1604060818.0297,87
1604060818.0317,63
1604060818.0337,65
1604060818.0357,70
1604060818.0377,73
1604060818.0397,75
1604060818.0417,70
1604060818.0437,65
1604060818.0457,70
1604060818.0477,75
1604060818.0497,77
1604060818.0517,80
1604060818.0537,85
1604060818.0558,87
1604060818.0577,92
1604060818.0597,97
1604060818.0617,99
1604060818.0636,99
1604060818.0657,109
1604060818.0676,121
1604060818.0696,131
1604060818.0716,136
1604060818.0736,146
1604060818.0756,155
1604060818.0776,163
1604060818.0797,163
1604060818.0817,165
1604060818.0836,170
1604060818.0857,175
1604060818.0876,165
1604060818.0897,146
1604060818.0918,124
1604060818.0937,92
1604060818.0957,60
1604060818.0977,38
1604060818.0996,19
1604060818.1017,2
1604060818.1036,-7
1604060818.1057,-9
1604060818.1076,-9
1604060818.1096,-7
1604060818.1117,-2
1604060818.1137,2
1604060818.1158,9
1604060818.1176,14
1604060818.1196,21
1604060818.1216,29
1604060818.1236,31
1604060818.1257,29
1604060818.1276,31
1604060818.1296,34
1604060818.1317,34
1604060818.1336,34
1604060818.1356,31
1604060818.1376,31
1604060818.1396,31
1604060818.1417,26
1604060818.1436,24
1604060818.1456,29
1604060818.1476,29
1604060818.1497,29
1604060818.1516,29
1604060818.1536,26
1604060818.1556,26
1604060818.1578,26
1604060818.1597,31
1604060818.1618,31
1604060818.5580,31
1604060818.5588,31
1604060818.5612,34
1604060818.5638,36
1604060818.5658,36
1604060818.5678,31
1604060818.5698,31
1604060818.5718,34
1604060818.5738,31
1604060818.5758,24
1604060818.5778,21
1604060818.5798,29
1604060818.5818,26
1604060818.5838,24
1604060818.5858,29
1604060818.5878,34
1604060818.5898,34
1604060818.5918,31
1604060818.5937,36
1604060818.5957,38
1604060818.5977,36
1604060818.5997,34
1604060818.6017,36
1604060818.6037,43
1604060818.6057,58
1604060818.6077,75
1604060818.6098,92
1604060818.6117,99
1604060818.6137,80
1604060818.6157,53
1604060818.6177,43
1604060818.6197,46
1604060818.6217,41
1604060818.6237,41
1604060818.6257,43
1604060818.6278,41
1604060818.6297,36
1604060818.6317,36
1604060818.6337,41
1604060818.6358,46
1604060818.6377,48
1604060818.6397,51
1604060818.6418,58
1604060818.6437,75
1604060818.6457,146
1604060818.6477,285
1604060818.6497,409
1604060818.6517,387
1604060818.6539,77
1604060818.6558,-355
1604060818.6578,-414
1604060818.6597,-180
1604060818.6618,-65
1604060818.6637,-2
1604060818.6657,82
1604060818.6677,85
1604060818.6697,65
1604060818.6718,82
1604060818.6738,90
1604060818.6757,80
1604060818.6777,85
1604060818.6797,90
1604060818.6818,90
1604060818.6837,90
1604060818.6857,95
1604060818.6877,99
1604060818.6897,104
1604060818.6917,104
1604060818.6937,102
1604060818.6957,104
1604060818.6978,107
1604060818.6997,104
1604060818.7017,107
1604060819.1279,116
1604060819.1287,126
1604060819.1312,129
1604060819.1338,136
1604060819.1358,141
1604060819.1378,146
1604060819.1399,143
1604060819.1418,138
1604060819.1437,143
1604060819.1457,148
1604060819.1477,153
1604060819.1497,151
1604060819.1517,143
1604060819.1537,126
1604060819.1557,102
1604060819.1577,70
1604060819.1597,41
1604060819.1617,14
1604060819.1637,-4
1604060819.1656,-9
1604060819.1676,-9
1604060819.1697,-12
1604060819.1717,-14
1604060819.1737,-9
1604060819.1757,0
1604060819.1777,7
1604060819.1798,17
1604060819.1818,17
1604060819.1836,21
1604060819.1857,24
1604060819.1877,21
1604060819.1897,21
1604060819.1917,26
1604060819.1937,24
1604060819.1957,21
1604060819.1978,24
1604060819.1997,24
1604060819.2017,21
1604060819.2037,21
1604060819.2057,14
1604060819.2077,14
1604060819.2097,17
1604060819.2117,14
1604060819.2137,14
1604060819.2156,14
1604060819.2176,17
1604060819.2197,17
1604060819.2217,19
1604060819.2237,24
1604060819.2257,24
1604060819.2276,21
1604060819.2297,19
1604060819.2317,21
1604060819.2337,21
1604060819.2357,19
1604060819.2376,21
1604060819.2397,26
1604060819.2417,29
1604060819.2437,26
1604060819.2457,26
1604060819.2477,29
1604060819.2497,29
1604060819.2517,31
1604060819.2537,38
1604060819.2557,43
1604060819.2577,58
1604060819.2597,80
1604060819.2617,75
1604060819.2637,46
1604060819.2657,29
1604060819.2678,29
1604060819.2698,26
1604060819.2717,26
1604060819.6680,26
1604060819.6688,24
1604060819.6713,24
1604060819.6738,29
1604060819.6760,26
1604060819.6778,19
1604060819.6798,21
1604060819.6818,24
1604060819.6838,24
1604060819.6858,29
1604060819.6878,53
1604060819.6898,141
1604060819.6918,314
1604060819.6938,465
1604060819.6958,409
1604060819.6977,-24
1604060819.6998,-487
1604060819.7017,-419
1604060819.7037,-163
1604060819.7058,-112
1604060819.7077,-24
1604060819.7097,85
1604060819.7118,60
1604060819.7137,34
1604060819.7157,75
1604060819.7177,80
1604060819.7197,63
1604060819.7218,73
1604060819.7237,80
1604060819.7257,73
1604060819.7277,73
1604060819.7298,73
1604060819.7318,73
1604060819.7337,75
1604060819.7357,82
1604060819.7377,85
1604060819.7397,80
1604060819.7417,80
1604060819.7437,95
1604060819.7457,104
1604060819.7477,104
1604060819.7497,112
1604060819.7517,124
1604060819.7537,131
1604060819.7557,143
1604060819.7577,146
1604060819.7597,141
1604060819.7618,143
1604060819.7637,153
1604060819.7658,148
1604060819.7678,134
1604060819.7698,129
1604060819.7717,131
1604060819.7737,112
1604060819.7757,75
1604060819.7779,48
1604060819.7798,24
1604060819.7817,-4
1604060819.7837,-17
1604060819.7857,-12
1604060819.7878,-24
1604060819.7897,-31
1604060819.7918,-17
1604060819.7938,-7
1604060819.7957,-7
1604060819.7978,-4
1604060819.7997,-4
1604060819.8018,-7
1604060819.8038,-2
1604060819.8058,-2
1604060819.8078,-2
1604060819.8098,9
1604060819.8118,19
1604060820.2381,9
1604060820.2390,2
1604060820.2415,0
1604060820.2440,-7
1604060820.2461,-14
1604060820.2481,-19
1604060820.2501,-17
1604060820.2520,-14
1604060820.2540,-14
1604060820.2560,-12
1604060820.2580,-12
1604060820.2600,-14
1604060820.2620,-19
1604060820.2640,-17
1604060820.2660,-9
1604060820.2680,-9
1604060820.2700,-12
1604060820.2720,-7
1604060820.2740,-2
1604060820.2760,-2
1604060820.2779,-2
1604060820.2800,-9
1604060820.2820,-4
1604060820.2841,4
1604060820.2860,14
1604060820.2879,31
1604060820.2899,41
1604060820.2921,17
1604060820.2940,-7
1604060820.2960,-2
1604060820.2979,-2
1604060820.2999,-17
1604060820.3020,-14
1604060820.3041,-7
1604060820.3060,-9
1604060820.3079,-12
1604060820.3099,-4
1604060820.3120,-4
1604060820.3139,-7
1604060820.3160,-2
1604060820.3179,7
1604060820.3199,14
1604060820.3219,14
1604060820.3239,43
1604060820.3259,197
1604060820.3279,448
1604060820.3299,611
1604060820.3319,424
1604060820.3340,-260
1604060820.3360,-719
1604060820.3379,-397
1604060820.3399,-99
1604060820.3420,-126
1604060820.3439,-24
1604060820.3459,77
1604060820.3480,26
1604060820.3499,14
1604060820.3519,51
1604060820.3539,38
1604060820.3559,24
1604060820.3579,34
1604060820.3600,43
1604060820.3620,46
1604060820.3640,38
1604060820.3660,31
1604060820.3680,48
1604060820.3699,63
1604060820.3720,56
1604060820.3739,53
1604060820.3761,65
1604060820.3780,77
1604060820.3799,77
1604060820.3820,82
1604060820.8379,102
1604060820.8388,114
1604060820.8412,131
1604060820.8438,151
1604060820.8460,165
1604060820.8479,177
1604060820.8499,173
1604060820.8518,168
1604060820.8538,185
1604060820.8558,185
1604060820.8578,151
1604060820.8600,109
1604060820.8618,65
1604060820.8637,21
1604060820.8657,-9
1604060820.8677,-36
1604060820.8697,-56
1604060820.8717,-60
1604060820.8737,-70
1604060820.8757,-92
1604060820.8777,-90
1604060820.8797,-73
1604060820.8817,-80
1604060820.8837,-85
1604060820.8858,-70
1604060820.8877,-60
1604060820.8897,-63
1604060820.8918,-48
1604060820.8937,-26
1604060820.8957,-19
1604060820.8978,-29
1604060820.8998,-38
1604060820.9017,-46
1604060820.9038,-43
1604060820.9058,-36
1604060820.9078,-41
1604060820.9097,-46
1604060820.9118,-48
1604060820.9137,-48
1604060820.9157,-43
1604060820.9177,-43
1604060820.9197,-56
1604060820.9217,-63
1604060820.9237,-65
1604060820.9257,-65
1604060820.9277,-60
1604060820.9297,-58
1604060820.9318,-53
1604060820.9338,-41
1604060820.9357,-41
1604060820.9378,-56
1604060820.9397,-53
1604060820.9418,-48
1604060820.9437,-56
1604060820.9458,-56
1604060820.9477,-36
1604060820.9497,-31
1604060820.9517,-46
1604060820.9537,-36
1604060820.9557,-21
1604060820.9577,-19
1604060820.9597,2
1604060820.9619,21
1604060820.9638,-9
1604060820.9657,-38
1604060820.9677,-31
1604060820.9697,-31
1604060820.9717,-41
1604060820.9737,-43
1604060820.9757,-41
1604060820.9777,-38
1604060820.9797,-34
1604060820.9818,-38
1604060821.3778,-38
1604060821.3787,-24
1604060821.3812,-26
1604060821.3837,-34
1604060821.3857,-26
1604060821.3877,-14
1604060821.3897,9
1604060821.3917,136
1604060821.3937,343
1604060821.3957,497
1604060821.3977,446
1604060821.3997,-124
1604060821.4016,-762
1604060821.4037,-575
1604060821.4056,-138
1604060821.4077,-124
1604060821.4097,-97
1604060821.4117,26
1604060821.4137,4
1604060821.4157,-26
1604060821.4177,7
1604060821.4197,7
1604060821.4216,-2
1604060821.4237,9
1604060821.4257,17
1604060821.4277,14
1604060821.4297,17
1604060821.4317,21
1604060821.4336,26
1604060821.4356,31
1604060821.4377,36
1604060821.4397,41
1604060821.4417,41
1604060821.4436,48
1604060821.4457,51
1604060821.4476,58
1604060821.4496,77
1604060821.4517,90
1604060821.4536,97
1604060821.4557,114
1604060821.4578,131
1604060821.4598,138
1604060821.4617,143
1604060821.4637,153
1604060821.4656,160
1604060821.4676,160
1604060821.4696,153
1604060821.4716,124
1604060821.4737,80
1604060821.4757,36
1604060821.4777,0
1604060821.4797,-26
1604060821.4817,-51
1604060821.4836,-75
1604060821.4857,-82
1604060821.4877,-77
1604060821.4897,-75
1604060821.4917,-75
1604060821.4936,-73
1604060821.4956,-68
1604060821.4976,-60
1604060821.4996,-51
1604060821.5016,-43
1604060821.5036,-38
1604060821.5057,-34
1604060821.5064,-26
1604060821.5087,-26
1604060821.5107,-29
1604060821.5126,-24
1604060821.5146,-17
1604060821.5166,-21
1604060821.5186,-26
1604060821.5207,-29
1604060821.9478,-34
1604060821.9486,-36
1604060821.9511,-31
1604060821.9538,-29
1604060821.9557,-38
1604060821.9578,-46
1604060821.9584,-38
1604060821.9607,-38
1604060821.9626,-56
1604060821.9646,-65
1604060821.9666,-53
1604060821.9686,-46
1604060821.9707,-58
1604060821.9726,-56
1604060821.9746,-41
1604060821.9766,-41
1604060821.9786,-43
1604060821.9806,-38
1604060821.9827,-36
1604060821.9847,-38
1604060821.9866,-41
1604060821.9886,-34
1604060821.9969,-24
1604060821.9986,-31
1604060822.0006,-34
1604060822.0026,-29
1604060822.0046,-29
1604060822.0066,-31
1604060822.0086,-29
1604060822.0107,-24
1604060822.0126,-21
1604060822.0146,-24
1604060822.0166,-24
1604060822.0186,-21
1604060822.0207,-19
1604060822.0226,-17
1604060822.0246,-14
1604060822.0253,-7
1604060822.0276,2
1604060822.0296,2
1604060822.0317,9
1604060822.0336,38
1604060822.0356,46
1604060822.0376,17
1604060822.0396,2
1604060822.0416,7
1604060822.0436,0
1604060822.0456,-7
1604060822.0477,-4
1604060822.0496,-4
1604060822.0516,-4
1604060822.0536,-2
1604060822.0556,2
1604060822.0563,4
1604060822.0586,4
1604060822.0606,-2
1604060822.0626,-2
1604060822.0646,9
1604060822.0666,19
1604060822.0686,17
1604060822.0707,21
1604060822.0726,80
1604060822.0746,233
1604060822.0766,407
1604060822.0786,494
1604060822.0806,258
1604060822.0826,-385
1604060822.0846,-653
1604060822.0866,-272
1604060822.0875,-43
1604060822.0897,-58
1604060822.0916,34
1604060822.0936,80
1604060822.4876,29
1604060822.4883,38
1604060822.4911,68
1604060822.4932,56
1604060822.4952,51
1604060822.4972,58
1604060822.4992,56
1604060822.5012,56
1604060822.5032,60
1604060822.5053,51
1604060822.5072,43
1604060822.5092,56
1604060822.5113,65
1604060822.5120,65
1604060822.5142,68
1604060822.5163,77
1604060822.5182,87
1604060822.5202,90
1604060822.5222,92
1604060822.5242,99
1604060822.5262,112
1604060822.5282,116
1604060822.5302,124
1604060822.5323,131
1604060822.5343,136
1604060822.5362,141
1604060822.5382,151
1604060822.5402,151
1604060822.5423,143
1604060822.5430,129
1604060822.5452,99
1604060822.5473,70
1604060822.5492,41
1604060822.5513,17
1604060822.5532,-4
1604060822.5552,-17
1604060822.5572,-26
1604060822.5592,-34
1604060822.5613,-38
1604060822.5632,-34
1604060822.5652,-31
1604060822.5672,-24
1604060822.5693,-14
1604060822.5713,-9
1604060822.5732,-9
1604060822.5740,-4
1604060822.5762,2
1604060822.5784,7
1604060822.5803,4
1604060822.5822,4
1604060822.5842,9
1604060822.5862,7
1604060822.5882,7
1604060822.5902,4
1604060822.5923,-4
1604060822.5942,-9
1604060822.5962,-7
1604060822.5982,-9
1604060822.6002,-12
1604060822.6022,-14
1604060822.6042,-17
1604060822.6050,-17
1604060822.6073,-14
1604060822.6092,-12
1604060822.6113,-12
1604060822.6132,-9
1604060822.6152,-9
1604060822.6172,-12
1604060822.6192,-9
1604060822.6213,-4
1604060822.6233,0
1604060822.6253,-2
1604060822.6273,-4
1604060823.0580,-2
1604060823.0589,0
1604060823.0613,0
1604060823.0640,2
1604060823.0659,2
1604060823.0679,2
1604060823.0699,-2
1604060823.0718,-7
1604060823.0738,-7
1604060823.0758,0
1604060823.0778,0
1604060823.0798,-4
1604060823.0819,-7
1604060823.0838,-4
1604060823.0858,-4
1604060823.0878,-4
1604060823.0885,-2
1604060823.0909,-2
1604060823.0929,-2
1604060823.0948,0
1604060823.0968,4
1604060823.0988,7
1604060823.1008,7
1604060823.1028,7
1604060823.1048,9
1604060823.1070,14
1604060823.1089,17
1604060823.1109,14
1604060823.1128,17
1604060823.1148,17
1604060823.1168,17
1604060823.1188,17
1604060823.1195,24
1604060823.1209,29
1604060823.1228,21
1604060823.1248,21
1604060823.1268,31
1604060823.1288,41
1604060823.1308,58
1604060823.1328,75
1604060823.1348,68
1604060823.1368,34
1604060823.1388,21
1604060823.1408,31
1604060823.1428,29
1604060823.1448,14
1604060823.1468,12
1604060823.1488,17
1604060823.1495,21
1604060823.1519,14
1604060823.1538,12
1604060823.1559,17
1604060823.1578,19
1604060823.1598,17
1604060823.1618,17
1604060823.1638,24
1604060823.1658,26
1604060823.1678,31
1604060823.1698,65
1604060823.1718,173
1604060823.1738,309
1604060823.1758,377
1604060823.1778,285
1604060823.1798,-141
1604060823.1818,-563
1604060823.1838,-414
1604060823.1858,-92
1604060823.1878,-24
1604060823.1898,21
1604060823.1918,82
1604060823.1938,63
1604060823.1958,48
1604060823.1978,68
1604060823.5978,65
1604060823.5985,58
1604060823.6010,65
1604060823.6039,68
1604060823.6057,56
1604060823.6076,53
1604060823.6097,56
1604060823.6116,53
1604060823.6137,48
1604060823.6156,48
1604060823.6177,51
1604060823.6196,53
1604060823.6216,58
1604060823.6236,65
1604060823.6256,73
1604060823.6276,80
1604060823.6296,85
1604060823.6316,95
1604060823.6336,104
1604060823.6356,114
1604060823.6376,124
1604060823.6396,134
1604060823.6416,138
1604060823.6436,138
1604060823.6455,141
1604060823.6476,143
1604060823.6496,138
1604060823.6515,121
1604060823.6536,92
1604060823.6556,60
1604060823.6576,31
1604060823.6596,7
1604060823.6615,-14
1604060823.6635,-29
1604060823.6655,-36
1604060823.6675,-38
1604060823.6696,-41
1604060823.6718,-41
1604060823.6736,-38
1604060823.6756,-34
1604060823.6776,-29
1604060823.6795,-21
1604060823.6816,-17
1604060823.6835,-9
1604060823.6856,-2
1604060823.6875,-2
1604060823.6895,-4
1604060823.6915,-2
1604060823.6935,2
1604060823.6955,2
1604060823.6975,2
1604060823.6995,0
1604060823.7016,-4
1604060823.7035,-2
1604060823.7057,-2
1604060823.7076,-4
1604060823.7095,-4
1604060823.7115,-4
1604060823.7136,-4
1604060823.7155,-7
1604060823.7176,-4
1604060823.7195,-2
1604060823.7215,0
1604060823.7235,0
1604060823.7255,0
1604060823.7275,2
1604060823.7295,4
1604060823.7316,2
1604060823.7335,0
1604060823.7355,-4
1604060823.7375,-9
1604060823.7395,-7
1604060823.7415,0
1604060824.1979,0
1604060824.1990,0
1604060824.2014,0
1604060824.2040,0
1604060824.2060,0
1604060824.2080,-4
1604060824.2101,-4
1604060824.2120,-2
1604060824.2140,-4
1604060824.2160,-7
1604060824.2181,0
1604060824.2200,4
1604060824.2221,2
1604060824.2240,2
1604060824.2260,4
1604060824.2280,7
1604060824.2300,7
1604060824.2320,4
1604060824.2341,7
1604060824.2360,12
1604060824.2382,12
1604060824.2400,9
1604060824.2420,17
1604060824.2441,19
1604060824.2460,17
1604060824.2480,17
1604060824.2501,21
1604060824.2520,21
1604060824.2540,19
1604060824.2560,17
1604060824.2580,17
1604060824.2600,19
1604060824.2623,19
1604060824.2641,19
1604060824.2661,21
1604060824.2681,24
1604060824.2701,26
1604060824.2720,38
1604060824.2740,53
1604060824.2759,73
1604060824.2780,85
1604060824.2800,68
1604060824.2820,38
1604060824.2840,26
1604060824.2860,26
1604060824.2880,19
1604060824.2900,12
1604060824.2920,12
1604060824.2940,17
1604060824.2960,17
1604060824.2980,14
1604060824.3001,12
1604060824.3020,12
1604060824.3039,9
1604060824.3059,12
1604060824.3079,12
1604060824.3099,14
1604060824.3119,29
1604060824.3139,97
1604060824.3159,221
1604060824.3179,316
1604060824.3200,321
1604060824.3219,80
1604060824.3239,-407
1604060824.3261,-560
1604060824.3280,-265
1604060824.3300,-68
1604060824.3320,-24
1604060824.3339,36
1604060824.3359,51
1604060824.3380,31
1604060824.3399,43
1604060824.3419,51
1604060824.7376,43
1604060824.7382,43
1604060824.7406,43
1604060824.7433,43
1604060824.7453,53
1604060824.7473,58
1604060824.7493,56
1604060824.7513,56
1604060824.7533,60
1604060824.7553,60
1604060824.7575,53
1604060824.7593,51
1604060824.7613,63
1604060824.7632,70
1604060824.7653,70
1604060824.7673,80
1604060824.7693,92
1604060824.7713,102
1604060824.7732,112
1604060824.7752,119
1604060824.7772,124
1604060824.7792,136
1604060824.7813,143
1604060824.7832,151
1604060824.7852,153
1604060824.7872,153
1604060824.7892,146
1604060824.7913,131
1604060824.7932,107
1604060824.7952,73
1604060824.7973,43
1604060824.7992,19
1604060824.8012,0
1604060824.8032,-14
1604060824.8052,-21
1604060824.8072,-21
1604060824.8092,-19
1604060824.8113,-17
1604060824.8132,-12
1604060824.8152,-7
1604060824.8172,-2
1604060824.8192,2
1604060824.8213,9
1604060824.8232,14
1604060824.8253,12
1604060824.8272,9
1604060824.8292,12
1604060824.8312,17
1604060824.8332,17
1604060824.8352,9
1604060824.8372,7
1604060824.8392,9
1604060824.8412,7
1604060824.8432,2
1604060824.8452,-4
1604060824.8472,-9
1604060824.8492,-7
1604060824.8512,-7
1604060824.8532,-7
1604060824.8552,-2
1604060824.8572,-2
1604060824.8594,-4
1604060824.8613,-4
1604060824.8632,0
1604060824.8652,2
1604060824.8672,2
1604060824.8692,4
1604060824.8713,2
1604060824.8732,0
1604060824.8752,0
1604060824.8772,2
1604060824.8792,7
1604060824.8813,4
1604060825.3077,4
1604060825.3085,7
1604060825.3111,9
1604060825.3136,7
1604060825.3156,7
1604060825.3176,9
1604060825.3197,7
1604060825.3216,-2
1604060825.3236,-9
1604060825.3256,-7
1604060825.3276,-7
1604060825.3296,-12
1604060825.3316,-12
1604060825.3335,-9
1604060825.3356,-9
1604060825.3376,-9
1604060825.3396,-4
1604060825.3416,-2
1604060825.3436,-4
1604060825.3455,-7
1604060825.3475,-12
1604060825.3495,-7
1604060825.3515,-4
1604060825.3535,-7
1604060825.3555,-7
1604060825.3575,-4
1604060825.3595,-4
1604060825.3616,-4
1604060825.3635,-2
1604060825.3656,2
1604060825.3676,0
1604060825.3695,2
1604060825.3715,7
1604060825.3735,7
1604060825.3755,14
1604060825.3775,31
1604060825.3795,51
1604060825.3816,63
1604060825.3835,56
1604060825.3857,29
1604060825.3876,12
1604060825.3895,12
1604060825.3915,7
1604060825.3935,0
1604060825.3955,4
1604060825.3976,4
1604060825.3995,-7
1604060825.4015,-9
1604060825.4035,-4
1604060825.4055,-2
1604060825.4075,-2
1604060825.4095,2
1604060825.4115,7
1604060825.4135,24
1604060825.4155,80
1604060825.4175,197
1604060825.4195,304
1604060825.4215,324
1604060825.4235,126
1604060825.4256,-319
1604060825.4276,-528
1604060825.4296,-297
1604060825.4316,-95
1604060825.4335,-38
1604060825.4355,41
1604060825.4375,68
1604060825.4396,38
1604060825.4416,43
1604060825.4435,56
1604060825.4456,48
1604060825.4476,51
1604060825.4496,56
1604060825.4515,53
1604060825.8476,53
1604060825.8482,56
1604060825.8506,56
1604060825.8532,56
1604060825.8552,58
1604060825.8572,63
1604060825.8592,68
1604060825.8613,73
1604060825.8633,70
1604060825.8652,63
1604060825.8672,68
1604060825.8692,80
1604060825.8713,85
1604060825.8732,90
1604060825.8752,104
1604060825.8772,116
1604060825.8792,124
1604060825.8814,131
1604060825.8833,138
1604060825.8852,143
1604060825.8872,153
1604060825.8892,158
1604060825.8913,151
1604060825.8932,136
1604060825.8952,109
1604060825.8972,77
1604060825.8992,53
1604060825.9012,29
1604060825.9032,2
1604060825.9052,-12
1604060825.9072,-17
1604060825.9092,-21
1604060825.9112,-24
1604060825.9132,-21
1604060825.9152,-14
1604060825.9172,-9
1604060825.9192,-7
1604060825.9212,-2
1604060825.9232,-2
1604060825.9252,-4
1604060825.9272,-4
1604060825.9292,0
1604060825.9313,0
1604060825.9332,-2
1604060825.9352,0
1604060825.9372,0
1604060825.9392,0
1604060825.9412,-4
1604060825.9432,-7
1604060825.9452,-2
1604060825.9472,2
1604060825.9492,-2
1604060825.9512,-4
1604060825.9532,-4
1604060825.9552,-4
1604060825.9572,-4
1604060825.9592,-2
1604060825.9612,-2
1604060825.9632,-2
1604060825.9652,-7
1604060825.9672,-9
1604060825.9692,-12
1604060825.9712,-9
1604060825.9732,-7
1604060825.9752,-2
1604060825.9772,-2
1604060825.9792,-9
1604060825.9812,-12
1604060825.9833,-9
1604060825.9852,-7
1604060825.9872,-7
1604060825.9892,-9
1604060825.9913,-12
1604060826.4176,-12
1604060826.4184,-14
1604060826.4208,-14
1604060826.4235,-7
1604060826.4255,-4
1604060826.4275,-14
1604060826.4295,-24
1604060826.4316,-21
1604060826.4334,-19
1604060826.4354,-19
1604060826.4374,-17
1604060826.4394,-14
1604060826.4414,-12
1604060826.4434,-12
1604060826.4455,-9
1604060826.4475,-9
1604060826.4494,-4
1604060826.4514,-2
1604060826.4534,-2
1604060826.4555,-4
1604060826.4574,0
1604060826.4594,2
1604060826.4615,4
1604060826.4634,4
1604060826.4654,2
1604060826.4674,0
1604060826.4694,-2
1604060826.4715,4
1604060826.4734,7
1604060826.4754,14
1604060826.4774,29
1604060826.4794,46
1604060826.4814,56
1604060826.4834,46
1604060826.4854,17
1604060826.4874,4
1604060826.4894,7
1604060826.4914,2
1604060826.4934,-4
1604060826.4954,-7
1604060826.4974,-2
1604060826.4994,2
1604060826.5014,2
1604060826.5034,0
1604060826.5054,2
1604060826.5074,7
1604060826.5096,9
1604060826.5115,21
1604060826.5134,70
1604060826.5154,177
1604060826.5174,299
1604060826.5194,350
1604060826.5214,194
1604060826.5234,-248
1604060826.5254,-521
1604060826.5274,-321
1604060826.5294,-107
1604060826.5314,-56
1604060826.5334,24
1604060826.5354,65
1604060826.5374,34
1604060826.5394,36
1604060826.5414,56
1604060826.5434,53
1604060826.5454,46
1604060826.5474,51
1604060826.5494,51
1604060826.5514,53
1604060826.5534,56
1604060826.5554,56
1604060826.5574,58
1604060826.5594,60
1604060826.5615,60
1604060826.9577,65
1604060826.9584,73
1604060826.9609,77
1604060826.9635,77
1604060826.9654,80
1604060826.9674,90
1604060826.9695,92
1604060826.9715,85
1604060826.9734,87
1604060826.9754,102
1604060826.9774,112
1604060826.9794,119
1604060826.9814,124
1604060826.9834,131
1604060826.9854,136
1604060826.9874,138
1604060826.9894,134
1604060826.9914,124
1604060826.9934,112
1604060826.9954,87
1604060826.9973,56
1604060826.9994,31
1604060827.0014,9
1604060827.0034,-12
1604060827.0056,-26
1604060827.0074,-26
1604060827.0094,-26
1604060827.0114,-26
1604060827.0133,-17
1604060827.0154,-7
1604060827.0174,-4
1604060827.0194,-2
1604060827.0214,2
1604060827.0234,4
1604060827.0254,2
1604060827.0274,4
1604060827.0294,7
1604060827.0314,7
1604060827.0334,4
1604060827.0353,2
1604060827.0373,0
1604060827.0394,0
1604060827.0414,0
1604060827.0433,-2
1604060827.0453,-2
1604060827.0474,-4
1604060827.0493,-7
1604060827.0514,-9
1604060827.0534,-9
1604060827.0553,-12
1604060827.0573,-12
1604060827.0593,-9
1604060827.0614,-7
1604060827.0634,-4
1604060827.0654,-4
1604060827.0673,-7
1604060827.0693,-4
1604060827.0714,-4
1604060827.0734,-7
1604060827.0754,-7
1604060827.0773,-2
1604060827.0793,-4
1604060827.0814,-7
1604060827.0834,-4
1604060827.0853,-4
1604060827.0874,-7
1604060827.0894,-7
1604060827.0914,-2
1604060827.0934,0
1604060827.0954,-9
1604060827.0974,-14
1604060827.0994,-12
1604060827.1014,-7
1604060827.5877,-7
1604060827.5891,-7
1604060827.5917,-9
1604060827.5941,-19
1604060827.5961,-29
1604060827.5981,-26
1604060827.6002,-14
1604060827.6021,-19
1604060827.6041,-24
1604060827.6061,-19
1604060827.6081,-19
1604060827.6101,-21
1604060827.6121,-17
1604060827.6141,-14
1604060827.6161,-9
1604060827.6181,-2
1604060827.6201,9
1604060827.6221,31
1604060827.6241,46
1604060827.6261,29
1604060827.6281,2
1604060827.6301,-2
1604060827.6321,-2
1604060827.6341,-7
1604060827.6361,-12
1604060827.6380,-12
1604060827.6401,-14
1604060827.6421,-9
1604060827.6440,-2
1604060827.6461,-2
1604060827.6481,0
1604060827.6501,4
1604060827.6521,14
1604060827.6540,43
1604060827.6561,141
1604060827.6581,297
1604060827.6601,411
1604060827.6621,331
1604060827.6641,-87
1604060827.6661,-482
1604060827.6680,-392
1604060827.6700,-165
1604060827.6720,-114
1604060827.6740,-29
1604060827.6761,56
1604060827.6780,31
1604060827.6800,17
1604060827.6820,46
1604060827.6840,46
1604060827.6860,36
1604060827.6880,41
1604060827.6900,46
1604060827.6920,43
1604060827.6942,46
1604060827.6961,48
1604060827.6980,48
1604060827.7000,48
1604060827.7020,53
1604060827.7040,56
1604060827.7060,53
1604060827.7080,56
1604060827.7100,68
1604060827.7120,73
1604060827.7140,68
1604060827.7160,70
1604060827.7181,80
1604060827.7200,87
1604060827.7220,95
1604060827.7240,99
1604060827.7260,104
1604060827.7280,109
1604060827.7300,107
1604060827.7320,104
1604060828.1276,107
1604060828.1282,109
1604060828.1307,109
1604060828.1333,102
1604060828.1353,77
1604060828.1373,53
1604060828.1393,29
1604060828.1413,9
1604060828.1432,-9
1604060828.1452,-24
1604060828.1472,-26
1604060828.1492,-21
1604060828.1512,-24
1604060828.1532,-29
1604060828.1552,-29
1604060828.1572,-19
1604060828.1592,-17
1604060828.1612,-19
1604060828.1632,-17
1604060828.1652,-14
1604060828.1672,-14
1604060828.1692,-17
1604060828.1713,-17
1604060828.1732,-12
1604060828.1755,-12
1604060828.1787,-14
1604060828.1810,-17
1604060828.1829,-12
1604060828.1852,-12
1604060828.1872,-14
1604060828.1891,-17
1604060828.1914,-19
1604060828.1932,-19
1604060828.1953,-17
1604060828.1971,-19
1604060828.1993,-19
1604060828.2011,-17
1604060828.2032,-14
1604060828.2051,-17
1604060828.2073,-17
1604060828.2091,-14
1604060828.2112,-7
1604060828.2132,-7
1604060828.2152,-9
1604060828.2172,-9
1604060828.2177,-7
1604060828.2192,-9
1604060828.2212,-9
1604060828.2232,-7
1604060828.2252,-7
1604060828.2271,-4
1604060828.2292,-2
1604060828.2312,0
1604060828.2332,0
1604060828.2351,0
1604060828.2372,-2
1604060828.2391,-4
1604060828.2412,-7
1604060828.2431,-7
1604060828.2452,-7
1604060828.2472,-7
1604060828.2477,-7
1604060828.2492,-12
1604060828.2512,-9
1604060828.2532,0
1604060828.2552,7
1604060828.2571,21
1604060828.2592,38
1604060828.2612,34
1604060828.2632,14
1604060828.2652,-7
1604060828.2671,-14
1604060828.2692,-14
1604060828.6675,-19
1604060828.6682,-26
1604060828.6693,-34
1604060828.6700,-31
1604060828.6714,-26
1604060828.6732,-26
1604060828.6753,-26
1604060828.6772,-24
1604060828.6793,-17
1604060828.6815,-7
1604060828.6833,26
1604060828.6853,121
1604060828.6873,255
1604060828.6893,331
1604060828.6913,219
1604060828.6932,-197
1604060828.6952,-550
1604060828.6972,-419
1604060828.6993,-173
1604060828.6999,-104
1604060828.7013,-24
1604060828.7032,36
1604060828.7053,9
1604060828.7073,4
1604060828.7092,26
1604060828.7113,21
1604060828.7132,14
1604060828.7152,24
1604060828.7172,31
1604060828.7192,26
1604060828.7212,26
1604060828.7232,31
1604060828.7253,36
1604060828.7272,41
1604060828.7292,41
1604060828.7298,46
1604060828.7313,51
1604060828.7333,58
1604060828.7352,63
1604060828.7372,68
1604060828.7392,75
1604060828.7413,80
1604060828.7432,85
1604060828.7452,95
1604060828.7472,107
1604060828.7492,116
1604060828.7513,121
1604060828.7532,134
1604060828.7552,138
1604060828.7573,136
1604060828.7592,136
1604060828.7599,141
1604060828.7613,131
1604060828.7633,102
1604060828.7652,70
1604060828.7672,41
1604060828.7692,17
1604060828.7713,-2
1604060828.7733,-14
1604060828.7752,-19
1604060828.7774,-29
1604060828.7792,-31
1604060828.7813,-26
1604060828.7833,-21
1604060828.7852,-17
1604060828.7872,-12
1604060828.7893,-9
1604060828.7898,-9
1604060828.7913,-14
1604060828.7933,-12
1604060828.7952,-9
1604060828.7972,-4
1604060828.7993,0
1604060829.2078,-2
1604060829.2086,-4
1604060829.2111,-4
1604060829.2137,-4
1604060829.2157,-7
1604060829.2177,-7
1604060829.2198,-9
1604060829.2217,-17
1604060829.2223,-26
1604060829.2237,-29
1604060829.2256,-24
1604060829.2276,-19
1604060829.2297,-21
1604060829.2317,-21
1604060829.2337,-19
1604060829.2356,-21
1604060829.2376,-21
1604060829.2397,-19
1604060829.2417,-17
1604060829.2436,-14
1604060829.2456,-14
1604060829.2476,-14
1604060829.2496,-12
1604060829.2516,-12
1604060829.2523,-9
1604060829.2536,-4
1604060829.2557,-2
1604060829.2576,-4
1604060829.2596,-4
1604060829.2617,-2
1604060829.2638,-4
1604060829.2657,-4
1604060829.2678,-2
1604060829.2697,0
1604060829.2717,0
1604060829.2736,-2
1604060829.2756,0
1604060829.2776,4
1604060829.2799,7
1604060829.2817,12
1604060829.2822,24
1604060829.2836,41
1604060829.2857,56
1604060829.2876,51
1604060829.2896,21
1604060829.2916,-2
1604060829.2936,0
1604060829.2956,4
1604060829.2976,-4
1604060829.2997,-7
1604060829.3017,-2
1604060829.3036,-4
1604060829.3056,-4
1604060829.3076,-4
1604060829.3096,-7
1604060829.3116,-4
1604060829.3123,2
1604060829.3137,12
1604060829.3157,48
1604060829.3176,141
1604060829.3196,265
1604060829.3216,333
1604060829.3236,224
1604060829.3257,-173
1604060829.3277,-528
1604060829.3296,-419
1604060829.3317,-173
1604060829.3336,-95
1604060829.3356,-17
1604060829.3376,43
1604060829.3396,21
1604060829.3417,14
1604060829.3423,29
1604060829.7775,29
1604060829.7783,21
1604060829.7808,26
1604060829.7833,26
1604060829.7853,21
1604060829.7874,14
1604060829.7895,12
1604060829.7914,17
1604060829.7933,24
1604060829.7953,31
1604060829.7973,34
1604060829.7993,36
1604060829.8000,38
1604060829.8013,46
1604060829.8033,56
1604060829.8053,60
1604060829.8075,65
1604060829.8093,73
1604060829.8113,87
1604060829.8133,102
1604060829.8153,109
1604060829.8173,114
1604060829.8193,121
1604060829.8213,126
1604060829.8233,129
1604060829.8253,134
1604060829.8274,134
1604060829.8293,121
1604060829.8314,102
1604060829.8333,75
1604060829.8353,48
1604060829.8373,19
1604060829.8393,-2
1604060829.8414,-17
1604060829.8433,-29
1604060829.8453,-36
1604060829.8473,-41
1604060829.8493,-38
1604060829.8513,-29
1604060829.8533,-19
1604060829.8553,-14
1604060829.8573,-12
1604060829.8593,-9
1604060829.8613,-4
1604060829.8633,-4
1604060829.8653,-4
1604060829.8673,-4
1604060829.8693,-7
1604060829.8713,-2
1604060829.8733,2
1604060829.8753,0
1604060829.8773,-9
1604060829.8793,-17
1604060829.8813,-17
1604060829.8833,-14
1604060829.8853,-17
1604060829.8873,-19
1604060829.8893,-19
1604060829.8913,-17
1604060829.8933,-12
1604060829.8953,-9
1604060829.8973,-9
1604060829.8993,-9
1604060829.9013,-9
1604060829.9033,-9
1604060829.9053,-9
1604060829.9073,-9
1604060829.9094,-12
1604060829.9114,-12
1604060829.9133,-7
1604060829.9153,-4
1604060829.9173,-7
1604060829.9193,-7
1604060830.3175,-4
1604060830.3181,-2
1604060830.3193,-2
1604060830.3214,-4
1604060830.3233,-4
1604060830.3253,-2
1604060830.3273,-9
1604060830.3293,-19
1604060830.3313,-17
1604060830.3333,-12
1604060830.3353,-12
1604060830.3373,-9
1604060830.3393,-7
1604060830.3413,-7
1604060830.3433,-4
1604060830.3453,2
1604060830.3473,12
1604060830.3493,31
1604060830.3513,51
1604060830.3533,51
1604060830.3553,26
1604060830.3573,0
1604060830.3593,-2
1604060830.3613,4
1604060830.3633,0
1604060830.3653,-4
1604060830.3673,-4
1604060830.3693,-4
1604060830.3713,-9
1604060830.3732,-7
1604060830.3752,-4
1604060830.3772,-4
1604060830.3793,0
1604060830.3813,9
1604060830.3832,34
1604060830.3853,112
1604060830.3872,243
1604060830.3892,338
1604060830.3913,294
1604060830.3932,-24
1604060830.3952,-446
1604060830.3973,-467
1604060830.3992,-214
1604060830.4013,-97
1604060830.4033,-36
1604060830.4054,38
1604060830.4074,36
1604060830.4094,19
1604060830.4113,34
1604060830.4133,34
1604060830.4152,24
1604060830.4172,29
1604060830.4193,34
1604060830.4213,31
1604060830.4232,38
1604060830.4252,41
1604060830.4272,41
1604060830.4292,38
1604060830.4313,36
1604060830.4332,36
1604060830.4352,38
1604060830.4372,38
1604060830.4392,41
1604060830.4413,53
1604060830.4432,58
1604060830.4452,58
1604060830.4472,68
1604060830.4492,80
1604060830.4513,87
1604060830.4534,92
1604060830.4553,102
1604060830.4572,109
1604060830.4592,112
1604060830.9476,114
1604060830.9484,124
1604060830.9510,126
1604060830.9535,112
1604060830.9555,87
1604060830.9576,63
1604060830.9596,43
1604060830.9616,17
1604060830.9635,-12
1604060830.9655,-26
1604060830.9675,-36
1604060830.9695,-43
1604060830.9716,-41
1604060830.9735,-36
1604060830.9755,-34
1604060830.9775,-29
1604060830.9795,-19
1604060830.9815,-17
1604060830.9835,-19
1604060830.9855,-17
1604060830.9875,-12
1604060830.9895,-14
1604060830.9915,-14
1604060830.9937,-14
1604060830.9955,-12
1604060830.9974,-4
1604060830.9994,-4
1604060831.0014,-9
1604060831.0034,-12
1604060831.0054,-7
1604060831.0075,-9
1604060831.0094,-12
1604060831.0115,-12
1604060831.0134,-12
1604060831.0154,-14
1604060831.0174,-12
1604060831.0194,-14
1604060831.0215,-21
1604060831.0234,-21
1604060831.0255,-21
1604060831.0274,-17
1604060831.0294,-14
1604060831.0314,-14
1604060831.0334,-14
1604060831.0354,-9
1604060831.0374,-7
1604060831.0394,-9
1604060831.0414,-9
1604060831.0434,-4
1604060831.0454,-9
1604060831.0474,-14
1604060831.0494,-14
1604060831.0514,-7
1604060831.0534,-7
1604060831.0554,-9
1604060831.0574,-4
1604060831.0594,0
1604060831.0615,-2
1604060831.0635,-4
1604060831.0654,-2
1604060831.0674,-2
1604060831.0694,-2
1604060831.0715,-2
1604060831.0734,0
1604060831.0754,9
1604060831.0774,31
1604060831.0794,51
1604060831.0815,60
1604060831.0834,51
1604060831.0854,21
1604060831.0874,2
1604060831.0894,7
1604060831.0914,7
1604060831.4875,-2
1604060831.4884,-2
1604060831.4906,0
1604060831.4933,0
1604060831.4952,0
1604060831.4972,2
1604060831.4992,7
1604060831.5013,7
1604060831.5032,4
1604060831.5052,12
1604060831.5072,56
1604060831.5092,170
1604060831.5112,307
1604060831.5132,363
1604060831.5152,204
1604060831.5172,-219
1604060831.5192,-511
1604060831.5212,-365
1604060831.5232,-163
1604060831.5253,-97
1604060831.5272,-17
1604060831.5293,7
1604060831.5312,-21
1604060831.5332,2
1604060831.5352,82
1604060831.5372,148
1604060831.5392,90
1604060831.5411,-17
1604060831.5431,-38
1604060831.5451,-46
1604060831.5472,-56
1604060831.5491,48
1604060831.5511,180
1604060831.5531,251
1604060831.5552,363
1604060831.5571,319
1604060831.5592,36
1604060831.5612,-46
1604060831.5632,51
1604060831.5652,7
1604060831.5672,-29
1604060831.5691,58
1604060831.5711,85
1604060831.5731,38
1604060831.5751,34
1604060831.5771,97
1604060831.5792,187
1604060831.5812,209
1604060831.5832,182
1604060831.5851,141
1604060831.5872,48
1604060831.5892,-9
1604060831.5913,26
1604060831.5932,41
1604060831.5952,-19
1604060831.5971,-38
1604060831.5991,2
1604060831.6011,-14
1604060831.6031,-75
1604060831.6052,-85
1604060831.6071,-46
1604060831.6091,9
1604060831.6112,56
1604060831.6131,-26
1604060831.6151,-97
1604060831.6171,85
1604060831.6192,173
1604060831.6212,-65
1604060831.6231,-131
1604060831.6251,65
1604060831.6271,65
1604060831.6291,-36
1604060831.6312,19
1604060832.0275,65
1604060832.0281,-9
1604060832.0306,-56
1604060832.0332,-21
1604060832.0352,-12
1604060832.0372,-19
1604060832.0392,0
1604060832.0412,12
1604060832.0431,36
1604060832.0451,60
1604060832.0471,58
1604060832.0491,95
1604060832.0511,180
1604060832.0531,158
1604060832.0551,41
1604060832.0571,121
1604060832.0591,321
1604060832.0612,248
1604060832.0631,170
1604060832.0651,307
1604060832.0671,333
1604060832.0691,241
1604060832.0712,209
1604060832.0732,216
1604060832.0751,197
1604060832.0771,197
1604060832.0791,224
1604060832.0812,199
1604060832.0831,138
1604060832.0851,138
1604060832.0873,168
1604060832.0892,56
1604060832.0912,-43
1604060832.0931,24
1604060832.0951,7
1604060832.0971,-65
1604060832.0991,-60
1604060832.1011,-77
1604060832.1031,-73
1604060832.1051,-75
1604060832.1071,-104
1604060832.1091,-77
1604060832.1112,-7
1604060832.1131,63
1604060832.1151,87
1604060832.1171,-63
1604060832.1191,-448
1604060832.1211,-706
1604060832.1231,-604
1604060832.1251,-433
1604060832.1271,-350
1604060832.1291,-302
1604060832.1311,-233
1604060832.1331,-165
1604060832.1351,-251
1604060832.1371,-302
1604060832.1391,-68
1604060832.1411,80
1604060832.1431,-26
1604060832.1451,43
1604060832.1471,148
1604060832.1491,-51
1604060832.1512,-112
1604060832.1531,82
1604060832.1551,4
1604060832.1571,-204
1604060832.1591,-158
1604060832.1611,-95
1604060832.1631,-148
1604060832.1651,-134
1604060832.1671,-73
1604060832.1691,-56
1604060832.1711,-21
1604060832.5976,31
1604060832.5984,29
1604060832.6009,53
1604060832.6035,112
1604060832.6055,82
1604060832.6075,121
1604060832.6095,277
1604060832.6115,282
1604060832.6137,190
1604060832.6155,173
1604060832.6175,177
1604060832.6195,173
1604060832.6215,141
1604060832.6234,151
1604060832.6255,116
1604060832.6275,-60
1604060832.6294,-107
1604060832.6315,-12
1604060832.6335,-29
1604060832.6355,-68
1604060832.6374,4
1604060832.6394,63
1604060832.6415,92
1604060832.6434,177
1604060832.6454,177
1604060832.6474,68
1604060832.6494,102
1604060832.6515,214
1604060832.6534,173
1604060832.6555,92
1604060832.6574,109
1604060832.6594,143
1604060832.6615,160
1604060832.6634,163
1604060832.6654,155
1604060832.6674,226
1604060832.6694,241
1604060832.6714,107
1604060832.6734,48
1604060832.6754,155
1604060832.6774,248
1604060832.6794,177
1604060832.6814,77
1604060832.6834,2
1604060832.6854,-48
1604060832.6874,21
1604060832.6894,87
1604060832.6914,70
1604060832.6934,68
1604060832.6954,90
1604060832.6974,90
1604060832.6994,136
1604060832.7014,182
1604060832.7034,82
1604060832.7054,17
1604060832.7075,151
1604060832.7094,236
1604060832.7114,136
1604060832.7134,90
1604060832.7155,187
1604060832.7175,202
1604060832.7194,131
1604060832.7214,194
1604060832.7234,302
1604060832.7254,368
1604060832.7274,475
1604060832.7294,533
1604060832.7314,414
1604060832.7334,46
1604060832.7354,-209
1604060832.7374,-109
1604060832.7394,-51
1604060832.7414,-116
1604060833.1677,2
1604060833.1685,180
1604060833.1709,134
1604060833.1736,73
1604060833.1756,129
1604060833.1776,131
1604060833.1797,114
1604060833.1816,204
1604060833.1837,190
1604060833.1855,-48
1604060833.1876,-43
1604060833.1895,182
1604060833.1915,129
1604060833.1935,46
1604060833.1955,107
1604060833.1975,56
1604060833.1995,12
1604060833.2016,121
1604060833.2035,141
1604060833.2055,31
1604060833.2075,99
1604060833.2095,248
1604060833.2115,255
1604060833.2135,185
1604060833.2155,134
1604060833.2175,214
1604060833.2195,253
1604060833.2215,126
1604060833.2235,134
1604060833.2255,246
1604060833.2275,163
1604060833.2295,21
1604060833.2315,102
1604060833.2335,192
1604060833.2355,112
1604060833.2375,77
1604060833.2395,92
1604060833.2417,41
1604060833.2435,17
1604060833.2455,68
1604060833.2475,95
1604060833.2495,34
1604060833.2515,-17
1604060833.2535,9
1604060833.2555,60
1604060833.2575,24
1604060833.2595,-7
1604060833.2615,53
1604060833.2635,0
1604060833.2655,-53
1604060833.2675,56
1604060833.2694,17
1604060833.2715,-90
1604060833.2735,-2
1604060833.2755,73
1604060833.2775,82
1604060833.2795,136
1604060833.2815,151
1604060833.2835,116
1604060833.2855,124
1604060833.2875,202
1604060833.2895,168
1604060833.2915,-12
1604060833.2935,46
1604060833.2955,226
1604060833.2975,124
1604060833.2995,29
1604060833.3015,121
1604060833.3035,104
1604060833.3055,41
1604060833.3075,95
1604060833.3095,119
1604060833.3115,99
1604060833.7082,109
1604060833.7088,92
1604060833.7106,90
1604060833.7126,148
1604060833.7146,107
1604060833.7167,60
1604060833.7186,236
1604060833.7206,397
1604060833.7225,375
1604060833.7245,258
1604060833.7265,-75
1604060833.7285,-407
1604060833.7306,-353
1604060833.7325,-114
1604060833.7345,-9
1604060833.7367,17
1604060833.7386,56
1604060833.7406,65
1604060833.7426,109
1604060833.7446,163
1604060833.7465,85
1604060833.7485,7
1604060833.7505,73
1604060833.7525,95
1604060833.7545,36
1604060833.7565,63
1604060833.7585,116
1604060833.7606,87
1604060833.7625,95
1604060833.7645,138
1604060833.7665,116
1604060833.7685,85
1604060833.7705,114
1604060833.7725,153
1604060833.7745,134
1604060833.7765,85
1604060833.7785,90
1604060833.7805,153
1604060833.7825,187
1604060833.7845,168
1604060833.7865,190
1604060833.7885,224
1604060833.7905,197
1604060833.7925,221
1604060833.7945,265
1604060833.7965,258
1604060833.7985,263
1604060833.8005,207
1604060833.8025,119
1604060833.8045,136
1604060833.8065,136
1604060833.8085,102
1604060833.8105,116
1604060833.8125,60
1604060833.8145,-17
1604060833.8165,34
1604060833.8185,68
1604060833.8205,26
1604060833.8225,43
1604060833.8245,85
1604060833.8265,80
1604060833.8285,60
1604060833.8305,48
1604060833.8325,51
1604060833.8345,70
1604060833.8365,85
1604060833.8387,51
1604060833.8406,4
1604060833.8425,21
1604060833.8445,70
1604060833.8465,102
1604060833.8485,109
1604060833.8505,41
1604060834.2777,-43
1604060834.2786,-26
1604060834.2811,17
1604060834.2837,2
1604060834.2857,-19
1604060834.2878,-48
1604060834.2898,-70
1604060834.2917,-41
1604060834.2936,-17
1604060834.2957,-46
1604060834.2977,-102
1604060834.2997,-121
1604060834.3017,-95
1604060834.3037,-60
1604060834.3056,-56
1604060834.3076,-48
1604060834.3096,68
1604060834.3116,255
1604060834.3136,287
1604060834.3156,41
1604060834.3176,-350
1604060834.3197,-460
1604060834.3216,-212
1604060834.3236,-48
1604060834.3256,21
1604060834.3277,109
1604060834.3297,70
1604060834.3317,68
1604060834.3337,168
1604060834.3356,158
1604060834.3376,92
1604060834.3396,87
1604060834.3417,80
1604060834.3436,56
1604060834.3456,48
1604060834.3476,41
1604060834.3496,24
1604060834.3516,0
1604060834.3536,-29
1604060834.3556,-21
1604060834.3576,-4
1604060834.3596,-46
1604060834.3616,-102
1604060834.3636,-92
1604060834.3658,-58
1604060834.3676,-34
1604060834.3696,-14
1604060834.3716,4
1604060834.3736,12
1604060834.3756,-17
1604060834.3777,-17
1604060834.3797,46
1604060834.3817,80
1604060834.3836,48
1604060834.3856,29
1604060834.3876,58
1604060834.3896,90
1604060834.3916,80
1604060834.3936,51
1604060834.3956,17
1604060834.3976,-9
1604060834.3996,12
1604060834.4016,36
1604060834.4036,24
1604060834.4056,41
1604060834.4076,85
1604060834.4096,92
1604060834.4116,109
1604060834.4136,129
1604060834.4156,95
1604060834.4176,85
1604060834.4197,114
1604060834.4216,102
1604060834.8474,99
1604060834.8481,131
1604060834.8506,143
1604060834.8531,141
1604060834.8552,148
1604060834.8572,141
1604060834.8592,124
1604060834.8612,121
1604060834.8631,112
1604060834.8638,85
1604060834.8651,82
1604060834.8671,109
1604060834.8691,107
1604060834.8711,82
1604060834.8731,95
1604060834.8751,109
1604060834.8771,87
1604060834.8791,75
1604060834.8811,90
1604060834.8831,92
1604060834.8851,85
1604060834.8871,80
1604060834.8893,90
1604060834.8911,170
1604060834.8931,326
1604060834.8937,438
1604060834.8951,353
1604060834.8971,-14
1604060834.8992,-385
1604060834.9011,-343
1604060834.9031,-112
1604060834.9051,-9
1604060834.9071,75
1604060834.9091,151
1604060834.9111,136
1604060834.9131,114
1604060834.9151,126
1604060834.9171,121
1604060834.9191,126
1604060834.9211,141
1604060834.9231,134
1604060834.9238,136
1604060834.9251,143
1604060834.9271,129
1604060834.9291,124
1604060834.9312,138
1604060834.9331,141
1604060834.9352,131
1604060834.9371,126
1604060834.9391,129
1604060834.9411,134
1604060834.9431,131
1604060834.9451,131
1604060834.9471,143
1604060834.9491,151
1604060834.9511,141
1604060834.9531,134
1604060834.9538,153
1604060834.9551,180
1604060834.9571,177
1604060834.9591,170
1604060834.9611,168
1604060834.9631,160
1604060834.9651,151
1604060834.9671,131
1604060834.9690,95
1604060834.9711,58
1604060834.9731,26
1604060834.9751,-2
1604060834.9771,-4
1604060834.9791,4
1604060834.9811,7
1604060834.9830,24
1604060835.3878,21
1604060835.3887,0
1604060835.3910,14
1604060835.3937,29
1604060835.3958,19
1604060835.3977,38
1604060835.3999,65
1604060835.4017,29
1604060835.4037,0
1604060835.4057,51
1604060835.4077,95
1604060835.4097,116
1604060835.4117,175
1604060835.4137,173
1604060835.4156,97
1604060835.4163,56
1604060835.4176,48
1604060835.4197,34
1604060835.4217,17
1604060835.4236,12
1604060835.4256,-9
1604060835.4276,-48
1604060835.4296,-58
1604060835.4317,-51
1604060835.4336,-60
1604060835.4356,-70
1604060835.4376,-73
1604060835.4397,-90
1604060835.4416,-77
1604060835.4437,24
1604060835.4456,185
1604060835.4463,270
1604060835.4477,163
1604060835.4496,-219
1604060835.4516,-597
1604060835.4536,-524
1604060835.4556,-238
1604060835.4576,-136
1604060835.4596,-87
1604060835.4617,63
1604060835.4636,136
1604060835.4656,-9
1604060835.4676,-99
1604060835.4696,-17
1604060835.4716,-14
1604060835.4737,-43
1604060835.4757,-24
1604060835.4763,-63
1604060835.4776,-68
1604060835.4796,-7
1604060835.4816,-9
1604060835.4838,-26
1604060835.4857,-14
1604060835.4877,-12
1604060835.4896,-9
1604060835.4917,-12
1604060835.4936,-21
1604060835.4956,-17
1604060835.4976,19
1604060835.4996,46
1604060835.5016,4
1604060835.5036,-60
1604060835.5056,-48
1604060835.5063,17
1604060835.5077,29
1604060835.5096,19
1604060835.5117,60
1604060835.5136,85
1604060835.5156,9
1604060835.5176,-41
1604060835.5196,0
1604060835.5217,14
1604060835.5237,-26
1604060835.9576,-73
1604060835.9584,-107
1604060835.9609,-90
1604060835.9635,-56
1604060835.9641,-77
1604060835.9655,-102
1604060835.9675,-90
1604060835.9696,-60
1604060835.9716,-41
1604060835.9734,-43
1604060835.9754,-56
1604060835.9774,-60
1604060835.9795,-41
1604060835.9814,-24
1604060835.9834,-4
1604060835.9854,24
1604060835.9875,21
1604060835.9895,-12
1604060835.9914,21
1604060835.9921,63
1604060835.9934,26
1604060835.9954,-7
1604060835.9974,4
1604060835.9994,9
1604060836.0014,14
1604060836.0034,17
1604060836.0054,-9
1604060836.0074,-19
1604060836.0094,4
1604060836.0116,0
1604060836.0135,-31
1604060836.0154,-43
1604060836.0174,-38
1604060836.0194,-19
1604060836.0215,9
1604060836.0221,53
1604060836.0234,173
1604060836.0254,292
1604060836.0274,204
1604060836.0294,-182
1604060836.0315,-526
1604060836.0335,-450
1604060836.0354,-233
1604060836.0374,-143
1604060836.0394,-77
1604060836.0414,-34
1604060836.0434,-26
1604060836.0454,-21
1604060836.0474,-29
1604060836.0494,-24
1604060836.0514,-12
1604060836.0521,-24
1604060836.0534,-34
1604060836.0554,-29
1604060836.0574,-36
1604060836.0594,-43
1604060836.0615,-51
1604060836.0634,-60
1604060836.0654,-48
1604060836.0674,-17
1604060836.0694,-7
1604060836.0698,-19
1604060836.0707,-7
1604060836.0724,12
1604060836.0745,12
1604060836.0764,41
1604060836.0784,85
1604060836.0790,90
1604060836.0804,92
1604060836.0824,104
1604060836.0844,116
1604060836.0864,131
1604060836.0884,124
1604060836.4976,112
1604060836.4984,119
1604060836.5008,124
1604060836.5035,112
1604060836.5055,85
1604060836.5074,41
1604060836.5095,-12
1604060836.5116,-31
1604060836.5134,-9
1604060836.5139,-2
1604060836.5154,-19
1604060836.5174,-7
1604060836.5194,19
1604060836.5214,21
1604060836.5234,24
1604060836.5254,31
1604060836.5274,48
1604060836.5294,53
1604060836.5314,14
1604060836.5334,-7
1604060836.5354,19
1604060836.5374,48
1604060836.5394,60
1604060836.5414,65
1604060836.5434,53
1604060836.5440,53
1604060836.5454,80
1604060836.5474,85
1604060836.5494,68
1604060836.5514,46
1604060836.5533,26
1604060836.5553,31
1604060836.5574,46
1604060836.5593,31
1604060836.5614,14
1604060836.5634,26
1604060836.5653,31
1604060836.5674,29
1604060836.5694,41
1604060836.5714,38
1604060836.5734,26
1604060836.5740,63
1604060836.5753,192
1604060836.5775,333
1604060836.5794,346
1604060836.5814,124
1604060836.5834,-285
1604060836.5854,-431
1604060836.5874,-214
1604060836.5893,-36
1604060836.5914,24
1604060836.5934,70
1604060836.5953,70
1604060836.5974,63
1604060836.5993,82
1604060836.6014,85
1604060836.6034,73
1604060836.6040,68
1604060836.6055,80
1604060836.6074,75
1604060836.6094,56
1604060836.6114,73
1604060836.6134,102
1604060836.6153,65
1604060836.6174,36
1604060836.6193,75
1604060836.6214,95
1604060836.6233,75
1604060836.6254,77
1604060836.6274,85
1604060836.6293,80
1604060836.6314,82
1604060836.6334,87
1604060837.0977,75
1604060837.0985,82
1604060837.1008,95
1604060837.1036,95
1604060837.1055,97
1604060837.1076,87
1604060837.1096,77
1604060837.1116,99
1604060837.1135,109
1604060837.1155,80
1604060837.1175,48
1604060837.1195,41
1604060837.1215,36
1604060837.1298,12
1604060837.1315,-7
1604060837.1335,-9
1604060837.1355,-12
1604060837.1375,-12
1604060837.1395,-9
1604060837.1416,-14
1604060837.1435,-17
1604060837.1455,-14
1604060837.1474,-29
1604060837.1495,-46
1604060837.1516,-31
1604060837.1535,-26
1604060837.1554,-46
1604060837.1575,-53
1604060837.1581,-53
1604060837.1594,-63
1604060837.1615,-75
1604060837.1634,-77
1604060837.1654,-73
1604060837.1674,-65
1604060837.1695,-48
1604060837.1715,-34
1604060837.1736,-51
1604060837.1755,-80
1604060837.1774,-80
1604060837.1794,-70
1604060837.1815,-70
1604060837.1835,-63
1604060837.1855,-43
1604060837.1874,-29
1604060837.1880,-12
1604060837.1895,7
1604060837.1915,24
1604060837.1935,31
1604060837.1954,60
1604060837.1974,121
1604060837.1994,204
1604060837.2014,341
1604060837.2035,470
1604060837.2055,389
1604060837.2075,-9
1604060837.2095,-343
1604060837.2115,-224
1604060837.2134,-12
1604060837.2154,34
1604060837.2174,112
1604060837.2181,182
1604060837.2195,160
1604060837.2215,143
1604060837.2235,158
1604060837.2254,151
1604060837.2274,141
1604060837.2295,143
1604060837.2315,143
1604060837.2335,143
1604060837.2354,151
1604060837.2375,148
1604060837.2394,143
1604060837.2415,148
1604060837.6676,153
1604060837.6684,148
1604060837.6709,148
1604060837.6720,143
1604060837.6735,136
1604060837.6755,131
1604060837.6775,131
1604060837.6796,134
1604060837.6814,136
1604060837.6835,124
1604060837.6855,104
1604060837.6875,102
1604060837.6895,112
1604060837.6915,109
1604060837.6937,104
1604060837.6955,102
1604060837.6975,97
1604060837.6994,90
1604060837.7015,77
1604060837.7020,65
1604060837.7035,43
1604060837.7054,14
1604060837.7075,-2
1604060837.7095,-7
1604060837.7115,-14
1604060837.7134,-17
1604060837.7154,-12
1604060837.7174,-9
1604060837.7194,-7
1604060837.7215,-7
1604060837.7234,-9
1604060837.7254,-4
1604060837.7274,-7
1604060837.7294,-9
1604060837.7315,0
1604060837.7321,2
1604060837.7334,-12
1604060837.7354,-14
1604060837.7374,-7
1604060837.7394,-4
1604060837.7415,2
1604060837.7434,24
1604060837.7454,31
1604060837.7474,17
1604060837.7494,0
1604060837.7514,-9
1604060837.7534,-14
1604060837.7555,-12
1604060837.7574,-9
1604060837.7594,-17
1604060837.7614,-17
1604060837.7620,-4
1604060837.7634,-12
1604060837.7655,-19
1604060837.7674,4
1604060837.7694,14
1604060837.7714,24
1604060837.7734,116
1604060837.7754,280
1604060837.7775,394
1604060837.7794,216
1604060837.7814,-265
1604060837.7834,-487
1604060837.7854,-268
1604060837.7874,-129
1604060837.7896,-107
1604060837.7914,14
1604060837.7920,75
1604060837.7934,31
1604060837.7954,38
1604060837.7974,73
1604060837.7994,56
1604060837.8014,41
1604060838.2076,53
1604060838.2084,60
1604060838.2109,60
1604060838.2124,63
1604060838.2144,63
1604060838.2164,63
1604060838.2184,68
1604060838.2205,80
1604060838.2211,90
1604060838.2224,73
1604060838.2244,58
1604060838.2264,68
1604060838.2284,73
1604060838.2305,70
1604060838.2325,75
1604060838.2344,82
1604060838.2364,80
1604060838.2384,85
1604060838.2404,90
1604060838.2424,80
1604060838.2444,73
1604060838.2464,87
1604060838.2484,95
1604060838.2505,85
1604060838.2510,85
1604060838.2524,75
1604060838.2544,46
1604060838.2564,19
1604060838.2584,0
1604060838.2605,-9
1604060838.2624,-12
1604060838.2644,-17
1604060838.2663,-21
1604060838.2684,-19
1604060838.2704,-12
1604060838.2724,-12
1604060838.2744,-19
1604060838.2764,-21
1604060838.2783,-24
1604060838.2804,-29
1604060838.2809,-26
1604060838.2823,-24
1604060838.2843,-34
1604060838.2865,-38
1604060838.2884,-31
1604060838.2904,-17
1604060838.2924,-7
1604060838.2944,-2
1604060838.2964,-9
1604060838.2983,-21
1604060838.3004,-34
1604060838.3024,-36
1604060838.3044,-31
1604060838.3064,-34
1604060838.3084,-34
1604060838.3104,-29
1604060838.3110,-29
1604060838.3124,-31
1604060838.3144,-26
1604060838.3164,-19
1604060838.3183,-14
1604060838.3204,12
1604060838.3223,124
1604060838.3243,316
1604060838.3263,443
1604060838.3284,224
1604060838.3304,-365
1604060838.3323,-633
1604060838.3344,-319
1604060838.3363,-107
1604060838.3383,-107
1604060838.3404,-9
1604060838.3409,46
1604060838.7776,-2
1604060838.7782,-2
1604060838.7807,26
1604060838.7833,19
1604060838.7853,17
1604060838.7873,31
1604060838.7894,34
1604060838.7913,26
1604060838.7933,21
1604060838.7953,19
1604060838.7973,24
1604060838.7993,29
1604060838.7999,31
1604060838.8013,34
1604060838.8033,41
1604060838.8053,46
1604060838.8072,53
1604060838.8092,63
1604060838.8113,70
1604060838.8133,75
1604060838.8153,82
1604060838.8174,85
1604060838.8193,75
1604060838.8213,77
1604060838.8233,87
1604060838.8253,85
1604060838.8273,80
1604060838.8293,77
1604060838.8298,60
1604060838.8313,34
1604060838.8332,12
1604060838.8352,-7
1604060838.8372,-26
1604060838.8392,-43
1604060838.8413,-53
1604060838.8432,-56
1604060838.8453,-51
1604060838.8472,-43
1604060838.8492,-36
1604060838.8512,-34
1604060838.8534,-34
1604060838.8554,-26
1604060838.8574,-24
1604060838.8593,-26
1604060838.8598,-31
1604060838.8614,-31
1604060838.8633,-29
1604060838.8652,-24
1604060838.8673,-19
1604060838.8693,-24
1604060838.8713,-29
1604060838.8732,-17
1604060838.8753,-4
1604060838.8773,0
1604060838.8792,-9
1604060838.8813,-24
1604060838.8832,-38
1604060838.8853,-38
1604060838.8872,-31
1604060838.8893,-21
1604060838.8899,-26
1604060838.8913,-36
1604060838.8932,-38
1604060838.8952,-34
1604060838.8973,-38
1604060838.8993,-46
1604060838.9012,-48
1604060838.9032,-21
1604060838.9052,114
1604060838.9072,321
1604060838.9092,414
1604060838.9112,165
1604060838.9134,-414
1604060839.3181,-655
1604060839.3190,-326
1604060839.3214,-104
1604060839.3225,-92
1604060839.3241,-12
1604060839.3261,2
1604060839.3281,-36
1604060839.3302,-2
1604060839.3321,19
1604060839.3340,2
1604060839.3360,14
1604060839.3380,34
1604060839.3401,29
1604060839.3421,26
1604060839.3440,43
1604060839.3460,56
1604060839.3480,60
1604060839.3500,70
1604060839.3520,77
1604060839.3526,80
1604060839.3541,90
1604060839.3560,102
1604060839.3580,104
1604060839.3600,97
1604060839.3620,97
1604060839.3640,104
1604060839.3660,104
1604060839.3680,112
1604060839.3700,121
1604060839.3720,104
1604060839.3740,90
1604060839.3760,95
1604060839.3780,92
1604060839.3800,80
1604060839.3820,60
1604060839.3826,34
1604060839.3839,4
1604060839.3860,-21
1604060839.3880,-34
1604060839.3900,-38
1604060839.3920,-51
1604060839.3940,-70
1604060839.3960,-68
1604060839.3980,-48
1604060839.3999,-51
1604060839.4020,-63
1604060839.4040,-56
1604060839.4060,-41
1604060839.4080,-29
1604060839.4100,-21
1604060839.4122,-19
1604060839.4126,-34
1604060839.4140,-43
1604060839.4159,-31
1604060839.4180,-26
1604060839.4200,-38
1604060839.4220,-41
1604060839.4240,-21
1604060839.4260,2
1604060839.4280,7
1604060839.4300,-7
1604060839.4320,-17
1604060839.4340,-14
1604060839.4360,-19
1604060839.4380,-26
1604060839.4400,-36
1604060839.4420,-26
1604060839.4426,-12
1604060839.4440,-9
1604060839.4460,-9
1604060839.4480,-4
1604060839.4500,7
1604060839.4520,9
1604060839.8577,12
1604060839.8585,65
1604060839.8609,221
1604060839.8635,402
1604060839.8656,455
1604060839.8675,136
1604060839.8681,-428
1604060839.8697,-528
1604060839.8715,-194
1604060839.8735,-63
1604060839.8755,-48
1604060839.8774,31
1604060839.8795,46
1604060839.8815,17
1604060839.8835,31
1604060839.8855,38
1604060839.8875,24
1604060839.8895,29
1604060839.8915,41
1604060839.8935,34
1604060839.8955,29
1604060839.8974,51
1604060839.8980,73
1604060839.8994,56
1604060839.9015,51
1604060839.9034,82
1604060839.9055,92
1604060839.9075,77
1604060839.9096,75
1604060839.9115,82
1604060839.9134,99
1604060839.9155,102
1604060839.9174,77
1604060839.9194,75
1604060839.9215,99
1604060839.9235,112
1604060839.9255,99
1604060839.9274,82
1604060839.9280,82
1604060839.9294,90
1604060839.9314,90
1604060839.9335,75
1604060839.9354,53
1604060839.9374,36
1604060839.9395,19
1604060839.9415,-9
1604060839.9434,-29
1604060839.9455,-31
1604060839.9475,-41
1604060839.9494,-41
1604060839.9514,-24
1604060839.9535,-31
1604060839.9554,-65
1604060839.9575,-75
1604060839.9580,-56
1604060839.9594,-65
1604060839.9615,-92
1604060839.9635,-77
1604060839.9654,-60
1604060839.9674,-70
1604060839.9695,-75
1604060839.9715,-82
1604060839.9735,-90
1604060839.9755,-80
1604060839.9774,-75
1604060839.9795,-73
1604060839.9815,-65
1604060839.9834,-63
1604060839.9855,-63
1604060839.9875,-58
1604060839.9880,-77
1604060839.9894,-104
1604060839.9915,-99
1604060840.4275,-77
1604060840.4283,-75
1604060840.4308,-95
1604060840.4334,-109
1604060840.4353,-99
1604060840.4374,-82
1604060840.4397,-75
1604060840.4413,-87
1604060840.4433,-90
1604060840.4453,-19
1604060840.4473,187
1604060840.4493,404
1604060840.4499,336
1604060840.4513,-168
1604060840.4533,-580
1604060840.4553,-397
1604060840.4573,-138
1604060840.4593,-143
1604060840.4614,-65
1604060840.4633,46
1604060840.4653,14
1604060840.4673,-9
1604060840.4693,19
1604060840.4713,14
1604060840.4733,7
1604060840.4753,19
1604060840.4773,14
1604060840.4793,-2
1604060840.4799,-7
1604060840.4813,-9
1604060840.4832,-14
1604060840.4852,-14
1604060840.4873,-19
1604060840.4893,-14
1604060840.4913,-2
1604060840.4932,-2
1604060840.4953,-14
1604060840.4972,7
1604060840.4993,51
1604060840.5013,65
1604060840.5032,56
1604060840.5053,63
1604060840.5072,75
1604060840.5092,60
1604060840.5098,48
1604060840.5114,48
1604060840.5132,48
1604060840.5153,70
1604060840.5173,95
1604060840.5193,65
1604060840.5213,34
1604060840.5233,26
1604060840.5252,7
1604060840.5273,-7
1604060840.5293,-7
1604060840.5313,-24
1604060840.5332,-36
1604060840.5354,-21
1604060840.5373,-21
1604060840.5393,-43
1604060840.5398,-34
1604060840.5412,-17
1604060840.5433,-24
1604060840.5452,-41
1604060840.5473,-51
1604060840.5493,-56
1604060840.5513,-46
1604060840.5533,-31
1604060840.5552,-36
1604060840.5572,-48
1604060840.5593,-46
1604060840.5613,-51
1604060840.5632,-51
1604060841.0275,-41
1604060841.0283,-43
1604060841.0308,-38
1604060841.0333,-19
1604060841.0353,-21
1604060841.0374,-38
1604060841.0394,-12
1604060841.0414,34
1604060841.0433,26
1604060841.0453,-4
1604060841.0473,-4
1604060841.0493,-14
1604060841.0513,-36
1604060841.0533,-17
1604060841.0553,12
1604060841.0573,4
1604060841.0579,-14
1604060841.0593,-24
1604060841.0614,-17
1604060841.0633,-12
1604060841.0653,-24
1604060841.0673,9
1604060841.0693,155
1604060841.0713,338
1604060841.0733,431
1604060841.0753,197
1604060841.0773,-377
1604060841.0793,-592
1604060841.0814,-282
1604060841.0833,-116
1604060841.0852,-129
1604060841.0873,-34
1604060841.0879,34
1604060841.0893,9
1604060841.0913,9
1604060841.0934,17
1604060841.0953,2
1604060841.0973,0
1604060841.0993,2
1604060841.1013,-4
1604060841.1033,0
1604060841.1053,-2
1604060841.1073,-21
1604060841.1093,-7
1604060841.1112,56
1604060841.1132,60
1604060841.1153,19
1604060841.1173,21
1604060841.1179,38
1604060841.1193,26
1604060841.1213,24
1604060841.1233,36
1604060841.1253,19
1604060841.1272,17
1604060841.1292,75
1604060841.1313,99
1604060841.1333,56
1604060841.1353,48
1604060841.1373,70
1604060841.1393,58
1604060841.1413,56
1604060841.1432,70
1604060841.1452,53
1604060841.1473,19
1604060841.1478,-2
1604060841.1493,-24
1604060841.1513,-29
1604060841.1532,-17
1604060841.1553,-24
1604060841.1573,-48
1604060841.1593,-34
1604060841.1613,-7
1604060841.1632,-14
1604060841.5676,-29
1604060841.5686,-26
1604060841.5709,-31
1604060841.5735,-36
1604060841.5755,-14
1604060841.5775,-2
1604060841.5781,-24
1604060841.5795,-38
1604060841.5816,-34
1604060841.5835,-36
1604060841.5855,-48
1604060841.5875,-43
1604060841.5895,-38
1604060841.5917,-48
1604060841.5935,-53
1604060841.5954,-48
1604060841.5974,-51
1604060841.5994,-48
1604060841.6015,-38
1604060841.6035,-31
1604060841.6055,-41
1604060841.6074,-34
1604060841.6080,-7
1604060841.6094,-4
1604060841.6114,-2
1604060841.6134,24
1604060841.6155,29
1604060841.6174,4
1604060841.6194,-21
1604060841.6215,-26
1604060841.6234,-7
1604060841.6254,-7
1604060841.6274,-29
1604060841.6294,-43
1604060841.6314,-43
1604060841.6334,-31
1604060841.6354,-17
1604060841.6374,-31
1604060841.6380,-41
1604060841.6394,-19
1604060841.6414,58
1604060841.6434,216
1604060841.6454,380
1604060841.6474,311
1604060841.6495,-146
1604060841.6514,-550
1604060841.6534,-409
1604060841.6554,-136
1604060841.6574,-95
1604060841.6594,-48
1604060841.6614,17
1604060841.6634,7
1604060841.6654,-2
1604060841.6674,12
1604060841.6680,9
1604060841.6694,0
1604060841.6714,2
1604060841.6734,4
1604060841.6754,7
1604060841.6774,9
1604060841.6794,14
1604060841.6814,12
1604060841.6834,7
1604060841.6854,29
1604060841.6875,51
1604060841.6894,34
1604060841.6914,29
1604060841.6934,48
1604060841.6954,58
1604060841.6974,53
1604060841.6980,56
1604060841.6994,60
1604060841.7014,56
1604060842.1375,48
1604060842.1383,56
1604060842.1407,68
1604060842.1434,63
1604060842.1454,46
1604060842.1474,60
1604060842.1494,90
1604060842.1513,75
1604060842.1533,29
1604060842.1553,7
1604060842.1560,2
1604060842.1573,-14
1604060842.1593,-46
1604060842.1613,-65
1604060842.1633,-56
1604060842.1653,-53
1604060842.1673,-70
1604060842.1693,-77
1604060842.1713,-73
1604060842.1733,-70
1604060842.1753,-56
1604060842.1773,-43
1604060842.1794,-34
1604060842.1814,-12
1604060842.1833,-12
1604060842.1853,-24
1604060842.1859,-9
1604060842.1873,0
1604060842.1893,-12
1604060842.1913,-4
1604060842.1933,-4
1604060842.1953,-12
1604060842.1973,12
1604060842.1993,31
1604060842.2013,26
1604060842.2032,21
1604060842.2052,-2
1604060842.2072,-14
1604060842.2093,4
1604060842.2113,24
1604060842.2133,31
1604060842.2153,53
1604060842.2161,53
1604060842.2173,21
1604060842.2192,43
1604060842.2213,82
1604060842.2232,65
1604060842.2253,46
1604060842.2273,51
1604060842.2293,24
1604060842.2314,-7
1604060842.2333,17
1604060842.2353,41
1604060842.2373,12
1604060842.2393,-4
1604060842.2413,4
1604060842.2433,0
1604060842.2453,-7
1604060842.2459,0
1604060842.2473,-4
1604060842.2493,0
1604060842.2513,92
1604060842.2533,285
1604060842.2553,409
1604060842.2573,197
1604060842.2593,-326
1604060842.2613,-555
1604060842.2633,-294
1604060842.2653,-102
1604060842.2673,-63
1604060842.2693,41
1604060842.2713,53
1604060842.2733,-29
1604060842.6772,-43
1604060842.6778,-31
1604060842.6803,-31
1604060842.6830,-34
1604060842.6849,-29
1604060842.6869,-14
1604060842.6890,-4
1604060842.6909,-2
1604060842.6929,0
1604060842.6949,-9
1604060842.6969,-21
1604060842.6989,-4
1604060842.7010,7
1604060842.7029,-4
1604060842.7049,2
1604060842.7069,14
1604060842.7089,4
1604060842.7096,-4
1604060842.7109,19
1604060842.7129,36
1604060842.7150,4
1604060842.7169,-4
1604060842.7189,17
1604060842.7209,7
1604060842.7228,-7
1604060842.7248,7
1604060842.7269,21
1604060842.7281,21
1604060842.7298,19
1604060842.7318,2
1604060842.7339,-19
1604060842.7358,-19
1604060842.7364,-24
1604060842.7379,-48
1604060842.7399,-73
1604060842.7419,-75
1604060842.7439,-63
1604060842.7459,-60
1604060842.7479,-63
1604060842.7498,-65
1604060842.7519,-58
1604060842.7539,-53
1604060842.7558,-56
1604060842.7578,-53
1604060842.7599,-51
1604060842.7619,-53
1604060842.7638,-53
1604060842.7659,-48
1604060842.7665,-53
1604060842.7679,-58
1604060842.7698,-51
1604060842.7719,-46
1604060842.7739,-56
1604060842.7758,-58
1604060842.7779,-56
1604060842.7799,-65
1604060842.7818,-70
1604060842.7839,-58
1604060842.7858,-46
1604060842.7879,-46
1604060842.7898,-48
1604060842.7918,-46
1604060842.7938,-46
1604060842.7959,-43
1604060842.7965,-41
1604060842.7978,-43
1604060842.7998,-31
1604060842.8019,-7
1604060842.8038,2
1604060842.8059,-12
1604060842.8079,-31
1604060842.8101,-38
1604060842.8119,-38
1604060843.2475,-38
1604060843.2484,-46
1604060843.2509,-51
1604060843.2534,-53
1604060843.2555,-56
1604060843.2561,-65
1604060843.2575,-77
1604060843.2596,-77
1604060843.2614,-73
1604060843.2634,-46
1604060843.2654,56
1604060843.2674,212
1604060843.2694,270
1604060843.2714,7
1604060843.2734,-419
1604060843.2754,-475
1604060843.2774,-241
1604060843.2794,-148
1604060843.2813,-104
1604060843.2834,-4
1604060843.2854,17
1604060843.2860,-2
1604060843.2874,4
1604060843.2894,12
1604060843.2915,14
1604060843.2934,19
1604060843.2954,21
1604060843.2974,21
1604060843.2994,24
1604060843.3014,31
1604060843.3034,31
1604060843.3053,36
1604060843.3073,53
1604060843.3094,53
1604060843.3114,43
1604060843.3134,48
1604060843.3153,60
1604060843.3159,63
1604060843.3174,63
1604060843.3194,60
1604060843.3214,58
1604060843.3234,63
1604060843.3254,65
1604060843.3274,63
1604060843.3293,63
1604060843.3314,58
1604060843.3333,60
1604060843.3354,73
1604060843.3373,77
1604060843.3396,75
1604060843.3414,75
1604060843.3433,68
1604060843.3454,51
1604060843.3460,29
1604060843.3474,9
1604060843.3493,-7
1604060843.3513,-14
1604060843.3534,-2
1604060843.3553,2
1604060843.3574,-12
1604060843.3594,-19
1604060843.3614,-17
1604060843.3633,-14
1604060843.3653,-9
1604060843.3673,-7
1604060843.3694,-9
1604060843.3714,-7
1604060843.3734,-4
1604060843.3754,-9
1604060843.3760,-12
1604060843.3773,-9
1604060843.3793,-9
1604060843.3814,-17
1604060843.7873,-24
1604060843.7879,-26
1604060843.7903,-26
1604060843.7929,-29
1604060843.7949,-29
1604060843.7970,-29
1604060843.7990,-29
1604060843.8009,-36
1604060843.8030,-41
1604060843.8036,-31
1604060843.8050,-26
1604060843.8069,-14
1604060843.8089,4
1604060843.8110,2
1604060843.8129,-17
1604060843.8150,-24
1604060843.8169,-26
1604060843.8189,-26
1604060843.8210,-24
1604060843.8230,-19
1604060843.8249,-14
1604060843.8269,-14
1604060843.8289,-12
1604060843.8310,-7
1604060843.8329,-2
1604060843.8335,-7
1604060843.8349,-7
1604060843.8371,43
1604060843.8390,192
1604060843.8410,380
1604060843.8430,360
1604060843.8449,-56
1604060843.8469,-453
1604060843.8489,-350
1604060843.8509,-141
1604060843.8529,-131
1604060843.8549,-56
1604060843.8569,48
1604060843.8590,36
1604060843.8610,19
1604060843.8629,41
1604060843.8635,43
1604060843.8649,31
1604060843.8669,34
1604060843.8689,38
1604060843.8709,36
1604060843.8729,36
1604060843.8749,38
1604060843.8769,38
1604060843.8789,43
1604060843.8810,46
1604060843.8829,46
1604060843.8849,48
1604060843.8869,48
1604060843.8889,48
1604060843.8909,56
1604060843.8929,60
1604060843.8935,58
1604060843.8949,60
1604060843.8969,58
1604060843.8989,56
1604060843.9009,56
1604060843.9029,53
1604060843.9049,51
1604060843.9069,51
1604060843.9089,51
1604060843.9109,58
1604060843.9129,60
1604060843.9150,48
1604060843.9169,36
1604060843.9189,26
1604060843.9209,19
1604060843.9229,14
1604060844.3880,4
1604060844.3897,-2
1604060844.3920,-2
1604060844.3937,-4
1604060844.3957,-14
1604060844.3980,-21
1604060844.3997,-19
1604060844.4017,-17
1604060844.4037,-21
1604060844.4057,-26
1604060844.4077,-24
1604060844.4097,-21
1604060844.4117,-26
1604060844.4137,-29
1604060844.4157,-21
1604060844.4177,-24
1604060844.4186,-31
1604060844.4198,-29
1604060844.4218,-26
1604060844.4237,-29
1604060844.4257,-29
1604060844.4278,-31
1604060844.4297,-31
1604060844.4317,-29
1604060844.4338,-29
1604060844.4357,-29
1604060844.4378,-17
1604060844.4397,4
1604060844.4417,14
1604060844.4437,-2
1604060844.4457,-21
1604060844.4476,-21
1604060844.4483,-21
1604060844.4497,-26
1604060844.4517,-31
1604060844.4537,-31
1604060844.4557,-29
1604060844.4577,-21
1604060844.4597,-21
1604060844.4617,-24
1604060844.4636,-21
1604060844.4657,-19
1604060844.4677,4
1604060844.4696,116
1604060844.4717,297
1604060844.4736,409
1604060844.4757,216
1604060844.4762,-292
1604060844.4777,-536
1604060844.4797,-290
1604060844.4816,-114
1604060844.4836,-104
1604060844.4856,-7
1604060844.4876,46
1604060844.4896,9
1604060844.4916,12
1604060844.4937,36
1604060844.4957,21
1604060844.4976,14
1604060844.4996,24
1604060844.5016,21
1604060844.5036,17
1604060844.5056,26
1604060844.5062,29
1604060844.5076,24
1604060844.5096,29
1604060844.5116,41
1604060844.5136,51
1604060844.5156,51
1604060844.5176,53
1604060844.5196,60
1604060844.5217,60
1604060844.5237,63
1604060844.9875,75
1604060844.9884,82
1604060844.9911,85
1604060844.9918,85
1604060844.9935,82
1604060844.9955,73
1604060844.9975,68
1604060844.9996,73
1604060845.0016,75
1604060845.0035,68
1604060845.0056,51
1604060845.0076,41
1604060845.0095,29
1604060845.0115,0
1604060845.0136,-19
1604060845.0155,-17
1604060845.0174,-17
1604060845.0195,-26
1604060845.0215,-26
1604060845.0220,-21
1604060845.0237,-24
1604060845.0255,-26
1604060845.0274,-21
1604060845.0295,-17
1604060845.0315,-24
1604060845.0334,-26
1604060845.0354,-17
1604060845.0375,-12
1604060845.0396,-17
1604060845.0415,-21
1604060845.0435,-17
1604060845.0455,-19
1604060845.0474,-26
1604060845.0495,-34
1604060845.0517,-38
1604060845.0522,-36
1604060845.0534,-31
1604060845.0554,-31
1604060845.0575,-21
1604060845.0594,0
1604060845.0614,12
1604060845.0634,0
1604060845.0654,-21
1604060845.0674,-26
1604060845.0694,-24
1604060845.0714,-31
1604060845.0736,-31
1604060845.0754,-24
1604060845.0774,-26
1604060845.0794,-31
1604060845.0815,-31
1604060845.0820,-26
1604060845.0834,-26
1604060845.0854,-31
1604060845.0874,-26
1604060845.0894,46
1604060845.0915,216
1604060845.0934,387
1604060845.0954,329
1604060845.0974,-121
1604060845.0994,-541
1604060845.1015,-411
1604060845.1034,-148
1604060845.1054,-112
1604060845.1074,-48
1604060845.1094,36
1604060845.1115,14
1604060845.1120,-4
1604060845.1134,26
1604060845.1154,31
1604060845.1174,17
1604060845.1194,24
1604060845.1215,29
1604060845.4973,24
1604060845.4979,29
1604060845.5003,34
1604060845.5019,34
1604060845.5039,36
1604060845.5059,43
1604060845.5079,53
1604060845.5099,58
1604060845.5119,56
1604060845.5125,58
1604060845.5139,73
1604060845.5159,77
1604060845.5181,77
1604060845.5200,82
1604060845.5219,80
1604060845.5239,75
1604060845.5259,75
1604060845.5279,80
1604060845.5299,85
1604060845.5319,85
1604060845.5339,80
1604060845.5359,77
1604060845.5379,63
1604060845.5399,46
1604060845.5419,36
1604060845.5425,17
1604060845.5439,-7
1604060845.5459,-19
1604060845.5479,-21
1604060845.5499,-21
1604060845.5519,-17
1604060845.5539,-17
1604060845.5559,-12
1604060845.5579,-4
1604060845.5599,-2
1604060845.5618,-4
1604060845.5639,-2
1604060845.5659,2
1604060845.5679,-2
1604060845.5699,-9
1604060845.5719,-7
1604060845.5725,-2
1604060845.5738,-12
1604060845.5759,-19
1604060845.5779,-14
1604060845.5799,-19
1604060845.5818,-31
1604060845.5838,-29
1604060845.5859,-21
1604060845.5879,-29
1604060845.5900,-34
1604060845.5919,-29
1604060845.5939,-14
1604060845.5959,4
1604060845.5978,12
1604060845.5998,-2
1604060845.6019,-17
1604060845.6025,-24
1604060845.6039,-31
1604060845.6060,-34
1604060845.6079,-26
1604060845.6099,-29
1604060845.6119,-29
1604060845.6140,-21
1604060845.6159,-19
1604060845.6179,-21
1604060845.6199,-19
1604060845.6219,-19
1604060845.6239,-12
1604060845.6259,73
1604060845.6279,251
1604060845.6299,392
1604060845.6319,299
1604060846.0374,-158
1604060846.0383,-550
1604060846.0407,-397
1604060846.0433,-129
1604060846.0453,-85
1604060846.0473,-24
1604060846.0494,41
1604060846.0513,9
1604060846.0533,-9
1604060846.0553,14
1604060846.0573,17
1604060846.0593,7
1604060846.0613,7
1604060846.0633,12
1604060846.0639,17
1604060846.0653,21
1604060846.0673,24
1604060846.0693,26
1604060846.0713,31
1604060846.0733,34
1604060846.0753,41
1604060846.0773,51
1604060846.0792,60
1604060846.0813,63
1604060846.0833,68
1604060846.0854,75
1604060846.0873,85
1604060846.0892,92
1604060846.0913,95
1604060846.0933,95
1604060846.0939,97
1604060846.0952,97
1604060846.0973,95
1604060846.0992,95
1604060846.1013,95
1604060846.1032,87
1604060846.1053,75
1604060846.1073,56
1604060846.1093,29
1604060846.1113,4
1604060846.1132,-9
1604060846.1154,-21
1604060846.1173,-31
1604060846.1192,-29
1604060846.1212,-19
1604060846.1233,-12
1604060846.1239,-12
1604060846.1253,-12
1604060846.1273,-9
1604060846.1292,-7
1604060846.1313,-4
1604060846.1332,-2
1604060846.1353,0
1604060846.1373,0
1604060846.1392,-2
1604060846.1413,0
1604060846.1433,2
1604060846.1452,0
1604060846.1473,-4
1604060846.1492,-9
1604060846.1512,-12
1604060846.1532,-9
1604060846.1538,-9
1604060846.1553,-12
1604060846.1572,-12
1604060846.1592,-12
1604060846.1612,-12
1604060846.1632,-14
1604060846.1652,-17
1604060846.1672,-21
1604060846.1693,-21
1604060846.1712,-14
1604060846.1733,0
1604060846.6074,12
1604060846.6083,19
1604060846.6108,12
1604060846.6133,-2
1604060846.6139,-12
1604060846.6154,-21
1604060846.6173,-34
1604060846.6194,-31
1604060846.6214,-26
1604060846.6233,-31
1604060846.6254,-31
1604060846.6273,-24
1604060846.6293,-21
1604060846.6313,-21
1604060846.6332,-14
1604060846.6353,-12
1604060846.6373,36
1604060846.6393,182
1604060846.6412,346
1604060846.6435,346
1604060846.6438,-17
1604060846.6453,-485
1604060846.6473,-463
1604060846.6493,-168
1604060846.6513,-80
1604060846.6532,-38
1604060846.6552,41
1604060846.6573,31
1604060846.6592,7
1604060846.6614,24
1604060846.6633,29
1604060846.6652,12
1604060846.6672,12
1604060846.6692,19
1604060846.6713,19
1604060846.6732,21
1604060846.6738,29
1604060846.6752,36
1604060846.6772,38
1604060846.6793,43
1604060846.6813,46
1604060846.6832,48
1604060846.6852,56
1604060846.6872,65
1604060846.6892,68
1604060846.6912,70
1604060846.6932,80
1604060846.6952,87
1604060846.6973,90
1604060846.6993,92
1604060846.7012,97
1604060846.7032,97
1604060846.7038,92
1604060846.7052,87
1604060846.7072,97
1604060846.7092,102
1604060846.7113,97
1604060846.7132,77
1604060846.7154,53
1604060846.7173,31
1604060846.7192,14
1604060846.7213,4
1604060846.7232,-2
1604060846.7252,-9
1604060846.7272,-9
1604060846.7293,-7
1604060846.7313,-2
1604060846.7332,-2
1604060846.7338,2
1604060846.7352,7
1604060846.7374,4
1604060846.7393,2
1604060846.7413,4
1604060847.1474,2
1604060847.1482,4
1604060847.1506,7
1604060847.1533,0
1604060847.1553,-4
1604060847.1573,-4
1604060847.1593,-9
1604060847.1613,-17
1604060847.1619,-14
1604060847.1632,-17
1604060847.1653,-26
1604060847.1673,-24
1604060847.1693,-17
1604060847.1713,-19
1604060847.1733,-19
1604060847.1753,-21
1604060847.1773,-29
1604060847.1792,-24
1604060847.1813,-21
1604060847.1833,-26
1604060847.1853,-31
1604060847.1873,-29
1604060847.1892,-29
1604060847.1913,-36
1604060847.1918,-43
1604060847.1933,-41
1604060847.1952,-38
1604060847.1973,-34
1604060847.1993,-26
1604060847.2013,-9
1604060847.2033,7
1604060847.2052,4
1604060847.2073,-7
1604060847.2092,-19
1604060847.2113,-24
1604060847.2132,-29
1604060847.2152,-34
1604060847.2172,-34
1604060847.2192,-24
1604060847.2213,-19
1604060847.2218,-24
1604060847.2232,-24
1604060847.2252,-17
1604060847.2273,-12
1604060847.2292,-12
1604060847.2312,19
1604060847.2332,146
1604060847.2352,314
1604060847.2374,365
1604060847.2393,75
1604060847.2413,-421
1604060847.2432,-504
1604060847.2452,-214
1604060847.2472,-85
1604060847.2492,-56
1604060847.2512,31
1604060847.2519,38
1604060847.2532,4
1604060847.2552,24
1604060847.2572,43
1604060847.2592,29
1604060847.2613,24
1604060847.2632,38
1604060847.2652,38
1604060847.2672,29
1604060847.2692,36
1604060847.2713,46
1604060847.2732,48
1604060847.2752,51
1604060847.2772,58
1604060847.2792,63
1604060847.2812,65
1604060847.2818,70
1604060847.7772,73
1604060847.7780,75
1604060847.7792,77
1604060847.7812,75
1604060847.7832,70
1604060847.7852,75
1604060847.7872,75
1604060847.7891,68
1604060847.7912,63
1604060847.7932,68
1604060847.7951,73
1604060847.7971,77
1604060847.7977,73
1604060847.7991,70
1604060847.8011,60
1604060847.8032,34
1604060847.8051,7
1604060847.8071,-9
1604060847.8091,-14
1604060847.8112,-14
1604060847.8131,-14
1604060847.8151,-14
1604060847.8171,-9
1604060847.8191,-4
1604060847.8211,-4
1604060847.8231,-4
1604060847.8254,-2
1604060847.8272,-2
1604060847.8277,-4
1604060847.8291,-4
1604060847.8311,-4
1604060847.8331,-9
1604060847.8351,-12
1604060847.8371,-7
1604060847.8391,-9
1604060847.8411,-14
1604060847.8431,-14
1604060847.8450,-14
1604060847.8471,-19
1604060847.8491,-24
1604060847.8511,-29
1604060847.8531,-26
1604060847.8551,-21
1604060847.8570,-21
1604060847.8576,-21
1604060847.8591,-17
1604060847.8612,-24
1604060847.8631,-31
1604060847.8651,-21
1604060847.8671,-12
1604060847.8691,-19
1604060847.8711,-24
1604060847.8730,-17
1604060847.8752,-12
1604060847.8770,-14
1604060847.8791,-14
1604060847.8811,-4
1604060847.8831,-2
1604060847.8850,-7
1604060847.8870,-4
1604060847.8876,-4
1604060847.8891,-2
1604060847.8911,9
1604060847.8931,31
1604060847.8950,43
1604060847.8970,29
1604060847.8991,9
1604060847.9011,7
1604060847.9030,7
1604060847.9050,-7
1604060847.9070,-7
1604060847.9091,4
1604060847.9112,0
1604060848.3174,-7
1604060848.3183,-7
1604060848.3207,-4
1604060848.3218,-2
1604060848.3236,-4
1604060848.3254,9
1604060848.3274,87
1604060848.3295,243
1604060848.3313,375
1604060848.3333,272
1604060848.3353,-180
1604060848.3373,-528
1604060848.3393,-360
1604060848.3413,-121
1604060848.3434,-80
1604060848.3454,-12
1604060848.3473,36
1604060848.3493,9
1604060848.3499,7
1604060848.3514,29
1604060848.3533,21
1604060848.3553,17
1604060848.3573,29
1604060848.3593,29
1604060848.3613,26
1604060848.3633,31
1604060848.3653,38
1604060848.3673,38
1604060848.3693,43
1604060848.3713,46
1604060848.3733,48
1604060848.3753,53
1604060848.3773,58
1604060848.3793,63
1604060848.3799,73
1604060848.3813,77
1604060848.3833,77
1604060848.3853,82
1604060848.3873,87
1604060848.3893,85
1604060848.3913,85
1604060848.3933,87
1604060848.3953,80
1604060848.3973,75
1604060848.3993,77
1604060848.4013,87
1604060848.4033,90
1604060848.4053,75
1604060848.4072,53
1604060848.4093,34
1604060848.4099,21
1604060848.4113,4
1604060848.4133,-12
1604060848.4152,-12
1604060848.4173,-7
1604060848.4194,-14
1604060848.4213,-17
1604060848.4233,-7
1604060848.4253,-2
1604060848.4272,-9
1604060848.4293,-9
1604060848.4313,-7
1604060848.4333,-9
1604060848.4353,-14
1604060848.4373,-14
1604060848.4392,-12
1604060848.4399,-9
1604060848.4413,-7
1604060848.4433,-9
1604060848.4453,-9
1604060848.4473,-12
1604060848.4493,-12
1604060848.4513,-12
1604060848.8572,-12
1604060848.8578,-12
1604060848.8602,-14
1604060848.8629,-17
1604060848.8649,-12
1604060848.8669,-9
1604060848.8675,-12
1604060848.8689,-12
1604060848.8709,-14
1604060848.8729,-21
1604060848.8749,-26
1604060848.8769,-19
1604060848.8789,-9
1604060848.8808,-9
1604060848.8829,-12
1604060848.8849,-4
1604060848.8869,0
1604060848.8888,-2
1604060848.8909,-4
1604060848.8929,-2
1604060848.8948,-4
1604060848.8969,-4
1604060848.8975,4
1604060848.8989,19
1604060848.9009,34
1604060848.9028,41
1604060848.9048,34
1604060848.9068,17
1604060848.9088,4
1604060848.9109,0
1604060848.9128,-4
1604060848.9149,-2
1604060848.9169,0
1604060848.9190,-4
1604060848.9209,-7
1604060848.9228,0
1604060848.9248,4
1604060848.9268,2
1604060848.9275,-2
1604060848.9289,9
1604060848.9309,92
1604060848.9328,258
1604060848.9348,385
1604060848.9368,224
1604060848.9389,-246
1604060848.9408,-492
1604060848.9429,-270
1604060848.9448,-90
1604060848.9468,-63
1604060848.9488,19
1604060848.9509,58
1604060848.9528,26
1604060848.9548,34
1604060848.9568,46
1604060848.9575,29
1604060848.9588,21
1604060848.9609,26
1604060848.9628,26
1604060848.9648,38
1604060848.9668,46
1604060848.9688,38
1604060848.9709,38
1604060848.9728,43
1604060848.9748,46
1604060848.9768,46
1604060848.9788,51
1604060848.9809,60
1604060848.9828,60
1604060848.9842,60
1604060848.9849,58
1604060848.9868,60
1604060848.9888,68
1604060848.9909,68
1604060849.4575,63
1604060849.4583,60
1604060849.4601,63
1604060849.4620,63
1604060849.4640,65
1604060849.4660,68
1604060849.4680,68
1604060849.4701,60
1604060849.4720,41
1604060849.4740,24
1604060849.4760,9
1604060849.4769,-2
1604060849.4780,-9
1604060849.4800,-21
1604060849.4820,-24
1604060849.4839,-17
1604060849.4859,-12
1604060849.4879,-12
1604060849.4900,-17
1604060849.4919,-14
1604060849.4939,-12
1604060849.4959,-9
1604060849.4980,-7
1604060849.4999,-4
1604060849.5019,-4
1604060849.5039,-2
1604060849.5059,-2
1604060849.5066,-4
1604060849.5079,-4
1604060849.5100,-7
1604060849.5119,-9
1604060849.5139,-9
1604060849.5160,-4
1604060849.5179,-2
1604060849.5199,-4
1604060849.5219,-7
1604060849.5239,-9
1604060849.5259,-4
1604060849.5279,2
1604060849.5300,-2
1604060849.5319,-4
1604060849.5339,-2
1604060849.5359,-4
1604060849.5366,-4
1604060849.5379,-7
1604060849.5400,-12
1604060849.5419,-9
1604060849.5439,-2
1604060849.5459,4
1604060849.5479,4
1604060849.5499,-4
1604060849.5519,-4
1604060849.5539,0
1604060849.5559,4
1604060849.5580,14
1604060849.5600,36
1604060849.5619,51
1604060849.5639,31
1604060849.5659,7
1604060849.5665,4
1604060849.5679,9
1604060849.5699,4
1604060849.5720,-2
1604060849.5739,-4
1604060849.5759,-4
1604060849.5779,-7
1604060849.5799,-4
1604060849.5819,2
1604060849.5839,-2
1604060849.5859,-7
1604060849.5879,17
1604060849.5899,129
1604060849.5919,307
1604060849.9672,389
1604060849.9679,104
1604060849.9703,-394
1604060849.9729,-480
1604060849.9751,-209
1604060849.9770,-99
1604060849.9791,-68
1604060849.9810,26
1604060849.9829,34
1604060849.9849,0
1604060849.9869,14
1604060849.9889,24
1604060849.9909,7
1604060849.9929,7
1604060849.9949,19
1604060849.9969,17
1604060849.9976,14
1604060849.9990,17
1604060850.0009,17
1604060850.0029,21
1604060850.0049,34
1604060850.0069,41
1604060850.0089,48
1604060850.0109,53
1604060850.0128,56
1604060850.0149,63
1604060850.0169,75
1604060850.0189,77
1604060850.0209,77
1604060850.0231,80
1604060850.0250,87
1604060850.0269,87
1604060850.0276,87
1604060850.0289,82
1604060850.0309,77
1604060850.0329,85
1604060850.0349,97
1604060850.0369,92
1604060850.0389,77
1604060850.0410,63
1604060850.0431,41
1604060850.0449,21
1604060850.0469,7
1604060850.0489,-2
1604060850.0509,-7
1604060850.0529,-7
1604060850.0549,-4
1604060850.0571,-2
1604060850.0576,-4
1604060850.0589,0
1604060850.0610,7
1604060850.0629,12
1604060850.0649,7
1604060850.0669,0
1604060850.0689,-2
1604060850.0709,-7
1604060850.0731,-4
1604060850.0750,-2
1604060850.0769,-9
1604060850.0789,-9
1604060850.0809,0
1604060850.0829,2
1604060850.0849,-7
1604060850.0869,-9
1604060850.0876,-9
1604060850.0889,-12
1604060850.0910,-12
1604060850.0929,-4
1604060850.0949,-7
1604060850.0969,-7
1604060850.0989,-7
1604060850.1009,-12
1604060850.1029,-7
1604060850.5374,0
1604060850.5382,-7
1604060850.5407,-7
1604060850.5433,0
1604060850.5453,-4
1604060850.5473,-17
1604060850.5480,-7
1604060850.5494,19
1604060850.5512,31
1604060850.5532,21
1604060850.5553,9
1604060850.5573,2
1604060850.5592,0
1604060850.5612,-7
1604060850.5633,-12
1604060850.5652,-14
1604060850.5672,-14
1604060850.5692,-14
1604060850.5715,-4
1604060850.5733,0
1604060850.5752,-2
1604060850.5772,-7
1604060850.5779,-9
1604060850.5792,31
1604060850.5813,165
1604060850.5832,336
1604060850.5852,343
1604060850.5872,-26
1604060850.5892,-482
1604060850.5912,-443
1604060850.5932,-168
1604060850.5952,-99
1604060850.5972,-46
1604060850.5992,36
1604060850.6012,19
1604060850.6032,0
1604060850.6052,31
1604060850.6072,34
1604060850.6078,19
1604060850.6092,26
1604060850.6113,26
1604060850.6132,19
1604060850.6152,29
1604060850.6172,41
1604060850.6192,38
1604060850.6212,36
1604060850.6232,36
1604060850.6252,36
1604060850.6272,38
1604060850.6292,53
1604060850.6312,60
1604060850.6332,60
1604060850.6352,58
1604060850.6372,63
1604060850.6379,80
1604060850.6392,87
1604060850.6412,80
1604060850.6432,82
1604060850.6452,82
1604060850.6472,75
1604060850.6492,82
1604060850.6512,87
1604060850.6532,82
1604060850.6552,80
1604060850.6572,68
1604060850.6593,56
1604060850.6613,36
1604060850.6632,12
1604060850.6652,-7
1604060850.6674,-12
1604060850.6680,-9
1604060850.6692,-4
1604060850.6713,-4
1604060851.1373,-4
1604060851.1381,-2
1604060851.1395,-4
1604060851.1415,0
1604060851.1435,7
1604060851.1455,7
1604060851.1475,-7
1604060851.1495,-21
1604060851.1515,-14
1604060851.1535,0
1604060851.1555,-7
1604060851.1575,-17
1604060851.1595,-12
1604060851.1615,-12
1604060851.1634,-12
1604060851.1654,-7
1604060851.1674,-9
1604060851.1681,-14
1604060851.1695,-19
1604060851.1715,-17
1604060851.1735,-9
1604060851.1755,-12
1604060851.1774,-12
1604060851.1795,-9
1604060851.1814,-9
1604060851.1834,-7
1604060851.1855,-4
1604060851.1874,-7
1604060851.1894,-9
1604060851.1915,-4
1604060851.1934,-7
1604060851.1954,-9
1604060851.1974,-2
1604060851.1981,-2
1604060851.1994,-7
1604060851.2014,7
1604060851.2034,29
1604060851.2054,41
1604060851.2075,38
1604060851.2094,21
1604060851.2114,2
1604060851.2134,-9
1604060851.2154,-7
1604060851.2174,-4
1604060851.2194,-9
1604060851.2214,-19
1604060851.2234,-14
1604060851.2255,-2
1604060851.2274,-2
1604060851.2280,-7
1604060851.2294,-4
1604060851.2314,-9
1604060851.2334,14
1604060851.2354,129
1604060851.2374,307
1604060851.2394,389
1604060851.2414,134
1604060851.2434,-355
1604060851.2454,-492
1604060851.2474,-238
1604060851.2494,-99
1604060851.2514,-65
1604060851.2534,17
1604060851.2554,38
1604060851.2574,9
1604060851.2580,19
1604060851.2594,31
1604060851.2614,21
1604060851.2634,17
1604060851.2654,26
1604060851.2674,34
1604060851.2694,31
1604060851.2714,31
1604060851.6774,41
1604060851.6782,43
1604060851.6807,46
1604060851.6833,46
1604060851.6853,48
1604060851.6873,53
1604060851.6894,63
1604060851.6912,68
1604060851.6919,65
1604060851.6933,65
1604060851.6952,75
1604060851.6972,77
1604060851.6992,68
1604060851.7012,68
1604060851.7032,77
1604060851.7052,75
1604060851.7072,68
1604060851.7092,75
1604060851.7112,87
1604060851.7132,80
1604060851.7152,70
1604060851.7172,65
1604060851.7192,48
1604060851.7213,19
1604060851.7219,0
1604060851.7234,-4
1604060851.7253,-14
1604060851.7272,-19
1604060851.7292,-12
1604060851.7312,-9
1604060851.7332,-12
1604060851.7352,-4
1604060851.7372,-2
1604060851.7392,-12
1604060851.7412,-9
1604060851.7432,-2
1604060851.7452,-7
1604060851.7472,-4
1604060851.7492,0
1604060851.7512,-2
1604060851.7518,-9
1604060851.7532,-12
1604060851.7552,-14
1604060851.7572,-17
1604060851.7592,-12
1604060851.7612,-7
1604060851.7632,-9
1604060851.7652,-17
1604060851.7672,-17
1604060851.7692,-9
1604060851.7712,-7
1604060851.7732,-9
1604060851.7751,-9
1604060851.7772,-4
1604060851.7792,-4
1604060851.7812,-7
1604060851.7819,-4
1604060851.7832,-4
1604060851.7852,-4
1604060851.7872,-2
1604060851.7892,-2
1604060851.7912,0
1604060851.7932,0
1604060851.7953,-4
1604060851.7972,-2
1604060851.7992,7
1604060851.8012,26
1604060851.8032,41
1604060851.8052,36
1604060851.8072,21
1604060851.8092,17
1604060851.8100,14
1604060851.8122,0
1604060852.2174,-7
1604060852.2183,-2
1604060852.2206,-2
1604060852.2236,-4
1604060852.2254,-4
1604060852.2274,-7
1604060852.2294,0
1604060852.2313,4
1604060852.2333,-9
1604060852.2354,-19
1604060852.2373,58
1604060852.2380,251
1604060852.2393,414
1604060852.2413,255
1604060852.2433,-251
1604060852.2453,-519
1604060852.2473,-304
1604060852.2493,-131
1604060852.2513,-114
1604060852.2533,-14
1604060852.2553,38
1604060852.2572,-2
1604060852.2593,0
1604060852.2613,26
1604060852.2632,14
1604060852.2653,0
1604060852.2673,9
1604060852.2756,17
1604060852.2772,14
1604060852.2793,12
1604060852.2813,14
1604060852.2832,12
1604060852.2853,14
1604060852.2872,29
1604060852.2893,38
1604060852.2913,38
1604060852.2932,41
1604060852.2953,51
1604060852.2973,60
1604060852.2992,68
1604060852.3012,68
1604060852.3032,73
1604060852.3038,77
1604060852.3051,80
1604060852.3072,80
1604060852.3093,80
1604060852.3112,80
1604060852.3133,80
1604060852.3152,80
1604060852.3172,82
1604060852.3194,80
1604060852.3213,63
1604060852.3232,41
1604060852.3253,24
1604060852.3274,7
1604060852.3293,-4
1604060852.3313,-12
1604060852.3332,-9
1604060852.3339,-2
1604060852.3352,0
1604060852.3372,-2
1604060852.3393,-2
1604060852.3412,4
1604060852.3432,9
1604060852.3452,7
1604060852.3472,2
1604060852.3492,4
1604060852.3512,0
1604060852.3532,-2
1604060852.3552,4
1604060852.3573,7
1604060852.3587,-2
1604060852.3602,0
1604060852.7873,4
1604060852.7881,0
1604060852.7893,-4
1604060852.7913,-4
1604060852.7932,-4
1604060852.7939,-7
1604060852.7962,-17
1604060852.7982,-19
1604060852.8003,-12
1604060852.8022,-7
1604060852.8042,-12
1604060852.8062,-12
1604060852.8083,-7
1604060852.8102,-9
1604060852.8122,-12
1604060852.8142,-7
1604060852.8162,-4
1604060852.8182,-4
1604060852.8203,-9
1604060852.8222,-14
1604060852.8242,-9
1604060852.8250,-2
1604060852.8272,-7
1604060852.8292,-14
1604060852.8312,-12
1604060852.8332,-4
1604060852.8353,-7
1604060852.8372,-9
1604060852.8392,-4
1604060852.8412,12
1604060852.8432,29
1604060852.8452,38
1604060852.8474,31
1604060852.8492,17
1604060852.8512,4
1604060852.8532,-2
1604060852.8552,-2
1604060852.8559,-4
1604060852.8582,-9
1604060852.8602,-12
1604060852.8622,-2
1604060852.8642,0
1604060852.8661,-12
1604060852.8682,-12
1604060852.8702,-2
1604060852.8722,0
1604060852.8742,21
1604060852.8762,134
1604060852.8781,311
1604060852.8802,389
1604060852.8822,136
1604060852.8842,-368
1604060852.8862,-514
1604060852.8869,-243
1604060852.8892,-97
1604060852.8912,-77
1604060852.8932,4
1604060852.8951,31
1604060852.8972,0
1604060852.8992,7
1604060852.9012,19
1604060852.9032,9
1604060852.9051,12
1604060852.9072,19
1604060852.9092,14
1604060852.9112,9
1604060852.9132,21
1604060852.9152,29
1604060852.9172,29
1604060852.9179,31
1604060852.9202,36
1604060852.9222,38
1604060852.9242,46
1604060853.3573,53
1604060853.3582,56
1604060853.3607,60
1604060853.3632,68
1604060853.3653,75
1604060853.3672,80
1604060853.3692,82
1604060853.3714,77
1604060853.3732,70
1604060853.3752,73
1604060853.3775,75
1604060853.3793,68
1604060853.3800,68
1604060853.3812,68
1604060853.3832,60
1604060853.3852,43
1604060853.3872,24
1604060853.3892,0
1604060853.3913,-24
1604060853.3932,-38
1604060853.3952,-46
1604060853.3972,-41
1604060853.3992,-36
1604060853.4012,-31
1604060853.4032,-29
1604060853.4052,-21
1604060853.4072,-17
1604060853.4092,-14
1604060853.4098,-12
1604060853.4111,-12
1604060853.4131,-12
1604060853.4152,-9
1604060853.4172,-4
1604060853.4192,-2
1604060853.4211,-7
1604060853.4232,-9
1604060853.4251,-9
1604060853.4272,-7
1604060853.4292,-9
1604060853.4312,-12
1604060853.4332,-7
1604060853.4351,-9
1604060853.4372,-14
1604060853.4391,-7
1604060853.4398,-2
1604060853.4411,-9
1604060853.4432,-17
1604060853.4451,-17
1604060853.4471,-12
1604060853.4492,-14
1604060853.4511,-17
1604060853.4532,-12
1604060853.4552,-9
1604060853.4571,-12
1604060853.4591,-9
1604060853.4612,-2
1604060853.4631,-2
1604060853.4651,-4
1604060853.4671,-4
1604060853.4691,-7
1604060853.4698,-7
1604060853.4713,2
1604060853.4733,4
1604060853.4751,2
1604060853.4772,0
1604060853.4791,2
1604060853.4812,7
1604060853.4831,0
1604060853.4851,-4
1604060853.4872,0
1604060853.4891,2
1604060853.4912,17
1604060853.4931,41
1604060853.8971,43
1604060853.8978,24
1604060853.9003,12
1604060853.9028,2
1604060853.9050,-9
1604060853.9069,-21
1604060853.9089,-24
1604060853.9109,-21
1604060853.9128,-26
1604060853.9148,-38
1604060853.9168,-34
1604060853.9188,-26
1604060853.9208,-31
1604060853.9228,-31
1604060853.9248,-21
1604060853.9268,21
1604060853.9275,153
1604060853.9288,314
1604060853.9309,336
1604060853.9329,7
1604060853.9348,-455
1604060853.9368,-470
1604060853.9388,-190
1604060853.9408,-92
1604060853.9428,-56
1604060853.9448,24
1604060853.9467,34
1604060853.9488,7
1604060853.9508,17
1604060853.9528,21
1604060853.9548,17
1604060853.9568,21
1604060853.9575,26
1604060853.9588,24
1604060853.9608,24
1604060853.9628,36
1604060853.9648,43
1604060853.9668,41
1604060853.9688,41
1604060853.9710,43
1604060853.9728,46
1604060853.9748,56
1604060853.9767,65
1604060853.9788,60
1604060853.9808,63
1604060853.9827,75
1604060853.9848,80
1604060853.9868,85
1604060853.9874,90
1604060853.9888,92
1604060853.9908,97
1604060853.9928,97
1604060853.9948,92
1604060853.9967,92
1604060853.9988,97
1604060854.0008,97
1604060854.0028,87
1604060854.0048,68
1604060854.0067,43
1604060854.0088,21
1604060854.0108,4
1604060854.0128,-7
1604060854.0148,-14
1604060854.0167,-19
1604060854.0174,-21
1604060854.0188,-14
1604060854.0209,-7
1604060854.0229,-7
1604060854.0248,-7
1604060854.0267,-7
1604060854.0288,-14
1604060854.0308,-14
1604060854.0328,-12
1604060854.4973,-12
1604060854.4981,-9
1604060854.5005,-9
1604060854.5032,-12
1604060854.5052,-12
1604060854.5072,-12
1604060854.5078,-24
1604060854.5092,-24
1604060854.5113,-19
1604060854.5132,-24
1604060854.5151,-24
1604060854.5172,-17
1604060854.5192,-17
1604060854.5212,-19
1604060854.5231,-17
1604060854.5251,-14
1604060854.5271,-12
1604060854.5293,-12
1604060854.5312,-12
1604060854.5331,-9
1604060854.5351,0
1604060854.5371,-4
1604060854.5378,-9
1604060854.5391,-4
1604060854.5412,-2
1604060854.5431,-4
1604060854.5451,-4
1604060854.5471,-4
1604060854.5491,-7
1604060854.5512,-9
1604060854.5531,-9
1604060854.5551,-9
1604060854.5571,-4
1604060854.5591,0
1604060854.5611,-4
1604060854.5631,-9
1604060854.5651,-9
1604060854.5671,-9
1604060854.5677,-12
1604060854.5691,-9
1604060854.5711,-4
1604060854.5731,-4
1604060854.5750,-4
1604060854.5771,-4
1604060854.5790,12
1604060854.5811,34
1604060854.5831,41
1604060854.5851,29
1604060854.5870,14
1604060854.5892,7
1604060854.5911,2
1604060854.5931,0
1604060854.5950,0
1604060854.5971,-2
1604060854.5977,-2
1604060854.5991,0
1604060854.6011,2
1604060854.6031,2
1604060854.6051,0
1604060854.6071,-7
1604060854.6090,2
1604060854.6111,73
1604060854.6131,231
1604060854.6151,402
1604060854.6171,387
1604060854.6191,-7
1604060854.6211,-458
1604060854.6231,-407
1604060854.6252,-160
1604060854.6271,-109
1604060854.6277,-43
1604060854.6291,48
1604060854.6311,34
1604060855.0373,12
1604060855.0382,43
1604060855.0407,46
1604060855.0433,34
1604060855.0453,38
1604060855.0473,41
1604060855.0494,38
1604060855.0513,43
1604060855.0533,46
1604060855.0553,46
1604060855.0572,51
1604060855.0579,46
1604060855.0592,38
1604060855.0613,43
1604060855.0633,51
1604060855.0652,56
1604060855.0673,63
1604060855.0692,68
1604060855.0712,70
1604060855.0732,73
1604060855.0752,75
1604060855.0772,82
1604060855.0792,87
1604060855.0812,85
1604060855.0833,85
1604060855.0853,90
1604060855.0873,92
1604060855.0879,87
1604060855.0892,87
1604060855.0913,90
1604060855.0932,73
1604060855.0952,48
1604060855.0972,38
1604060855.0992,21
1604060855.1013,-4
1604060855.1032,-14
1604060855.1052,-9
1604060855.1072,-12
1604060855.1092,-9
1604060855.1112,-2
1604060855.1132,0
1604060855.1152,-2
1604060855.1172,2
1604060855.1179,12
1604060855.1191,7
1604060855.1212,4
1604060855.1235,9
1604060855.1252,14
1604060855.1272,12
1604060855.1292,7
1604060855.1312,2
1604060855.1332,-2
1604060855.1352,-7
1604060855.1372,-4
1604060855.1391,-2
1604060855.1413,-9
1604060855.1433,-19
1604060855.1452,-21
1604060855.1472,-21
1604060855.1478,-19
1604060855.1492,-14
1604060855.1513,-21
1604060855.1532,-24
1604060855.1552,-19
1604060855.1572,-21
1604060855.1592,-31
1604060855.1612,-29
1604060855.1632,-14
1604060855.1652,-14
1604060855.1672,-24
1604060855.1692,-24
1604060855.1713,-17
1604060855.1732,-12
1604060855.6077,-14
1604060855.6088,-19
1604060855.6112,-17
1604060855.6138,-12
1604060855.6159,-17
1604060855.6178,-17
1604060855.6199,-12
1604060855.6219,0
1604060855.6241,14
1604060855.6260,24
1604060855.6278,14
1604060855.6298,-4
1604060855.6318,-17
1604060855.6338,-21
1604060855.6358,-24
1604060855.6378,-21
1604060855.6400,-21
1604060855.6408,-24
1604060855.6418,-21
1604060855.6438,-19
1604060855.6458,-17
1604060855.6478,-7
1604060855.6498,-2
1604060855.6517,-12
1604060855.6540,-7
1604060855.6559,80
1604060855.6580,277
1604060855.6598,450
1604060855.6618,333
1604060855.6637,-168
1604060855.6657,-516
1604060855.6678,-333
1604060855.6698,-121
1604060855.6704,-104
1604060855.6717,-17
1604060855.6738,53
1604060855.6757,21
1604060855.6777,19
1604060855.6797,43
1604060855.6818,34
1604060855.6837,26
1604060855.6858,34
1604060855.6877,29
1604060855.6900,24
1604060855.6918,31
1604060855.6937,38
1604060855.6944,34
1604060855.6967,38
1604060855.6973,43
1604060855.6987,41
1604060855.7008,43
1604060855.7027,53
1604060855.7047,58
1604060855.7070,60
1604060855.7087,65
1604060855.7108,70
1604060855.7127,82
1604060855.7147,90
1604060855.7167,90
1604060855.7187,92
1604060855.7208,95
1604060855.7229,92
1604060855.7249,95
1604060855.7267,92
1604060855.7274,82
1604060855.7288,77
1604060855.7308,63
1604060855.7328,41
1604060855.7347,19
1604060855.7368,2
1604060855.7388,-9
1604060855.7407,-19
1604060855.7427,-24
1604060856.1473,-26
1604060856.1481,-29
1604060856.1507,-26
1604060856.1516,-17
1604060856.1531,-9
1604060856.1552,-14
1604060856.1571,-12
1604060856.1592,-2
1604060856.1612,-4
1604060856.1631,-21
1604060856.1651,-26
1604060856.1671,-19
1604060856.1692,-21
1604060856.1711,-26
1604060856.1731,-24
1604060856.1750,-19
1604060856.1771,-19
1604060856.1791,-26
1604060856.1812,-29
1604060856.1817,-29
1604060856.1831,-31
1604060856.1850,-34
1604060856.1871,-34
1604060856.1891,-36
1604060856.1911,-38
1604060856.1931,-38
1604060856.1951,-41
1604060856.1971,-31
1604060856.1991,-26
1604060856.2011,-34
1604060856.2031,-36
1604060856.2051,-31
1604060856.2070,-26
1604060856.2090,-26
1604060856.2111,-31
1604060856.2117,-31
1604060856.2131,-29
1604060856.2151,-29
1604060856.2171,-26
1604060856.2191,-21
1604060856.2212,-24
1604060856.2230,-31
1604060856.2250,-31
1604060856.2270,-26
1604060856.2290,-26
1604060856.2310,-26
1604060856.2331,-19
1604060856.2351,-19
1604060856.2370,-21
1604060856.2391,-17
1604060856.2410,-14
1604060856.2417,-14
1604060856.2431,-4
1604060856.2452,14
1604060856.2471,29
1604060856.2490,34
1604060856.2511,12
1604060856.2531,-9
1604060856.2551,-7
1604060856.2570,-2
1604060856.2590,-7
1604060856.2611,-12
1604060856.2630,-12
1604060856.2651,-17
1604060856.2670,-17
1604060856.2691,-14
1604060856.2711,-14
1604060856.2717,-14
1604060856.2730,-14
1604060856.2750,-9
1604060856.2771,51
1604060856.2791,207
1604060856.2811,360
1604060856.6885,358
1604060856.6892,0
1604060856.6908,-480
1604060856.6927,-472
1604060856.6947,-168
1604060856.6968,-70
1604060856.6988,-46
1604060856.7008,14
1604060856.7012,9
1604060856.7027,-7
1604060856.7047,14
1604060856.7066,19
1604060856.7087,7
1604060856.7107,12
1604060856.7127,17
1604060856.7147,12
1604060856.7167,17
1604060856.7187,26
1604060856.7207,21
1604060856.7226,19
1604060856.7246,38
1604060856.7266,48
1604060856.7286,43
1604060856.7307,43
1604060856.7312,53
1604060856.7327,53
1604060856.7346,56
1604060856.7367,70
1604060856.7387,80
1604060856.7407,82
1604060856.7426,87
1604060856.7448,99
1604060856.7467,107
1604060856.7486,97
1604060856.7507,92
1604060856.7526,97
1604060856.7546,99
1604060856.7566,92
1604060856.7586,73
1604060856.7607,51
1604060856.7612,31
1604060856.7626,12
1604060856.7646,-14
1604060856.7667,-34
1604060856.7686,-38
1604060856.7708,-46
1604060856.7726,-53
1604060856.7746,-46
1604060856.7766,-38
1604060856.7786,-34
1604060856.7806,-29
1604060856.7827,-19
1604060856.7846,-17
1604060856.7866,-17
1604060856.7886,-14
1604060856.7907,-12
1604060856.7912,-19
1604060856.7927,-24
1604060856.7946,-26
1604060856.7966,-29
1604060856.7986,-31
1604060856.8006,-36
1604060856.8026,-36
1604060856.8047,-26
1604060856.8066,-24
1604060856.8086,-38
1604060856.8106,-38
1604060856.8126,-29
1604060856.8146,-31
1604060856.8166,-36
1604060856.8186,-36
1604060856.8207,-36
1604060856.8212,-38
1604060857.2573,-31
1604060857.2581,-21
1604060857.2605,-21
1604060857.2621,-34
1604060857.2641,-48
1604060857.2661,-48
1604060857.2681,-38
1604060857.2702,-38
1604060857.2721,-41
1604060857.2743,-36
1604060857.2761,-36
1604060857.2781,-36
1604060857.2801,-24
1604060857.2821,-21
1604060857.2827,-26
1604060857.2841,-31
1604060857.2861,-31
1604060857.2881,-24
1604060857.2901,-19
1604060857.2920,-19
1604060857.2941,-17
1604060857.2960,-19
1604060857.2980,-21
1604060857.3002,-14
1604060857.3021,-14
1604060857.3041,-21
1604060857.3061,-29
1604060857.3080,-26
1604060857.3101,-14
1604060857.3121,4
1604060857.3127,19
1604060857.3141,29
1604060857.3160,34
1604060857.3181,19
1604060857.3202,-4
1604060857.3220,-14
1604060857.3240,-12
1604060857.3261,-9
1604060857.3281,-9
1604060857.3301,-14
1604060857.3321,-14
1604060857.3340,-9
1604060857.3361,-7
1604060857.3380,-7
1604060857.3401,-4
1604060857.3421,-4
1604060857.3426,-2
1604060857.3440,51
1604060857.3461,194
1604060857.3480,350
1604060857.3501,353
1604060857.3521,4
1604060857.3540,-463
1604060857.3560,-458
1604060857.3581,-168
1604060857.3601,-70
1604060857.3621,-34
1604060857.3641,38
1604060857.3661,26
1604060857.3680,4
1604060857.3703,29
1604060857.3721,36
1604060857.3726,19
1604060857.3741,24
1604060857.3761,31
1604060857.3780,26
1604060857.3801,26
1604060857.3820,31
1604060857.3840,34
1604060857.3860,36
1604060857.3881,36
1604060857.3901,36
1604060857.3920,46
1604060857.8872,56
1604060857.8880,58
1604060857.8897,58
1604060857.8921,65
1604060857.8941,65
1604060857.8961,60
1604060857.8981,63
1604060857.9002,73
1604060857.9021,77
1604060857.9041,80
1604060857.9061,90
1604060857.9081,95
1604060857.9102,92
1604060857.9121,90
1604060857.9141,87
1604060857.9161,70
1604060857.9180,46
1604060857.9201,21
1604060857.9206,-2
1604060857.9221,-29
1604060857.9241,-46
1604060857.9260,-58
1604060857.9281,-63
1604060857.9301,-60
