,ecg
1607013275.6222,4328.0
1607013275.625,5406.0
1607013275.6276,6101.0
1607013275.6304,6989.0
1607013275.6328,7650.0
1607013275.6351,8100.0
1607013275.6375,8589.0
1607013275.6394,9016.0
1607013275.641,9325.0
1607013275.643,9628.0
1607013275.645,9904.0
1607013275.6471,10120.0
1607013275.6494,10316.0
1607013275.6517,10504.0
1607013275.6538,10669.0
1607013275.656,10797.0
1607013275.658,10916.0
1607013275.6598,11035.0
1607013275.6611,11136.0
1607013275.663,11214.0
1607013275.665,11291.0
1607013275.6671,11374.0
1607013275.6692,11432.0
1607013275.671,11466.0
1607013275.6731,11512.0
1607013275.6751,11565.0
1607013275.677,11596.0
1607013275.679,11611.0
1607013275.6809,11628.0
1607013275.6829,11652.0
1607013275.6849,11667.0
1607013275.6869,11681.0
1607013275.6889,11703.0
1607013275.6909,11700.0
1607013275.6929,11684.0
1607013275.6949,11679.0
1607013275.697,11654.0
1607013275.699,11616.0
1607013275.701,11592.0
1607013275.7029,11565.0
1607013275.705,11533.0
1607013275.707,11514.0
1607013275.709,11485.0
1607013275.7109,11437.0
1607013275.7129,11374.0
1607013275.715,11323.0
1607013275.7169,11451.0
1607013275.7189,11824.0
1607013275.721,12102.0
1607013275.7229,11848.0
1607013275.7253,11049.0
1607013275.727,10456.0
1607013275.7289,10640.0
1607013275.7309,10943.0
1607013275.7329,10865.0
1607013275.7349,10793.0
1607013275.7369,10807.0
1607013275.7389,10727.0
1607013275.7409,10642.0
1607013275.7429,10606.0
1607013275.7449,10558.0
1607013275.7469,10490.0
1607013275.7489,10425.0
1607013275.7512,10354.0
1607013275.7529,10289.0
1607013275.7549,10228.0
1607013275.7569,10158.0
1607013275.7589,10090.0
1607013275.7609,10037.0
1607013275.7629,9972.0
1607013275.7649,9894.0
1607013275.7669,9831.0
1607013275.7689,9781.0
1607013276.1601,9720.0
1607013276.1609,9655.0
1607013276.1634,9597.0
1607013276.1661,9538.0
1607013276.168,9473.0
1607013276.17,9405.0
1607013276.1721,9347.0
1607013276.1741,9289.0
1607013276.1761,9219.0
1607013276.178,9134.0
1607013276.18,9062.0
1607013276.182,8999.0
1607013276.184,8887.0
1607013276.186,8747.0
1607013276.188,8638.0
1607013276.19,8543.0
1607013276.192,8434.0
1607013276.194,8333.0
1607013276.196,8255.0
1607013276.198,8178.0
1607013276.2,8096.0
1607013276.202,8020.0
1607013276.204,7960.0
1607013276.206,7895.0
1607013276.208,7822.0
1607013276.2099,7759.0
1607013276.2119,7698.0
1607013276.2139,7626.0
1607013276.2162,7553.0
1607013276.218,7485.0
1607013276.22,7422.0
1607013276.2219,7350.0
1607013276.2239,7272.0
1607013276.2259,7197.0
1607013276.2279,7130.0
1607013276.23,7054.0
1607013276.2321,6972.0
1607013276.234,6902.0
1607013276.2359,6834.0
1607013276.2379,6757.0
1607013276.2399,6679.0
1607013276.2419,6616.0
1607013276.2439,6553.0
1607013276.2459,6483.0
1607013276.2479,6415.0
1607013276.2499,6350.0
1607013276.2521,6285.0
1607013276.2541,6222.0
1607013276.2559,6151.0
1607013276.2579,6081.0
1607013276.2599,6023.0
1607013276.2619,5960.0
1607013276.2639,5890.0
1607013276.2659,5829.0
1607013276.2679,5776.0
1607013276.2699,5713.0
1607013276.2719,5650.0
1607013276.2739,5592.0
1607013276.2759,5536.0
1607013276.2779,5476.0
1607013276.2799,5415.0
1607013276.2819,5362.0
1607013276.2839,5306.0
1607013276.2859,5244.0
1607013276.2879,5188.0
1607013276.29,5137.0
1607013276.292,5084.0
1607013276.2939,5026.0
1607013276.2959,4970.0
1607013276.2979,4919.0
1607013276.2999,4863.0
1607013276.3019,4808.0
1607013276.3039,4759.0
1607013276.7004,4716.0
1607013276.7013,4670.0
1607013276.7038,4633.0
1607013276.7064,4590.0
1607013276.7084,4537.0
1607013276.7103,4488.0
1607013276.7126,4428.0
1607013276.7144,4355.0
1607013276.7163,4299.0
1607013276.7184,4251.0
1607013276.7203,4190.0
1607013276.7223,4147.0
1607013276.7243,4113.0
1607013276.7263,4050.0
1607013276.7283,3958.0
1607013276.7304,3951.0
1607013276.7323,4198.0
1607013276.7343,4583.0
1607013276.7363,4687.0
1607013276.7385,4202.0
1607013276.7403,3384.0
1607013276.7423,3091.0
1607013276.7443,3442.0
1607013276.7463,3602.0
1607013276.7483,3481.0
1607013276.7503,3488.0
1607013276.7524,3508.0
1607013276.7543,3433.0
1607013276.7563,3401.0
1607013276.7583,3389.0
1607013276.7603,3343.0
1607013276.7623,3302.0
1607013276.7643,3275.0
1607013276.7663,3239.0
1607013276.7683,3198.0
1607013276.7703,3166.0
1607013276.7723,3135.0
1607013276.7743,3098.0
1607013276.7763,3067.0
1607013276.7783,3045.0
1607013276.7803,3016.0
1607013276.7823,2980.0
1607013276.7843,2956.0
1607013276.7863,2936.0
1607013276.7884,2912.0
1607013276.7903,2888.0
1607013276.7924,2871.0
1607013276.7943,2856.0
1607013276.7963,2835.0
1607013276.7983,2808.0
1607013276.8003,2784.0
1607013276.8023,2764.0
1607013276.8043,2738.0
1607013276.8063,2709.0
1607013276.8084,2670.0
1607013276.8103,2619.0
1607013276.8123,2561.0
1607013276.8146,2500.0
1607013276.8163,2445.0
1607013276.8183,2392.0
1607013276.8203,2343.0
1607013276.8223,2302.0
1607013276.8243,2270.0
1607013276.8263,2244.0
1607013276.8284,2220.0
1607013276.8303,2198.0
1607013276.8323,2178.0
1607013276.8343,2162.0
1607013276.8363,2140.0
1607013276.8384,2120.0
1607013276.8403,2101.0
1607013276.8423,2084.0
1607013276.8443,2060.0
1607013277.2701,2038.0
1607013277.2711,2019.0
1607013277.2736,1997.0
1607013277.2762,1968.0
1607013277.2781,1944.0
1607013277.2802,1919.0
1607013277.2823,1886.0
1607013277.2842,1847.0
1607013277.2861,1823.0
1607013277.2881,1806.0
1607013277.2902,1781.0
1607013277.2922,1757.0
1607013277.2941,1738.0
1607013277.2962,1718.0
1607013277.2981,1702.0
1607013277.3002,1682.0
1607013277.3021,1663.0
1607013277.3041,1646.0
1607013277.3062,1626.0
1607013277.3081,1610.0
1607013277.31,1595.0
1607013277.312,1578.0
1607013277.314,1559.0
1607013277.3161,1544.0
1607013277.3181,1527.0
1607013277.32,1508.0
1607013277.3221,1491.0
1607013277.324,1479.0
1607013277.326,1459.0
1607013277.328,1442.0
1607013277.33,1426.0
1607013277.3321,1411.0
1607013277.3341,1399.0
1607013277.336,1384.0
1607013277.338,1360.0
1607013277.3402,1343.0
1607013277.3421,1336.0
1607013277.344,1321.0
1607013277.346,1307.0
1607013277.348,1292.0
1607013277.35,1280.0
1607013277.352,1263.0
1607013277.354,1246.0
1607013277.356,1234.0
1607013277.358,1227.0
1607013277.3601,1215.0
1607013277.362,1200.0
1607013277.364,1188.0
1607013277.366,1174.0
1607013277.368,1157.0
1607013277.37,1150.0
1607013277.372,1145.0
1607013277.374,1130.0
1607013277.376,1113.0
1607013277.378,1101.0
1607013277.38,1091.0
1607013277.382,1079.0
1607013277.3841,1065.0
1607013277.3861,1055.0
1607013277.388,1048.0
1607013277.39,1033.0
1607013277.392,1019.0
1607013277.394,1012.0
1607013277.396,1019.0
1607013277.398,1026.0
1607013277.4,1004.0
1607013277.4021,982.0
1607013277.404,992.0
1607013277.406,980.0
1607013277.408,934.0
1607013277.4101,915.0
1607013277.412,915.0
1607013277.414,905.0
1607013277.8099,895.0
1607013277.8109,890.0
1607013277.8134,874.0
1607013277.816,837.0
1607013277.818,890.0
1607013277.8199,1186.0
1607013277.8221,1571.0
1607013277.8239,1639.0
1607013277.8259,1140.0
1607013277.8279,399.0
1607013277.8299,193.0
1607013277.832,532.0
1607013277.8339,699.0
1607013277.8361,653.0
1607013277.8381,706.0
1607013277.8399,745.0
1607013277.8419,702.0
1607013277.844,702.0
1607013277.8459,721.0
1607013277.8479,704.0
1607013277.85,692.0
1607013277.8519,702.0
1607013277.8539,694.0
1607013277.8559,677.0
1607013277.8579,682.0
1607013277.8599,687.0
1607013277.8619,673.0
1607013277.8639,660.0
1607013277.8659,668.0
1607013277.8679,673.0
1607013277.8699,673.0
1607013277.8719,675.0
1607013277.8739,675.0
1607013277.8759,682.0
1607013277.8779,690.0
1607013277.8799,692.0
1607013277.8819,694.0
1607013277.8839,699.0
1607013277.8859,706.0
1607013277.8879,709.0
1607013277.8899,706.0
1607013277.8919,706.0
1607013277.8939,704.0
1607013277.8959,699.0
1607013277.8979,690.0
1607013277.8999,668.0
1607013277.9019,639.0
1607013277.9039,610.0
1607013277.9059,578.0
1607013277.9079,544.0
1607013277.9099,522.0
1607013277.9119,513.0
1607013277.9139,508.0
1607013277.9159,503.0
1607013277.9179,501.0
1607013277.92,501.0
1607013277.922,506.0
1607013277.9239,508.0
1607013277.9259,506.0
1607013277.9279,503.0
1607013277.9299,508.0
1607013277.9319,510.0
1607013277.9339,506.0
1607013277.9359,503.0
1607013277.9381,503.0
1607013277.9399,496.0
1607013277.9419,486.0
1607013277.9439,476.0
1607013277.9459,472.0
1607013277.9479,464.0
1607013277.9499,452.0
1607013277.952,445.0
1607013277.954,447.0
1607013278.38,445.0
1607013278.3813,438.0
1607013278.3838,433.0
1607013278.3865,433.0
1607013278.3885,418.0
1607013278.3904,404.0
1607013278.3927,401.0
1607013278.3944,406.0
1607013278.3964,399.0
1607013278.3984,392.0
1607013278.4003,392.0
1607013278.4023,397.0
1607013278.4043,394.0
1607013278.4064,382.0
1607013278.4083,380.0
1607013278.4103,382.0
1607013278.4123,382.0
1607013278.4143,377.0
1607013278.4163,375.0
1607013278.4183,370.0
1607013278.4203,360.0
1607013278.4223,355.0
1607013278.4243,360.0
1607013278.4263,360.0
1607013278.4283,360.0
1607013278.4303,360.0
1607013278.4323,355.0
1607013278.4349,353.0
1607013278.4363,355.0
1607013278.4384,358.0
1607013278.4403,358.0
1607013278.4423,351.0
1607013278.4443,341.0
1607013278.4463,346.0
1607013278.4483,348.0
1607013278.4503,348.0
1607013278.4523,358.0
1607013278.4543,368.0
1607013278.4563,358.0
1607013278.4583,360.0
1607013278.4603,368.0
1607013278.4623,343.0
1607013278.4645,309.0
1607013278.4664,307.0
1607013278.4683,307.0
1607013278.4703,309.0
1607013278.4723,314.0
1607013278.4743,312.0
1607013278.4763,295.0
1607013278.4784,273.0
1607013278.4803,351.0
1607013278.4823,670.0
1607013278.4843,1065.0
1607013278.4862,1108.0
1607013278.4884,564.0
1607013278.4903,-162.0
1607013278.4923,-288.0
1607013278.4943,72.0
1607013278.4963,215.0
1607013278.4983,184.0
1607013278.5003,254.0
1607013278.5022,292.0
1607013278.5043,263.0
1607013278.5063,268.0
1607013278.5083,283.0
1607013278.5103,278.0
1607013278.5123,280.0
1607013278.5142,288.0
1607013278.5163,288.0
1607013278.5183,290.0
1607013278.5204,295.0
1607013278.5223,292.0
1607013278.5243,292.0
1607013279.0102,297.0
1607013279.0115,302.0
1607013279.014,302.0
1607013279.0166,307.0
1607013279.0186,317.0
1607013279.0205,322.0
1607013279.0226,319.0
1607013279.0246,326.0
1607013279.0266,341.0
1607013279.0286,351.0
1607013279.0305,358.0
1607013279.0325,365.0
1607013279.0345,365.0
1607013279.0365,360.0
1607013279.0384,363.0
1607013279.0404,368.0
1607013279.0424,360.0
1607013279.0445,338.0
1607013279.0464,314.0
1607013279.0485,290.0
1607013279.0506,263.0
1607013279.0525,234.0
1607013279.0545,217.0
1607013279.0564,210.0
1607013279.0585,203.0
1607013279.0604,193.0
1607013279.0624,193.0
1607013279.0644,200.0
1607013279.0664,205.0
1607013279.0685,213.0
1607013279.0704,220.0
1607013279.0725,222.0
1607013279.0744,222.0
1607013279.0764,225.0
1607013279.0785,232.0
1607013279.0804,242.0
1607013279.0824,242.0
1607013279.0845,237.0
1607013279.0864,237.0
1607013279.0885,234.0
1607013279.0905,222.0
1607013279.0924,213.0
1607013279.0944,210.0
1607013279.0965,205.0
1607013279.0985,200.0
1607013279.1004,198.0
1607013279.1024,196.0
1607013279.1044,193.0
1607013279.1064,193.0
1607013279.1085,196.0
1607013279.1105,196.0
1607013279.1124,193.0
1607013279.1144,193.0
1607013279.1164,191.0
1607013279.1185,184.0
1607013279.1204,188.0
1607013279.1224,191.0
1607013279.1244,188.0
1607013279.1264,191.0
1607013279.1285,196.0
1607013279.1305,193.0
1607013279.1324,191.0
1607013279.1344,193.0
1607013279.1365,191.0
1607013279.1385,186.0
1607013279.1404,188.0
1607013279.1424,191.0
1607013279.1444,186.0
1607013279.1464,181.0
1607013279.1485,181.0
1607013279.1504,188.0
1607013279.1526,186.0
1607013279.1544,184.0
1607013279.5198,186.0
1607013279.5207,188.0
1607013279.5233,186.0
1607013279.5258,184.0
1607013279.5279,179.0
1607013279.5298,174.0
1607013279.5318,176.0
1607013279.5338,179.0
1607013279.536,176.0
1607013279.5378,184.0
1607013279.5397,191.0
1607013279.5417,198.0
1607013279.5438,215.0
1607013279.5457,215.0
1607013279.5478,205.0
1607013279.5497,210.0
1607013279.5517,203.0
1607013279.5537,174.0
1607013279.5557,159.0
1607013279.5577,162.0
1607013279.5598,164.0
1607013279.5617,169.0
1607013279.5637,174.0
1607013279.5657,162.0
1607013279.5678,123.0
1607013279.5697,150.0
1607013279.5717,414.0
1607013279.5737,828.0
1607013279.5757,980.0
1607013279.5777,568.0
1607013279.5797,-176.0
1607013279.5818,-457.0
1607013279.5837,-96.0
1607013279.5858,128.0
1607013279.5878,70.0
1607013279.5897,111.0
1607013279.5917,174.0
1607013279.5937,142.0
1607013279.5957,133.0
1607013279.5977,157.0
1607013279.5998,159.0
1607013279.6017,154.0
1607013279.6037,154.0
1607013279.6057,152.0
1607013279.6078,145.0
1607013279.6097,145.0
1607013279.6117,181.0
1607013279.6137,215.0
1607013279.6157,198.0
1607013279.6179,186.0
1607013279.6198,196.0
1607013279.6217,196.0
1607013279.6237,203.0
1607013279.6257,227.0
1607013279.6277,249.0
1607013279.6297,254.0
1607013279.6317,242.0
1607013279.6337,242.0
1607013279.6357,261.0
1607013279.6378,290.0
1607013279.6398,312.0
1607013279.6417,292.0
1607013279.6437,283.0
1607013279.6457,331.0
1607013279.6477,338.0
1607013279.6497,276.0
1607013279.6517,232.0
1607013279.6537,230.0
1607013279.6557,210.0
1607013279.6577,164.0
1607013279.6598,133.0
1607013279.6617,125.0
1607013279.6637,118.0
1607013280.0898,111.0
1607013280.0911,116.0
1607013280.0935,123.0
1607013280.0961,130.0
1607013280.0983,135.0
1607013280.1001,142.0
1607013280.1022,154.0
1607013280.1041,159.0
1607013280.1061,152.0
1607013280.1081,154.0
1607013280.11,171.0
1607013280.1121,167.0
1607013280.1141,159.0
1607013280.1171,164.0
1607013280.118,150.0
1607013280.1202,150.0
1607013280.122,169.0
1607013280.1241,152.0
1607013280.1262,128.0
1607013280.1281,130.0
1607013280.1301,135.0
1607013280.132,152.0
1607013280.134,159.0
1607013280.136,133.0
1607013280.138,125.0
1607013280.14,138.0
1607013280.142,123.0
1607013280.1429,121.0
1607013280.1451,135.0
1607013280.147,123.0
1607013280.149,116.0
1607013280.151,121.0
1607013280.153,118.0
1607013280.155,108.0
1607013280.157,104.0
1607013280.159,101.0
1607013280.161,106.0
1607013280.163,106.0
1607013280.165,101.0
1607013280.167,99.0
1607013280.169,94.0
1607013280.171,92.0
1607013280.173,94.0
1607013280.1737,96.0
1607013280.176,94.0
1607013280.178,92.0
1607013280.18,84.0
1607013280.182,77.0
1607013280.1841,77.0
1607013280.186,77.0
1607013280.188,72.0
1607013280.19,67.0
1607013280.192,53.0
1607013280.194,43.0
1607013280.196,24.0
1607013280.198,-16.0
1607013280.2,-41.0
1607013280.202,-48.0
1607013280.204,-62.0
1607013280.2047,-82.0
1607013280.207,-104.0
1607013280.209,-111.0
1607013280.211,-128.0
1607013280.213,-193.0
1607013280.2152,-246.0
1607013280.217,-263.0
1607013280.219,-307.0
1607013280.221,-358.0
1607013280.223,-368.0
1607013280.225,-380.0
1607013280.227,-435.0
1607013280.229,-486.0
1607013280.231,-409.0
1607013280.6303,-108.0
1607013280.6313,244.0
1607013280.6338,261.0
1607013280.6365,-251.0
1607013280.6386,-888.0
1607013280.6406,-956.0
1607013280.6424,-605.0
1607013280.6443,-486.0
1607013280.6463,-525.0
1607013280.6483,-447.0
1607013280.6503,-387.0
1607013280.6523,-384.0
1607013280.6543,-343.0
1607013280.6563,-292.0
1607013280.6583,-263.0
1607013280.659,-234.0
1607013280.6613,-205.0
1607013280.6633,-196.0
1607013280.6653,-186.0
1607013280.6673,-174.0
1607013280.6693,-162.0
1607013280.6713,-150.0
1607013280.6733,-135.0
1607013280.6753,-121.0
1607013280.6773,-106.0
1607013280.6793,-92.0
1607013280.6812,-77.0
1607013280.6833,-60.0
1607013280.6853,-33.0
1607013280.6873,-12.0
1607013280.6893,0.0
1607013280.69,12.0
1607013280.6923,33.0
1607013280.6943,55.0
1607013280.6963,67.0
1607013280.6983,77.0
1607013280.7004,87.0
1607013280.7023,92.0
1607013280.7043,79.0
1607013280.7063,58.0
1607013280.7083,29.0
1607013280.7104,0.0
1607013280.7124,-29.0
1607013280.7143,-53.0
1607013280.7164,-77.0
1607013280.7183,-89.0
1607013280.7203,-87.0
1607013280.721,-87.0
1607013280.7234,-92.0
1607013280.7253,-89.0
1607013280.7273,-75.0
1607013280.7293,-67.0
1607013280.7313,-58.0
1607013280.7333,-46.0
1607013280.7354,-46.0
1607013280.7373,-58.0
1607013280.7395,-50.0
1607013280.7413,-26.0
1607013280.7433,-19.0
1607013280.7453,-26.0
1607013280.7473,-24.0
1607013280.7493,-33.0
1607013280.7513,-46.0
1607013280.752,-29.0
1607013280.7543,-19.0
1607013280.7563,-41.0
1607013280.7583,-55.0
1607013280.7603,-43.0
1607013280.7623,-36.0
1607013280.7642,-33.0
1607013280.7665,-33.0
1607013280.7684,-33.0
1607013280.7703,-31.0
1607013281.2008,-33.0
1607013281.2021,-33.0
1607013281.2041,-24.0
1607013281.2054,-24.0
1607013281.2069,-24.0
1607013281.2089,-24.0
1607013281.2108,-24.0
1607013281.2128,-24.0
1607013281.2148,-12.0
1607013281.2168,-2.0
1607013281.2189,-4.0
1607013281.2208,-4.0
1607013281.2227,0.0
1607013281.2248,4.0
1607013281.2268,9.0
1607013281.2288,12.0
1607013281.2307,16.0
1607013281.2328,24.0
1607013281.2348,29.0
1607013281.2355,26.0
1607013281.238,26.0
1607013281.2398,29.0
1607013281.2419,33.0
1607013281.2439,38.0
1607013281.2458,60.0
1607013281.2478,77.0
1607013281.2498,72.0
1607013281.2518,87.0
1607013281.2537,99.0
1607013281.2558,70.0
1607013281.2578,41.0
1607013281.2598,50.0
1607013281.2617,58.0
1607013281.2637,60.0
1607013281.2659,72.0
1607013281.2664,77.0
1607013281.2678,58.0
1607013281.2697,50.0
1607013281.2717,203.0
1607013281.2738,576.0
1607013281.2757,888.0
1607013281.2777,745.0
1607013281.2798,72.0
1607013281.2817,-508.0
1607013281.2839,-397.0
1607013281.2857,-46.0
1607013281.2877,4.0
1607013281.2898,9.0
1607013281.2917,94.0
1607013281.2937,94.0
1607013281.2958,70.0
1607013281.2965,101.0
1607013281.2988,121.0
1607013281.3007,111.0
1607013281.3027,113.0
1607013281.3047,125.0
1607013281.3068,128.0
1607013281.3089,130.0
1607013281.3108,138.0
1607013281.3127,145.0
1607013281.3147,150.0
1607013281.3167,150.0
1607013281.3188,154.0
1607013281.3207,162.0
1607013281.3227,164.0
1607013281.3248,162.0
1607013281.3255,179.0
1607013281.3277,205.0
1607013281.3298,220.0
1607013281.3317,239.0
1607013281.3338,266.0
1607013281.3357,268.0
1607013281.3377,268.0
1607013281.7397,276.0
1607013281.7407,283.0
1607013281.7431,292.0
1607013281.7458,292.0
1607013281.7478,283.0
1607013281.7501,263.0
1607013281.752,239.0
1607013281.7538,205.0
1607013281.7558,169.0
1607013281.7578,142.0
1607013281.7597,125.0
1607013281.7617,106.0
1607013281.7639,101.0
1607013281.7657,106.0
1607013281.7677,111.0
1607013281.7697,111.0
1607013281.7717,101.0
1607013281.7737,94.0
1607013281.7757,111.0
1607013281.7777,123.0
1607013281.7798,108.0
1607013281.7817,106.0
1607013281.7837,135.0
1607013281.7857,162.0
1607013281.7877,167.0
1607013281.7897,159.0
1607013281.7917,147.0
1607013281.7937,138.0
1607013281.7957,128.0
1607013281.7977,133.0
1607013281.7997,145.0
1607013281.8018,135.0
1607013281.8039,125.0
1607013281.8057,138.0
1607013281.8077,145.0
1607013281.8097,142.0
1607013281.8117,145.0
1607013281.8137,150.0
1607013281.8157,162.0
1607013281.8177,174.0
1607013281.8197,167.0
1607013281.8217,159.0
1607013281.8237,157.0
1607013281.8257,157.0
1607013281.8276,159.0
1607013281.8297,159.0
1607013281.8317,154.0
1607013281.8337,152.0
1607013281.8357,154.0
1607013281.8377,154.0
1607013281.8397,159.0
1607013281.8417,162.0
1607013281.8437,157.0
1607013281.8457,147.0
1607013281.8477,140.0
1607013281.8497,152.0
1607013281.8517,169.0
1607013281.8537,169.0
1607013281.8557,159.0
1607013281.8577,162.0
1607013281.8598,164.0
1607013281.8617,162.0
1607013281.8637,159.0
1607013281.8658,164.0
1607013281.8677,169.0
1607013281.8697,179.0
1607013281.8717,179.0
1607013281.8737,179.0
1607013281.8756,193.0
1607013281.8777,200.0
1607013281.8797,188.0
1607013281.8817,196.0
1607013281.8837,205.0
1607013282.3406,174.0
1607013282.3419,145.0
1607013282.3443,154.0
1607013282.347,169.0
1607013282.3489,164.0
1607013282.3509,150.0
1607013282.353,145.0
1607013282.3549,130.0
1607013282.3569,121.0
1607013282.359,251.0
1607013282.3609,593.0
1607013282.3629,874.0
1607013282.3649,716.0
1607013282.3669,77.0
1607013282.369,-447.0
1607013282.3709,-307.0
1607013282.3729,21.0
1607013282.3749,43.0
1607013282.3769,31.0
1607013282.379,104.0
1607013282.3809,99.0
1607013282.3829,75.0
1607013282.3849,101.0
1607013282.3869,113.0
1607013282.389,101.0
1607013282.3909,101.0
1607013282.3929,104.0
1607013282.3949,99.0
1607013282.3969,108.0
1607013282.3989,121.0
1607013282.4009,125.0
1607013282.4029,128.0
1607013282.4049,133.0
1607013282.4069,130.0
1607013282.4089,133.0
1607013282.4108,145.0
1607013282.4129,154.0
1607013282.4148,164.0
1607013282.4168,176.0
1607013282.4189,181.0
1607013282.4208,179.0
1607013282.4231,193.0
1607013282.4249,227.0
1607013282.4269,246.0
1607013282.4289,239.0
1607013282.4308,234.0
1607013282.4328,246.0
1607013282.4348,251.0
1607013282.4369,237.0
1607013282.4388,213.0
1607013282.4408,193.0
1607013282.4428,164.0
1607013282.4449,133.0
1607013282.4469,113.0
1607013282.4489,92.0
1607013282.4508,70.0
1607013282.4529,65.0
1607013282.4549,70.0
1607013282.457,77.0
1607013282.4589,87.0
1607013282.4608,94.0
1607013282.4628,101.0
1607013282.4648,111.0
1607013282.4668,123.0
1607013282.4689,133.0
1607013282.4708,145.0
1607013282.4728,150.0
1607013282.4748,147.0
1607013282.4768,147.0
1607013282.4789,152.0
1607013282.4808,162.0
1607013282.4828,164.0
1607013282.4848,154.0
1607013282.8797,150.0
1607013282.8807,145.0
1607013282.8831,133.0
1607013282.8858,130.0
1607013282.8877,133.0
1607013282.8897,133.0
1607013282.8918,128.0
1607013282.8937,125.0
1607013282.8957,125.0
1607013282.8977,123.0
1607013282.8997,113.0
1607013282.9017,113.0
1607013282.9037,118.0
1607013282.9058,116.0
1607013282.9078,113.0
1607013282.9097,116.0
1607013282.9117,118.0
1607013282.9137,123.0
1607013282.9157,125.0
1607013282.9179,123.0
1607013282.9198,121.0
1607013282.9217,121.0
1607013282.9237,121.0
1607013282.9257,118.0
1607013282.9277,121.0
1607013282.9297,123.0
1607013282.9318,118.0
1607013282.9337,113.0
1607013282.9357,116.0
1607013282.9376,125.0
1607013282.9397,130.0
1607013282.9416,140.0
1607013282.9436,162.0
1607013282.9456,169.0
1607013282.9476,159.0
1607013282.9496,167.0
1607013282.9517,169.0
1607013282.9536,135.0
1607013282.9556,113.0
1607013282.9576,123.0
1607013282.9597,125.0
1607013282.9616,121.0
1607013282.9636,125.0
1607013282.9656,125.0
1607013282.9676,101.0
1607013282.9696,84.0
1607013282.9716,222.0
1607013282.9736,576.0
1607013282.9756,878.0
1607013282.9776,738.0
1607013282.9796,92.0
1607013282.9816,-462.0
1607013282.9836,-341.0
1607013282.9857,7.0
1607013282.9876,46.0
1607013282.9897,31.0
1607013282.9916,101.0
1607013282.9936,101.0
1607013282.9956,79.0
1607013282.9976,104.0
1607013283.0003,108.0
1607013283.0016,99.0
1607013283.0036,104.0
1607013283.0057,111.0
1607013283.0076,111.0
1607013283.0098,111.0
1607013283.0117,111.0
1607013283.0136,113.0
1607013283.0157,121.0
1607013283.0176,128.0
1607013283.0198,128.0
1607013283.0217,130.0
1607013283.0237,140.0
1607013283.4498,152.0
1607013283.4508,162.0
1607013283.4533,171.0
1607013283.4559,184.0
1607013283.4579,193.0
1607013283.4599,205.0
1607013283.4622,215.0
1607013283.4639,220.0
1607013283.4659,222.0
1607013283.4679,232.0
1607013283.4698,239.0
1607013283.4718,237.0
1607013283.4739,222.0
1607013283.4758,198.0
1607013283.4778,181.0
1607013283.4799,154.0
1607013283.4818,125.0
1607013283.4838,104.0
1607013283.4858,87.0
1607013283.4878,65.0
1607013283.4898,55.0
1607013283.4917,60.0
1607013283.4938,62.0
1607013283.4958,62.0
1607013283.4978,70.0
1607013283.4998,82.0
1607013283.5018,87.0
1607013283.5038,96.0
1607013283.5058,108.0
1607013283.5078,116.0
1607013283.5098,113.0
1607013283.5118,116.0
1607013283.5138,123.0
1607013283.5158,125.0
1607013283.5178,118.0
1607013283.5198,113.0
1607013283.5219,111.0
1607013283.5238,106.0
1607013283.5258,101.0
1607013283.5278,99.0
1607013283.5298,99.0
1607013283.5318,96.0
1607013283.5338,92.0
1607013283.5357,89.0
1607013283.5378,94.0
1607013283.5398,92.0
1607013283.5418,87.0
1607013283.5437,87.0
1607013283.546,87.0
1607013283.5478,89.0
1607013283.5498,92.0
1607013283.5518,94.0
1607013283.5539,96.0
1607013283.5558,96.0
1607013283.5578,92.0
1607013283.5599,89.0
1607013283.5618,96.0
1607013283.5638,99.0
1607013283.5658,87.0
1607013283.5678,84.0
1607013283.5698,92.0
1607013283.5719,92.0
1607013283.5738,87.0
1607013283.5758,87.0
1607013283.5778,87.0
1607013283.5799,84.0
1607013283.5818,84.0
1607013283.5838,89.0
1607013283.5857,92.0
1607013283.5877,99.0
1607013283.5898,118.0
1607013283.5918,125.0
1607013283.5938,111.0
1607013283.9902,111.0
1607013283.9912,108.0
1607013283.9937,77.0
1607013283.9963,60.0
1607013283.9983,62.0
1607013284.0003,65.0
1607013284.0026,65.0
1607013284.0042,65.0
1607013284.0063,58.0
1607013284.0083,33.0
1607013284.0102,21.0
1607013284.0122,162.0
1607013284.0144,515.0
1607013284.0164,825.0
1607013284.0182,680.0
1607013284.0202,4.0
1607013284.0224,-559.0
1607013284.0242,-421.0
1607013284.0262,-67.0
1607013284.0282,-38.0
1607013284.0302,-53.0
1607013284.0321,24.0
1607013284.0342,31.0
1607013284.0362,12.0
1607013284.0382,31.0
1607013284.0402,41.0
1607013284.0424,36.0
1607013284.0442,46.0
1607013284.0462,48.0
1607013284.0482,46.0
1607013284.0502,50.0
1607013284.0577,60.0
1607013284.0592,60.0
1607013284.0613,62.0
1607013284.0633,72.0
1607013284.0652,77.0
1607013284.0672,77.0
1607013284.0692,87.0
1607013284.0712,99.0
1607013284.0733,108.0
1607013284.0752,123.0
1607013284.0772,135.0
1607013284.0792,145.0
1607013284.0812,159.0
1607013284.0832,171.0
1607013284.0852,181.0
1607013284.0872,196.0
1607013284.0892,210.0
1607013284.0912,213.0
1607013284.0932,205.0
1607013284.0952,191.0
1607013284.0972,169.0
1607013284.0991,142.0
1607013284.1012,113.0
1607013284.1032,79.0
1607013284.1052,48.0
1607013284.1072,26.0
1607013284.1092,14.0
1607013284.1112,7.0
1607013284.1132,0.0
1607013284.1152,2.0
1607013284.1172,7.0
1607013284.1192,14.0
1607013284.1211,24.0
1607013284.1232,33.0
1607013284.1252,46.0
1607013284.1272,58.0
1607013284.1292,60.0
1607013284.1312,62.0
1607013284.1332,67.0
1607013284.1352,72.0
1607013284.1372,72.0
1607013284.1392,70.0
1607013284.5602,67.0
1607013284.5612,62.0
1607013284.5626,58.0
1607013284.5646,48.0
1607013284.567,38.0
1607013284.5688,38.0
1607013284.5702,33.0
1607013284.5736,21.0
1607013284.5809,16.0
1607013284.5833,19.0
1607013284.5854,24.0
1607013284.5878,26.0
1607013284.5914,26.0
1607013284.5959,21.0
1607013284.6017,21.0
1607013284.6048,26.0
1607013284.6086,29.0
1607013284.6136,26.0
1607013284.6198,26.0
1607013284.6218,33.0
1607013284.6245,38.0
1607013284.6278,38.0
1607013284.6313,38.0
1607013284.639,38.0
1607013284.6412,33.0
1607013284.6432,36.0
1607013284.6451,46.0
1607013284.6478,50.0
1607013284.6516,55.0
1607013284.6604,65.0
1607013284.6627,87.0
1607013284.6646,99.0
1607013284.6669,89.0
1607013284.6715,94.0
1607013284.6802,96.0
1607013284.6825,70.0
1607013284.6848,46.0
1607013284.6891,48.0
1607013284.6973,53.0
1607013284.6993,55.0
1607013284.7013,58.0
1607013284.7048,58.0
1607013284.7188,46.0
1607013284.7221,31.0
1607013284.7295,125.0
1607013284.7342,460.0
1607013284.7409,837.0
1607013284.7443,830.0
1607013284.7522,244.0
1607013284.7571,-452.0
1607013284.7635,-518.0
1607013284.7669,-147.0
1607013284.7776,-16.0
1607013284.7811,-38.0
1607013284.7882,31.0
1607013284.7927,62.0
1607013284.7973,33.0
1607013284.8008,46.0
1607013284.8086,62.0
1607013284.8106,58.0
1607013284.813,60.0
1607013284.8159,70.0
1607013284.8194,70.0
1607013284.8271,72.0
1607013284.8321,77.0
1607013284.8389,79.0
1607013284.8424,82.0
1607013284.8506,87.0
1607013284.8557,96.0
1607013284.8624,101.0
1607013284.8658,101.0
1607013284.8728,106.0
1607013284.8773,113.0
1607013285.0998,125.0
1607013285.1005,138.0
1607013285.1028,150.0
1607013285.1063,164.0
1607013285.1141,176.0
1607013285.1188,186.0
1607013285.1258,191.0
1607013285.1293,193.0
1607013285.1375,200.0
1607013285.1423,205.0
1607013285.1491,193.0
1607013285.1525,174.0
1607013285.1595,159.0
1607013285.1639,135.0
1607013285.1706,108.0
1607013285.1741,87.0
1607013285.1816,67.0
1607013285.1858,58.0
1607013285.1927,53.0
1607013285.1961,48.0
1607013285.2038,48.0
1607013285.2087,58.0
1607013285.2156,65.0
1607013285.219,72.0
1607013285.2272,79.0
1607013285.2324,87.0
1607013285.2391,92.0
1607013285.2425,99.0
1607013285.2495,104.0
1607013285.2539,106.0
1607013285.2606,106.0
1607013285.2639,104.0
1607013285.2713,104.0
1607013285.2759,106.0
1607013285.2825,99.0
1607013285.2859,94.0
1607013285.2936,92.0
1607013285.2988,87.0
1607013285.3057,82.0
1607013285.3091,82.0
1607013285.3172,79.0
1607013285.3216,77.0
1607013285.3283,79.0
1607013285.3316,79.0
1607013285.3387,77.0
1607013285.3498,75.0
1607013285.3532,75.0
1607013285.3609,77.0
1607013285.3652,75.0
1607013285.372,75.0
1607013285.3754,79.0
1607013285.3833,79.0
1607013285.3879,77.0
1607013285.3948,77.0
1607013285.3983,77.0
1607013285.4065,79.0
1607013285.4115,79.0
1607013285.4182,79.0
1607013285.4217,82.0
1607013285.4287,87.0
1607013285.4329,92.0
1607013285.4388,89.0
1607013285.4421,84.0
1607013285.4499,77.0
1607013285.4529,79.0
1607013285.4564,89.0
1607013285.4642,87.0
1607013285.4688,87.0
1607013285.4758,94.0
1607013285.4792,92.0
1607013285.4873,84.0
1607013285.4924,94.0
1607013285.4998,106.0
1607013285.7005,106.0
1607013285.7012,123.0
1607013285.705,142.0
1607013285.7084,128.0
1607013285.7158,111.0
1607013285.7201,121.0
1607013285.727,116.0
1607013285.7304,87.0
1607013285.7381,72.0
1607013285.7428,75.0
1607013285.7499,82.0
1607013285.7534,89.0
1607013285.7617,94.0
1607013285.7666,96.0
1607013285.7732,75.0
1607013285.7765,79.0
1607013285.7838,273.0
1607013285.7882,651.0
1607013285.7958,878.0
1607013285.8005,605.0
1607013285.8067,-82.0
1607013285.8089,-479.0
1607013285.8129,-237.0
1607013285.8168,29.0
1607013285.8208,12.0
1607013285.8248,24.0
1607013285.8288,87.0
1607013285.8327,65.0
1607013285.835,53.0
1607013285.8372,79.0
1607013285.8399,82.0
1607013285.8428,75.0
1607013285.8459,82.0
1607013285.8488,87.0
1607013285.8519,87.0
1607013285.8545,94.0
1607013285.8567,99.0
1607013285.8588,101.0
1607013285.8616,106.0
1607013285.8638,111.0
1607013285.8663,111.0
1607013285.8737,116.0
1607013285.8758,125.0
1607013285.8826,135.0
1607013285.8861,142.0
1607013285.891,154.0
1607013285.8963,164.0
1607013285.9079,174.0
1607013285.9155,184.0
1607013285.9192,198.0
1607013285.95,205.0
1607013285.9557,210.0
1607013285.9592,220.0
1607013285.9665,225.0
1607013285.9708,220.0
1607013285.9788,205.0
1607013285.9822,188.0
1607013285.9899,167.0
1607013285.9946,140.0
1607013286.0014,111.0
1607013286.0126,87.0
1607013286.0161,72.0
1607013286.0244,58.0
1607013286.0292,46.0
1607013286.0358,43.0
1607013286.0392,48.0
1607013286.0461,53.0
1607013286.0505,65.0
1607013286.0572,72.0
1607013286.0606,79.0
1607013286.068,87.0
1607013286.0725,99.0
1607013286.0795,104.0
1607013286.2701,101.0
1607013286.2711,99.0
1607013286.2798,99.0
1607013286.2831,96.0
1607013286.2903,87.0
1607013286.2946,79.0
1607013286.3013,75.0
1607013286.3048,70.0
1607013286.3121,62.0
1607013286.3164,46.0
1607013286.3226,33.0
1607013286.3259,36.0
1607013286.3336,36.0
1607013286.3383,26.0
1607013286.3468,24.0
1607013286.3503,26.0
1607013286.3584,24.0
1607013286.3634,21.0
1607013286.3704,21.0
1607013286.3807,24.0
1607013286.3841,26.0
1607013286.391,24.0
1607013286.3954,24.0
1607013286.4024,29.0
1607013286.4059,38.0
1607013286.4134,41.0
1607013286.4178,36.0
1607013286.4245,36.0
1607013286.4354,38.0
1607013286.4388,41.0
1607013286.4467,43.0
1607013286.4516,41.0
1607013286.4589,38.0
1607013286.4623,41.0
1607013286.4706,43.0
1607013286.4751,46.0
1607013286.4796,48.0
1607013286.4842,50.0
1607013286.4917,53.0
1607013286.4953,50.0
1607013286.4999,48.0
1607013286.508,48.0
1607013286.5111,48.0
1607013286.5154,46.0
1607013286.5217,46.0
1607013286.5252,43.0
1607013286.5334,48.0
1607013286.5361,48.0
1607013286.5467,41.0
1607013286.5502,41.0
1607013286.5596,48.0
1607013286.563,50.0
1607013286.5701,48.0
1607013286.5751,55.0
1607013286.5809,82.0
1607013286.5843,87.0
1607013286.5918,72.0
1607013286.5965,82.0
1607013286.604,92.0
1607013286.6073,62.0
1607013286.6152,36.0
1607013286.6203,33.0
1607013286.6272,31.0
1607013286.6311,36.0
1607013286.6395,41.0
1607013286.643,36.0
1607013286.6502,19.0
1607013286.6546,14.0
1607013286.6605,167.0
1607013286.6707,549.0
1607013286.6741,864.0
1607013286.6834,702.0
1607013286.6867,14.0
1607013286.8093,-559.0
1607013286.81,-428.0
1607013286.8132,-84.0
1607013286.8174,-58.0
1607013286.8225,-60.0
1607013286.8261,26.0
1607013286.8304,21.0
1607013286.8375,-9.0
1607013286.8411,16.0
1607013286.8455,33.0
1607013286.8524,19.0
1607013286.8559,9.0
1607013286.86,16.0
1607013286.8661,29.0
1607013286.8695,31.0
1607013286.8772,33.0
1607013286.8818,46.0
1607013286.8897,55.0
1607013286.8932,53.0
1607013286.9009,55.0
1607013286.9058,67.0
1607013286.9131,75.0
1607013286.9168,84.0
1607013286.9254,104.0
1607013286.9289,118.0
1607013286.936,130.0
1607013286.9406,142.0
1607013286.9466,145.0
1607013286.9568,157.0
1607013286.9602,181.0
1607013286.9696,191.0
1607013286.973,186.0
1607013286.9809,193.0
1607013286.9856,203.0
1607013286.9929,198.0
1607013286.9962,176.0
1607013287.0043,140.0
1607013287.0095,101.0
1607013287.015,75.0
1607013287.0203,53.0
1607013287.0278,29.0
1607013287.0313,9.0
1607013287.0382,2.0
1607013287.0429,-2.0
1607013287.0496,-2.0
1607013287.0531,0.0
1607013287.0609,4.0
1607013287.0654,12.0
1607013287.0723,21.0
1607013287.0758,29.0
1607013287.0837,36.0
1607013287.0885,48.0
1607013287.0956,62.0
1607013287.1063,65.0
1607013287.1082,60.0
1607013287.1133,62.0
1607013287.1204,60.0
1607013287.1238,55.0
1607013287.1266,50.0
1607013287.1326,48.0
1607013287.1401,46.0
1607013287.1445,43.0
1607013287.1526,41.0
1607013287.1559,41.0
1607013287.1638,41.0
1607013287.1686,38.0
1607013287.1752,36.0
1607013287.1849,33.0
1607013287.1884,31.0
1607013287.1925,29.0
1607013287.2001,31.0
1607013287.2036,36.0
1607013287.2107,36.0
1607013287.3793,33.0
1607013287.3798,36.0
1607013287.3811,38.0
1607013287.3831,38.0
1607013287.3851,38.0
1607013287.3872,38.0
1607013287.3892,41.0
1607013287.3911,38.0
1607013287.3931,26.0
1607013287.3951,26.0
1607013287.3958,33.0
1607013287.3971,33.0
1607013287.3991,36.0
1607013287.4011,38.0
1607013287.4031,41.0
1607013287.4051,38.0
1607013287.4071,43.0
1607013287.4092,46.0
1607013287.4111,48.0
1607013287.4131,58.0
1607013287.4151,79.0
1607013287.4172,82.0
1607013287.4192,77.0
1607013287.4211,92.0
1607013287.4231,92.0
1607013287.4251,60.0
1607013287.4258,38.0
1607013287.4271,41.0
1607013287.4292,43.0
1607013287.4311,41.0
1607013287.4331,41.0
1607013287.4351,41.0
1607013287.4371,21.0
1607013287.4391,0.0
1607013287.4411,133.0
1607013287.4431,522.0
1607013287.4451,878.0
1607013287.4471,762.0
1607013287.4491,82.0
1607013287.4511,-549.0
1607013287.4531,-462.0
1607013287.4551,-89.0
1607013287.4558,-41.0
1607013287.4581,-62.0
1607013287.4601,26.0
1607013287.4622,36.0
1607013287.4641,7.0
1607013287.4663,29.0
1607013287.4682,43.0
1607013287.4701,36.0
1607013287.4721,46.0
1607013287.4741,55.0
1607013287.4761,58.0
1607013287.4781,60.0
1607013287.4801,62.0
1607013287.4821,67.0
1607013287.4841,75.0
1607013287.4861,82.0
1607013287.4868,89.0
1607013287.4891,101.0
1607013287.4911,123.0
1607013287.4931,128.0
1607013287.4951,125.0
1607013287.4971,135.0
1607013287.4991,142.0
1607013287.5012,133.0
1607013287.5031,135.0
1607013287.5051,159.0
1607013287.5071,174.0
1607013287.5091,176.0
1607013287.5111,186.0
1607013287.5131,198.0
1607013287.5151,181.0
1607013287.9196,157.0
1607013287.9205,145.0
1607013287.9229,125.0
1607013287.9256,89.0
1607013287.9276,50.0
1607013287.9296,12.0
1607013287.9316,-12.0
1607013287.9335,-21.0
1607013287.9355,-46.0
1607013287.9375,-62.0
1607013287.9395,-46.0
1607013287.9414,-33.0
1607013287.9434,-24.0
1607013287.9454,-7.0
1607013287.9475,0.0
1607013287.9495,0.0
1607013287.9502,9.0
1607013287.9525,29.0
1607013287.9545,36.0
1607013287.9564,43.0
1607013287.9584,75.0
1607013287.9604,94.0
1607013287.9624,67.0
1607013287.9644,43.0
1607013287.9664,38.0
1607013287.9686,14.0
1607013287.9706,-9.0
1607013287.9724,-24.0
1607013287.9744,-43.0
1607013287.9764,-62.0
1607013287.9784,-62.0
1607013287.9804,-62.0
1607013287.9811,-46.0
1607013287.9834,9.0
1607013287.9854,14.0
1607013287.9874,-4.0
1607013287.9895,46.0
1607013287.9915,84.0
1607013287.9935,58.0
1607013287.996,36.0
1607013287.9981,43.0
1607013287.9994,60.0
1607013288.0014,55.0
1607013288.0034,53.0
1607013288.0054,72.0
1607013288.0074,77.0
1607013288.0095,55.0
1607013288.0114,60.0
1607013288.0134,89.0
1607013288.0154,92.0
1607013288.0174,62.0
1607013288.0194,70.0
1607013288.0214,108.0
1607013288.0234,118.0
1607013288.0254,118.0
1607013288.0275,123.0
1607013288.0294,113.0
1607013288.0314,111.0
1607013288.0334,123.0
1607013288.0354,123.0
1607013288.0374,118.0
1607013288.0394,128.0
1607013288.0414,130.0
1607013288.0434,118.0
1607013288.0454,121.0
1607013288.0474,123.0
1607013288.0494,113.0
1607013288.0514,116.0
1607013288.0535,121.0
1607013288.0555,118.0
1607013288.0574,123.0
1607013288.0594,116.0
1607013288.0614,104.0
1607013288.4601,106.0
1607013288.461,99.0
1607013288.4635,104.0
1607013288.4663,125.0
1607013288.4681,130.0
1607013288.4702,118.0
1607013288.4721,121.0
1607013288.4741,125.0
1607013288.4761,123.0
1607013288.4781,106.0
1607013288.4801,79.0
1607013288.4821,55.0
1607013288.4841,48.0
1607013288.4861,50.0
1607013288.4882,50.0
1607013288.4901,46.0
1607013288.492,38.0
1607013288.494,19.0
1607013288.4961,38.0
1607013288.498,198.0
1607013288.5,486.0
1607013288.502,694.0
1607013288.504,552.0
1607013288.506,-14.0
1607013288.5081,-489.0
1607013288.5101,-353.0
1607013288.512,-41.0
1607013288.514,-29.0
1607013288.516,-46.0
1607013288.518,33.0
1607013288.52,33.0
1607013288.522,9.0
1607013288.524,21.0
1607013288.526,-4.0
1607013288.528,0.0
1607013288.53,58.0
1607013288.532,58.0
1607013288.534,12.0
1607013288.536,14.0
1607013288.538,50.0
1607013288.54,24.0
1607013288.542,-2.0
1607013288.544,60.0
1607013288.546,72.0
1607013288.548,2.0
1607013288.55,24.0
1607013288.552,94.0
1607013288.554,72.0
1607013288.556,36.0
1607013288.558,62.0
1607013288.56,92.0
1607013288.562,96.0
1607013288.564,121.0
1607013288.566,152.0
1607013288.5681,125.0
1607013288.5701,92.0
1607013288.572,128.0
1607013288.574,171.0
1607013288.576,157.0
1607013288.578,121.0
1607013288.58,96.0
1607013288.582,79.0
1607013288.584,62.0
1607013288.586,53.0
1607013288.588,24.0
1607013288.59,-38.0
1607013288.592,-48.0
1607013288.594,-14.0
1607013288.596,-21.0
1607013288.598,-31.0
1607013288.6,4.0
1607013288.602,12.0
1607013288.604,-24.0
1607013289.1193,-4.0
1607013289.1205,7.0
1607013289.123,-36.0
1607013289.1256,-19.0
1607013289.1275,29.0
1607013289.1296,36.0
1607013289.1317,46.0
1607013289.1336,29.0
1607013289.1356,-19.0
1607013289.1376,-60.0
1607013289.1396,-70.0
1607013289.1416,-4.0
1607013289.1436,33.0
1607013289.1456,-33.0
1607013289.1476,-62.0
1607013289.1496,14.0
1607013289.1516,26.0
1607013289.1536,-75.0
1607013289.1556,-96.0
1607013289.1576,-19.0
1607013289.1596,-19.0
1607013289.1616,-48.0
1607013289.1636,-16.0
1607013289.1656,0.0
1607013289.1676,7.0
1607013289.1695,2.0
1607013289.1716,-65.0
1607013289.1735,-65.0
1607013289.1755,19.0
1607013289.1775,31.0
1607013289.1795,-14.0
1607013289.1815,-43.0
1607013289.1837,-38.0
1607013289.1856,-38.0
1607013289.1875,-41.0
1607013289.1895,24.0
1607013289.1915,62.0
1607013289.1935,2.0
1607013289.1955,0.0
1607013289.1975,16.0
1607013289.1995,-60.0
1607013289.2015,-55.0
1607013289.2035,41.0
1607013289.2055,12.0
1607013289.2075,-50.0
1607013289.2095,9.0
1607013289.2115,79.0
1607013289.2135,41.0
1607013289.2155,-38.0
1607013289.2175,26.0
1607013289.2195,128.0
1607013289.2215,24.0
1607013289.2235,-55.0
1607013289.2255,2.0
1607013289.2275,0.0
1607013289.2295,-7.0
1607013289.2315,-12.0
1607013289.2335,-53.0
1607013289.2355,-16.0
1607013289.2375,38.0
1607013289.2395,-4.0
1607013289.2415,65.0
1607013289.2435,498.0
1607013289.2455,970.0
1607013289.2475,963.0
1607013289.2496,251.0
1607013289.2516,-598.0
1607013289.2535,-602.0
1607013289.2555,-123.0
1607013289.2575,-33.0
1607013289.2595,-67.0
1607013289.2616,9.0
1607013289.2636,-16.0
1607013289.6305,-26.0
1607013289.6314,53.0
1607013289.6339,41.0
1607013289.6365,-19.0
1607013289.6384,12.0
1607013289.6405,43.0
1607013289.6425,33.0
1607013289.6445,36.0
1607013289.6465,38.0
1607013289.6484,31.0
1607013289.6507,16.0
1607013289.6525,9.0
1607013289.6545,36.0
1607013289.6565,67.0
1607013289.6585,60.0
1607013289.6604,60.0
1607013289.6624,67.0
1607013289.6645,79.0
1607013289.6665,87.0
1607013289.6685,70.0
1607013289.6704,113.0
1607013289.6724,181.0
1607013289.6744,171.0
1607013289.6764,147.0
1607013289.6785,135.0
1607013289.6804,128.0
1607013289.6824,167.0
1607013289.6844,203.0
1607013289.6864,162.0
1607013289.6885,96.0
1607013289.6904,72.0
1607013289.6925,58.0
1607013289.6944,48.0
1607013289.6964,31.0
1607013289.6984,-36.0
1607013289.7004,-72.0
1607013289.7024,24.0
1607013289.7044,106.0
1607013289.7064,24.0
1607013289.7084,-31.0
1607013289.7104,12.0
1607013289.7124,4.0
1607013289.7144,16.0
1607013289.7164,50.0
1607013289.7184,9.0
1607013289.7204,33.0
1607013289.7224,135.0
1607013289.7244,101.0
1607013289.7264,14.0
1607013289.7284,38.0
1607013289.7305,82.0
1607013289.7325,65.0
1607013289.7344,48.0
1607013289.7364,75.0
1607013289.7385,94.0
1607013289.7404,53.0
1607013289.7424,14.0
1607013289.7444,19.0
1607013289.7464,21.0
1607013289.7484,55.0
1607013289.7505,84.0
1607013289.7526,70.0
1607013289.7545,65.0
1607013289.7564,62.0
1607013289.7585,33.0
1607013289.7604,24.0
1607013289.7625,48.0
1607013289.7644,53.0
1607013289.7665,53.0
1607013289.7685,70.0
1607013289.7704,65.0
1607013289.7724,43.0
1607013289.7744,14.0
1607013290.1701,58.0
1607013290.171,111.0
1607013290.1735,43.0
1607013290.1761,31.0
1607013290.1781,106.0
1607013290.18,89.0
1607013290.1821,36.0
1607013290.184,67.0
1607013290.186,116.0
1607013290.188,104.0
1607013290.19,75.0
1607013290.192,87.0
1607013290.194,87.0
1607013290.196,21.0
1607013290.1979,26.0
1607013290.1999,79.0
1607013290.2019,38.0
1607013290.2039,21.0
1607013290.2059,53.0
1607013290.2079,19.0
1607013290.2099,0.0
1607013290.2119,58.0
1607013290.2141,288.0
1607013290.2161,690.0
1607013290.218,876.0
1607013290.2199,486.0
1607013290.2219,-251.0
1607013290.2239,-556.0
1607013290.226,-225.0
1607013290.2279,14.0
1607013290.23,-38.0
1607013290.2319,-2.0
1607013290.2339,75.0
1607013290.2359,48.0
1607013290.2379,38.0
1607013290.2399,72.0
1607013290.242,75.0
1607013290.2439,67.0
1607013290.2461,77.0
1607013290.2483,87.0
1607013290.25,92.0
1607013290.2519,94.0
1607013290.254,96.0
1607013290.2559,99.0
1607013290.2579,101.0
1607013290.2599,106.0
1607013290.2619,113.0
1607013290.264,116.0
1607013290.266,118.0
1607013290.2679,128.0
1607013290.2699,133.0
1607013290.2719,147.0
1607013290.2739,179.0
1607013290.2759,193.0
1607013290.278,193.0
1607013290.28,208.0
1607013290.2819,222.0
1607013290.2839,227.0
1607013290.2859,234.0
1607013290.2879,244.0
1607013290.29,239.0
1607013290.2919,220.0
1607013290.2939,196.0
1607013290.2959,164.0
1607013290.2979,130.0
1607013290.3,101.0
1607013290.302,77.0
1607013290.3039,62.0
1607013290.3059,53.0
1607013290.308,48.0
1607013290.31,53.0
1607013290.312,55.0
1607013290.314,55.0
1607013290.7401,62.0
1607013290.741,75.0
1607013290.7436,75.0
1607013290.7462,75.0
1607013290.7482,84.0
1607013290.7501,92.0
1607013290.7521,82.0
1607013290.7541,77.0
1607013290.7561,82.0
1607013290.7581,82.0
1607013290.76,67.0
1607013290.762,60.0
1607013290.764,62.0
1607013290.766,65.0
1607013290.768,62.0
1607013290.77,55.0
1607013290.772,53.0
1607013290.7742,58.0
1607013290.7761,55.0
1607013290.778,48.0
1607013290.78,48.0
1607013290.782,48.0
1607013290.784,48.0
1607013290.786,48.0
1607013290.788,50.0
1607013290.79,50.0
1607013290.792,53.0
1607013290.794,50.0
1607013290.796,50.0
1607013290.798,50.0
1607013290.8,46.0
1607013290.802,46.0
1607013290.804,50.0
1607013290.806,48.0
1607013290.808,48.0
1607013290.81,50.0
1607013290.812,55.0
1607013290.814,53.0
1607013290.816,50.0
1607013290.818,53.0
1607013290.82,53.0
1607013290.822,53.0
1607013290.824,60.0
1607013290.826,77.0
1607013290.828,96.0
1607013290.83,89.0
1607013290.832,77.0
1607013290.8341,84.0
1607013290.836,77.0
1607013290.838,43.0
1607013290.84,26.0
1607013290.842,31.0
1607013290.844,36.0
1607013290.8462,38.0
1607013290.848,36.0
1607013290.85,16.0
1607013290.852,-14.0
1607013290.854,38.0
1607013290.856,336.0
1607013290.858,767.0
1607013290.86,898.0
1607013290.862,418.0
1607013290.864,-365.0
1607013290.866,-619.0
1607013290.868,-251.0
1607013290.87,-41.0
1607013290.872,-92.0
1607013290.874,-43.0
1607013290.8761,19.0
1607013290.878,-7.0
1607013290.88,-14.0
1607013290.882,14.0
1607013290.884,24.0
1607013291.2794,16.0
1607013291.2803,21.0
1607013291.2828,29.0
1607013291.2854,31.0
1607013291.2874,29.0
1607013291.2894,26.0
1607013291.2914,31.0
1607013291.2933,36.0
1607013291.2953,31.0
1607013291.2973,38.0
1607013291.2993,55.0
1607013291.3013,65.0
1607013291.3033,70.0
1607013291.3053,82.0
1607013291.3073,96.0
1607013291.3093,113.0
1607013291.3113,128.0
1607013291.3133,140.0
1607013291.3153,152.0
1607013291.3173,162.0
1607013291.3193,171.0
1607013291.3213,184.0
1607013291.3233,186.0
1607013291.3252,179.0
1607013291.3274,162.0
1607013291.3293,138.0
1607013291.3313,104.0
1607013291.3333,75.0
1607013291.3353,43.0
1607013291.3373,14.0
1607013291.3393,-2.0
1607013291.3413,-12.0
1607013291.3433,-21.0
1607013291.3453,-24.0
1607013291.3473,-16.0
1607013291.3492,-9.0
1607013291.3513,-2.0
1607013291.3533,4.0
1607013291.3553,14.0
1607013291.3573,19.0
1607013291.3593,19.0
1607013291.3613,29.0
1607013291.3633,36.0
1607013291.3653,38.0
1607013291.3673,36.0
1607013291.3693,36.0
1607013291.3714,33.0
1607013291.3733,21.0
1607013291.3753,12.0
1607013291.3773,12.0
1607013291.3793,12.0
1607013291.3813,4.0
1607013291.3833,4.0
1607013291.3853,7.0
1607013291.3873,4.0
1607013291.3893,4.0
1607013291.3913,7.0
1607013291.3933,9.0
1607013291.3952,12.0
1607013291.3972,7.0
1607013291.3993,4.0
1607013291.4013,4.0
1607013291.4033,7.0
1607013291.4053,14.0
1607013291.4073,29.0
1607013291.4093,33.0
1607013291.4113,31.0
1607013291.4133,36.0
1607013291.4153,60.0
1607013291.4173,60.0
1607013291.4193,26.0
1607013291.4213,9.0
1607013291.4233,14.0
1607013291.8497,16.0
1607013291.8506,14.0
1607013291.853,19.0
1607013291.8557,26.0
1607013291.8577,19.0
1607013291.8597,-16.0
1607013291.8617,-19.0
1607013291.8637,196.0
1607013291.8657,636.0
1607013291.8677,917.0
1607013291.8696,629.0
1607013291.8717,-150.0
1607013291.8736,-648.0
1607013291.8756,-404.0
1607013291.8776,-79.0
1607013291.8797,-89.0
1607013291.8816,-67.0
1607013291.8836,21.0
1607013291.8856,9.0
1607013291.8876,-9.0
1607013291.8896,12.0
1607013291.8916,14.0
1607013291.8936,7.0
1607013291.8956,16.0
1607013291.8978,24.0
1607013291.8996,24.0
1607013291.9016,33.0
1607013291.9036,43.0
1607013291.9056,43.0
1607013291.9076,46.0
1607013291.9096,53.0
1607013291.9116,62.0
1607013291.9136,67.0
1607013291.9156,75.0
1607013291.9176,84.0
1607013291.9195,92.0
1607013291.9217,104.0
1607013291.9236,116.0
1607013291.9256,125.0
1607013291.9276,140.0
1607013291.9296,152.0
1607013291.9316,157.0
1607013291.9336,159.0
1607013291.9356,164.0
1607013291.9376,167.0
1607013291.9396,159.0
1607013291.9416,140.0
1607013291.9436,118.0
1607013291.9456,89.0
1607013291.9476,60.0
1607013291.9496,36.0
1607013291.9516,14.0
1607013291.9536,-4.0
1607013291.9556,-12.0
1607013291.9576,-14.0
1607013291.9596,-14.0
1607013291.9616,-12.0
1607013291.9636,-4.0
1607013291.9656,0.0
1607013291.9676,4.0
1607013291.9696,14.0
1607013291.9716,26.0
1607013291.9736,33.0
1607013291.9756,36.0
1607013291.9776,38.0
1607013291.9796,41.0
1607013291.9816,46.0
1607013291.9836,46.0
1607013291.9856,43.0
1607013291.9876,46.0
1607013291.9896,46.0
1607013291.9916,38.0
1607013291.9936,29.0
1607013292.4496,26.0
1607013292.4508,26.0
1607013292.4535,24.0
1607013292.4559,21.0
1607013292.4578,24.0
1607013292.4598,21.0
1607013292.4619,14.0
1607013292.4638,9.0
1607013292.4658,14.0
1607013292.4679,16.0
1607013292.4698,16.0
1607013292.4718,16.0
1607013292.4738,19.0
1607013292.4758,16.0
1607013292.4778,16.0
1607013292.4798,19.0
1607013292.4818,21.0
1607013292.4838,24.0
1607013292.4858,26.0
1607013292.4878,29.0
1607013292.4897,31.0
1607013292.4917,31.0
1607013292.4937,36.0
1607013292.4958,46.0
1607013292.4985,67.0
1607013292.4998,75.0
1607013292.5018,60.0
1607013292.5038,67.0
1607013292.5057,77.0
1607013292.5078,48.0
1607013292.5097,24.0
1607013292.5117,26.0
1607013292.5137,31.0
1607013292.5157,31.0
1607013292.5177,33.0
1607013292.5197,31.0
1607013292.5218,16.0
1607013292.5237,-19.0
1607013292.5258,26.0
1607013292.5277,329.0
1607013292.5302,748.0
1607013292.5316,837.0
1607013292.5337,329.0
1607013292.5357,-428.0
1607013292.5377,-595.0
1607013292.5398,-191.0
1607013292.5417,-26.0
1607013292.5437,-92.0
1607013292.5457,-26.0
1607013292.5477,21.0
1607013292.5497,-14.0
1607013292.5517,-2.0
1607013292.5537,24.0
1607013292.5559,14.0
1607013292.5578,14.0
1607013292.5597,26.0
1607013292.5617,26.0
1607013292.5634,24.0
1607013292.5647,29.0
1607013292.5667,36.0
1607013292.5688,38.0
1607013292.5707,43.0
1607013292.5727,50.0
1607013292.5747,55.0
1607013292.5767,65.0
1607013292.5788,75.0
1607013292.5808,84.0
1607013292.5828,96.0
1607013292.5849,108.0
1607013292.5867,121.0
1607013292.5888,135.0
1607013292.5907,154.0
1607013292.5928,164.0
1607013292.9903,174.0
1607013292.9912,184.0
1607013292.9948,186.0
1607013292.996,184.0
1607013292.9983,174.0
1607013293.0003,154.0
1607013293.0023,125.0
1607013293.0043,89.0
1607013293.0063,53.0
1607013293.0083,26.0
1607013293.0102,2.0
1607013293.0122,-21.0
1607013293.0143,-36.0
1607013293.0162,-36.0
1607013293.0186,-36.0
1607013293.0206,-33.0
1607013293.0222,-26.0
1607013293.0249,-14.0
1607013293.0265,-4.0
1607013293.0283,2.0
1607013293.0303,9.0
1607013293.0322,16.0
1607013293.0342,19.0
1607013293.0362,21.0
1607013293.0384,24.0
1607013293.0402,24.0
1607013293.0422,21.0
1607013293.0442,14.0
1607013293.0462,9.0
1607013293.0482,7.0
1607013293.0502,4.0
1607013293.0523,0.0
1607013293.0542,-2.0
1607013293.0562,-2.0
1607013293.0569,-9.0
1607013293.0585,-12.0
1607013293.0602,-7.0
1607013293.0622,-7.0
1607013293.0641,-9.0
1607013293.0661,-7.0
1607013293.0683,-2.0
1607013293.0706,-2.0
1607013293.0722,-2.0
1607013293.0742,0.0
1607013293.0762,0.0
1607013293.0783,0.0
1607013293.0802,0.0
1607013293.0822,4.0
1607013293.0843,9.0
1607013293.0864,9.0
1607013293.087,9.0
1607013293.0883,12.0
1607013293.0902,14.0
1607013293.0921,16.0
1607013293.0942,16.0
1607013293.0962,16.0
1607013293.0983,14.0
1607013293.1002,19.0
1607013293.1022,21.0
1607013293.1045,21.0
1607013293.1062,21.0
1607013293.1083,24.0
1607013293.1102,24.0
1607013293.1122,24.0
1607013293.1142,31.0
1607013293.1161,31.0
1607013293.1168,29.0
1607013293.1183,29.0
1607013293.1204,31.0
1607013293.1222,31.0
1607013293.1242,26.0
1607013293.1262,29.0
1607013293.1283,33.0
1607013293.5301,33.0
1607013293.5311,29.0
1607013293.5335,31.0
1607013293.5361,41.0
1607013293.5381,46.0
1607013293.5401,53.0
1607013293.5421,70.0
1607013293.5428,65.0
1607013293.5451,53.0
1607013293.5473,62.0
1607013293.5492,62.0
1607013293.551,33.0
1607013293.553,12.0
1607013293.5551,9.0
1607013293.557,12.0
1607013293.5591,21.0
1607013293.561,29.0
1607013293.563,16.0
1607013293.565,-19.0
1607013293.567,-16.0
1607013293.569,198.0
1607013293.571,605.0
1607013293.5731,837.0
1607013293.5737,539.0
1607013293.575,-203.0
1607013293.577,-627.0
1607013293.579,-341.0
1607013293.581,-46.0
1607013293.583,-87.0
1607013293.585,-70.0
1607013293.587,7.0
1607013293.589,-12.0
1607013293.591,-24.0
1607013293.593,4.0
1607013293.595,7.0
1607013293.597,0.0
1607013293.599,7.0
1607013293.601,12.0
1607013293.603,16.0
1607013293.6037,19.0
1607013293.605,16.0
1607013293.607,16.0
1607013293.609,24.0
1607013293.611,29.0
1607013293.613,33.0
1607013293.615,38.0
1607013293.617,46.0
1607013293.619,60.0
1607013293.6211,72.0
1607013293.623,82.0
1607013293.625,96.0
1607013293.6271,108.0
1607013293.629,116.0
1607013293.6311,130.0
1607013293.6317,147.0
1607013293.633,157.0
1607013293.635,159.0
1607013293.637,164.0
1607013293.639,167.0
1607013293.641,164.0
1607013293.6432,145.0
1607013293.6451,121.0
1607013293.647,96.0
1607013293.649,62.0
1607013293.651,31.0
1607013293.653,14.0
1607013293.655,-2.0
1607013293.657,-19.0
1607013293.659,-21.0
1607013293.661,-16.0
1607013293.6617,-16.0
1607013293.663,-14.0
1607013293.665,-2.0
1607013294.1297,7.0
1607013294.1305,14.0
1607013294.1317,21.0
1607013294.1336,26.0
1607013294.1356,31.0
1607013294.1377,29.0
1607013294.1395,16.0
1607013294.1415,12.0
1607013294.1436,19.0
1607013294.1455,14.0
1607013294.1462,7.0
1607013294.1475,7.0
1607013294.1495,2.0
1607013294.1515,-7.0
1607013294.1535,-7.0
1607013294.1555,-9.0
1607013294.1575,-19.0
1607013294.1595,-19.0
1607013294.1615,-9.0
1607013294.1635,-7.0
1607013294.1655,-9.0
1607013294.1676,-7.0
1607013294.1695,-9.0
1607013294.1715,-9.0
1607013294.1735,-7.0
1607013294.1755,-4.0
1607013294.1762,-4.0
1607013294.1775,-2.0
1607013294.1795,2.0
1607013294.1815,7.0
1607013294.1835,7.0
1607013294.1855,12.0
1607013294.1875,12.0
1607013294.1895,12.0
1607013294.1915,9.0
1607013294.1935,9.0
1607013294.1955,14.0
1607013294.1975,16.0
1607013294.1996,14.0
1607013294.2015,14.0
1607013294.2035,24.0
1607013294.2055,26.0
1607013294.2062,21.0
1607013294.2085,26.0
1607013294.2105,31.0
1607013294.2125,29.0
1607013294.2147,24.0
1607013294.2165,21.0
1607013294.2185,21.0
1607013294.2205,24.0
1607013294.2225,29.0
1607013294.2245,31.0
1607013294.2265,29.0
1607013294.2285,26.0
1607013294.2305,21.0
1607013294.2325,24.0
1607013294.2345,31.0
1607013294.2365,36.0
1607013294.2372,31.0
1607013294.2385,26.0
1607013294.2406,26.0
1607013294.2425,33.0
1607013294.2446,48.0
1607013294.2467,65.0
1607013294.2486,62.0
1607013294.2505,58.0
1607013294.2525,72.0
1607013294.2545,75.0
1607013294.2565,41.0
1607013294.2585,19.0
1607013294.2605,26.0
1607013294.2625,31.0
1607013294.2645,26.0
1607013294.6405,26.0
1607013294.6416,26.0
1607013294.644,7.0
1607013294.6467,16.0
1607013294.6486,234.0
1607013294.6507,656.0
1607013294.6528,893.0
1607013294.6546,578.0
1607013294.6566,-181.0
1607013294.6587,-646.0
1607013294.6606,-399.0
1607013294.6626,-101.0
1607013294.6647,-116.0
1607013294.6668,-82.0
1607013294.6687,0.0
1607013294.6707,-24.0
1607013294.6728,-33.0
1607013294.6746,0.0
1607013294.6766,2.0
1607013294.6787,-4.0
1607013294.6806,9.0
1607013294.6826,16.0
1607013294.6846,12.0
1607013294.6866,16.0
1607013294.6886,26.0
1607013294.6906,31.0
1607013294.6926,33.0
1607013294.6946,38.0
1607013294.6966,46.0
1607013294.6986,50.0
1607013294.7006,58.0
1607013294.7026,67.0
1607013294.7046,79.0
1607013294.7067,92.0
1607013294.7086,99.0
1607013294.7106,108.0
1607013294.7126,121.0
1607013294.7146,130.0
1607013294.7166,138.0
1607013294.7186,147.0
1607013294.7206,152.0
1607013294.7227,154.0
1607013294.7247,162.0
1607013294.7266,164.0
1607013294.7286,152.0
1607013294.7306,130.0
1607013294.7326,108.0
1607013294.7346,87.0
1607013294.7366,65.0
1607013294.7386,43.0
1607013294.7406,29.0
1607013294.7426,24.0
1607013294.7446,19.0
1607013294.7467,14.0
1607013294.7487,19.0
1607013294.7506,29.0
1607013294.7526,33.0
1607013294.7546,36.0
1607013294.7566,41.0
1607013294.7586,48.0
1607013294.7606,55.0
1607013294.7626,58.0
1607013294.7646,55.0
1607013294.7666,58.0
1607013294.7686,60.0
1607013294.7706,58.0
1607013294.7726,53.0
1607013294.7748,50.0
1607013294.7766,48.0
1607013294.7786,43.0
1607013294.7806,38.0
1607013294.7827,31.0
1607013294.7846,26.0
1607013295.2102,24.0
1607013295.2111,21.0
1607013295.2135,21.0
1607013295.2161,16.0
1607013295.2182,9.0
1607013295.2201,4.0
1607013295.2222,7.0
1607013295.2241,7.0
1607013295.2261,4.0
1607013295.2282,7.0
1607013295.2301,9.0
1607013295.2321,9.0
1607013295.2341,9.0
1607013295.2361,14.0
1607013295.2382,16.0
1607013295.2401,16.0
1607013295.2421,16.0
1607013295.2441,16.0
1607013295.2461,16.0
1607013295.2482,21.0
1607013295.2501,21.0
1607013295.2522,21.0
1607013295.2541,21.0
1607013295.2561,21.0
1607013295.2582,21.0
1607013295.2601,19.0
1607013295.2621,16.0
1607013295.2641,19.0
1607013295.2662,19.0
1607013295.2681,16.0
1607013295.2701,16.0
1607013295.2721,16.0
1607013295.274,16.0
1607013295.276,19.0
1607013295.2781,21.0
1607013295.28,21.0
1607013295.2822,24.0
1607013295.2841,26.0
1607013295.2861,26.0
1607013295.2881,26.0
1607013295.29,26.0
1607013295.292,29.0
1607013295.294,31.0
1607013295.2961,33.0
1607013295.2982,46.0
1607013295.3002,62.0
1607013295.3021,70.0
1607013295.304,58.0
1607013295.3062,60.0
1607013295.3081,75.0
1607013295.3101,55.0
1607013295.312,24.0
1607013295.3141,21.0
1607013295.3161,29.0
1607013295.3182,26.0
1607013295.3201,24.0
1607013295.3221,29.0
1607013295.324,19.0
1607013295.326,-7.0
1607013295.3281,84.0
1607013295.33,416.0
1607013295.332,774.0
1607013295.3341,748.0
1607013295.3361,159.0
1607013295.3381,-503.0
1607013295.34,-510.0
1607013295.342,-128.0
1607013295.344,-48.0
1607013295.346,-89.0
1607013295.3481,-14.0
1607013295.35,2.0
1607013295.352,-29.0
1607013295.3541,-4.0
1607013295.8095,12.0
1607013295.8103,2.0
1607013295.8117,9.0
1607013295.8137,16.0
1607013295.8156,12.0
1607013295.8176,12.0
1607013295.8196,14.0
1607013295.8216,16.0
1607013295.8236,21.0
1607013295.8257,24.0
1607013295.8276,31.0
1607013295.8296,41.0
1607013295.8316,48.0
1607013295.8336,55.0
1607013295.8356,65.0
1607013295.8376,75.0
1607013295.8395,82.0
1607013295.8415,96.0
1607013295.8435,113.0
1607013295.8455,128.0
1607013295.8475,135.0
1607013295.8495,140.0
1607013295.8515,147.0
1607013295.8537,159.0
1607013295.8556,164.0
1607013295.8575,162.0
1607013295.8595,154.0
1607013295.8615,135.0
1607013295.8635,108.0
1607013295.8655,82.0
1607013295.8675,60.0
1607013295.8695,36.0
1607013295.8715,14.0
1607013295.8735,0.0
1607013295.8755,-7.0
1607013295.8775,-9.0
1607013295.8795,-4.0
1607013295.8815,-2.0
1607013295.8836,0.0
1607013295.8855,9.0
1607013295.8875,21.0
1607013295.8895,26.0
1607013295.8915,31.0
1607013295.8935,41.0
1607013295.8955,41.0
1607013295.8975,43.0
1607013295.8995,46.0
1607013295.9015,43.0
1607013295.9035,41.0
1607013295.9056,38.0
1607013295.9075,31.0
1607013295.9095,26.0
1607013295.9115,26.0
1607013295.9135,24.0
1607013295.9155,14.0
1607013295.9175,9.0
1607013295.9195,4.0
1607013295.9215,-7.0
1607013295.9235,-9.0
1607013295.9255,-4.0
1607013295.9275,-9.0
1607013295.9295,-9.0
1607013295.9315,-4.0
1607013295.9335,-4.0
1607013295.9355,-7.0
1607013295.9375,-2.0
1607013295.9395,0.0
1607013295.9416,0.0
1607013295.9435,-4.0
1607013295.9455,-4.0
1607013295.9475,-4.0
1607013295.9495,-4.0
1607013295.9515,-2.0
1607013296.349,0.0
1607013296.3502,2.0
1607013296.3524,-2.0
1607013296.355,-4.0
1607013296.357,2.0
1607013296.3589,9.0
1607013296.361,4.0
1607013296.3629,2.0
1607013296.3649,4.0
1607013296.3671,4.0
1607013296.369,-2.0
1607013296.3709,-9.0
1607013296.3729,-7.0
1607013296.3749,-9.0
1607013296.3769,-7.0
1607013296.3789,-2.0
1607013296.3809,-2.0
1607013296.3828,-4.0
1607013296.3848,0.0
1607013296.3868,7.0
1607013296.3888,4.0
1607013296.3908,2.0
1607013296.3928,0.0
1607013296.3948,4.0
1607013296.3968,12.0
1607013296.3988,9.0
1607013296.4008,7.0
1607013296.4028,14.0
1607013296.4048,33.0
1607013296.4068,50.0
1607013296.4088,46.0
1607013296.4108,36.0
1607013296.4128,48.0
1607013296.4148,43.0
1607013296.4168,19.0
1607013296.4188,9.0
1607013296.4208,9.0
1607013296.4228,7.0
1607013296.4247,9.0
1607013296.4267,12.0
1607013296.4288,9.0
1607013296.4307,-12.0
1607013296.4327,19.0
1607013296.4347,276.0
1607013296.4367,677.0
1607013296.4388,830.0
1607013296.4407,435.0
1607013296.4427,-309.0
1607013296.4447,-646.0
1607013296.4467,-324.0
1607013296.4487,-67.0
1607013296.4507,-108.0
1607013296.4528,-72.0
1607013296.4548,-4.0
1607013296.4567,-26.0
1607013296.4587,-29.0
1607013296.4607,-4.0
1607013296.4627,-12.0
1607013296.4647,-9.0
1607013296.4667,7.0
1607013296.4687,7.0
1607013296.4707,2.0
1607013296.4727,12.0
1607013296.4747,14.0
1607013296.4766,14.0
1607013296.4787,26.0
1607013296.4807,38.0
1607013296.4828,43.0
1607013296.4846,41.0
1607013296.4866,43.0
1607013296.4887,58.0
1607013296.4906,77.0
1607013296.4926,87.0
1607013296.9185,92.0
1607013296.9194,106.0
1607013296.9219,128.0
1607013296.9245,140.0
1607013296.9266,147.0
1607013296.9285,159.0
1607013296.9306,169.0
1607013296.9325,169.0
1607013296.9345,159.0
1607013296.9365,147.0
1607013296.9384,138.0
1607013296.9404,121.0
1607013296.9424,87.0
1607013296.9444,53.0
1607013296.9465,21.0
1607013296.9485,-2.0
1607013296.9504,-16.0
1607013296.9524,-29.0
1607013296.9544,-36.0
1607013296.9564,-33.0
1607013296.9583,-26.0
1607013296.9603,-21.0
1607013296.9623,-14.0
1607013296.9643,-7.0
1607013296.9667,-4.0
1607013296.9683,-2.0
1607013296.9703,12.0
1607013296.9723,24.0
1607013296.9743,16.0
1607013296.9763,16.0
1607013296.9785,19.0
1607013296.9803,14.0
1607013296.9823,12.0
1607013296.9843,14.0
1607013296.9864,9.0
1607013296.9883,2.0
1607013296.9903,-2.0
1607013296.9923,-4.0
1607013296.9943,-7.0
1607013296.9963,-12.0
1607013296.9983,-16.0
1607013297.0003,-21.0
1607013297.0023,-29.0
1607013297.0043,-33.0
1607013297.0063,-26.0
1607013297.0082,-19.0
1607013297.0102,-21.0
1607013297.0122,-24.0
1607013297.0143,-21.0
1607013297.0163,-16.0
1607013297.0182,-16.0
1607013297.0202,-19.0
1607013297.0222,-19.0
1607013297.0242,-14.0
1607013297.0262,-14.0
1607013297.0282,-16.0
1607013297.0302,-12.0
1607013297.0322,-2.0
1607013297.0342,0.0
1607013297.0362,-4.0
1607013297.0383,-2.0
1607013297.0403,2.0
1607013297.0423,2.0
1607013297.0443,0.0
1607013297.0463,4.0
1607013297.0482,7.0
1607013297.0502,7.0
1607013297.0522,7.0
1607013297.0542,9.0
1607013297.0562,19.0
1607013297.0582,31.0
1607013297.0602,41.0
1607013297.0622,33.0
1607013297.4576,48.0
1607013297.4584,70.0
1607013297.4597,41.0
1607013297.4617,7.0
1607013297.4637,4.0
1607013297.4657,9.0
1607013297.4677,9.0
1607013297.4696,19.0
1607013297.4718,21.0
1607013297.4737,-2.0
1607013297.4757,-26.0
1607013297.4776,101.0
1607013297.4796,486.0
1607013297.4816,859.0
1607013297.4836,777.0
1607013297.4856,123.0
1607013297.4876,-561.0
1607013297.4897,-552.0
1607013297.4915,-159.0
1607013297.4935,-67.0
1607013297.4956,-94.0
1607013297.4975,-7.0
1607013297.4995,16.0
1607013297.5015,-14.0
1607013297.5035,2.0
1607013297.5055,19.0
1607013297.5075,14.0
1607013297.5095,19.0
1607013297.5115,26.0
1607013297.5135,31.0
1607013297.5155,33.0
1607013297.5175,38.0
1607013297.5195,41.0
1607013297.5215,41.0
1607013297.5235,41.0
1607013297.5255,46.0
1607013297.5275,55.0
1607013297.5295,67.0
1607013297.5315,77.0
1607013297.5335,84.0
1607013297.5355,94.0
1607013297.5375,108.0
1607013297.5395,123.0
1607013297.5415,133.0
1607013297.5435,140.0
1607013297.5455,152.0
1607013297.5475,167.0
1607013297.5494,176.0
1607013297.5514,176.0
1607013297.5534,179.0
1607013297.5555,181.0
1607013297.5574,169.0
1607013297.5594,145.0
1607013297.5614,121.0
1607013297.5634,96.0
1607013297.5655,67.0
1607013297.5674,41.0
1607013297.5694,29.0
1607013297.5714,19.0
1607013297.5735,7.0
1607013297.5755,2.0
1607013297.5774,7.0
1607013297.5794,14.0
1607013297.5814,19.0
1607013297.5834,24.0
1607013297.5855,31.0
1607013297.5874,33.0
1607013297.5895,36.0
1607013297.5914,43.0
1607013297.5934,48.0
1607013297.5955,48.0
1607013297.5974,46.0
1607013297.5994,46.0
1607013298.0265,43.0
1607013298.0274,41.0
1607013298.0287,38.0
1607013298.0305,31.0
1607013298.0325,29.0
1607013298.0344,26.0
1607013298.0363,16.0
1607013298.0384,2.0
1607013298.0403,7.0
1607013298.0423,19.0
1607013298.0444,21.0
1607013298.0463,14.0
1607013298.0483,9.0
1607013298.0504,12.0
1607013298.0523,14.0
1607013298.0543,16.0
1607013298.0563,21.0
1607013298.0583,14.0
1607013298.0604,12.0
1607013298.0622,12.0
1607013298.0642,7.0
1607013298.0662,16.0
1607013298.0683,24.0
1607013298.0703,29.0
1607013298.0722,41.0
1607013298.0742,55.0
1607013298.0762,67.0
1607013298.0782,70.0
1607013298.0802,53.0
1607013298.0823,38.0
1607013298.0842,67.0
1607013298.0864,87.0
1607013298.0883,55.0
1607013298.0903,62.0
1607013298.0922,125.0
1607013298.0942,106.0
1607013298.0964,26.0
1607013298.0985,36.0
1607013298.1003,84.0
1607013298.1022,118.0
1607013298.1042,125.0
1607013298.1062,79.0
1607013298.1082,70.0
1607013298.1102,108.0
1607013298.1122,82.0
1607013298.1142,19.0
1607013298.1162,31.0
1607013298.1181,50.0
1607013298.1202,55.0
1607013298.1223,104.0
1607013298.1242,118.0
1607013298.1261,92.0
1607013298.1281,75.0
1607013298.1301,106.0
1607013298.1321,157.0
1607013298.1342,123.0
1607013298.1361,108.0
1607013298.1381,159.0
1607013298.1401,140.0
1607013298.1422,154.0
1607013298.1441,358.0
1607013298.1461,682.0
1607013298.1481,915.0
1607013298.1501,765.0
1607013298.1521,150.0
1607013298.1541,-358.0
1607013298.1561,-191.0
1607013298.1581,159.0
1607013298.1601,157.0
1607013298.1621,116.0
1607013298.1641,215.0
1607013298.1661,239.0
1607013298.1681,193.0
1607013298.5657,227.0
1607013298.5667,273.0
1607013298.5692,246.0
1607013298.5718,234.0
1607013298.5738,254.0
1607013298.5757,261.0
1607013298.5777,276.0
1607013298.5797,278.0
1607013298.5817,271.0
1607013298.5837,280.0
1607013298.5857,256.0
1607013298.5876,230.0
1607013298.5896,283.0
1607013298.5916,312.0
1607013298.5937,261.0
1607013298.5958,283.0
1607013298.5977,341.0
1607013298.5996,319.0
1607013298.6018,341.0
1607013298.6036,365.0
1607013298.6056,309.0
1607013298.6076,317.0
1607013298.6096,365.0
1607013298.6116,348.0
1607013298.6137,341.0
1607013298.6156,372.0
1607013298.6176,387.0
1607013298.6196,355.0
1607013298.6215,307.0
1607013298.6236,288.0
1607013298.6255,283.0
1607013298.6275,256.0
1607013298.6296,217.0
1607013298.6316,181.0
1607013298.6336,164.0
1607013298.6355,162.0
1607013298.6375,152.0
1607013298.6395,145.0
1607013298.6415,145.0
1607013298.6437,142.0
1607013298.6455,142.0
1607013298.6475,145.0
1607013298.6495,140.0
1607013298.6515,130.0
1607013298.6535,128.0
1607013298.6555,123.0
1607013298.6575,113.0
1607013298.6595,106.0
1607013298.6616,99.0
1607013298.6636,89.0
1607013298.6655,70.0
1607013298.6674,50.0
1607013298.6695,31.0
1607013298.6715,16.0
1607013298.6735,0.0
1607013298.6755,-16.0
1607013298.6775,-29.0
1607013298.6795,-43.0
1607013298.6815,-60.0
1607013298.6835,-72.0
1607013298.6855,-79.0
1607013298.693,-89.0
1607013298.6944,-104.0
1607013298.6965,-113.0
1607013298.6984,-118.0
1607013298.7004,-123.0
1607013298.7026,-128.0
1607013298.7045,-130.0
1607013298.7065,-130.0
1607013298.7084,-133.0
1607013298.7105,-138.0
1607013298.7124,-135.0
1607013298.7144,-135.0
1607013299.1644,-145.0
1607013299.1653,-150.0
1607013299.1678,-145.0
1607013299.1704,-147.0
1607013299.1724,-157.0
1607013299.1743,-162.0
1607013299.1764,-157.0
1607013299.1783,-154.0
1607013299.1803,-157.0
1607013299.1823,-157.0
1607013299.1842,-150.0
1607013299.1863,-145.0
1607013299.1883,-147.0
1607013299.1903,-145.0
1607013299.1923,-140.0
1607013299.1942,-138.0
1607013299.1962,-133.0
1607013299.1982,-125.0
1607013299.2002,-123.0
1607013299.2022,-118.0
1607013299.2043,-118.0
1607013299.2062,-116.0
1607013299.2082,-96.0
1607013299.2102,-67.0
1607013299.2122,-58.0
1607013299.2142,-70.0
1607013299.2162,-67.0
1607013299.2182,-53.0
1607013299.2203,-67.0
1607013299.2222,-92.0
1607013299.2242,-96.0
1607013299.2262,-94.0
1607013299.2282,-94.0
1607013299.2302,-92.0
1607013299.2322,-84.0
1607013299.2342,-92.0
1607013299.2362,-104.0
1607013299.2382,4.0
1607013299.2403,348.0
1607013299.2422,694.0
1607013299.2442,641.0
1607013299.2461,50.0
1607013299.2482,-598.0
1607013299.2502,-600.0
1607013299.2523,-222.0
1607013299.2542,-125.0
1607013299.2561,-154.0
1607013299.2581,-82.0
1607013299.2602,-62.0
1607013299.2621,-87.0
1607013299.2641,-65.0
1607013299.2661,-48.0
1607013299.2681,-58.0
1607013299.2701,-53.0
1607013299.2721,-43.0
1607013299.2742,-41.0
1607013299.2761,-43.0
1607013299.2781,-38.0
1607013299.2801,-24.0
1607013299.2821,-14.0
1607013299.2841,-12.0
1607013299.2861,-9.0
1607013299.2881,-2.0
1607013299.2902,4.0
1607013299.2909,12.0
1607013299.2932,19.0
1607013299.2951,31.0
1607013299.2971,43.0
1607013299.2991,55.0
1607013299.3011,72.0
1607013299.3031,92.0
1607013299.3051,104.0
1607013299.307,111.0
1607013299.7035,123.0
1607013299.7044,128.0
1607013299.7068,130.0
1607013299.7094,130.0
1607013299.7114,116.0
1607013299.7134,87.0
1607013299.7156,60.0
1607013299.7161,33.0
1607013299.7184,-2.0
1607013299.7204,-36.0
1607013299.7224,-58.0
1607013299.7243,-65.0
1607013299.7263,-67.0
1607013299.7283,-75.0
1607013299.7303,-77.0
1607013299.7324,-70.0
1607013299.7343,-62.0
1607013299.7363,-60.0
1607013299.7383,-48.0
1607013299.7403,-36.0
1607013299.7423,-29.0
1607013299.7443,-26.0
1607013299.7464,-24.0
1607013299.7471,-19.0
1607013299.7493,-14.0
1607013299.7513,-14.0
1607013299.7533,-19.0
1607013299.7553,-21.0
1607013299.7572,-21.0
1607013299.7592,-26.0
1607013299.7613,-29.0
1607013299.7633,-29.0
1607013299.7654,-29.0
1607013299.7672,-26.0
1607013299.7692,-26.0
1607013299.7712,-26.0
1607013299.7732,-24.0
1607013299.7752,-24.0
1607013299.7772,-26.0
1607013299.7779,-29.0
1607013299.7802,-29.0
1607013299.7823,-29.0
1607013299.7843,-24.0
1607013299.7863,-19.0
1607013299.7883,-19.0
1607013299.7902,-19.0
1607013299.7922,-14.0
1607013299.7942,-14.0
1607013299.7962,-14.0
1607013299.7982,-9.0
1607013299.8002,-9.0
1607013299.8024,-12.0
1607013299.8042,-12.0
1607013299.8062,-4.0
1607013299.8082,-2.0
1607013299.8089,-4.0
1607013299.8112,0.0
1607013299.8132,21.0
1607013299.8153,31.0
1607013299.8172,19.0
1607013299.8191,29.0
1607013299.8211,38.0
1607013299.8232,12.0
1607013299.8252,-19.0
1607013299.8273,-16.0
1607013299.8291,-12.0
1607013299.8311,-7.0
1607013299.8332,2.0
1607013299.8351,0.0
1607013299.8371,-19.0
1607013299.8378,-38.0
1607013299.8391,67.0
1607013299.8411,428.0
1607013300.2729,808.0
1607013300.274,757.0
1607013300.2763,130.0
1607013300.2791,-564.0
1607013300.2811,-583.0
1607013300.283,-191.0
1607013300.285,-87.0
1607013300.287,-123.0
1607013300.289,-41.0
1607013300.291,-12.0
1607013300.2916,-41.0
1607013300.2939,-26.0
1607013300.2963,-7.0
1607013300.2979,-14.0
1607013300.2999,-16.0
1607013300.302,-4.0
1607013300.3039,0.0
1607013300.3059,2.0
1607013300.3079,9.0
1607013300.3099,14.0
1607013300.3119,19.0
1607013300.3139,24.0
1607013300.3159,29.0
1607013300.3179,36.0
1607013300.3199,48.0
1607013300.3219,58.0
1607013300.3225,67.0
1607013300.3238,77.0
1607013300.3258,92.0
1607013300.3278,106.0
1607013300.3299,116.0
1607013300.3319,128.0
1607013300.3339,145.0
1607013300.3358,154.0
1607013300.3378,159.0
1607013300.3398,167.0
1607013300.3418,174.0
1607013300.3438,167.0
1607013300.3458,147.0
1607013300.3478,125.0
1607013300.3498,101.0
1607013300.3519,72.0
1607013300.3525,43.0
1607013300.3538,16.0
1607013300.3558,4.0
1607013300.3578,-4.0
1607013300.3598,-14.0
1607013300.3618,-16.0
1607013300.3638,-14.0
1607013300.3658,-9.0
1607013300.3678,-2.0
1607013300.37,4.0
1607013300.3718,12.0
1607013300.3738,19.0
1607013300.3757,24.0
1607013300.3778,26.0
1607013300.3798,31.0
1607013300.3818,33.0
1607013300.3825,36.0
1607013300.3838,38.0
1607013300.3858,38.0
1607013300.3878,33.0
1607013300.3898,31.0
1607013300.3918,26.0
1607013300.3937,19.0
1607013300.3957,16.0
1607013300.3978,14.0
1607013300.3998,12.0
1607013300.4018,12.0
1607013300.4038,14.0
1607013300.4057,12.0
1607013300.4077,12.0
1607013300.4097,12.0
1607013300.812,12.0
1607013300.813,12.0
1607013300.8154,14.0
1607013300.818,14.0
1607013300.82,14.0
1607013300.822,14.0
1607013300.8241,12.0
1607013300.826,7.0
1607013300.828,2.0
1607013300.83,0.0
1607013300.8319,4.0
1607013300.8339,7.0
1607013300.8359,4.0
1607013300.8379,4.0
1607013300.8399,9.0
1607013300.8421,12.0
1607013300.8427,9.0
1607013300.845,9.0
1607013300.8469,14.0
1607013300.8489,14.0
1607013300.8509,14.0
1607013300.8529,16.0
1607013300.8549,19.0
1607013300.8569,19.0
1607013300.8589,19.0
1607013300.8609,21.0
1607013300.863,21.0
1607013300.8649,16.0
1607013300.8669,16.0
1607013300.869,19.0
1607013300.871,19.0
1607013300.8729,26.0
1607013300.8735,46.0
1607013300.8749,58.0
1607013300.8768,43.0
1607013300.8788,46.0
1607013300.8809,58.0
1607013300.8828,33.0
1607013300.8848,4.0
1607013300.8868,4.0
1607013300.8888,9.0
1607013300.8909,7.0
1607013300.8928,12.0
1607013300.8949,14.0
1607013300.8968,-7.0
1607013300.8988,-31.0
1607013300.9008,82.0
1607013300.9028,440.0
1607013300.9035,794.0
1607013300.9048,719.0
1607013300.9068,92.0
1607013300.9088,-542.0
1607013300.9109,-479.0
1607013300.9128,-89.0
1607013300.9148,-43.0
1607013300.9168,-89.0
1607013300.9189,-9.0
1607013300.9209,2.0
1607013300.9228,-26.0
1607013300.9248,-4.0
1607013300.9268,9.0
1607013300.9288,2.0
1607013300.9308,9.0
1607013300.9328,16.0
1607013300.9348,16.0
1607013300.9368,21.0
1607013300.9387,26.0
1607013300.9408,29.0
1607013300.9427,33.0
1607013300.9447,38.0
1607013300.9467,38.0
1607013300.9487,46.0
1607013300.9508,53.0
1607013301.3812,62.0
1607013301.3822,72.0
1607013301.3846,82.0
1607013301.3874,96.0
1607013301.3892,106.0
1607013301.3912,111.0
1607013301.3933,118.0
1607013301.3955,133.0
1607013301.3973,145.0
1607013301.3994,157.0
1607013301.4012,164.0
1607013301.4032,169.0
1607013301.4052,164.0
1607013301.4072,152.0
1607013301.4092,133.0
1607013301.4112,106.0
1607013301.4132,77.0
1607013301.4152,48.0
1607013301.4172,19.0
1607013301.4191,0.0
1607013301.4211,-12.0
1607013301.4231,-21.0
1607013301.4251,-24.0
1607013301.4272,-19.0
1607013301.4291,-12.0
1607013301.4311,-7.0
1607013301.4332,0.0
1607013301.4351,7.0
1607013301.4371,12.0
1607013301.4391,12.0
1607013301.4411,16.0
1607013301.4431,24.0
1607013301.4452,24.0
1607013301.4471,24.0
1607013301.4491,24.0
1607013301.4511,24.0
1607013301.4531,19.0
1607013301.455,16.0
1607013301.4571,12.0
1607013301.4592,7.0
1607013301.461,2.0
1607013301.463,0.0
1607013301.465,0.0
1607013301.467,2.0
1607013301.469,0.0
1607013301.471,-4.0
1607013301.473,0.0
1607013301.475,0.0
1607013301.477,-7.0
1607013301.4791,-9.0
1607013301.481,-2.0
1607013301.483,2.0
1607013301.4851,0.0
1607013301.487,-2.0
1607013301.489,2.0
1607013301.491,4.0
1607013301.493,0.0
1607013301.495,2.0
1607013301.4972,7.0
1607013301.4991,7.0
1607013301.501,4.0
1607013301.503,7.0
1607013301.505,9.0
1607013301.507,9.0
1607013301.509,9.0
1607013301.511,9.0
1607013301.513,14.0
1607013301.515,16.0
1607013301.517,14.0
1607013301.519,19.0
1607013301.521,24.0
1607013301.523,24.0
1607013301.525,24.0
1607013301.9209,26.0
1607013301.9219,29.0
1607013301.9243,26.0
1607013301.927,24.0
1607013301.929,24.0
1607013301.931,24.0
1607013301.9331,16.0
1607013301.9351,12.0
1607013301.937,14.0
1607013301.939,14.0
1607013301.941,12.0
1607013301.9429,14.0
1607013301.9449,16.0
1607013301.9469,21.0
1607013301.949,24.0
1607013301.9509,31.0
1607013301.9529,43.0
1607013301.9549,62.0
1607013301.9569,58.0
1607013301.9589,43.0
1607013301.9609,53.0
1607013301.9629,53.0
1607013301.9649,21.0
1607013301.9669,9.0
1607013301.9689,14.0
1607013301.9709,14.0
1607013301.9729,14.0
1607013301.9749,16.0
1607013301.9769,9.0
1607013301.9789,-16.0
1607013301.981,26.0
1607013301.9829,292.0
1607013301.9849,675.0
1607013301.9868,791.0
1607013301.9889,368.0
1607013301.9908,-346.0
1607013301.993,-578.0
1607013301.9948,-227.0
1607013301.9968,-29.0
1607013301.9989,-84.0
1607013302.0008,-41.0
1607013302.0028,7.0
1607013302.0048,-24.0
1607013302.0068,-19.0
1607013302.0088,7.0
1607013302.0108,0.0
1607013302.0127,-2.0
1607013302.0147,9.0
1607013302.0167,14.0
1607013302.0189,4.0
1607013302.0207,9.0
1607013302.0227,19.0
1607013302.0247,24.0
1607013302.0268,21.0
1607013302.0288,26.0
1607013302.0308,33.0
1607013302.0327,41.0
1607013302.0347,48.0
1607013302.0367,50.0
1607013302.0388,60.0
1607013302.0408,75.0
1607013302.0427,87.0
1607013302.0447,99.0
1607013302.0467,116.0
1607013302.0487,128.0
1607013302.0507,135.0
1607013302.0528,140.0
1607013302.0547,150.0
1607013302.0567,162.0
1607013302.0588,167.0
1607013302.0607,164.0
1607013302.0627,150.0
1607013302.0647,125.0
1607013302.5201,96.0
1607013302.5211,65.0
1607013302.5235,36.0
1607013302.5261,7.0
1607013302.5282,-16.0
1607013302.5302,-29.0
1607013302.5322,-31.0
1607013302.5341,-29.0
1607013302.5361,-26.0
1607013302.5382,-21.0
1607013302.5401,-19.0
1607013302.5421,-19.0
1607013302.5441,-14.0
1607013302.5461,-2.0
1607013302.5484,7.0
1607013302.5501,7.0
1607013302.552,7.0
1607013302.554,9.0
1607013302.556,12.0
1607013302.5582,7.0
1607013302.56,2.0
1607013302.562,2.0
1607013302.5641,2.0
1607013302.566,-2.0
1607013302.5681,-12.0
1607013302.57,-12.0
1607013302.572,-12.0
1607013302.574,-12.0
1607013302.576,-14.0
1607013302.578,-12.0
1607013302.58,-7.0
1607013302.582,-7.0
1607013302.584,-12.0
1607013302.586,-21.0
1607013302.588,-31.0
1607013302.5899,-29.0
1607013302.5919,-16.0
1607013302.5939,-12.0
1607013302.5959,-16.0
1607013302.598,-21.0
1607013302.5999,-16.0
1607013302.6019,-12.0
1607013302.6039,-12.0
1607013302.6059,-16.0
1607013302.608,-19.0
1607013302.6099,-9.0
1607013302.6119,-7.0
1607013302.6139,-9.0
1607013302.6159,-7.0
1607013302.6179,-4.0
1607013302.6199,-7.0
1607013302.622,-7.0
1607013302.6239,-4.0
1607013302.6259,-9.0
1607013302.6279,-12.0
1607013302.6299,-7.0
1607013302.6319,0.0
1607013302.6339,0.0
1607013302.6359,-7.0
1607013302.638,-9.0
1607013302.6399,-4.0
1607013302.6419,0.0
1607013302.6439,0.0
1607013302.6446,16.0
1607013302.646,36.0
1607013302.6481,29.0
1607013302.6499,29.0
1607013302.6519,43.0
1607013302.6538,29.0
1607013302.6559,-2.0
1607013302.6579,-9.0
1607013302.6598,-7.0
1607013302.6618,-4.0
1607013303.0894,2.0
1607013303.0904,4.0
1607013303.0917,-7.0
1607013303.0937,-16.0
1607013303.0944,82.0
1607013303.0957,416.0
1607013303.0977,798.0
1607013303.0996,794.0
1607013303.1016,205.0
1607013303.1036,-525.0
1607013303.1056,-622.0
1607013303.1077,-237.0
1607013303.1096,-96.0
1607013303.1116,-123.0
1607013303.1136,-38.0
1607013303.1156,0.0
1607013303.1177,-36.0
1607013303.1196,-24.0
1607013303.1216,0.0
1607013303.1236,-4.0
1607013303.1243,-4.0
1607013303.1256,2.0
1607013303.1277,0.0
1607013303.1295,4.0
1607013303.1315,12.0
1607013303.1335,16.0
1607013303.1355,14.0
1607013303.1376,9.0
1607013303.1395,16.0
1607013303.1415,26.0
1607013303.1435,31.0
1607013303.1455,38.0
1607013303.1475,48.0
1607013303.1495,53.0
1607013303.1515,62.0
1607013303.1535,82.0
1607013303.1542,94.0
1607013303.1556,101.0
1607013303.1575,108.0
1607013303.1595,116.0
1607013303.1615,123.0
1607013303.1635,133.0
1607013303.1655,145.0
1607013303.1677,145.0
1607013303.1695,133.0
1607013303.1715,116.0
1607013303.1736,96.0
1607013303.1755,75.0
1607013303.1775,50.0
1607013303.1795,26.0
1607013303.1815,9.0
1607013303.1821,-7.0
1607013303.1835,-19.0
1607013303.1855,-19.0
1607013303.1875,-12.0
1607013303.1895,-4.0
1607013303.1914,2.0
1607013303.1934,9.0
1607013303.1955,9.0
1607013303.1975,9.0
1607013303.1994,12.0
1607013303.2014,19.0
1607013303.2036,19.0
1607013303.2055,19.0
1607013303.2075,26.0
1607013303.2095,29.0
1607013303.2114,19.0
1607013303.2121,7.0
1607013303.2135,2.0
1607013303.2155,2.0
1607013303.2175,4.0
1607013303.2196,4.0
1607013303.2214,2.0
1607013303.6588,2.0
1607013303.6599,-2.0
1607013303.6623,-7.0
1607013303.665,-7.0
1607013303.667,-2.0
1607013303.6689,0.0
1607013303.671,-4.0
1607013303.6729,-4.0
1607013303.6749,-2.0
1607013303.6769,-4.0
1607013303.6774,-14.0
1607013303.6788,-16.0
1607013303.6808,-9.0
1607013303.6828,-7.0
1607013303.6848,-12.0
1607013303.6869,-9.0
1607013303.6888,-7.0
1607013303.6908,-9.0
1607013303.6928,-12.0
1607013303.6948,-12.0
1607013303.6968,-9.0
1607013303.6989,-9.0
1607013303.7008,-9.0
1607013303.7028,-9.0
1607013303.7048,-7.0
1607013303.7068,-4.0
1607013303.7074,-2.0
1607013303.7087,9.0
1607013303.7108,31.0
1607013303.7127,41.0
1607013303.7148,29.0
1607013303.7167,38.0
1607013303.7188,46.0
1607013303.7207,16.0
1607013303.7228,-4.0
1607013303.7247,2.0
1607013303.7268,9.0
1607013303.7287,7.0
1607013303.7307,12.0
1607013303.7327,12.0
1607013303.7347,-12.0
1607013303.7368,-26.0
1607013303.7374,142.0
1607013303.7388,547.0
1607013303.7407,861.0
1607013303.7427,668.0
1607013303.7448,-46.0
1607013303.7467,-600.0
1607013303.7487,-426.0
1607013303.7508,-79.0
1607013303.7527,-67.0
1607013303.7547,-72.0
1607013303.7568,12.0
1607013303.7587,4.0
1607013303.7607,-19.0
1607013303.7627,9.0
1607013303.7647,16.0
1607013303.7667,4.0
1607013303.7675,14.0
1607013303.7687,24.0
1607013303.7707,21.0
1607013303.7727,21.0
1607013303.7747,29.0
1607013303.7767,36.0
1607013303.7787,38.0
1607013303.7807,41.0
1607013303.7827,46.0
1607013303.7847,55.0
1607013303.7867,60.0
1607013303.7886,67.0
1607013303.7907,79.0
1607013303.7927,89.0
1607013303.7948,101.0
1607013304.1981,113.0
1607013304.1991,128.0
1607013304.2015,140.0
1607013304.2042,147.0
1607013304.2062,154.0
1607013304.2081,164.0
1607013304.2101,169.0
1607013304.2121,162.0
1607013304.2141,150.0
1607013304.2161,135.0
1607013304.2181,106.0
1607013304.22,62.0
1607013304.2221,26.0
1607013304.2241,9.0
1607013304.2248,-7.0
1607013304.2261,-26.0
1607013304.228,-41.0
1607013304.23,-46.0
1607013304.232,-46.0
1607013304.2341,-43.0
1607013304.2361,-36.0
1607013304.238,-24.0
1607013304.24,-16.0
1607013304.2421,-9.0
1607013304.2441,-2.0
1607013304.2461,4.0
1607013304.248,7.0
1607013304.25,12.0
1607013304.252,19.0
1607013304.254,21.0
1607013304.2547,19.0
1607013304.256,19.0
1607013304.258,16.0
1607013304.26,14.0
1607013304.262,14.0
1607013304.264,12.0
1607013304.266,9.0
1607013304.268,9.0
1607013304.2701,9.0
1607013304.272,4.0
1607013304.274,2.0
1607013304.276,4.0
1607013304.2779,4.0
1607013304.2799,0.0
1607013304.2819,0.0
1607013304.284,2.0
1607013304.2846,4.0
1607013304.286,2.0
1607013304.2879,-2.0
1607013304.2899,0.0
1607013304.2921,2.0
1607013304.294,2.0
1607013304.296,2.0
1607013304.2979,4.0
1607013304.2999,7.0
1607013304.3019,7.0
1607013304.3039,7.0
1607013304.306,7.0
1607013304.308,9.0
1607013304.3099,12.0
1607013304.3119,12.0
1607013304.3139,14.0
1607013304.3146,16.0
1607013304.316,14.0
1607013304.3179,24.0
1607013304.32,26.0
1607013304.3219,9.0
1607013304.3239,19.0
1607013304.326,62.0
1607013304.3279,75.0
1607013304.3299,48.0
1607013304.3319,53.0
1607013304.3339,60.0
1607013304.7373,24.0
1607013304.7384,19.0
1607013304.7408,67.0
1607013304.7435,70.0
1607013304.7455,55.0
1607013304.746,92.0
1607013304.7484,94.0
1607013304.7504,62.0
1607013304.7524,72.0
1607013304.7543,111.0
1607013304.7564,106.0
1607013304.7584,53.0
1607013304.7603,43.0
1607013304.7623,55.0
1607013304.7643,70.0
1607013304.7664,92.0
1607013304.7683,60.0
1607013304.7703,26.0
1607013304.7723,43.0
1607013304.7743,154.0
1607013304.7763,416.0
1607013304.777,726.0
1607013304.7783,806.0
1607013304.7803,343.0
1607013304.7823,-353.0
1607013304.7842,-481.0
1607013304.7863,-154.0
1607013304.7883,-38.0
1607013304.7905,-29.0
1607013304.7923,65.0
1607013304.7943,82.0
1607013304.7963,70.0
1607013304.7983,75.0
1607013304.8002,33.0
1607013304.8022,67.0
1607013304.8042,167.0
1607013304.8064,116.0
1607013304.807,46.0
1607013304.8083,164.0
1607013304.8103,217.0
1607013304.8122,106.0
1607013304.8142,116.0
1607013304.8163,239.0
1607013304.8182,179.0
1607013304.8202,79.0
1607013304.8222,188.0
1607013304.8242,266.0
1607013304.8263,244.0
1607013304.8282,280.0
1607013304.8302,244.0
1607013304.8322,162.0
1607013304.8342,230.0
1607013304.8362,273.0
1607013304.8369,203.0
1607013304.8382,205.0
1607013304.8402,268.0
1607013304.8422,317.0
1607013304.8442,314.0
1607013304.8462,273.0
1607013304.8482,268.0
1607013304.8502,271.0
1607013304.8522,249.0
1607013304.8542,234.0
1607013304.8562,213.0
1607013304.8582,176.0
1607013304.8602,145.0
1607013304.8622,121.0
1607013304.8642,101.0
1607013304.8662,106.0
1607013304.8668,111.0
1607013304.8682,96.0
1607013304.8702,79.0
1607013304.8722,79.0
1607013305.2765,96.0
1607013305.2774,87.0
1607013305.2799,70.0
1607013305.2826,92.0
1607013305.2846,106.0
1607013305.2864,75.0
1607013305.2887,38.0
1607013305.2905,41.0
1607013305.2924,38.0
1607013305.2931,4.0
1607013305.2944,-9.0
1607013305.2964,-4.0
1607013305.2984,-21.0
1607013305.3004,-38.0
1607013305.3024,-41.0
1607013305.3044,-48.0
1607013305.3064,-58.0
1607013305.3083,-67.0
1607013305.3103,-92.0
1607013305.3123,-96.0
1607013305.3143,-77.0
1607013305.3164,-75.0
1607013305.3184,-87.0
1607013305.3203,-82.0
1607013305.3223,-84.0
1607013305.323,-94.0
1607013305.3243,-94.0
1607013305.3263,-87.0
1607013305.3283,-87.0
1607013305.3303,-89.0
1607013305.3323,-92.0
1607013305.3343,-89.0
1607013305.3363,-82.0
1607013305.3384,-82.0
1607013305.3404,-87.0
1607013305.3424,-87.0
1607013305.3444,-82.0
1607013305.3464,-79.0
1607013305.3483,-77.0
1607013305.3503,-72.0
1607013305.3523,-65.0
1607013305.353,-60.0
1607013305.3543,-65.0
1607013305.3563,-70.0
1607013305.3583,-65.0
1607013305.3603,-58.0
1607013305.3624,-62.0
1607013305.3643,-65.0
1607013305.3663,-65.0
1607013305.3683,-70.0
1607013305.3703,-67.0
1607013305.3723,-58.0
1607013305.3743,-60.0
1607013305.3763,-67.0
1607013305.3783,-58.0
1607013305.3803,-48.0
1607013305.3823,-36.0
1607013305.3831,-21.0
1607013305.3843,-24.0
1607013305.3863,-24.0
1607013305.3883,-9.0
1607013305.3902,-21.0
1607013305.3923,-58.0
1607013305.3942,-75.0
1607013305.3964,-72.0
1607013305.3983,-62.0
1607013305.4004,-50.0
1607013305.4023,-46.0
1607013305.4042,-60.0
1607013305.4063,-87.0
1607013305.4082,-7.0
1607013305.4102,309.0
1607013305.4122,694.0
1607013305.8763,752.0
1607013305.879,242.0
1607013305.8809,-498.0
1607013305.8828,-665.0
1607013305.8848,-292.0
1607013305.8867,-125.0
1607013305.8887,-162.0
1607013305.8907,-94.0
1607013305.8927,-53.0
1607013305.8947,-89.0
1607013305.8966,-75.0
1607013305.8986,-43.0
1607013305.9008,-48.0
1607013305.9027,-53.0
1607013305.9047,-41.0
1607013305.9053,-36.0
1607013305.9067,-38.0
1607013305.9086,-33.0
1607013305.9106,-24.0
1607013305.9126,-19.0
1607013305.9146,-16.0
1607013305.9165,-7.0
1607013305.9185,2.0
1607013305.9205,4.0
1607013305.9225,7.0
1607013305.9246,19.0
1607013305.9265,36.0
1607013305.9285,46.0
1607013305.9305,55.0
1607013305.9326,70.0
1607013305.9345,82.0
1607013305.9351,96.0
1607013305.9365,113.0
1607013305.9385,123.0
1607013305.9405,128.0
1607013305.9426,135.0
1607013305.9445,138.0
1607013305.9465,135.0
1607013305.9485,121.0
1607013305.9505,87.0
1607013305.9526,55.0
1607013305.9545,38.0
1607013305.9565,16.0
1607013305.9585,-9.0
1607013305.9605,-31.0
1607013305.9625,-41.0
1607013305.9645,-41.0
1607013305.9651,-38.0
1607013305.9665,-36.0
1607013305.9685,-31.0
1607013305.9705,-26.0
1607013305.9725,-19.0
1607013305.9745,-14.0
1607013305.9765,-12.0
1607013305.9784,-7.0
1607013305.9805,-2.0
1607013305.9825,-7.0
1607013305.9845,-9.0
1607013305.9865,-2.0
1607013305.9884,-2.0
1607013305.9904,-7.0
1607013305.9924,-2.0
1607013305.9945,0.0
1607013305.9951,-9.0
1607013305.9964,-12.0
1607013305.9985,-12.0
1607013306.0004,-16.0
1607013306.0024,-16.0
1607013306.0045,-9.0
1607013306.0064,-12.0
1607013306.0084,-12.0
1607013306.0104,-7.0
1607013306.0124,-7.0
1607013306.4459,-14.0
1607013306.4471,-14.0
1607013306.4496,-12.0
1607013306.4523,-12.0
1607013306.4532,-12.0
1607013306.4552,-4.0
1607013306.4572,-2.0
1607013306.4593,-7.0
1607013306.4612,-16.0
1607013306.4632,-16.0
1607013306.4651,-12.0
1607013306.4671,-4.0
1607013306.4691,-2.0
1607013306.4713,-4.0
1607013306.4731,4.0
1607013306.4751,29.0
1607013306.4771,38.0
1607013306.4791,31.0
1607013306.481,36.0
1607013306.4831,41.0
1607013306.4838,14.0
1607013306.485,-7.0
1607013306.487,-4.0
1607013306.489,-9.0
1607013306.4911,-9.0
1607013306.493,-2.0
1607013306.495,0.0
1607013306.497,-12.0
1607013306.499,-21.0
1607013306.501,92.0
1607013306.503,445.0
1607013306.505,798.0
1607013306.5071,740.0
1607013306.509,130.0
1607013306.511,-535.0
1607013306.513,-561.0
1607013306.5138,-196.0
1607013306.515,-87.0
1607013306.5171,-104.0
1607013306.5191,-31.0
1607013306.521,-4.0
1607013306.523,-31.0
1607013306.525,-16.0
1607013306.527,-4.0
1607013306.529,-14.0
1607013306.531,-9.0
1607013306.533,4.0
1607013306.535,4.0
1607013306.537,0.0
1607013306.539,2.0
1607013306.541,4.0
1607013306.543,7.0
1607013306.5437,12.0
1607013306.545,24.0
1607013306.547,33.0
1607013306.549,36.0
1607013306.551,41.0
1607013306.5529,53.0
1607013306.555,60.0
1607013306.557,72.0
1607013306.5589,89.0
1607013306.5609,101.0
1607013306.5629,108.0
1607013306.5649,121.0
1607013306.5671,133.0
1607013306.569,145.0
1607013306.5709,154.0
1607013306.5729,159.0
1607013306.5736,154.0
1607013306.5749,140.0
1607013306.577,118.0
1607013306.579,94.0
1607013306.5809,65.0
1607013306.9853,36.0
1607013306.9866,12.0
1607013306.989,-4.0
1607013306.9917,-14.0
1607013306.9937,-19.0
1607013306.9957,-26.0
1607013306.9977,-29.0
1607013306.9997,-21.0
1607013307.0019,-14.0
1607013307.0036,-12.0
1607013307.0056,-12.0
1607013307.0063,-2.0
1607013307.0076,0.0
1607013307.0096,0.0
1607013307.0116,4.0
1607013307.0136,16.0
1607013307.0156,21.0
1607013307.0175,19.0
1607013307.0195,16.0
1607013307.0216,12.0
1607013307.0236,7.0
1607013307.0255,7.0
1607013307.0275,7.0
1607013307.0295,7.0
1607013307.0315,7.0
1607013307.0336,4.0
1607013307.0355,2.0
1607013307.0362,2.0
1607013307.0375,2.0
1607013307.0395,4.0
1607013307.0416,7.0
1607013307.0435,7.0
1607013307.0455,4.0
1607013307.0475,4.0
1607013307.0495,7.0
1607013307.0515,4.0
1607013307.0535,0.0
1607013307.0556,2.0
1607013307.0575,4.0
1607013307.0594,9.0
1607013307.0615,7.0
1607013307.0635,4.0
1607013307.0644,2.0
1607013307.0655,4.0
1607013307.0675,9.0
1607013307.0695,14.0
1607013307.0715,29.0
1607013307.0735,43.0
1607013307.0755,38.0
1607013307.0774,41.0
1607013307.0794,58.0
1607013307.0814,43.0
1607013307.0835,16.0
1607013307.0855,16.0
1607013307.0874,21.0
1607013307.0894,19.0
1607013307.0914,21.0
1607013307.0935,26.0
1607013307.0941,21.0
1607013307.0954,-12.0
1607013307.0974,-19.0
1607013307.0994,186.0
1607013307.1014,619.0
1607013307.1035,900.0
1607013307.1054,629.0
1607013307.1074,-130.0
1607013307.1095,-622.0
1607013307.1114,-377.0
1607013307.1134,-55.0
1607013307.1155,-77.0
1607013307.1174,-70.0
1607013307.1194,12.0
1607013307.1214,-2.0
1607013307.5549,-16.0
1607013307.556,14.0
1607013307.5583,16.0
1607013307.561,7.0
1607013307.5631,14.0
1607013307.565,21.0
1607013307.567,14.0
1607013307.5689,9.0
1607013307.5709,19.0
1607013307.573,29.0
1607013307.5751,31.0
1607013307.5769,36.0
1607013307.5789,43.0
1607013307.5809,48.0
1607013307.5817,55.0
1607013307.583,67.0
1607013307.5849,82.0
1607013307.5869,94.0
1607013307.5889,104.0
1607013307.5909,118.0
1607013307.5931,138.0
1607013307.5949,152.0
1607013307.5969,162.0
1607013307.5989,169.0
1607013307.6009,181.0
1607013307.6029,186.0
1607013307.6049,181.0
1607013307.6069,167.0
1607013307.6088,140.0
1607013307.6108,108.0
1607013307.6115,72.0
1607013307.6122,41.0
1607013307.6138,16.0
1607013307.6158,-4.0
1607013307.6179,-26.0
1607013307.6198,-41.0
1607013307.6218,-46.0
1607013307.6238,-48.0
1607013307.6258,-41.0
1607013307.6278,-33.0
1607013307.6298,-26.0
1607013307.6318,-24.0
1607013307.6338,-16.0
1607013307.6358,-4.0
1607013307.6378,4.0
1607013307.6384,7.0
1607013307.6398,12.0
1607013307.6418,14.0
1607013307.6438,12.0
1607013307.6458,12.0
1607013307.6478,14.0
1607013307.6498,12.0
1607013307.6518,4.0
1607013307.6538,-2.0
1607013307.6558,-4.0
1607013307.6578,-4.0
1607013307.6598,-4.0
1607013307.6618,-7.0
1607013307.6638,-14.0
1607013307.6658,-19.0
1607013307.6678,-19.0
1607013307.6684,-14.0
1607013307.6698,-12.0
1607013307.6718,-9.0
1607013307.6738,-9.0
1607013307.6758,-12.0
1607013307.6778,-14.0
1607013307.6798,-12.0
1607013307.6818,-12.0
1607013307.6838,-9.0
1607013307.6858,-7.0
1607013307.688,-4.0
1607013307.6898,-4.0
1607013308.094,-4.0
1607013308.0949,0.0
1607013308.0955,7.0
1607013308.0975,9.0
1607013308.0995,7.0
1607013308.1015,7.0
1607013308.1035,9.0
1607013308.1055,7.0
1607013308.1075,0.0
1607013308.1095,-2.0
1607013308.1114,0.0
1607013308.1135,2.0
1607013308.1154,2.0
1607013308.1174,4.0
1607013308.1195,9.0
1607013308.1214,12.0
1607013308.1234,21.0
1607013308.1254,43.0
1607013308.126,41.0
1607013308.1274,33.0
1607013308.1294,43.0
1607013308.1315,36.0
1607013308.1335,12.0
1607013308.1354,7.0
1607013308.1374,9.0
1607013308.1395,9.0
1607013308.1414,16.0
1607013308.1434,14.0
1607013308.1454,0.0
1607013308.1474,-29.0
1607013308.1494,2.0
1607013308.1514,268.0
1607013308.1534,702.0
1607013308.1554,883.0
1607013308.156,474.0
1607013308.1574,-302.0
1607013308.1594,-612.0
1607013308.1614,-261.0
1607013308.1634,-33.0
1607013308.1654,-92.0
1607013308.1674,-53.0
1607013308.1693,4.0
1607013308.1714,-29.0
1607013308.1734,-26.0
1607013308.1754,14.0
1607013308.1773,19.0
1607013308.1794,14.0
1607013308.1813,26.0
1607013308.1834,33.0
1607013308.1855,31.0
1607013308.186,36.0
1607013308.1874,46.0
1607013308.1893,50.0
1607013308.1914,55.0
1607013308.1934,60.0
1607013308.1954,67.0
1607013308.1974,72.0
1607013308.1994,82.0
1607013308.2014,92.0
1607013308.2033,101.0
1607013308.2053,116.0
1607013308.2073,130.0
1607013308.2093,145.0
1607013308.2113,157.0
1607013308.2133,167.0
1607013308.2154,179.0
1607013308.2159,196.0
1607013308.2173,208.0
1607013308.2193,213.0
1607013308.2213,220.0
1607013308.2234,220.0
1607013308.2253,203.0
1607013308.2273,181.0
1607013308.6637,157.0
1607013308.6647,128.0
1607013308.6671,101.0
1607013308.6698,79.0
1607013308.6718,62.0
1607013308.6737,48.0
1607013308.6758,43.0
1607013308.6777,48.0
1607013308.6797,50.0
1607013308.6804,53.0
1607013308.6819,62.0
1607013308.6837,75.0
1607013308.6857,79.0
1607013308.6877,84.0
1607013308.6897,94.0
1607013308.6917,96.0
1607013308.6937,92.0
1607013308.6957,92.0
1607013308.6977,92.0
1607013308.6997,87.0
1607013308.7017,77.0
1607013308.7037,72.0
1607013308.7057,70.0
1607013308.7076,65.0
1607013308.7097,60.0
1607013308.7105,58.0
1607013308.7117,58.0
1607013308.7138,55.0
1607013308.7157,50.0
1607013308.7176,48.0
1607013308.7196,48.0
1607013308.7216,46.0
1607013308.7238,46.0
1607013308.7256,46.0
1607013308.7277,43.0
1607013308.7296,43.0
1607013308.7317,43.0
1607013308.7336,38.0
1607013308.7356,38.0
1607013308.7376,38.0
1607013308.7396,36.0
1607013308.7402,33.0
1607013308.7416,33.0
1607013308.7436,33.0
1607013308.7456,31.0
1607013308.7476,26.0
1607013308.7496,31.0
1607013308.7516,29.0
1607013308.7536,21.0
1607013308.7556,21.0
1607013308.7576,24.0
1607013308.7596,26.0
1607013308.7618,24.0
1607013308.7635,24.0
1607013308.7656,24.0
1607013308.7675,26.0
1607013308.7696,19.0
1607013308.7702,16.0
1607013308.7716,19.0
1607013308.7735,19.0
1607013308.7755,19.0
1607013308.7776,19.0
1607013308.7796,21.0
1607013308.7816,19.0
1607013308.7835,16.0
1607013308.7855,14.0
1607013308.7875,14.0
1607013308.7895,12.0
1607013308.7916,12.0
1607013308.7935,12.0
1607013308.7955,9.0
1607013308.7975,7.0
1607013308.7995,4.0
1607013309.2933,4.0
1607013309.2942,9.0
1607013309.2966,19.0
1607013309.2984,33.0
1607013309.3003,31.0
1607013309.3026,19.0
1607013309.3043,14.0
1607013309.3064,2.0
1607013309.3083,-26.0
1607013309.3103,-41.0
1607013309.3122,-38.0
1607013309.3142,-36.0
1607013309.3162,-41.0
1607013309.3168,-46.0
1607013309.3182,-58.0
1607013309.3202,-87.0
1607013309.3223,-50.0
1607013309.3242,210.0
1607013309.3262,595.0
1607013309.3282,728.0
1607013309.3303,322.0
1607013309.3322,-401.0
1607013309.3342,-648.0
1607013309.3361,-295.0
1607013309.3381,-94.0
1607013309.3402,-157.0
1607013309.3422,-113.0
1607013309.3441,-58.0
1607013309.3461,-87.0
1607013309.3468,-87.0
1607013309.3481,-60.0
1607013309.3501,-62.0
1607013309.3522,-67.0
1607013309.3542,-60.0
1607013309.3561,-55.0
1607013309.3581,-53.0
1607013309.3601,-48.0
1607013309.3622,-43.0
1607013309.3642,-43.0
1607013309.3662,-36.0
1607013309.3681,-24.0
1607013309.3701,-21.0
1607013309.3721,-19.0
1607013309.3741,-9.0
1607013309.3761,0.0
1607013309.3767,2.0
1607013309.3781,12.0
1607013309.3801,31.0
1607013309.3821,48.0
1607013309.3841,58.0
1607013309.3861,70.0
1607013309.3881,79.0
1607013309.3901,94.0
1607013309.3921,108.0
1607013309.3942,118.0
1607013309.3961,123.0
1607013309.3984,125.0
1607013309.4002,113.0
1607013309.4021,92.0
1607013309.4041,67.0
1607013309.4061,41.0
1607013309.4067,9.0
1607013309.4081,-19.0
1607013309.4101,-38.0
1607013309.4121,-50.0
1607013309.4141,-55.0
1607013309.4161,-53.0
1607013309.4182,-48.0
1607013309.4201,-46.0
1607013309.4221,-41.0
1607013309.4241,-31.0
1607013309.4261,-24.0
1607013309.4281,-21.0
1607013309.8024,-14.0
1607013309.8034,-9.0
1607013309.8058,-7.0
1607013309.8085,-4.0
1607013309.8091,-7.0
1607013309.8104,-16.0
1607013309.8123,-19.0
1607013309.8144,-19.0
1607013309.8164,-24.0
1607013309.8185,-31.0
1607013309.8204,-33.0
1607013309.8224,-36.0
1607013309.8244,-46.0
1607013309.8264,-46.0
1607013309.8284,-46.0
1607013309.8304,-55.0
1607013309.8323,-62.0
1607013309.8343,-55.0
1607013309.8363,-46.0
1607013309.8383,-48.0
1607013309.839,-46.0
1607013309.8403,-41.0
1607013309.8424,-46.0
1607013309.8443,-46.0
1607013309.8463,-36.0
1607013309.8483,-41.0
1607013309.8503,-46.0
1607013309.8523,-41.0
1607013309.8543,-33.0
1607013309.8563,-31.0
1607013309.8583,-26.0
1607013309.8603,-26.0
1607013309.8623,-29.0
1607013309.8643,-33.0
1607013309.8665,-29.0
1607013309.8683,-26.0
1607013309.869,-19.0
1607013309.8703,-16.0
1607013309.8723,-21.0
1607013309.8743,-19.0
1607013309.8763,-12.0
1607013309.8783,-12.0
1607013309.8803,-14.0
1607013309.8823,-9.0
1607013309.8843,-7.0
1607013309.8863,-12.0
1607013309.8883,-21.0
1607013309.8903,-19.0
1607013309.8924,-12.0
1607013309.8943,-2.0
1607013309.8963,16.0
1607013309.8983,24.0
1607013309.8989,14.0
1607013309.9002,21.0
1607013309.9022,26.0
1607013309.9042,-2.0
1607013309.9062,-24.0
1607013309.9083,-19.0
1607013309.9103,-14.0
1607013309.9122,-12.0
1607013309.9142,-7.0
1607013309.9162,-12.0
1607013309.9183,-31.0
1607013309.9202,-7.0
1607013309.9223,210.0
1607013309.9242,624.0
1607013309.9263,861.0
1607013309.9282,552.0
1607013309.9288,-200.0
1607013309.9302,-658.0
1607013309.9322,-416.0
1607013309.9342,-108.0
1607013309.9362,-106.0
1607013310.3727,-82.0
1607013310.3737,-9.0
1607013310.3751,-21.0
1607013310.3771,-33.0
1607013310.3791,-9.0
1607013310.3812,-7.0
1607013310.3831,-7.0
1607013310.3838,2.0
1607013310.3851,-2.0
1607013310.3871,-12.0
1607013310.3891,-2.0
1607013310.3911,9.0
1607013310.3932,9.0
1607013310.3951,7.0
1607013310.397,12.0
1607013310.399,19.0
1607013310.401,26.0
1607013310.403,36.0
1607013310.405,46.0
1607013310.4071,53.0
1607013310.409,60.0
1607013310.411,72.0
1607013310.4116,84.0
1607013310.413,94.0
1607013310.415,101.0
1607013310.417,113.0
1607013310.419,125.0
1607013310.421,135.0
1607013310.423,145.0
1607013310.425,157.0
1607013310.427,157.0
1607013310.4291,140.0
1607013310.4309,118.0
1607013310.433,96.0
1607013310.4349,70.0
1607013310.4369,46.0
1607013310.4389,21.0
1607013310.441,4.0
1607013310.4416,-4.0
1607013310.4429,-9.0
1607013310.4449,-12.0
1607013310.4469,-9.0
1607013310.449,-4.0
1607013310.451,2.0
1607013310.4529,7.0
1607013310.4549,12.0
1607013310.4569,12.0
1607013310.4589,14.0
1607013310.461,19.0
1607013310.4629,21.0
1607013310.4649,21.0
1607013310.4669,24.0
1607013310.4689,26.0
1607013310.471,24.0
1607013310.4715,21.0
1607013310.4729,16.0
1607013310.4749,9.0
1607013310.4769,7.0
1607013310.479,2.0
1607013310.481,0.0
1607013310.4829,0.0
1607013310.4849,0.0
1607013310.4869,0.0
1607013310.4891,-2.0
1607013310.491,-7.0
1607013310.4929,-4.0
1607013310.4949,0.0
1607013310.4969,-2.0
1607013310.4989,0.0
1607013310.501,4.0
1607013310.5015,4.0
1607013310.5029,4.0
1607013310.5049,4.0
1607013310.9118,7.0
1607013310.9127,7.0
1607013310.9152,9.0
1607013310.9179,12.0
1607013310.9199,9.0
1607013310.9218,2.0
1607013310.9239,0.0
1607013310.9259,2.0
1607013310.9278,2.0
1607013310.9299,-2.0
1607013310.9304,-9.0
1607013310.9317,-4.0
1607013310.9339,-2.0
1607013310.9359,-2.0
1607013310.9378,-4.0
1607013310.9399,0.0
1607013310.9419,4.0
1607013310.9437,2.0
1607013310.9458,2.0
1607013310.9477,4.0
1607013310.9498,7.0
1607013310.9517,7.0
1607013310.9537,9.0
1607013310.9558,16.0
1607013310.9577,19.0
1607013310.9598,29.0
1607013310.9603,53.0
1607013310.9617,58.0
1607013310.9637,46.0
1607013310.9657,55.0
1607013310.9677,53.0
1607013310.9698,24.0
1607013310.9718,7.0
1607013310.9737,14.0
1607013310.9757,16.0
1607013310.9777,19.0
1607013310.9797,16.0
1607013310.9817,7.0
1607013310.9837,-19.0
1607013310.9858,7.0
1607013310.9876,254.0
1607013310.99,660.0
1607013310.9904,842.0
1607013310.9917,464.0
1607013310.9936,-280.0
1607013310.9957,-600.0
1607013310.9977,-266.0
1607013310.9998,-26.0
1607013311.0016,-82.0
1607013311.0036,-46.0
1607013311.0057,24.0
1607013311.0077,-2.0
1607013311.0098,-7.0
1607013311.0121,19.0
1607013311.0137,16.0
1607013311.0166,7.0
1607013311.0177,12.0
1607013311.0197,16.0
1607013311.0206,16.0
1607013311.0227,24.0
1607013311.0247,26.0
1607013311.0267,26.0
1607013311.0286,31.0
1607013311.0308,38.0
1607013311.0327,43.0
1607013311.0347,48.0
1607013311.0366,55.0
1607013311.0387,65.0
1607013311.0406,72.0
1607013311.0427,79.0
1607013311.0446,92.0
1607013311.0466,104.0
1607013311.0486,113.0
1607013311.4515,125.0
1607013311.4525,140.0
1607013311.455,150.0
1607013311.4576,157.0
1607013311.4596,164.0
1607013311.4616,167.0
1607013311.4636,159.0
1607013311.4655,138.0
1607013311.4675,111.0
1607013311.4695,87.0
1607013311.4716,60.0
1607013311.4735,29.0
1607013311.4756,7.0
1607013311.4775,-9.0
1607013311.4796,-21.0
1607013311.48,-29.0
1607013311.4815,-31.0
1607013311.4834,-29.0
1607013311.4854,-21.0
1607013311.4877,-16.0
1607013311.4897,-9.0
1607013311.4914,0.0
1607013311.4934,7.0
1607013311.4954,9.0
1607013311.4974,12.0
1607013311.4995,16.0
1607013311.5014,14.0
1607013311.5034,12.0
1607013311.5055,9.0
1607013311.5074,4.0
1607013311.5094,0.0
1607013311.51,-2.0
1607013311.5114,-4.0
1607013311.5134,-7.0
1607013311.5155,-14.0
1607013311.5174,-16.0
1607013311.5194,-16.0
1607013311.5215,-16.0
1607013311.5234,-19.0
1607013311.5254,-16.0
1607013311.5275,-14.0
1607013311.5294,-16.0
1607013311.5314,-19.0
1607013311.5334,-16.0
1607013311.5354,-12.0
1607013311.5374,-9.0
1607013311.5394,-14.0
1607013311.54,-19.0
1607013311.5414,-19.0
1607013311.5434,-24.0
1607013311.5454,-26.0
1607013311.5474,-21.0
1607013311.5494,-21.0
1607013311.5513,-24.0
1607013311.5533,-24.0
1607013311.5555,-19.0
1607013311.5574,-16.0
1607013311.5594,-16.0
1607013311.5613,-16.0
1607013311.5633,-16.0
1607013311.5653,-19.0
1607013311.5674,-19.0
1607013311.5694,-14.0
1607013311.5699,-12.0
1607013311.5713,-12.0
1607013311.5734,-14.0
1607013311.5754,-14.0
1607013311.5773,-12.0
1607013311.5795,-4.0
1607013311.5813,-2.0
1607013311.5835,-4.0
1607013311.5854,-4.0
1607013311.5873,0.0
1607013312.0211,2.0
1607013312.022,2.0
1607013312.0245,4.0
1607013312.0271,0.0
1607013312.0291,-7.0
1607013312.0311,-2.0
1607013312.0317,21.0
1607013312.0331,36.0
1607013312.0352,24.0
1607013312.0371,24.0
1607013312.0392,41.0
1607013312.0411,24.0
1607013312.0431,-7.0
1607013312.0451,-14.0
1607013312.0472,-7.0
1607013312.0492,-4.0
1607013312.0511,-2.0
1607013312.0531,2.0
1607013312.0552,-12.0
1607013312.0571,-43.0
1607013312.0592,48.0
1607013312.0612,387.0
1607013312.0617,752.0
1607013312.063,736.0
1607013312.0651,162.0
1607013312.0671,-510.0
1607013312.0691,-542.0
1607013312.071,-154.0
1607013312.073,-55.0
1607013312.075,-101.0
1607013312.077,-29.0
1607013312.0791,-2.0
1607013312.081,-33.0
1607013312.083,-16.0
1607013312.085,0.0
1607013312.087,-7.0
1607013312.0891,-2.0
1607013312.091,2.0
1607013312.0916,2.0
1607013312.093,9.0
1607013312.0949,14.0
1607013312.097,9.0
1607013312.099,4.0
1607013312.101,12.0
1607013312.1029,21.0
1607013312.105,24.0
1607013312.1069,29.0
1607013312.109,38.0
1607013312.1111,48.0
1607013312.113,58.0
1607013312.1149,67.0
1607013312.1169,79.0
1607013312.119,92.0
1607013312.121,101.0
1607013312.1216,113.0
1607013312.1229,128.0
1607013312.1249,142.0
1607013312.1269,152.0
1607013312.129,154.0
1607013312.1309,162.0
1607013312.1329,159.0
1607013312.1349,140.0
1607013312.1371,108.0
1607013312.139,82.0
1607013312.1409,55.0
1607013312.1429,31.0
1607013312.1449,4.0
1607013312.1469,-16.0
1607013312.149,-24.0
1607013312.1509,-29.0
1607013312.1515,-36.0
1607013312.1529,-31.0
1607013312.155,-19.0
1607013312.6211,-16.0
1607013312.6225,-12.0
1607013312.625,-4.0
1607013312.6276,2.0
1607013312.6296,4.0
1607013312.6316,0.0
1607013312.6336,-2.0
1607013312.6356,0.0
1607013312.6376,0.0
1607013312.6396,-4.0
1607013312.6403,-7.0
1607013312.6416,-12.0
1607013312.6436,-16.0
1607013312.6456,-21.0
1607013312.6476,-29.0
1607013312.6496,-33.0
1607013312.6515,-31.0
1607013312.6535,-29.0
1607013312.6556,-29.0
1607013312.6575,-26.0
1607013312.6596,-24.0
1607013312.6615,-26.0
1607013312.6635,-29.0
1607013312.6655,-26.0
1607013312.6676,-21.0
1607013312.6695,-21.0
1607013312.6703,-24.0
1607013312.6716,-24.0
1607013312.6735,-24.0
1607013312.6755,-16.0
1607013312.6775,-12.0
1607013312.6794,-14.0
1607013312.6815,-19.0
1607013312.6835,-24.0
1607013312.6855,-21.0
1607013312.6874,-21.0
1607013312.6895,-24.0
1607013312.6914,-26.0
1607013312.6935,-24.0
1607013312.6954,-21.0
1607013312.6975,-19.0
1607013312.6995,-16.0
1607013312.7,-19.0
1607013312.7014,-19.0
1607013312.7035,-16.0
1607013312.7055,-14.0
1607013312.7075,-14.0
1607013312.7095,-9.0
1607013312.7114,0.0
1607013312.7135,-2.0
1607013312.7154,7.0
1607013312.7174,33.0
1607013312.7195,38.0
1607013312.7214,29.0
1607013312.7235,41.0
1607013312.7254,31.0
1607013312.7274,2.0
1607013312.7294,-4.0
1607013312.7301,4.0
1607013312.7315,7.0
1607013312.7334,7.0
1607013312.7354,7.0
1607013312.7374,-2.0
1607013312.7394,-24.0
1607013312.7414,53.0
1607013312.7434,363.0
1607013312.7454,750.0
1607013312.7474,798.0
1607013312.7495,271.0
1607013312.7514,-452.0
1607013312.7534,-590.0
1607013312.7554,-227.0
1607013312.7574,-67.0
1607013313.1605,-94.0
1607013313.1614,-29.0
1607013313.1638,4.0
1607013313.1665,-26.0
1607013313.1688,-9.0
1607013313.1705,12.0
1607013313.1726,4.0
1607013313.1745,4.0
1607013313.1765,14.0
1607013313.1785,16.0
1607013313.1804,12.0
1607013313.1824,9.0
1607013313.1844,16.0
1607013313.1864,21.0
1607013313.1885,21.0
1607013313.189,26.0
1607013313.1904,36.0
1607013313.1924,43.0
1607013313.1944,48.0
1607013313.1965,55.0
1607013313.1985,62.0
1607013313.2004,77.0
1607013313.2024,89.0
1607013313.2044,101.0
1607013313.2064,113.0
1607013313.2084,125.0
1607013313.2103,130.0
1607013313.2123,138.0
1607013313.2144,150.0
1607013313.2164,157.0
1607013313.2183,159.0
1607013313.2189,157.0
1607013313.2204,140.0
1607013313.2225,118.0
1607013313.2244,92.0
1607013313.2263,70.0
1607013313.2284,46.0
1607013313.2303,21.0
1607013313.2323,2.0
1607013313.2343,-4.0
1607013313.2364,-4.0
1607013313.2385,-4.0
1607013313.2403,-2.0
1607013313.2423,2.0
1607013313.2444,9.0
1607013313.2463,19.0
1607013313.2484,24.0
1607013313.249,29.0
1607013313.2503,33.0
1607013313.2523,36.0
1607013313.2543,33.0
1607013313.2563,38.0
1607013313.2584,43.0
1607013313.2603,38.0
1607013313.2623,33.0
1607013313.2645,33.0
1607013313.2664,31.0
1607013313.2684,26.0
1607013313.2703,24.0
1607013313.2723,19.0
1607013313.2743,14.0
1607013313.2763,12.0
1607013313.2783,12.0
1607013313.2789,14.0
1607013313.2803,14.0
1607013313.2823,12.0
1607013313.2843,9.0
1607013313.2863,9.0
1607013313.2884,9.0
1607013313.2903,9.0
1607013313.2924,9.0
1607013313.2943,9.0
1607013313.2963,9.0
1607013313.7297,7.0
1607013313.7307,4.0
1607013313.7331,12.0
1607013313.7348,21.0
1607013313.7368,19.0
1607013313.7389,21.0
1607013313.7396,19.0
1607013313.7409,7.0
1607013313.7428,-2.0
1607013313.7448,4.0
1607013313.7468,9.0
1607013313.7488,16.0
1607013313.7507,14.0
1607013313.7527,12.0
1607013313.7547,26.0
1607013313.7567,26.0
1607013313.7588,16.0
1607013313.7608,21.0
1607013313.7627,33.0
1607013313.7647,36.0
1607013313.7667,36.0
1607013313.7688,43.0
1607013313.7693,72.0
1607013313.7707,89.0
1607013313.7727,75.0
1607013313.7747,72.0
1607013313.7767,84.0
1607013313.7787,60.0
1607013313.7807,29.0
1607013313.7827,26.0
1607013313.7847,31.0
1607013313.7866,41.0
1607013313.7887,62.0
1607013313.7909,65.0
1607013313.7928,26.0
1607013313.7946,21.0
1607013313.7966,217.0
1607013313.7987,610.0
1607013313.7993,849.0
1607013313.8006,583.0
1607013313.8027,-99.0
1607013313.8046,-518.0
1607013313.8066,-300.0
1607013313.8087,-26.0
1607013313.8106,-24.0
1607013313.8128,-4.0
1607013313.8146,50.0
1607013313.8166,36.0
1607013313.8187,36.0
1607013313.8207,82.0
1607013313.8226,94.0
1607013313.8247,67.0
1607013313.8266,60.0
1607013313.8287,53.0
1607013313.8292,62.0
1607013313.8306,84.0
1607013313.8326,87.0
1607013313.8346,99.0
1607013313.8366,77.0
1607013313.8386,60.0
1607013313.8406,118.0
1607013313.8427,113.0
1607013313.8447,70.0
1607013313.8466,147.0
1607013313.8487,174.0
1607013313.8506,94.0
1607013313.8526,104.0
1607013313.8547,162.0
1607013313.8566,181.0
1607013313.8587,130.0
1607013313.8592,79.0
1607013313.8606,145.0
1607013313.8626,239.0
1607013314.2994,256.0
1607013314.3004,246.0
1607013314.3029,246.0
1607013314.3055,242.0
1607013314.3061,215.0
1607013314.3066,186.0
1607013314.3085,191.0
1607013314.3104,193.0
1607013314.3124,186.0
1607013314.3206,125.0
1607013314.3224,41.0
1607013314.3246,79.0
1607013314.3264,171.0
1607013314.3284,157.0
1607013314.3304,101.0
1607013314.3323,99.0
1607013314.3343,152.0
1607013314.3364,171.0
1607013314.3384,79.0
1607013314.3405,82.0
1607013314.3424,174.0
1607013314.3443,152.0
1607013314.3463,150.0
1607013314.3484,167.0
1607013314.349,106.0
1607013314.3503,121.0
1607013314.3523,203.0
1607013314.3543,179.0
1607013314.3563,113.0
1607013314.3584,106.0
1607013314.3603,121.0
1607013314.3623,125.0
1607013314.3643,133.0
1607013314.3663,150.0
1607013314.3683,138.0
1607013314.3703,104.0
1607013314.3723,92.0
1607013314.3743,96.0
1607013314.3763,108.0
1607013314.3783,118.0
1607013314.3789,96.0
1607013314.3803,87.0
1607013314.3823,92.0
1607013314.3844,87.0
1607013314.3863,77.0
1607013314.3883,70.0
1607013314.3903,75.0
1607013314.3923,75.0
1607013314.3943,62.0
1607013314.3963,60.0
1607013314.3983,60.0
1607013314.4002,33.0
1607013314.4022,9.0
1607013314.4043,4.0
1607013314.4064,-2.0
1607013314.4083,-9.0
1607013314.4089,-14.0
1607013314.4102,-21.0
1607013314.4122,-36.0
1607013314.4142,-55.0
1607013314.4162,-67.0
1607013314.4183,-70.0
1607013314.4204,-70.0
1607013314.4223,-53.0
1607013314.4242,-43.0
1607013314.4262,-48.0
1607013314.4283,-48.0
1607013314.4302,-41.0
1607013314.4322,-38.0
1607013314.4342,-38.0
1607013314.4362,-60.0
1607013314.4383,-87.0
1607013314.4389,-89.0
1607013314.8394,-82.0
1607013314.8404,-77.0
1607013314.8429,-72.0
1607013314.8446,-67.0
1607013314.8466,-87.0
1607013314.8485,-106.0
1607013314.8504,19.0
1607013314.8524,375.0
1607013314.8544,699.0
1607013314.8564,590.0
1607013314.8585,-50.0
1607013314.8604,-644.0
1607013314.8624,-552.0
1607013314.8644,-191.0
1607013314.8664,-145.0
1607013314.8672,-164.0
1607013314.8684,-84.0
1607013314.8704,-75.0
1607013314.8724,-99.0
1607013314.8744,-72.0
1607013314.8764,-53.0
1607013314.8784,-55.0
1607013314.8803,-55.0
1607013314.8823,-50.0
1607013314.8843,-48.0
1607013314.8864,-38.0
1607013314.8884,-33.0
1607013314.8903,-31.0
1607013314.8923,-24.0
1607013314.8943,-19.0
1607013314.8963,-14.0
1607013314.897,-9.0
1607013314.8983,-4.0
1607013314.9003,9.0
1607013314.9025,21.0
1607013314.9044,29.0
1607013314.9063,33.0
1607013314.9084,50.0
1607013314.9103,65.0
1607013314.9123,72.0
1607013314.9145,82.0
1607013314.9164,99.0
1607013314.9184,108.0
1607013314.9203,116.0
1607013314.9223,128.0
1607013314.9243,135.0
1607013314.9263,128.0
1607013314.927,111.0
1607013314.9283,82.0
1607013314.9303,48.0
1607013314.9323,24.0
1607013314.9343,4.0
1607013314.9363,-24.0
1607013314.9383,-46.0
1607013314.9403,-48.0
1607013314.9423,-48.0
1607013314.9443,-50.0
1607013314.9463,-46.0
1607013314.9483,-36.0
1607013314.9503,-36.0
1607013314.9523,-26.0
1607013314.9543,-12.0
1607013314.9563,-4.0
1607013314.9571,-7.0
1607013314.9583,-12.0
1607013314.9603,-9.0
1607013314.9623,-2.0
1607013314.9643,0.0
1607013314.9663,-4.0
1607013314.9683,-12.0
1607013314.9703,-16.0
1607013314.9723,-21.0
1607013314.9744,-21.0
1607013315.3787,-24.0
1607013315.3796,-31.0
1607013315.382,-33.0
1607013315.3847,-36.0
1607013315.3854,-33.0
1607013315.3877,-29.0
1607013315.3897,-31.0
1607013315.3917,-43.0
1607013315.3937,-46.0
1607013315.3957,-38.0
1607013315.3976,-36.0
1607013315.3996,-38.0
1607013315.4016,-36.0
1607013315.4036,-33.0
1607013315.4056,-31.0
1607013315.4077,-33.0
1607013315.4096,-33.0
1607013315.4116,-31.0
1607013315.4138,-31.0
1607013315.4157,-36.0
1607013315.4162,-31.0
1607013315.4176,-21.0
1607013315.4196,-14.0
1607013315.4216,-12.0
1607013315.4236,4.0
1607013315.4255,16.0
1607013315.4276,9.0
1607013315.4296,12.0
1607013315.4316,26.0
1607013315.4336,9.0
1607013315.4355,-24.0
1607013315.4376,-31.0
1607013315.4389,-24.0
1607013315.4406,-24.0
1607013315.4425,-19.0
1607013315.4445,-16.0
1607013315.4451,-29.0
1607013315.4465,-50.0
1607013315.4485,-12.0
1607013315.4505,242.0
1607013315.4526,648.0
1607013315.4546,818.0
1607013315.4565,416.0
1607013315.4585,-346.0
1607013315.4605,-673.0
1607013315.4626,-360.0
1607013315.4645,-111.0
1607013315.4665,-128.0
1607013315.4685,-77.0
1607013315.4705,-16.0
1607013315.4725,-43.0
1607013315.4745,-46.0
1607013315.4751,-19.0
1607013315.4765,-21.0
1607013315.4785,-21.0
1607013315.4805,-9.0
1607013315.4825,-7.0
1607013315.4845,-7.0
1607013315.4865,-4.0
1607013315.4885,-2.0
1607013315.4905,2.0
1607013315.4925,9.0
1607013315.4945,12.0
1607013315.4965,12.0
1607013315.4985,12.0
1607013315.5005,19.0
1607013315.5025,29.0
1607013315.5045,41.0
1607013315.5051,53.0
1607013315.5067,62.0
1607013315.5085,72.0
1607013315.5105,84.0
1607013315.5125,96.0
1607013315.9792,111.0
1607013315.9805,121.0
1607013315.983,133.0
1607013315.9856,138.0
1607013315.9876,133.0
1607013315.9896,121.0
1607013315.9916,108.0
1607013315.9936,92.0
1607013315.9956,62.0
1607013315.9977,31.0
1607013315.9983,7.0
1607013315.9995,-14.0
1607013316.0016,-29.0
1607013316.0036,-36.0
1607013316.0056,-41.0
1607013316.0076,-41.0
1607013316.0095,-36.0
1607013316.0115,-26.0
1607013316.0135,-21.0
1607013316.0155,-14.0
1607013316.0176,-9.0
1607013316.0195,-7.0
1607013316.0215,-4.0
1607013316.0235,0.0
1607013316.0255,2.0
1607013316.0275,4.0
1607013316.0281,9.0
1607013316.0295,7.0
1607013316.0315,0.0
1607013316.0335,2.0
1607013316.0355,2.0
1607013316.0375,-2.0
1607013316.0395,-4.0
1607013316.0415,-7.0
1607013316.0435,-7.0
1607013316.0455,-7.0
1607013316.0475,-7.0
1607013316.0495,-7.0
1607013316.0515,-7.0
1607013316.0535,-7.0
1607013316.0555,-4.0
1607013316.0576,-2.0
1607013316.0581,-4.0
1607013316.0594,-4.0
1607013316.0614,-2.0
1607013316.0634,0.0
1607013316.0655,2.0
1607013316.0676,2.0
1607013316.0695,2.0
1607013316.0714,2.0
1607013316.0734,4.0
1607013316.0754,4.0
1607013316.0775,4.0
1607013316.0794,4.0
1607013316.0814,7.0
1607013316.0835,7.0
1607013316.0855,2.0
1607013316.0874,0.0
1607013316.088,7.0
1607013316.0894,12.0
1607013316.0914,24.0
1607013316.0934,38.0
1607013316.0954,31.0
1607013316.0975,29.0
1607013316.0994,43.0
1607013316.1014,29.0
1607013316.1034,-2.0
1607013316.1054,-7.0
1607013316.1074,-4.0
1607013316.1094,-2.0
1607013316.1114,0.0
1607013316.1134,4.0
1607013316.1154,-7.0
1607013316.5486,-36.0
1607013316.5495,2.0
1607013316.5513,278.0
1607013316.5532,687.0
1607013316.5552,813.0
1607013316.5572,360.0
1607013316.5591,-389.0
1607013316.5612,-617.0
1607013316.5631,-242.0
1607013316.5651,-53.0
1607013316.5672,-121.0
1607013316.5691,-70.0
1607013316.5711,-14.0
1607013316.5717,-50.0
1607013316.5731,-46.0
1607013316.5751,-16.0
1607013316.5771,-21.0
1607013316.5791,-26.0
1607013316.5811,-14.0
1607013316.5831,-9.0
1607013316.5851,-9.0
1607013316.5871,-7.0
1607013316.5891,-2.0
1607013316.5912,2.0
1607013316.5931,9.0
1607013316.5952,16.0
1607013316.5972,19.0
1607013316.5991,26.0
1607013316.601,36.0
1607013316.6017,41.0
1607013316.6031,50.0
1607013316.605,65.0
1607013316.6071,77.0
1607013316.609,87.0
1607013316.611,104.0
1607013316.613,116.0
1607013316.615,128.0
1607013316.617,138.0
1607013316.619,147.0
1607013316.621,154.0
1607013316.623,159.0
1607013316.625,152.0
1607013316.627,133.0
1607013316.629,108.0
1607013316.631,75.0
1607013316.6316,41.0
1607013316.633,16.0
1607013316.635,-4.0
1607013316.637,-24.0
1607013316.6391,-36.0
1607013316.641,-41.0
1607013316.643,-36.0
1607013316.645,-31.0
1607013316.647,-26.0
1607013316.649,-19.0
1607013316.651,-12.0
1607013316.653,-7.0
1607013316.655,-4.0
1607013316.657,2.0
1607013316.659,12.0
1607013316.661,14.0
1607013316.6616,12.0
1607013316.663,14.0
1607013316.665,12.0
1607013316.667,9.0
1607013316.669,7.0
1607013316.671,4.0
1607013316.673,0.0
1607013316.675,-2.0
1607013316.677,-2.0
1607013316.679,-4.0
1607013316.681,-9.0
1607013316.683,-7.0
1607013317.0877,-4.0
1607013317.0887,-7.0
1607013317.0892,-4.0
1607013317.0909,-4.0
1607013317.0927,-4.0
1607013317.0947,-2.0
1607013317.0966,-2.0
1607013317.0985,-4.0
1607013317.1007,-2.0
1607013317.1026,2.0
1607013317.1045,-2.0
1607013317.1066,-7.0
1607013317.1085,-2.0
1607013317.1105,2.0
1607013317.1126,0.0
1607013317.1145,2.0
1607013317.1165,7.0
1607013317.1185,7.0
1607013317.1191,7.0
1607013317.1205,9.0
1607013317.1225,14.0
1607013317.1246,14.0
1607013317.1266,14.0
1607013317.1286,14.0
1607013317.1305,19.0
1607013317.1325,21.0
1607013317.1346,19.0
1607013317.1366,19.0
1607013317.1385,24.0
1607013317.1405,26.0
1607013317.1425,21.0
1607013317.1445,21.0
1607013317.1465,21.0
1607013317.1485,24.0
1607013317.1492,24.0
1607013317.1505,19.0
1607013317.1525,16.0
1607013317.1545,21.0
1607013317.1566,21.0
1607013317.1585,21.0
1607013317.1605,19.0
1607013317.1625,19.0
1607013317.1645,12.0
1607013317.1666,14.0
1607013317.1685,24.0
1607013317.1705,31.0
1607013317.1725,46.0
1607013317.1745,60.0
1607013317.1765,53.0
1607013317.1785,50.0
1607013317.1791,58.0
1607013317.1804,36.0
1607013317.1825,9.0
1607013317.1845,7.0
1607013317.1867,7.0
1607013317.1885,4.0
1607013317.1904,7.0
1607013317.1924,7.0
1607013317.1944,-12.0
1607013317.1965,-24.0
1607013317.1984,101.0
1607013317.2005,440.0
1607013317.2025,750.0
1607013317.2044,648.0
1607013317.2064,31.0
1607013317.2084,-554.0
1607013317.209,-467.0
1607013317.2106,-111.0
1607013317.2125,-72.0
1607013317.2144,-101.0
1607013317.2165,-24.0
1607013317.2184,-14.0
1607013317.2205,-41.0
1607013317.6276,-21.0
1607013317.6285,-4.0
1607013317.6309,-14.0
1607013317.6336,-14.0
1607013317.6356,-7.0
1607013317.6377,-7.0
1607013317.6397,-4.0
1607013317.6416,-4.0
1607013317.6423,-14.0
1607013317.6436,-14.0
1607013317.6456,-2.0
1607013317.6475,4.0
1607013317.6495,4.0
1607013317.6516,9.0
1607013317.6535,14.0
1607013317.6557,24.0
1607013317.6576,36.0
1607013317.6595,48.0
1607013317.6616,58.0
1607013317.6635,67.0
1607013317.6655,82.0
1607013317.6675,96.0
1607013317.6695,108.0
1607013317.6715,113.0
1607013317.6721,121.0
1607013317.6735,135.0
1607013317.6755,142.0
1607013317.6775,138.0
1607013317.6795,125.0
1607013317.6815,108.0
1607013317.6835,84.0
1607013317.6855,53.0
1607013317.6877,24.0
1607013317.6895,-2.0
1607013317.6915,-24.0
1607013317.6935,-38.0
1607013317.6955,-46.0
1607013317.6975,-46.0
1607013317.6995,-38.0
1607013317.7015,-31.0
1607013317.7021,-26.0
1607013317.7035,-21.0
1607013317.7056,-14.0
1607013317.7075,-14.0
1607013317.7095,-7.0
1607013317.7115,2.0
1607013317.7135,7.0
1607013317.7155,2.0
1607013317.7175,-2.0
1607013317.7195,0.0
1607013317.7215,4.0
1607013317.7235,-4.0
1607013317.7255,-9.0
1607013317.7275,-7.0
1607013317.7294,-14.0
1607013317.7315,-19.0
1607013317.7321,-16.0
1607013317.7335,-16.0
1607013317.7355,-21.0
1607013317.7375,-26.0
1607013317.7395,-21.0
1607013317.7415,-14.0
1607013317.7435,-14.0
1607013317.7454,-16.0
1607013317.7475,-12.0
1607013317.7494,-9.0
1607013317.7515,-19.0
1607013317.7534,-24.0
1607013317.7555,-16.0
1607013317.7575,-7.0
1607013317.7596,-7.0
1607013317.7601,-9.0
1607013317.7614,-14.0
1607013318.1973,-19.0
1607013318.1983,-14.0
1607013318.2008,-7.0
1607013318.2034,-4.0
1607013318.2054,-9.0
1607013318.2074,-16.0
1607013318.2096,-24.0
1607013318.2114,-19.0
1607013318.2133,-16.0
1607013318.2154,-16.0
1607013318.2175,-14.0
1607013318.2194,-9.0
1607013318.2201,-12.0
1607013318.2213,-14.0
1607013318.2233,-12.0
1607013318.2253,-2.0
1607013318.2273,2.0
1607013318.2293,-4.0
1607013318.2314,-12.0
1607013318.2333,-7.0
1607013318.2353,-2.0
1607013318.2373,-2.0
1607013318.2393,0.0
1607013318.2413,19.0
1607013318.2434,33.0
1607013318.2454,19.0
1607013318.2473,19.0
1607013318.2492,33.0
1607013318.2499,9.0
1607013318.2512,-24.0
1607013318.2533,-24.0
1607013318.2553,-14.0
1607013318.2573,-14.0
1607013318.2593,-16.0
1607013318.2612,-14.0
1607013318.2632,-16.0
1607013318.2654,-26.0
1607013318.2673,79.0
1607013318.2693,426.0
1607013318.2713,791.0
1607013318.2732,743.0
1607013318.2752,130.0
1607013318.2772,-549.0
1607013318.2792,-581.0
1607013318.2798,-210.0
1607013318.2812,-99.0
1607013318.2832,-118.0
1607013318.2852,-36.0
1607013318.2872,-12.0
1607013318.2892,-46.0
1607013318.2912,-26.0
1607013318.2932,-4.0
1607013318.2952,-14.0
1607013318.2972,-14.0
1607013318.2992,-2.0
1607013318.3012,0.0
1607013318.3032,-4.0
1607013318.3052,0.0
1607013318.3072,9.0
1607013318.3092,9.0
1607013318.3098,12.0
1607013318.3114,19.0
1607013318.3133,26.0
1607013318.3152,33.0
1607013318.3172,43.0
1607013318.3192,53.0
1607013318.3212,53.0
1607013318.3232,55.0
1607013318.3252,75.0
1607013318.3272,92.0
