Time,ECG
1607013275.6222,4328
1607013275.6250,5406
1607013275.6276,6101
1607013275.6304,6989
1607013275.6328,7650
1607013275.6351,8100
1607013275.6375,8589
1607013275.6394,9016
1607013275.6410,9325
1607013275.6430,9628
1607013275.6450,9904
1607013275.6471,10120
1607013275.6494,10316
1607013275.6517,10504
1607013275.6538,10669
1607013275.6560,10797
1607013275.6580,10916
1607013275.6598,11035
1607013275.6611,11136
1607013275.6630,11214
1607013275.6650,11291
1607013275.6671,11374
1607013275.6692,11432
1607013275.6710,11466
1607013275.6731,11512
1607013275.6751,11565
1607013275.6770,11596
1607013275.6790,11611
1607013275.6809,11628
1607013275.6829,11652
1607013275.6849,11667
1607013275.6869,11681
1607013275.6889,11703
1607013275.6909,11700
1607013275.6929,11684
1607013275.6949,11679
1607013275.6970,11654
1607013275.6990,11616
1607013275.7010,11592
1607013275.7029,11565
1607013275.7050,11533
1607013275.7070,11514
1607013275.7090,11485
1607013275.7109,11437
1607013275.7129,11374
1607013275.7150,11323
1607013275.7169,11451
1607013275.7189,11824
1607013275.7210,12102
1607013275.7229,11848
1607013275.7253,11049
1607013275.7270,10456
1607013275.7289,10640
1607013275.7309,10943
1607013275.7329,10865
1607013275.7349,10793
1607013275.7369,10807
1607013275.7389,10727
1607013275.7409,10642
1607013275.7429,10606
1607013275.7449,10558
1607013275.7469,10490
1607013275.7489,10425
1607013275.7512,10354
1607013275.7529,10289
1607013275.7549,10228
1607013275.7569,10158
1607013275.7589,10090
1607013275.7609,10037
1607013275.7629,9972
1607013275.7649,9894
1607013275.7669,9831
1607013275.7689,9781
1607013276.1601,9720
1607013276.1609,9655
1607013276.1634,9597
1607013276.1661,9538
1607013276.1680,9473
1607013276.1700,9405
1607013276.1721,9347
1607013276.1741,9289
1607013276.1761,9219
1607013276.1780,9134
1607013276.1800,9062
1607013276.1820,8999
1607013276.1840,8887
1607013276.1860,8747
1607013276.1880,8638
1607013276.1900,8543
1607013276.1920,8434
1607013276.1940,8333
1607013276.1960,8255
1607013276.1980,8178
1607013276.2000,8096
1607013276.2020,8020
1607013276.2040,7960
1607013276.2060,7895
1607013276.2080,7822
1607013276.2099,7759
1607013276.2119,7698
1607013276.2139,7626
1607013276.2162,7553
1607013276.2180,7485
1607013276.2200,7422
1607013276.2219,7350
1607013276.2239,7272
1607013276.2259,7197
1607013276.2279,7130
1607013276.2300,7054
1607013276.2321,6972
1607013276.2340,6902
1607013276.2359,6834
1607013276.2379,6757
1607013276.2399,6679
1607013276.2419,6616
1607013276.2439,6553
1607013276.2459,6483
1607013276.2479,6415
1607013276.2499,6350
1607013276.2521,6285
1607013276.2541,6222
1607013276.2559,6151
1607013276.2579,6081
1607013276.2599,6023
1607013276.2619,5960
1607013276.2639,5890
1607013276.2659,5829
1607013276.2679,5776
1607013276.2699,5713
1607013276.2719,5650
1607013276.2739,5592
1607013276.2759,5536
1607013276.2779,5476
1607013276.2799,5415
1607013276.2819,5362
1607013276.2839,5306
1607013276.2859,5244
1607013276.2879,5188
1607013276.2900,5137
1607013276.2920,5084
1607013276.2939,5026
1607013276.2959,4970
1607013276.2979,4919
1607013276.2999,4863
1607013276.3019,4808
1607013276.3039,4759
1607013276.7004,4716
1607013276.7013,4670
1607013276.7038,4633
1607013276.7064,4590
1607013276.7084,4537
1607013276.7103,4488
1607013276.7126,4428
1607013276.7144,4355
1607013276.7163,4299
1607013276.7184,4251
1607013276.7203,4190
1607013276.7223,4147
1607013276.7243,4113
1607013276.7263,4050
1607013276.7283,3958
1607013276.7304,3951
1607013276.7323,4198
1607013276.7343,4583
1607013276.7363,4687
1607013276.7385,4202
1607013276.7403,3384
1607013276.7423,3091
1607013276.7443,3442
1607013276.7463,3602
1607013276.7483,3481
1607013276.7503,3488
1607013276.7524,3508
1607013276.7543,3433
1607013276.7563,3401
1607013276.7583,3389
1607013276.7603,3343
1607013276.7623,3302
1607013276.7643,3275
1607013276.7663,3239
1607013276.7683,3198
1607013276.7703,3166
1607013276.7723,3135
1607013276.7743,3098
1607013276.7763,3067
1607013276.7783,3045
1607013276.7803,3016
1607013276.7823,2980
1607013276.7843,2956
1607013276.7863,2936
1607013276.7884,2912
1607013276.7903,2888
1607013276.7924,2871
1607013276.7943,2856
1607013276.7963,2835
1607013276.7983,2808
1607013276.8003,2784
1607013276.8023,2764
1607013276.8043,2738
1607013276.8063,2709
1607013276.8084,2670
1607013276.8103,2619
1607013276.8123,2561
1607013276.8146,2500
1607013276.8163,2445
1607013276.8183,2392
1607013276.8203,2343
1607013276.8223,2302
1607013276.8243,2270
1607013276.8263,2244
1607013276.8284,2220
1607013276.8303,2198
1607013276.8323,2178
1607013276.8343,2162
1607013276.8363,2140
1607013276.8384,2120
1607013276.8403,2101
1607013276.8423,2084
1607013276.8443,2060
1607013277.2701,2038
1607013277.2711,2019
1607013277.2736,1997
1607013277.2762,1968
1607013277.2781,1944
1607013277.2802,1919
1607013277.2823,1886
1607013277.2842,1847
1607013277.2861,1823
1607013277.2881,1806
1607013277.2902,1781
1607013277.2922,1757
1607013277.2941,1738
1607013277.2962,1718
1607013277.2981,1702
1607013277.3002,1682
1607013277.3021,1663
1607013277.3041,1646
1607013277.3062,1626
1607013277.3081,1610
1607013277.3100,1595
1607013277.3120,1578
1607013277.3140,1559
1607013277.3161,1544
1607013277.3181,1527
1607013277.3200,1508
1607013277.3221,1491
1607013277.3240,1479
1607013277.3260,1459
1607013277.3280,1442
1607013277.3300,1426
1607013277.3321,1411
1607013277.3341,1399
1607013277.3360,1384
1607013277.3380,1360
1607013277.3402,1343
1607013277.3421,1336
1607013277.3440,1321
1607013277.3460,1307
1607013277.3480,1292
1607013277.3500,1280
1607013277.3520,1263
1607013277.3540,1246
1607013277.3560,1234
1607013277.3580,1227
1607013277.3601,1215
1607013277.3620,1200
1607013277.3640,1188
1607013277.3660,1174
1607013277.3680,1157
1607013277.3700,1150
1607013277.3720,1145
1607013277.3740,1130
1607013277.3760,1113
1607013277.3780,1101
1607013277.3800,1091
1607013277.3820,1079
1607013277.3841,1065
1607013277.3861,1055
1607013277.3880,1048
1607013277.3900,1033
1607013277.3920,1019
1607013277.3940,1012
1607013277.3960,1019
1607013277.3980,1026
1607013277.4000,1004
1607013277.4021,982
1607013277.4040,992
1607013277.4060,980
1607013277.4080,934
1607013277.4101,915
1607013277.4120,915
1607013277.4140,905
1607013277.8099,895
1607013277.8109,890
1607013277.8134,874
1607013277.8160,837
1607013277.8180,890
1607013277.8199,1186
1607013277.8221,1571
1607013277.8239,1639
1607013277.8259,1140
1607013277.8279,399
1607013277.8299,193
1607013277.8320,532
1607013277.8339,699
1607013277.8361,653
1607013277.8381,706
1607013277.8399,745
1607013277.8419,702
1607013277.8440,702
1607013277.8459,721
1607013277.8479,704
1607013277.8500,692
1607013277.8519,702
1607013277.8539,694
1607013277.8559,677
1607013277.8579,682
1607013277.8599,687
1607013277.8619,673
1607013277.8639,660
1607013277.8659,668
1607013277.8679,673
1607013277.8699,673
1607013277.8719,675
1607013277.8739,675
1607013277.8759,682
1607013277.8779,690
1607013277.8799,692
1607013277.8819,694
1607013277.8839,699
1607013277.8859,706
1607013277.8879,709
1607013277.8899,706
1607013277.8919,706
1607013277.8939,704
1607013277.8959,699
1607013277.8979,690
1607013277.8999,668
1607013277.9019,639
1607013277.9039,610
1607013277.9059,578
1607013277.9079,544
1607013277.9099,522
1607013277.9119,513
1607013277.9139,508
1607013277.9159,503
1607013277.9179,501
1607013277.9200,501
1607013277.9220,506
1607013277.9239,508
1607013277.9259,506
1607013277.9279,503
1607013277.9299,508
1607013277.9319,510
1607013277.9339,506
1607013277.9359,503
1607013277.9381,503
1607013277.9399,496
1607013277.9419,486
1607013277.9439,476
1607013277.9459,472
1607013277.9479,464
1607013277.9499,452
1607013277.9520,445
1607013277.9540,447
1607013278.3800,445
1607013278.3813,438
1607013278.3838,433
1607013278.3865,433
1607013278.3885,418
1607013278.3904,404
1607013278.3927,401
1607013278.3944,406
1607013278.3964,399
1607013278.3984,392
1607013278.4003,392
1607013278.4023,397
1607013278.4043,394
1607013278.4064,382
1607013278.4083,380
1607013278.4103,382
1607013278.4123,382
1607013278.4143,377
1607013278.4163,375
1607013278.4183,370
1607013278.4203,360
1607013278.4223,355
1607013278.4243,360
1607013278.4263,360
1607013278.4283,360
1607013278.4303,360
1607013278.4323,355
1607013278.4349,353
1607013278.4363,355
1607013278.4384,358
1607013278.4403,358
1607013278.4423,351
1607013278.4443,341
1607013278.4463,346
1607013278.4483,348
1607013278.4503,348
1607013278.4523,358
1607013278.4543,368
1607013278.4563,358
1607013278.4583,360
1607013278.4603,368
1607013278.4623,343
1607013278.4645,309
1607013278.4664,307
1607013278.4683,307
1607013278.4703,309
1607013278.4723,314
1607013278.4743,312
1607013278.4763,295
1607013278.4784,273
1607013278.4803,351
1607013278.4823,670
1607013278.4843,1065
1607013278.4862,1108
1607013278.4884,564
1607013278.4903,-162
1607013278.4923,-288
1607013278.4943,72
1607013278.4963,215
1607013278.4983,184
1607013278.5003,254
1607013278.5022,292
1607013278.5043,263
1607013278.5063,268
1607013278.5083,283
1607013278.5103,278
1607013278.5123,280
1607013278.5142,288
1607013278.5163,288
1607013278.5183,290
1607013278.5204,295
1607013278.5223,292
1607013278.5243,292
1607013279.0102,297
1607013279.0115,302
1607013279.0140,302
1607013279.0166,307
1607013279.0186,317
1607013279.0205,322
1607013279.0226,319
1607013279.0246,326
1607013279.0266,341
1607013279.0286,351
1607013279.0305,358
1607013279.0325,365
1607013279.0345,365
1607013279.0365,360
1607013279.0384,363
1607013279.0404,368
1607013279.0424,360
1607013279.0445,338
1607013279.0464,314
1607013279.0485,290
1607013279.0506,263
1607013279.0525,234
1607013279.0545,217
1607013279.0564,210
1607013279.0585,203
1607013279.0604,193
1607013279.0624,193
1607013279.0644,200
1607013279.0664,205
1607013279.0685,213
1607013279.0704,220
1607013279.0725,222
1607013279.0744,222
1607013279.0764,225
1607013279.0785,232
1607013279.0804,242
1607013279.0824,242
1607013279.0845,237
1607013279.0864,237
1607013279.0885,234
1607013279.0905,222
1607013279.0924,213
1607013279.0944,210
1607013279.0965,205
1607013279.0985,200
1607013279.1004,198
1607013279.1024,196
1607013279.1044,193
1607013279.1064,193
1607013279.1085,196
1607013279.1105,196
1607013279.1124,193
1607013279.1144,193
1607013279.1164,191
1607013279.1185,184
1607013279.1204,188
1607013279.1224,191
1607013279.1244,188
1607013279.1264,191
1607013279.1285,196
1607013279.1305,193
1607013279.1324,191
1607013279.1344,193
1607013279.1365,191
1607013279.1385,186
1607013279.1404,188
1607013279.1424,191
1607013279.1444,186
1607013279.1464,181
1607013279.1485,181
1607013279.1504,188
1607013279.1526,186
1607013279.1544,184
1607013279.5198,186
1607013279.5207,188
1607013279.5233,186
1607013279.5258,184
1607013279.5279,179
1607013279.5298,174
1607013279.5318,176
1607013279.5338,179
1607013279.5360,176
1607013279.5378,184
1607013279.5397,191
1607013279.5417,198
1607013279.5438,215
1607013279.5457,215
1607013279.5478,205
1607013279.5497,210
1607013279.5517,203
1607013279.5537,174
1607013279.5557,159
1607013279.5577,162
1607013279.5598,164
1607013279.5617,169
1607013279.5637,174
1607013279.5657,162
1607013279.5678,123
1607013279.5697,150
1607013279.5717,414
1607013279.5737,828
1607013279.5757,980
1607013279.5777,568
1607013279.5797,-176
1607013279.5818,-457
1607013279.5837,-96
1607013279.5858,128
1607013279.5878,70
1607013279.5897,111
1607013279.5917,174
1607013279.5937,142
1607013279.5957,133
1607013279.5977,157
1607013279.5998,159
1607013279.6017,154
1607013279.6037,154
1607013279.6057,152
1607013279.6078,145
1607013279.6097,145
1607013279.6117,181
1607013279.6137,215
1607013279.6157,198
1607013279.6179,186
1607013279.6198,196
1607013279.6217,196
1607013279.6237,203
1607013279.6257,227
1607013279.6277,249
1607013279.6297,254
1607013279.6317,242
1607013279.6337,242
1607013279.6357,261
1607013279.6378,290
1607013279.6398,312
1607013279.6417,292
1607013279.6437,283
1607013279.6457,331
1607013279.6477,338
1607013279.6497,276
1607013279.6517,232
1607013279.6537,230
1607013279.6557,210
1607013279.6577,164
1607013279.6598,133
1607013279.6617,125
1607013279.6637,118
1607013280.0898,111
1607013280.0911,116
1607013280.0935,123
1607013280.0961,130
1607013280.0983,135
1607013280.1001,142
1607013280.1022,154
1607013280.1041,159
1607013280.1061,152
1607013280.1081,154
1607013280.1100,171
1607013280.1121,167
1607013280.1141,159
1607013280.1171,164
1607013280.1180,150
1607013280.1202,150
1607013280.1220,169
1607013280.1241,152
1607013280.1262,128
1607013280.1281,130
1607013280.1301,135
1607013280.1320,152
1607013280.1340,159
1607013280.1360,133
1607013280.1380,125
1607013280.1400,138
1607013280.1420,123
1607013280.1429,121
1607013280.1451,135
1607013280.1470,123
1607013280.1490,116
1607013280.1510,121
1607013280.1530,118
1607013280.1550,108
1607013280.1570,104
1607013280.1590,101
1607013280.1610,106
1607013280.1630,106
1607013280.1650,101
1607013280.1670,99
1607013280.1690,94
1607013280.1710,92
1607013280.1730,94
1607013280.1737,96
1607013280.1760,94
1607013280.1780,92
1607013280.1800,84
1607013280.1820,77
1607013280.1841,77
1607013280.1860,77
1607013280.1880,72
1607013280.1900,67
1607013280.1920,53
1607013280.1940,43
1607013280.1960,24
1607013280.1980,-16
1607013280.2000,-41
1607013280.2020,-48
1607013280.2040,-62
1607013280.2047,-82
1607013280.2070,-104
1607013280.2090,-111
1607013280.2110,-128
1607013280.2130,-193
1607013280.2152,-246
1607013280.2170,-263
1607013280.2190,-307
1607013280.2210,-358
1607013280.2230,-368
1607013280.2250,-380
1607013280.2270,-435
1607013280.2290,-486
1607013280.2310,-409
1607013280.6303,-108
1607013280.6313,244
1607013280.6338,261
1607013280.6365,-251
1607013280.6386,-888
1607013280.6406,-956
1607013280.6424,-605
1607013280.6443,-486
1607013280.6463,-525
1607013280.6483,-447
1607013280.6503,-387
1607013280.6523,-384
1607013280.6543,-343
1607013280.6563,-292
1607013280.6583,-263
1607013280.6590,-234
1607013280.6613,-205
1607013280.6633,-196
1607013280.6653,-186
1607013280.6673,-174
1607013280.6693,-162
1607013280.6713,-150
1607013280.6733,-135
1607013280.6753,-121
1607013280.6773,-106
1607013280.6793,-92
1607013280.6812,-77
1607013280.6833,-60
1607013280.6853,-33
1607013280.6873,-12
1607013280.6893,0
1607013280.6900,12
1607013280.6923,33
1607013280.6943,55
1607013280.6963,67
1607013280.6983,77
1607013280.7004,87
1607013280.7023,92
1607013280.7043,79
1607013280.7063,58
1607013280.7083,29
1607013280.7104,0
1607013280.7124,-29
1607013280.7143,-53
1607013280.7164,-77
1607013280.7183,-89
1607013280.7203,-87
1607013280.7210,-87
1607013280.7234,-92
1607013280.7253,-89
1607013280.7273,-75
1607013280.7293,-67
1607013280.7313,-58
1607013280.7333,-46
1607013280.7354,-46
1607013280.7373,-58
1607013280.7395,-50
1607013280.7413,-26
1607013280.7433,-19
1607013280.7453,-26
1607013280.7473,-24
1607013280.7493,-33
1607013280.7513,-46
1607013280.7520,-29
1607013280.7543,-19
1607013280.7563,-41
1607013280.7583,-55
1607013280.7603,-43
1607013280.7623,-36
1607013280.7642,-33
1607013280.7665,-33
1607013280.7684,-33
1607013280.7703,-31
1607013281.2008,-33
1607013281.2021,-33
1607013281.2041,-24
1607013281.2054,-24
1607013281.2069,-24
1607013281.2089,-24
1607013281.2108,-24
1607013281.2128,-24
1607013281.2148,-12
1607013281.2168,-2
1607013281.2189,-4
1607013281.2208,-4
1607013281.2227,0
1607013281.2248,4
1607013281.2268,9
1607013281.2288,12
1607013281.2307,16
1607013281.2328,24
1607013281.2348,29
1607013281.2355,26
1607013281.2380,26
1607013281.2398,29
1607013281.2419,33
1607013281.2439,38
1607013281.2458,60
1607013281.2478,77
1607013281.2498,72
1607013281.2518,87
1607013281.2537,99
1607013281.2558,70
1607013281.2578,41
1607013281.2598,50
1607013281.2617,58
1607013281.2637,60
1607013281.2659,72
1607013281.2664,77
1607013281.2678,58
1607013281.2697,50
1607013281.2717,203
1607013281.2738,576
1607013281.2757,888
1607013281.2777,745
1607013281.2798,72
1607013281.2817,-508
1607013281.2839,-397
1607013281.2857,-46
1607013281.2877,4
1607013281.2898,9
1607013281.2917,94
1607013281.2937,94
1607013281.2958,70
1607013281.2965,101
1607013281.2988,121
1607013281.3007,111
1607013281.3027,113
1607013281.3047,125
1607013281.3068,128
1607013281.3089,130
1607013281.3108,138
1607013281.3127,145
1607013281.3147,150
1607013281.3167,150
1607013281.3188,154
1607013281.3207,162
1607013281.3227,164
1607013281.3248,162
1607013281.3255,179
1607013281.3277,205
1607013281.3298,220
1607013281.3317,239
1607013281.3338,266
1607013281.3357,268
1607013281.3377,268
1607013281.7397,276
1607013281.7407,283
1607013281.7431,292
1607013281.7458,292
1607013281.7478,283
1607013281.7501,263
1607013281.7520,239
1607013281.7538,205
1607013281.7558,169
1607013281.7578,142
1607013281.7597,125
1607013281.7617,106
1607013281.7639,101
1607013281.7657,106
1607013281.7677,111
1607013281.7697,111
1607013281.7717,101
1607013281.7737,94
1607013281.7757,111
1607013281.7777,123
1607013281.7798,108
1607013281.7817,106
1607013281.7837,135
1607013281.7857,162
1607013281.7877,167
1607013281.7897,159
1607013281.7917,147
1607013281.7937,138
1607013281.7957,128
1607013281.7977,133
1607013281.7997,145
1607013281.8018,135
1607013281.8039,125
1607013281.8057,138
1607013281.8077,145
1607013281.8097,142
1607013281.8117,145
1607013281.8137,150
1607013281.8157,162
1607013281.8177,174
1607013281.8197,167
1607013281.8217,159
1607013281.8237,157
1607013281.8257,157
1607013281.8276,159
1607013281.8297,159
1607013281.8317,154
1607013281.8337,152
1607013281.8357,154
1607013281.8377,154
1607013281.8397,159
1607013281.8417,162
1607013281.8437,157
1607013281.8457,147
1607013281.8477,140
1607013281.8497,152
1607013281.8517,169
1607013281.8537,169
1607013281.8557,159
1607013281.8577,162
1607013281.8598,164
1607013281.8617,162
1607013281.8637,159
1607013281.8658,164
1607013281.8677,169
1607013281.8697,179
1607013281.8717,179
1607013281.8737,179
1607013281.8756,193
1607013281.8777,200
1607013281.8797,188
1607013281.8817,196
1607013281.8837,205
1607013282.3406,174
1607013282.3419,145
1607013282.3443,154
1607013282.3470,169
1607013282.3489,164
1607013282.3509,150
1607013282.3530,145
1607013282.3549,130
1607013282.3569,121
1607013282.3590,251
1607013282.3609,593
1607013282.3629,874
1607013282.3649,716
1607013282.3669,77
1607013282.3690,-447
1607013282.3709,-307
1607013282.3729,21
1607013282.3749,43
1607013282.3769,31
1607013282.3790,104
1607013282.3809,99
1607013282.3829,75
1607013282.3849,101
1607013282.3869,113
1607013282.3890,101
1607013282.3909,101
1607013282.3929,104
1607013282.3949,99
1607013282.3969,108
1607013282.3989,121
1607013282.4009,125
1607013282.4029,128
1607013282.4049,133
1607013282.4069,130
1607013282.4089,133
1607013282.4108,145
1607013282.4129,154
1607013282.4148,164
1607013282.4168,176
1607013282.4189,181
1607013282.4208,179
1607013282.4231,193
1607013282.4249,227
1607013282.4269,246
1607013282.4289,239
1607013282.4308,234
1607013282.4328,246
1607013282.4348,251
1607013282.4369,237
1607013282.4388,213
1607013282.4408,193
1607013282.4428,164
1607013282.4449,133
1607013282.4469,113
1607013282.4489,92
1607013282.4508,70
1607013282.4529,65
1607013282.4549,70
1607013282.4570,77
1607013282.4589,87
1607013282.4608,94
1607013282.4628,101
1607013282.4648,111
1607013282.4668,123
1607013282.4689,133
1607013282.4708,145
1607013282.4728,150
1607013282.4748,147
1607013282.4768,147
1607013282.4789,152
1607013282.4808,162
1607013282.4828,164
1607013282.4848,154
1607013282.8797,150
1607013282.8807,145
1607013282.8831,133
1607013282.8858,130
1607013282.8877,133
1607013282.8897,133
1607013282.8918,128
1607013282.8937,125
1607013282.8957,125
1607013282.8977,123
1607013282.8997,113
1607013282.9017,113
1607013282.9037,118
1607013282.9058,116
1607013282.9078,113
1607013282.9097,116
1607013282.9117,118
1607013282.9137,123
1607013282.9157,125
1607013282.9179,123
1607013282.9198,121
1607013282.9217,121
1607013282.9237,121
1607013282.9257,118
1607013282.9277,121
1607013282.9297,123
1607013282.9318,118
1607013282.9337,113
1607013282.9357,116
1607013282.9376,125
1607013282.9397,130
1607013282.9416,140
1607013282.9436,162
1607013282.9456,169
1607013282.9476,159
1607013282.9496,167
1607013282.9517,169
1607013282.9536,135
1607013282.9556,113
1607013282.9576,123
1607013282.9597,125
1607013282.9616,121
1607013282.9636,125
1607013282.9656,125
1607013282.9676,101
1607013282.9696,84
1607013282.9716,222
1607013282.9736,576
1607013282.9756,878
1607013282.9776,738
1607013282.9796,92
1607013282.9816,-462
1607013282.9836,-341
1607013282.9857,7
1607013282.9876,46
1607013282.9897,31
1607013282.9916,101
1607013282.9936,101
1607013282.9956,79
1607013282.9976,104
1607013283.0003,108
1607013283.0016,99
1607013283.0036,104
1607013283.0057,111
1607013283.0076,111
1607013283.0098,111
1607013283.0117,111
1607013283.0136,113
1607013283.0157,121
1607013283.0176,128
1607013283.0198,128
1607013283.0217,130
1607013283.0237,140
1607013283.4498,152
1607013283.4508,162
1607013283.4533,171
1607013283.4559,184
1607013283.4579,193
1607013283.4599,205
1607013283.4622,215
1607013283.4639,220
1607013283.4659,222
1607013283.4679,232
1607013283.4698,239
1607013283.4718,237
1607013283.4739,222
1607013283.4758,198
1607013283.4778,181
1607013283.4799,154
1607013283.4818,125
1607013283.4838,104
1607013283.4858,87
1607013283.4878,65
1607013283.4898,55
1607013283.4917,60
1607013283.4938,62
1607013283.4958,62
1607013283.4978,70
1607013283.4998,82
1607013283.5018,87
1607013283.5038,96
1607013283.5058,108
1607013283.5078,116
1607013283.5098,113
1607013283.5118,116
1607013283.5138,123
1607013283.5158,125
1607013283.5178,118
1607013283.5198,113
1607013283.5219,111
1607013283.5238,106
1607013283.5258,101
1607013283.5278,99
1607013283.5298,99
1607013283.5318,96
1607013283.5338,92
1607013283.5357,89
1607013283.5378,94
1607013283.5398,92
1607013283.5418,87
1607013283.5437,87
1607013283.5460,87
1607013283.5478,89
1607013283.5498,92
1607013283.5518,94
1607013283.5539,96
1607013283.5558,96
1607013283.5578,92
1607013283.5599,89
1607013283.5618,96
1607013283.5638,99
1607013283.5658,87
1607013283.5678,84
1607013283.5698,92
1607013283.5719,92
1607013283.5738,87
1607013283.5758,87
1607013283.5778,87
1607013283.5799,84
1607013283.5818,84
1607013283.5838,89
1607013283.5857,92
1607013283.5877,99
1607013283.5898,118
1607013283.5918,125
1607013283.5938,111
1607013283.9902,111
1607013283.9912,108
1607013283.9937,77
1607013283.9963,60
1607013283.9983,62
1607013284.0003,65
1607013284.0026,65
1607013284.0042,65
1607013284.0063,58
1607013284.0083,33
1607013284.0102,21
1607013284.0122,162
1607013284.0144,515
1607013284.0164,825
1607013284.0182,680
1607013284.0202,4
1607013284.0224,-559
1607013284.0242,-421
1607013284.0262,-67
1607013284.0282,-38
1607013284.0302,-53
1607013284.0321,24
1607013284.0342,31
1607013284.0362,12
1607013284.0382,31
1607013284.0402,41
1607013284.0424,36
1607013284.0442,46
1607013284.0462,48
1607013284.0482,46
1607013284.0502,50
1607013284.0577,60
1607013284.0592,60
1607013284.0613,62
1607013284.0633,72
1607013284.0652,77
1607013284.0672,77
1607013284.0692,87
1607013284.0712,99
1607013284.0733,108
1607013284.0752,123
1607013284.0772,135
1607013284.0792,145
1607013284.0812,159
1607013284.0832,171
1607013284.0852,181
1607013284.0872,196
1607013284.0892,210
1607013284.0912,213
1607013284.0932,205
1607013284.0952,191
1607013284.0972,169
1607013284.0991,142
1607013284.1012,113
1607013284.1032,79
1607013284.1052,48
1607013284.1072,26
1607013284.1092,14
1607013284.1112,7
1607013284.1132,0
1607013284.1152,2
1607013284.1172,7
1607013284.1192,14
1607013284.1211,24
1607013284.1232,33
1607013284.1252,46
1607013284.1272,58
1607013284.1292,60
1607013284.1312,62
1607013284.1332,67
1607013284.1352,72
1607013284.1372,72
1607013284.1392,70
1607013284.5602,67
1607013284.5612,62
1607013284.5626,58
1607013284.5646,48
1607013284.5670,38
1607013284.5688,38
1607013284.5702,33
1607013284.5736,21
1607013284.5809,16
1607013284.5833,19
1607013284.5854,24
1607013284.5878,26
1607013284.5914,26
1607013284.5959,21
1607013284.6017,21
1607013284.6048,26
1607013284.6086,29
1607013284.6136,26
1607013284.6198,26
1607013284.6218,33
1607013284.6245,38
1607013284.6278,38
1607013284.6313,38
1607013284.6390,38
1607013284.6412,33
1607013284.6432,36
1607013284.6451,46
1607013284.6478,50
1607013284.6516,55
1607013284.6604,65
1607013284.6627,87
1607013284.6646,99
1607013284.6669,89
1607013284.6715,94
1607013284.6802,96
1607013284.6825,70
1607013284.6848,46
1607013284.6891,48
1607013284.6973,53
1607013284.6993,55
1607013284.7013,58
1607013284.7048,58
1607013284.7188,46
1607013284.7221,31
1607013284.7295,125
1607013284.7342,460
1607013284.7409,837
1607013284.7443,830
1607013284.7522,244
1607013284.7571,-452
1607013284.7635,-518
1607013284.7669,-147
1607013284.7776,-16
1607013284.7811,-38
1607013284.7882,31
1607013284.7927,62
1607013284.7973,33
1607013284.8008,46
1607013284.8086,62
1607013284.8106,58
1607013284.8130,60
1607013284.8159,70
1607013284.8194,70
1607013284.8271,72
1607013284.8321,77
1607013284.8389,79
1607013284.8424,82
1607013284.8506,87
1607013284.8557,96
1607013284.8624,101
1607013284.8658,101
1607013284.8728,106
1607013284.8773,113
1607013285.0998,125
1607013285.1005,138
1607013285.1028,150
1607013285.1063,164
1607013285.1141,176
1607013285.1188,186
1607013285.1258,191
1607013285.1293,193
1607013285.1375,200
1607013285.1423,205
1607013285.1491,193
1607013285.1525,174
1607013285.1595,159
1607013285.1639,135
1607013285.1706,108
1607013285.1741,87
1607013285.1816,67
1607013285.1858,58
1607013285.1927,53
1607013285.1961,48
1607013285.2038,48
1607013285.2087,58
1607013285.2156,65
1607013285.2190,72
1607013285.2272,79
1607013285.2324,87
1607013285.2391,92
1607013285.2425,99
1607013285.2495,104
1607013285.2539,106
1607013285.2606,106
1607013285.2639,104
1607013285.2713,104
1607013285.2759,106
1607013285.2825,99
1607013285.2859,94
1607013285.2936,92
1607013285.2988,87
1607013285.3057,82
1607013285.3091,82
1607013285.3172,79
1607013285.3216,77
1607013285.3283,79
1607013285.3316,79
1607013285.3387,77
1607013285.3498,75
1607013285.3532,75
1607013285.3609,77
1607013285.3652,75
1607013285.3720,75
1607013285.3754,79
1607013285.3833,79
1607013285.3879,77
1607013285.3948,77
1607013285.3983,77
1607013285.4065,79
1607013285.4115,79
1607013285.4182,79
1607013285.4217,82
1607013285.4287,87
1607013285.4329,92
1607013285.4388,89
1607013285.4421,84
1607013285.4499,77
1607013285.4529,79
1607013285.4564,89
1607013285.4642,87
1607013285.4688,87
1607013285.4758,94
1607013285.4792,92
1607013285.4873,84
1607013285.4924,94
1607013285.4998,106
1607013285.7005,106
1607013285.7012,123
1607013285.7050,142
1607013285.7084,128
1607013285.7158,111
1607013285.7201,121
1607013285.7270,116
1607013285.7304,87
1607013285.7381,72
1607013285.7428,75
1607013285.7499,82
1607013285.7534,89
1607013285.7617,94
1607013285.7666,96
1607013285.7732,75
1607013285.7765,79
1607013285.7838,273
1607013285.7882,651
1607013285.7958,878
1607013285.8005,605
1607013285.8067,-82
1607013285.8089,-479
1607013285.8129,-237
1607013285.8168,29
1607013285.8208,12
1607013285.8248,24
1607013285.8288,87
1607013285.8327,65
1607013285.8350,53
1607013285.8372,79
1607013285.8399,82
1607013285.8428,75
1607013285.8459,82
1607013285.8488,87
1607013285.8519,87
1607013285.8545,94
1607013285.8567,99
1607013285.8588,101
1607013285.8616,106
1607013285.8638,111
1607013285.8663,111
1607013285.8737,116
1607013285.8758,125
1607013285.8826,135
1607013285.8861,142
1607013285.8910,154
1607013285.8963,164
1607013285.9079,174
1607013285.9155,184
1607013285.9192,198
1607013285.9500,205
1607013285.9557,210
1607013285.9592,220
1607013285.9665,225
1607013285.9708,220
1607013285.9788,205
1607013285.9822,188
1607013285.9899,167
1607013285.9946,140
1607013286.0014,111
1607013286.0126,87
1607013286.0161,72
1607013286.0244,58
1607013286.0292,46
1607013286.0358,43
1607013286.0392,48
1607013286.0461,53
1607013286.0505,65
1607013286.0572,72
1607013286.0606,79
1607013286.0680,87
1607013286.0725,99
1607013286.0795,104
1607013286.2701,101
1607013286.2711,99
1607013286.2798,99
1607013286.2831,96
1607013286.2903,87
1607013286.2946,79
1607013286.3013,75
1607013286.3048,70
1607013286.3121,62
1607013286.3164,46
1607013286.3226,33
1607013286.3259,36
1607013286.3336,36
1607013286.3383,26
1607013286.3468,24
1607013286.3503,26
1607013286.3584,24
1607013286.3634,21
1607013286.3704,21
1607013286.3807,24
1607013286.3841,26
1607013286.3910,24
1607013286.3954,24
1607013286.4024,29
1607013286.4059,38
1607013286.4134,41
1607013286.4178,36
1607013286.4245,36
1607013286.4354,38
1607013286.4388,41
1607013286.4467,43
1607013286.4516,41
1607013286.4589,38
1607013286.4623,41
1607013286.4706,43
1607013286.4751,46
1607013286.4796,48
1607013286.4842,50
1607013286.4917,53
1607013286.4953,50
1607013286.4999,48
1607013286.5080,48
1607013286.5111,48
1607013286.5154,46
1607013286.5217,46
1607013286.5252,43
1607013286.5334,48
1607013286.5361,48
1607013286.5467,41
1607013286.5502,41
1607013286.5596,48
1607013286.5630,50
1607013286.5701,48
1607013286.5751,55
1607013286.5809,82
1607013286.5843,87
1607013286.5918,72
1607013286.5965,82
1607013286.6040,92
1607013286.6073,62
1607013286.6152,36
1607013286.6203,33
1607013286.6272,31
1607013286.6311,36
1607013286.6395,41
1607013286.6430,36
1607013286.6502,19
1607013286.6546,14
1607013286.6605,167
1607013286.6707,549
1607013286.6741,864
1607013286.6834,702
1607013286.6867,14
1607013286.8093,-559
1607013286.8100,-428
1607013286.8132,-84
1607013286.8174,-58
1607013286.8225,-60
1607013286.8261,26
1607013286.8304,21
1607013286.8375,-9
1607013286.8411,16
1607013286.8455,33
1607013286.8524,19
1607013286.8559,9
1607013286.8600,16
1607013286.8661,29
1607013286.8695,31
1607013286.8772,33
1607013286.8818,46
1607013286.8897,55
1607013286.8932,53
1607013286.9009,55
1607013286.9058,67
1607013286.9131,75
1607013286.9168,84
1607013286.9254,104
1607013286.9289,118
1607013286.9360,130
1607013286.9406,142
1607013286.9466,145
1607013286.9568,157
1607013286.9602,181
1607013286.9696,191
1607013286.9730,186
1607013286.9809,193
1607013286.9856,203
1607013286.9929,198
1607013286.9962,176
1607013287.0043,140
1607013287.0095,101
1607013287.0150,75
1607013287.0203,53
1607013287.0278,29
1607013287.0313,9
1607013287.0382,2
1607013287.0429,-2
1607013287.0496,-2
1607013287.0531,0
1607013287.0609,4
1607013287.0654,12
1607013287.0723,21
1607013287.0758,29
1607013287.0837,36
1607013287.0885,48
1607013287.0956,62
1607013287.1063,65
1607013287.1082,60
1607013287.1133,62
1607013287.1204,60
1607013287.1238,55
1607013287.1266,50
1607013287.1326,48
1607013287.1401,46
1607013287.1445,43
1607013287.1526,41
1607013287.1559,41
1607013287.1638,41
1607013287.1686,38
1607013287.1752,36
1607013287.1849,33
1607013287.1884,31
1607013287.1925,29
1607013287.2001,31
1607013287.2036,36
1607013287.2107,36
1607013287.3793,33
1607013287.3798,36
1607013287.3811,38
1607013287.3831,38
1607013287.3851,38
1607013287.3872,38
1607013287.3892,41
1607013287.3911,38
1607013287.3931,26
1607013287.3951,26
1607013287.3958,33
1607013287.3971,33
1607013287.3991,36
1607013287.4011,38
1607013287.4031,41
1607013287.4051,38
1607013287.4071,43
1607013287.4092,46
1607013287.4111,48
1607013287.4131,58
1607013287.4151,79
1607013287.4172,82
1607013287.4192,77
1607013287.4211,92
1607013287.4231,92
1607013287.4251,60
1607013287.4258,38
1607013287.4271,41
1607013287.4292,43
1607013287.4311,41
1607013287.4331,41
1607013287.4351,41
1607013287.4371,21
1607013287.4391,0
1607013287.4411,133
1607013287.4431,522
1607013287.4451,878
1607013287.4471,762
1607013287.4491,82
1607013287.4511,-549
1607013287.4531,-462
1607013287.4551,-89
1607013287.4558,-41
1607013287.4581,-62
1607013287.4601,26
1607013287.4622,36
1607013287.4641,7
1607013287.4663,29
1607013287.4682,43
1607013287.4701,36
1607013287.4721,46
1607013287.4741,55
1607013287.4761,58
1607013287.4781,60
1607013287.4801,62
1607013287.4821,67
1607013287.4841,75
1607013287.4861,82
1607013287.4868,89
1607013287.4891,101
1607013287.4911,123
1607013287.4931,128
1607013287.4951,125
1607013287.4971,135
1607013287.4991,142
1607013287.5012,133
1607013287.5031,135
1607013287.5051,159
1607013287.5071,174
1607013287.5091,176
1607013287.5111,186
1607013287.5131,198
1607013287.5151,181
1607013287.9196,157
1607013287.9205,145
1607013287.9229,125
1607013287.9256,89
1607013287.9276,50
1607013287.9296,12
1607013287.9316,-12
1607013287.9335,-21
1607013287.9355,-46
1607013287.9375,-62
1607013287.9395,-46
1607013287.9414,-33
1607013287.9434,-24
1607013287.9454,-7
1607013287.9475,0
1607013287.9495,0
1607013287.9502,9
1607013287.9525,29
1607013287.9545,36
1607013287.9564,43
1607013287.9584,75
1607013287.9604,94
1607013287.9624,67
1607013287.9644,43
1607013287.9664,38
1607013287.9686,14
1607013287.9706,-9
1607013287.9724,-24
1607013287.9744,-43
1607013287.9764,-62
1607013287.9784,-62
1607013287.9804,-62
1607013287.9811,-46
1607013287.9834,9
1607013287.9854,14
1607013287.9874,-4
1607013287.9895,46
1607013287.9915,84
1607013287.9935,58
1607013287.9960,36
1607013287.9981,43
1607013287.9994,60
1607013288.0014,55
1607013288.0034,53
1607013288.0054,72
1607013288.0074,77
1607013288.0095,55
1607013288.0114,60
1607013288.0134,89
1607013288.0154,92
1607013288.0174,62
1607013288.0194,70
1607013288.0214,108
1607013288.0234,118
1607013288.0254,118
1607013288.0275,123
1607013288.0294,113
1607013288.0314,111
1607013288.0334,123
1607013288.0354,123
1607013288.0374,118
1607013288.0394,128
1607013288.0414,130
1607013288.0434,118
1607013288.0454,121
1607013288.0474,123
1607013288.0494,113
1607013288.0514,116
1607013288.0535,121
1607013288.0555,118
1607013288.0574,123
1607013288.0594,116
1607013288.0614,104
1607013288.4601,106
1607013288.4610,99
1607013288.4635,104
1607013288.4663,125
1607013288.4681,130
1607013288.4702,118
1607013288.4721,121
1607013288.4741,125
1607013288.4761,123
1607013288.4781,106
1607013288.4801,79
1607013288.4821,55
1607013288.4841,48
1607013288.4861,50
1607013288.4882,50
1607013288.4901,46
1607013288.4920,38
1607013288.4940,19
1607013288.4961,38
1607013288.4980,198
1607013288.5000,486
1607013288.5020,694
1607013288.5040,552
1607013288.5060,-14
1607013288.5081,-489
1607013288.5101,-353
1607013288.5120,-41
1607013288.5140,-29
1607013288.5160,-46
1607013288.5180,33
1607013288.5200,33
1607013288.5220,9
1607013288.5240,21
1607013288.5260,-4
1607013288.5280,0
1607013288.5300,58
1607013288.5320,58
1607013288.5340,12
1607013288.5360,14
1607013288.5380,50
1607013288.5400,24
1607013288.5420,-2
1607013288.5440,60
1607013288.5460,72
1607013288.5480,2
1607013288.5500,24
1607013288.5520,94
1607013288.5540,72
1607013288.5560,36
1607013288.5580,62
1607013288.5600,92
1607013288.5620,96
1607013288.5640,121
1607013288.5660,152
1607013288.5681,125
1607013288.5701,92
1607013288.5720,128
1607013288.5740,171
1607013288.5760,157
1607013288.5780,121
1607013288.5800,96
1607013288.5820,79
1607013288.5840,62
1607013288.5860,53
1607013288.5880,24
1607013288.5900,-38
1607013288.5920,-48
1607013288.5940,-14
1607013288.5960,-21
1607013288.5980,-31
1607013288.6000,4
1607013288.6020,12
1607013288.6040,-24
1607013289.1193,-4
1607013289.1205,7
1607013289.1230,-36
1607013289.1256,-19
1607013289.1275,29
1607013289.1296,36
1607013289.1317,46
1607013289.1336,29
1607013289.1356,-19
1607013289.1376,-60
1607013289.1396,-70
1607013289.1416,-4
1607013289.1436,33
1607013289.1456,-33
1607013289.1476,-62
1607013289.1496,14
1607013289.1516,26
1607013289.1536,-75
1607013289.1556,-96
1607013289.1576,-19
1607013289.1596,-19
1607013289.1616,-48
1607013289.1636,-16
1607013289.1656,0
1607013289.1676,7
1607013289.1695,2
1607013289.1716,-65
1607013289.1735,-65
1607013289.1755,19
1607013289.1775,31
1607013289.1795,-14
1607013289.1815,-43
1607013289.1837,-38
1607013289.1856,-38
1607013289.1875,-41
1607013289.1895,24
1607013289.1915,62
1607013289.1935,2
1607013289.1955,0
1607013289.1975,16
1607013289.1995,-60
1607013289.2015,-55
1607013289.2035,41
1607013289.2055,12
1607013289.2075,-50
1607013289.2095,9
1607013289.2115,79
1607013289.2135,41
1607013289.2155,-38
1607013289.2175,26
1607013289.2195,128
1607013289.2215,24
1607013289.2235,-55
1607013289.2255,2
1607013289.2275,0
1607013289.2295,-7
1607013289.2315,-12
1607013289.2335,-53
1607013289.2355,-16
1607013289.2375,38
1607013289.2395,-4
1607013289.2415,65
1607013289.2435,498
1607013289.2455,970
1607013289.2475,963
1607013289.2496,251
1607013289.2516,-598
1607013289.2535,-602
1607013289.2555,-123
1607013289.2575,-33
1607013289.2595,-67
1607013289.2616,9
1607013289.2636,-16
1607013289.6305,-26
1607013289.6314,53
1607013289.6339,41
1607013289.6365,-19
1607013289.6384,12
1607013289.6405,43
1607013289.6425,33
1607013289.6445,36
1607013289.6465,38
1607013289.6484,31
1607013289.6507,16
1607013289.6525,9
1607013289.6545,36
1607013289.6565,67
1607013289.6585,60
1607013289.6604,60
1607013289.6624,67
1607013289.6645,79
1607013289.6665,87
1607013289.6685,70
1607013289.6704,113
1607013289.6724,181
1607013289.6744,171
1607013289.6764,147
1607013289.6785,135
1607013289.6804,128
1607013289.6824,167
1607013289.6844,203
1607013289.6864,162
1607013289.6885,96
1607013289.6904,72
1607013289.6925,58
1607013289.6944,48
1607013289.6964,31
1607013289.6984,-36
1607013289.7004,-72
1607013289.7024,24
1607013289.7044,106
1607013289.7064,24
1607013289.7084,-31
1607013289.7104,12
1607013289.7124,4
1607013289.7144,16
1607013289.7164,50
1607013289.7184,9
1607013289.7204,33
1607013289.7224,135
1607013289.7244,101
1607013289.7264,14
1607013289.7284,38
1607013289.7305,82
1607013289.7325,65
1607013289.7344,48
1607013289.7364,75
1607013289.7385,94
1607013289.7404,53
1607013289.7424,14
1607013289.7444,19
1607013289.7464,21
1607013289.7484,55
1607013289.7505,84
1607013289.7526,70
1607013289.7545,65
1607013289.7564,62
1607013289.7585,33
1607013289.7604,24
1607013289.7625,48
1607013289.7644,53
1607013289.7665,53
1607013289.7685,70
1607013289.7704,65
1607013289.7724,43
1607013289.7744,14
1607013290.1701,58
1607013290.1710,111
1607013290.1735,43
1607013290.1761,31
1607013290.1781,106
1607013290.1800,89
1607013290.1821,36
1607013290.1840,67
1607013290.1860,116
1607013290.1880,104
1607013290.1900,75
1607013290.1920,87
1607013290.1940,87
1607013290.1960,21
1607013290.1979,26
1607013290.1999,79
1607013290.2019,38
1607013290.2039,21
1607013290.2059,53
1607013290.2079,19
1607013290.2099,0
1607013290.2119,58
1607013290.2141,288
1607013290.2161,690
1607013290.2180,876
1607013290.2199,486
1607013290.2219,-251
1607013290.2239,-556
1607013290.2260,-225
1607013290.2279,14
1607013290.2300,-38
1607013290.2319,-2
1607013290.2339,75
1607013290.2359,48
1607013290.2379,38
1607013290.2399,72
1607013290.2420,75
1607013290.2439,67
1607013290.2461,77
1607013290.2483,87
1607013290.2500,92
1607013290.2519,94
1607013290.2540,96
1607013290.2559,99
1607013290.2579,101
1607013290.2599,106
1607013290.2619,113
1607013290.2640,116
1607013290.2660,118
1607013290.2679,128
1607013290.2699,133
1607013290.2719,147
1607013290.2739,179
1607013290.2759,193
1607013290.2780,193
1607013290.2800,208
1607013290.2819,222
1607013290.2839,227
1607013290.2859,234
1607013290.2879,244
1607013290.2900,239
1607013290.2919,220
1607013290.2939,196
1607013290.2959,164
1607013290.2979,130
1607013290.3000,101
1607013290.3020,77
1607013290.3039,62
1607013290.3059,53
1607013290.3080,48
1607013290.3100,53
1607013290.3120,55
1607013290.3140,55
1607013290.7401,62
1607013290.7410,75
1607013290.7436,75
1607013290.7462,75
1607013290.7482,84
1607013290.7501,92
1607013290.7521,82
1607013290.7541,77
1607013290.7561,82
1607013290.7581,82
1607013290.7600,67
1607013290.7620,60
1607013290.7640,62
1607013290.7660,65
1607013290.7680,62
1607013290.7700,55
1607013290.7720,53
1607013290.7742,58
1607013290.7761,55
1607013290.7780,48
1607013290.7800,48
1607013290.7820,48
1607013290.7840,48
1607013290.7860,48
1607013290.7880,50
1607013290.7900,50
1607013290.7920,53
1607013290.7940,50
1607013290.7960,50
1607013290.7980,50
1607013290.8000,46
1607013290.8020,46
1607013290.8040,50
1607013290.8060,48
1607013290.8080,48
1607013290.8100,50
1607013290.8120,55
1607013290.8140,53
1607013290.8160,50
1607013290.8180,53
1607013290.8200,53
1607013290.8220,53
1607013290.8240,60
1607013290.8260,77
1607013290.8280,96
1607013290.8300,89
1607013290.8320,77
1607013290.8341,84
1607013290.8360,77
1607013290.8380,43
1607013290.8400,26
1607013290.8420,31
1607013290.8440,36
1607013290.8462,38
1607013290.8480,36
1607013290.8500,16
1607013290.8520,-14
1607013290.8540,38
1607013290.8560,336
1607013290.8580,767
1607013290.8600,898
1607013290.8620,418
1607013290.8640,-365
1607013290.8660,-619
1607013290.8680,-251
1607013290.8700,-41
1607013290.8720,-92
1607013290.8740,-43
1607013290.8761,19
1607013290.8780,-7
1607013290.8800,-14
1607013290.8820,14
1607013290.8840,24
1607013291.2794,16
1607013291.2803,21
1607013291.2828,29
1607013291.2854,31
1607013291.2874,29
1607013291.2894,26
1607013291.2914,31
1607013291.2933,36
1607013291.2953,31
1607013291.2973,38
1607013291.2993,55
1607013291.3013,65
1607013291.3033,70
1607013291.3053,82
1607013291.3073,96
1607013291.3093,113
1607013291.3113,128
1607013291.3133,140
1607013291.3153,152
1607013291.3173,162
1607013291.3193,171
1607013291.3213,184
1607013291.3233,186
1607013291.3252,179
1607013291.3274,162
1607013291.3293,138
1607013291.3313,104
1607013291.3333,75
1607013291.3353,43
1607013291.3373,14
1607013291.3393,-2
1607013291.3413,-12
1607013291.3433,-21
1607013291.3453,-24
1607013291.3473,-16
1607013291.3492,-9
1607013291.3513,-2
1607013291.3533,4
1607013291.3553,14
1607013291.3573,19
1607013291.3593,19
1607013291.3613,29
1607013291.3633,36
1607013291.3653,38
1607013291.3673,36
1607013291.3693,36
1607013291.3714,33
1607013291.3733,21
1607013291.3753,12
1607013291.3773,12
1607013291.3793,12
1607013291.3813,4
1607013291.3833,4
1607013291.3853,7
1607013291.3873,4
1607013291.3893,4
1607013291.3913,7
1607013291.3933,9
1607013291.3952,12
1607013291.3972,7
1607013291.3993,4
1607013291.4013,4
1607013291.4033,7
1607013291.4053,14
1607013291.4073,29
1607013291.4093,33
1607013291.4113,31
1607013291.4133,36
1607013291.4153,60
1607013291.4173,60
1607013291.4193,26
1607013291.4213,9
1607013291.4233,14
1607013291.8497,16
1607013291.8506,14
1607013291.8530,19
1607013291.8557,26
1607013291.8577,19
1607013291.8597,-16
1607013291.8617,-19
1607013291.8637,196
1607013291.8657,636
1607013291.8677,917
1607013291.8696,629
1607013291.8717,-150
1607013291.8736,-648
1607013291.8756,-404
1607013291.8776,-79
1607013291.8797,-89
1607013291.8816,-67
1607013291.8836,21
1607013291.8856,9
1607013291.8876,-9
1607013291.8896,12
1607013291.8916,14
1607013291.8936,7
1607013291.8956,16
1607013291.8978,24
1607013291.8996,24
1607013291.9016,33
1607013291.9036,43
1607013291.9056,43
1607013291.9076,46
1607013291.9096,53
1607013291.9116,62
1607013291.9136,67
1607013291.9156,75
1607013291.9176,84
1607013291.9195,92
1607013291.9217,104
1607013291.9236,116
1607013291.9256,125
1607013291.9276,140
1607013291.9296,152
1607013291.9316,157
1607013291.9336,159
1607013291.9356,164
1607013291.9376,167
1607013291.9396,159
1607013291.9416,140
1607013291.9436,118
1607013291.9456,89
1607013291.9476,60
1607013291.9496,36
1607013291.9516,14
1607013291.9536,-4
1607013291.9556,-12
1607013291.9576,-14
1607013291.9596,-14
1607013291.9616,-12
1607013291.9636,-4
1607013291.9656,0
1607013291.9676,4
1607013291.9696,14
1607013291.9716,26
1607013291.9736,33
1607013291.9756,36
1607013291.9776,38
1607013291.9796,41
1607013291.9816,46
1607013291.9836,46
1607013291.9856,43
1607013291.9876,46
1607013291.9896,46
1607013291.9916,38
1607013291.9936,29
1607013292.4496,26
1607013292.4508,26
1607013292.4535,24
1607013292.4559,21
1607013292.4578,24
1607013292.4598,21
1607013292.4619,14
1607013292.4638,9
1607013292.4658,14
1607013292.4679,16
1607013292.4698,16
1607013292.4718,16
1607013292.4738,19
1607013292.4758,16
1607013292.4778,16
1607013292.4798,19
1607013292.4818,21
1607013292.4838,24
1607013292.4858,26
1607013292.4878,29
1607013292.4897,31
1607013292.4917,31
1607013292.4937,36
1607013292.4958,46
1607013292.4985,67
1607013292.4998,75
1607013292.5018,60
1607013292.5038,67
1607013292.5057,77
1607013292.5078,48
1607013292.5097,24
1607013292.5117,26
1607013292.5137,31
1607013292.5157,31
1607013292.5177,33
1607013292.5197,31
1607013292.5218,16
1607013292.5237,-19
1607013292.5258,26
1607013292.5277,329
1607013292.5302,748
1607013292.5316,837
1607013292.5337,329
1607013292.5357,-428
1607013292.5377,-595
1607013292.5398,-191
1607013292.5417,-26
1607013292.5437,-92
1607013292.5457,-26
1607013292.5477,21
1607013292.5497,-14
1607013292.5517,-2
1607013292.5537,24
1607013292.5559,14
1607013292.5578,14
1607013292.5597,26
1607013292.5617,26
1607013292.5634,24
1607013292.5647,29
1607013292.5667,36
1607013292.5688,38
1607013292.5707,43
1607013292.5727,50
1607013292.5747,55
1607013292.5767,65
1607013292.5788,75
1607013292.5808,84
1607013292.5828,96
1607013292.5849,108
1607013292.5867,121
1607013292.5888,135
1607013292.5907,154
1607013292.5928,164
1607013292.9903,174
1607013292.9912,184
1607013292.9948,186
1607013292.9960,184
1607013292.9983,174
1607013293.0003,154
1607013293.0023,125
1607013293.0043,89
1607013293.0063,53
1607013293.0083,26
1607013293.0102,2
1607013293.0122,-21
1607013293.0143,-36
1607013293.0162,-36
1607013293.0186,-36
1607013293.0206,-33
1607013293.0222,-26
1607013293.0249,-14
1607013293.0265,-4
1607013293.0283,2
1607013293.0303,9
1607013293.0322,16
1607013293.0342,19
1607013293.0362,21
1607013293.0384,24
1607013293.0402,24
1607013293.0422,21
1607013293.0442,14
1607013293.0462,9
1607013293.0482,7
1607013293.0502,4
1607013293.0523,0
1607013293.0542,-2
1607013293.0562,-2
1607013293.0569,-9
1607013293.0585,-12
1607013293.0602,-7
1607013293.0622,-7
1607013293.0641,-9
1607013293.0661,-7
1607013293.0683,-2
1607013293.0706,-2
1607013293.0722,-2
1607013293.0742,0
1607013293.0762,0
1607013293.0783,0
1607013293.0802,0
1607013293.0822,4
1607013293.0843,9
1607013293.0864,9
1607013293.0870,9
1607013293.0883,12
1607013293.0902,14
1607013293.0921,16
1607013293.0942,16
1607013293.0962,16
1607013293.0983,14
1607013293.1002,19
1607013293.1022,21
1607013293.1045,21
1607013293.1062,21
1607013293.1083,24
1607013293.1102,24
1607013293.1122,24
1607013293.1142,31
1607013293.1161,31
1607013293.1168,29
1607013293.1183,29
1607013293.1204,31
1607013293.1222,31
1607013293.1242,26
1607013293.1262,29
1607013293.1283,33
1607013293.5301,33
1607013293.5311,29
1607013293.5335,31
1607013293.5361,41
1607013293.5381,46
1607013293.5401,53
1607013293.5421,70
1607013293.5428,65
1607013293.5451,53
1607013293.5473,62
1607013293.5492,62
1607013293.5510,33
1607013293.5530,12
1607013293.5551,9
1607013293.5570,12
1607013293.5591,21
1607013293.5610,29
1607013293.5630,16
1607013293.5650,-19
1607013293.5670,-16
1607013293.5690,198
1607013293.5710,605
1607013293.5731,837
1607013293.5737,539
1607013293.5750,-203
1607013293.5770,-627
1607013293.5790,-341
1607013293.5810,-46
1607013293.5830,-87
1607013293.5850,-70
1607013293.5870,7
1607013293.5890,-12
1607013293.5910,-24
1607013293.5930,4
1607013293.5950,7
1607013293.5970,0
1607013293.5990,7
1607013293.6010,12
1607013293.6030,16
1607013293.6037,19
1607013293.6050,16
1607013293.6070,16
1607013293.6090,24
1607013293.6110,29
1607013293.6130,33
1607013293.6150,38
1607013293.6170,46
1607013293.6190,60
1607013293.6211,72
1607013293.6230,82
1607013293.6250,96
1607013293.6271,108
1607013293.6290,116
1607013293.6311,130
1607013293.6317,147
1607013293.6330,157
1607013293.6350,159
1607013293.6370,164
1607013293.6390,167
1607013293.6410,164
1607013293.6432,145
1607013293.6451,121
1607013293.6470,96
1607013293.6490,62
1607013293.6510,31
1607013293.6530,14
1607013293.6550,-2
1607013293.6570,-19
1607013293.6590,-21
1607013293.6610,-16
1607013293.6617,-16
1607013293.6630,-14
1607013293.6650,-2
1607013294.1297,7
1607013294.1305,14
1607013294.1317,21
1607013294.1336,26
1607013294.1356,31
1607013294.1377,29
1607013294.1395,16
1607013294.1415,12
1607013294.1436,19
1607013294.1455,14
1607013294.1462,7
1607013294.1475,7
1607013294.1495,2
1607013294.1515,-7
1607013294.1535,-7
1607013294.1555,-9
1607013294.1575,-19
1607013294.1595,-19
1607013294.1615,-9
1607013294.1635,-7
1607013294.1655,-9
1607013294.1676,-7
1607013294.1695,-9
1607013294.1715,-9
1607013294.1735,-7
1607013294.1755,-4
1607013294.1762,-4
1607013294.1775,-2
1607013294.1795,2
1607013294.1815,7
1607013294.1835,7
1607013294.1855,12
1607013294.1875,12
1607013294.1895,12
1607013294.1915,9
1607013294.1935,9
1607013294.1955,14
1607013294.1975,16
1607013294.1996,14
1607013294.2015,14
1607013294.2035,24
1607013294.2055,26
1607013294.2062,21
1607013294.2085,26
1607013294.2105,31
1607013294.2125,29
1607013294.2147,24
1607013294.2165,21
1607013294.2185,21
1607013294.2205,24
1607013294.2225,29
1607013294.2245,31
1607013294.2265,29
1607013294.2285,26
1607013294.2305,21
1607013294.2325,24
1607013294.2345,31
1607013294.2365,36
1607013294.2372,31
1607013294.2385,26
1607013294.2406,26
1607013294.2425,33
1607013294.2446,48
1607013294.2467,65
1607013294.2486,62
1607013294.2505,58
1607013294.2525,72
1607013294.2545,75
1607013294.2565,41
1607013294.2585,19
1607013294.2605,26
1607013294.2625,31
1607013294.2645,26
1607013294.6405,26
1607013294.6416,26
1607013294.6440,7
1607013294.6467,16
1607013294.6486,234
1607013294.6507,656
1607013294.6528,893
1607013294.6546,578
1607013294.6566,-181
1607013294.6587,-646
1607013294.6606,-399
1607013294.6626,-101
1607013294.6647,-116
1607013294.6668,-82
1607013294.6687,0
1607013294.6707,-24
1607013294.6728,-33
1607013294.6746,0
1607013294.6766,2
1607013294.6787,-4
1607013294.6806,9
1607013294.6826,16
1607013294.6846,12
1607013294.6866,16
1607013294.6886,26
1607013294.6906,31
1607013294.6926,33
1607013294.6946,38
1607013294.6966,46
1607013294.6986,50
1607013294.7006,58
1607013294.7026,67
1607013294.7046,79
1607013294.7067,92
1607013294.7086,99
1607013294.7106,108
1607013294.7126,121
1607013294.7146,130
1607013294.7166,138
1607013294.7186,147
1607013294.7206,152
1607013294.7227,154
1607013294.7247,162
1607013294.7266,164
1607013294.7286,152
1607013294.7306,130
1607013294.7326,108
1607013294.7346,87
1607013294.7366,65
1607013294.7386,43
1607013294.7406,29
1607013294.7426,24
1607013294.7446,19
1607013294.7467,14
1607013294.7487,19
1607013294.7506,29
1607013294.7526,33
1607013294.7546,36
1607013294.7566,41
1607013294.7586,48
1607013294.7606,55
1607013294.7626,58
1607013294.7646,55
1607013294.7666,58
1607013294.7686,60
1607013294.7706,58
1607013294.7726,53
1607013294.7748,50
1607013294.7766,48
1607013294.7786,43
1607013294.7806,38
1607013294.7827,31
1607013294.7846,26
1607013295.2102,24
1607013295.2111,21
1607013295.2135,21
1607013295.2161,16
1607013295.2182,9
1607013295.2201,4
1607013295.2222,7
1607013295.2241,7
1607013295.2261,4
1607013295.2282,7
1607013295.2301,9
1607013295.2321,9
1607013295.2341,9
1607013295.2361,14
1607013295.2382,16
1607013295.2401,16
1607013295.2421,16
1607013295.2441,16
1607013295.2461,16
1607013295.2482,21
1607013295.2501,21
1607013295.2522,21
1607013295.2541,21
1607013295.2561,21
1607013295.2582,21
1607013295.2601,19
1607013295.2621,16
1607013295.2641,19
1607013295.2662,19
1607013295.2681,16
1607013295.2701,16
1607013295.2721,16
1607013295.2740,16
1607013295.2760,19
1607013295.2781,21
1607013295.2800,21
1607013295.2822,24
1607013295.2841,26
1607013295.2861,26
1607013295.2881,26
1607013295.2900,26
1607013295.2920,29
1607013295.2940,31
1607013295.2961,33
1607013295.2982,46
1607013295.3002,62
1607013295.3021,70
1607013295.3040,58
1607013295.3062,60
1607013295.3081,75
1607013295.3101,55
1607013295.3120,24
1607013295.3141,21
1607013295.3161,29
1607013295.3182,26
1607013295.3201,24
1607013295.3221,29
1607013295.3240,19
1607013295.3260,-7
1607013295.3281,84
1607013295.3300,416
1607013295.3320,774
1607013295.3341,748
1607013295.3361,159
1607013295.3381,-503
1607013295.3400,-510
1607013295.3420,-128
1607013295.3440,-48
1607013295.3460,-89
1607013295.3481,-14
1607013295.3500,2
1607013295.3520,-29
1607013295.3541,-4
1607013295.8095,12
1607013295.8103,2
1607013295.8117,9
1607013295.8137,16
1607013295.8156,12
1607013295.8176,12
1607013295.8196,14
1607013295.8216,16
1607013295.8236,21
1607013295.8257,24
1607013295.8276,31
1607013295.8296,41
1607013295.8316,48
1607013295.8336,55
1607013295.8356,65
1607013295.8376,75
1607013295.8395,82
1607013295.8415,96
1607013295.8435,113
1607013295.8455,128
1607013295.8475,135
1607013295.8495,140
1607013295.8515,147
1607013295.8537,159
1607013295.8556,164
1607013295.8575,162
1607013295.8595,154
1607013295.8615,135
1607013295.8635,108
1607013295.8655,82
1607013295.8675,60
1607013295.8695,36
1607013295.8715,14
1607013295.8735,0
1607013295.8755,-7
1607013295.8775,-9
1607013295.8795,-4
1607013295.8815,-2
1607013295.8836,0
1607013295.8855,9
1607013295.8875,21
1607013295.8895,26
1607013295.8915,31
1607013295.8935,41
1607013295.8955,41
1607013295.8975,43
1607013295.8995,46
1607013295.9015,43
1607013295.9035,41
1607013295.9056,38
1607013295.9075,31
1607013295.9095,26
1607013295.9115,26
1607013295.9135,24
1607013295.9155,14
1607013295.9175,9
1607013295.9195,4
1607013295.9215,-7
1607013295.9235,-9
1607013295.9255,-4
1607013295.9275,-9
1607013295.9295,-9
1607013295.9315,-4
1607013295.9335,-4
1607013295.9355,-7
1607013295.9375,-2
1607013295.9395,0
1607013295.9416,0
1607013295.9435,-4
1607013295.9455,-4
1607013295.9475,-4
1607013295.9495,-4
1607013295.9515,-2
1607013296.3490,0
1607013296.3502,2
1607013296.3524,-2
1607013296.3550,-4
1607013296.3570,2
1607013296.3589,9
1607013296.3610,4
1607013296.3629,2
1607013296.3649,4
1607013296.3671,4
1607013296.3690,-2
1607013296.3709,-9
1607013296.3729,-7
1607013296.3749,-9
1607013296.3769,-7
1607013296.3789,-2
1607013296.3809,-2
1607013296.3828,-4
1607013296.3848,0
1607013296.3868,7
1607013296.3888,4
1607013296.3908,2
1607013296.3928,0
1607013296.3948,4
1607013296.3968,12
1607013296.3988,9
1607013296.4008,7
1607013296.4028,14
1607013296.4048,33
1607013296.4068,50
1607013296.4088,46
1607013296.4108,36
1607013296.4128,48
1607013296.4148,43
1607013296.4168,19
1607013296.4188,9
1607013296.4208,9
1607013296.4228,7
1607013296.4247,9
1607013296.4267,12
1607013296.4288,9
1607013296.4307,-12
1607013296.4327,19
1607013296.4347,276
1607013296.4367,677
1607013296.4388,830
1607013296.4407,435
1607013296.4427,-309
1607013296.4447,-646
1607013296.4467,-324
1607013296.4487,-67
1607013296.4507,-108
1607013296.4528,-72
1607013296.4548,-4
1607013296.4567,-26
1607013296.4587,-29
1607013296.4607,-4
1607013296.4627,-12
1607013296.4647,-9
1607013296.4667,7
1607013296.4687,7
1607013296.4707,2
1607013296.4727,12
1607013296.4747,14
1607013296.4766,14
1607013296.4787,26
1607013296.4807,38
1607013296.4828,43
1607013296.4846,41
1607013296.4866,43
1607013296.4887,58
1607013296.4906,77
1607013296.4926,87
1607013296.9185,92
1607013296.9194,106
1607013296.9219,128
1607013296.9245,140
1607013296.9266,147
1607013296.9285,159
1607013296.9306,169
1607013296.9325,169
1607013296.9345,159
1607013296.9365,147
1607013296.9384,138
1607013296.9404,121
1607013296.9424,87
1607013296.9444,53
1607013296.9465,21
1607013296.9485,-2
1607013296.9504,-16
1607013296.9524,-29
1607013296.9544,-36
1607013296.9564,-33
1607013296.9583,-26
1607013296.9603,-21
1607013296.9623,-14
1607013296.9643,-7
1607013296.9667,-4
1607013296.9683,-2
1607013296.9703,12
1607013296.9723,24
1607013296.9743,16
1607013296.9763,16
1607013296.9785,19
1607013296.9803,14
1607013296.9823,12
1607013296.9843,14
1607013296.9864,9
1607013296.9883,2
1607013296.9903,-2
1607013296.9923,-4
1607013296.9943,-7
1607013296.9963,-12
1607013296.9983,-16
1607013297.0003,-21
1607013297.0023,-29
1607013297.0043,-33
1607013297.0063,-26
1607013297.0082,-19
1607013297.0102,-21
1607013297.0122,-24
1607013297.0143,-21
1607013297.0163,-16
1607013297.0182,-16
1607013297.0202,-19
1607013297.0222,-19
1607013297.0242,-14
1607013297.0262,-14
1607013297.0282,-16
1607013297.0302,-12
1607013297.0322,-2
1607013297.0342,0
1607013297.0362,-4
1607013297.0383,-2
1607013297.0403,2
1607013297.0423,2
1607013297.0443,0
1607013297.0463,4
1607013297.0482,7
1607013297.0502,7
1607013297.0522,7
1607013297.0542,9
1607013297.0562,19
1607013297.0582,31
1607013297.0602,41
1607013297.0622,33
1607013297.4576,48
1607013297.4584,70
1607013297.4597,41
1607013297.4617,7
1607013297.4637,4
1607013297.4657,9
1607013297.4677,9
1607013297.4696,19
1607013297.4718,21
1607013297.4737,-2
1607013297.4757,-26
1607013297.4776,101
1607013297.4796,486
1607013297.4816,859
1607013297.4836,777
1607013297.4856,123
1607013297.4876,-561
1607013297.4897,-552
1607013297.4915,-159
1607013297.4935,-67
1607013297.4956,-94
1607013297.4975,-7
1607013297.4995,16
1607013297.5015,-14
1607013297.5035,2
1607013297.5055,19
1607013297.5075,14
1607013297.5095,19
1607013297.5115,26
1607013297.5135,31
1607013297.5155,33
1607013297.5175,38
1607013297.5195,41
1607013297.5215,41
1607013297.5235,41
1607013297.5255,46
1607013297.5275,55
1607013297.5295,67
1607013297.5315,77
1607013297.5335,84
1607013297.5355,94
1607013297.5375,108
1607013297.5395,123
1607013297.5415,133
1607013297.5435,140
1607013297.5455,152
1607013297.5475,167
1607013297.5494,176
1607013297.5514,176
1607013297.5534,179
1607013297.5555,181
1607013297.5574,169
1607013297.5594,145
1607013297.5614,121
1607013297.5634,96
1607013297.5655,67
1607013297.5674,41
1607013297.5694,29
1607013297.5714,19
1607013297.5735,7
1607013297.5755,2
1607013297.5774,7
1607013297.5794,14
1607013297.5814,19
1607013297.5834,24
1607013297.5855,31
1607013297.5874,33
1607013297.5895,36
1607013297.5914,43
1607013297.5934,48
1607013297.5955,48
1607013297.5974,46
1607013297.5994,46
1607013298.0265,43
1607013298.0274,41
1607013298.0287,38
1607013298.0305,31
1607013298.0325,29
1607013298.0344,26
1607013298.0363,16
1607013298.0384,2
1607013298.0403,7
1607013298.0423,19
1607013298.0444,21
1607013298.0463,14
1607013298.0483,9
1607013298.0504,12
1607013298.0523,14
1607013298.0543,16
1607013298.0563,21
1607013298.0583,14
1607013298.0604,12
1607013298.0622,12
1607013298.0642,7
1607013298.0662,16
1607013298.0683,24
1607013298.0703,29
1607013298.0722,41
1607013298.0742,55
1607013298.0762,67
1607013298.0782,70
1607013298.0802,53
1607013298.0823,38
1607013298.0842,67
1607013298.0864,87
1607013298.0883,55
1607013298.0903,62
1607013298.0922,125
1607013298.0942,106
1607013298.0964,26
1607013298.0985,36
1607013298.1003,84
1607013298.1022,118
1607013298.1042,125
1607013298.1062,79
1607013298.1082,70
1607013298.1102,108
1607013298.1122,82
1607013298.1142,19
1607013298.1162,31
1607013298.1181,50
1607013298.1202,55
1607013298.1223,104
1607013298.1242,118
1607013298.1261,92
1607013298.1281,75
1607013298.1301,106
1607013298.1321,157
1607013298.1342,123
1607013298.1361,108
1607013298.1381,159
1607013298.1401,140
1607013298.1422,154
1607013298.1441,358
1607013298.1461,682
1607013298.1481,915
1607013298.1501,765
1607013298.1521,150
1607013298.1541,-358
1607013298.1561,-191
1607013298.1581,159
1607013298.1601,157
1607013298.1621,116
1607013298.1641,215
1607013298.1661,239
1607013298.1681,193
1607013298.5657,227
1607013298.5667,273
1607013298.5692,246
1607013298.5718,234
1607013298.5738,254
1607013298.5757,261
1607013298.5777,276
1607013298.5797,278
1607013298.5817,271
1607013298.5837,280
1607013298.5857,256
1607013298.5876,230
1607013298.5896,283
1607013298.5916,312
1607013298.5937,261
1607013298.5958,283
1607013298.5977,341
1607013298.5996,319
1607013298.6018,341
1607013298.6036,365
1607013298.6056,309
1607013298.6076,317
1607013298.6096,365
1607013298.6116,348
1607013298.6137,341
1607013298.6156,372
1607013298.6176,387
1607013298.6196,355
1607013298.6215,307
1607013298.6236,288
1607013298.6255,283
1607013298.6275,256
1607013298.6296,217
1607013298.6316,181
1607013298.6336,164
1607013298.6355,162
1607013298.6375,152
1607013298.6395,145
1607013298.6415,145
1607013298.6437,142
1607013298.6455,142
1607013298.6475,145
1607013298.6495,140
1607013298.6515,130
1607013298.6535,128
1607013298.6555,123
1607013298.6575,113
1607013298.6595,106
1607013298.6616,99
1607013298.6636,89
1607013298.6655,70
1607013298.6674,50
1607013298.6695,31
1607013298.6715,16
1607013298.6735,0
1607013298.6755,-16
1607013298.6775,-29
1607013298.6795,-43
1607013298.6815,-60
1607013298.6835,-72
1607013298.6855,-79
1607013298.6930,-89
1607013298.6944,-104
1607013298.6965,-113
1607013298.6984,-118
1607013298.7004,-123
1607013298.7026,-128
1607013298.7045,-130
1607013298.7065,-130
1607013298.7084,-133
1607013298.7105,-138
1607013298.7124,-135
1607013298.7144,-135
1607013299.1644,-145
1607013299.1653,-150
1607013299.1678,-145
1607013299.1704,-147
1607013299.1724,-157
1607013299.1743,-162
1607013299.1764,-157
1607013299.1783,-154
1607013299.1803,-157
1607013299.1823,-157
1607013299.1842,-150
1607013299.1863,-145
1607013299.1883,-147
1607013299.1903,-145
1607013299.1923,-140
1607013299.1942,-138
1607013299.1962,-133
1607013299.1982,-125
1607013299.2002,-123
1607013299.2022,-118
1607013299.2043,-118
1607013299.2062,-116
1607013299.2082,-96
1607013299.2102,-67
1607013299.2122,-58
1607013299.2142,-70
1607013299.2162,-67
1607013299.2182,-53
1607013299.2203,-67
1607013299.2222,-92
1607013299.2242,-96
1607013299.2262,-94
1607013299.2282,-94
1607013299.2302,-92
1607013299.2322,-84
1607013299.2342,-92
1607013299.2362,-104
1607013299.2382,4
1607013299.2403,348
1607013299.2422,694
1607013299.2442,641
1607013299.2461,50
1607013299.2482,-598
1607013299.2502,-600
1607013299.2523,-222
1607013299.2542,-125
1607013299.2561,-154
1607013299.2581,-82
1607013299.2602,-62
1607013299.2621,-87
1607013299.2641,-65
1607013299.2661,-48
1607013299.2681,-58
1607013299.2701,-53
1607013299.2721,-43
1607013299.2742,-41
1607013299.2761,-43
1607013299.2781,-38
1607013299.2801,-24
1607013299.2821,-14
1607013299.2841,-12
1607013299.2861,-9
1607013299.2881,-2
1607013299.2902,4
1607013299.2909,12
1607013299.2932,19
1607013299.2951,31
1607013299.2971,43
1607013299.2991,55
1607013299.3011,72
1607013299.3031,92
1607013299.3051,104
1607013299.3070,111
1607013299.7035,123
1607013299.7044,128
1607013299.7068,130
1607013299.7094,130
1607013299.7114,116
1607013299.7134,87
1607013299.7156,60
1607013299.7161,33
1607013299.7184,-2
1607013299.7204,-36
1607013299.7224,-58
1607013299.7243,-65
1607013299.7263,-67
1607013299.7283,-75
1607013299.7303,-77
1607013299.7324,-70
1607013299.7343,-62
1607013299.7363,-60
1607013299.7383,-48
1607013299.7403,-36
1607013299.7423,-29
1607013299.7443,-26
1607013299.7464,-24
1607013299.7471,-19
1607013299.7493,-14
1607013299.7513,-14
1607013299.7533,-19
1607013299.7553,-21
1607013299.7572,-21
1607013299.7592,-26
1607013299.7613,-29
1607013299.7633,-29
1607013299.7654,-29
1607013299.7672,-26
1607013299.7692,-26
1607013299.7712,-26
1607013299.7732,-24
1607013299.7752,-24
1607013299.7772,-26
1607013299.7779,-29
1607013299.7802,-29
1607013299.7823,-29
1607013299.7843,-24
1607013299.7863,-19
1607013299.7883,-19
1607013299.7902,-19
1607013299.7922,-14
1607013299.7942,-14
1607013299.7962,-14
1607013299.7982,-9
1607013299.8002,-9
1607013299.8024,-12
1607013299.8042,-12
1607013299.8062,-4
1607013299.8082,-2
1607013299.8089,-4
1607013299.8112,0
1607013299.8132,21
1607013299.8153,31
1607013299.8172,19
1607013299.8191,29
1607013299.8211,38
1607013299.8232,12
1607013299.8252,-19
1607013299.8273,-16
1607013299.8291,-12
1607013299.8311,-7
1607013299.8332,2
1607013299.8351,0
1607013299.8371,-19
1607013299.8378,-38
1607013299.8391,67
1607013299.8411,428
1607013300.2729,808
1607013300.2740,757
1607013300.2763,130
1607013300.2791,-564
1607013300.2811,-583
1607013300.2830,-191
1607013300.2850,-87
1607013300.2870,-123
1607013300.2890,-41
1607013300.2910,-12
1607013300.2916,-41
1607013300.2939,-26
1607013300.2963,-7
1607013300.2979,-14
1607013300.2999,-16
1607013300.3020,-4
1607013300.3039,0
1607013300.3059,2
1607013300.3079,9
1607013300.3099,14
1607013300.3119,19
1607013300.3139,24
1607013300.3159,29
1607013300.3179,36
1607013300.3199,48
1607013300.3219,58
1607013300.3225,67
1607013300.3238,77
1607013300.3258,92
1607013300.3278,106
1607013300.3299,116
1607013300.3319,128
1607013300.3339,145
1607013300.3358,154
1607013300.3378,159
1607013300.3398,167
1607013300.3418,174
1607013300.3438,167
1607013300.3458,147
1607013300.3478,125
1607013300.3498,101
1607013300.3519,72
1607013300.3525,43
1607013300.3538,16
1607013300.3558,4
1607013300.3578,-4
1607013300.3598,-14
1607013300.3618,-16
1607013300.3638,-14
1607013300.3658,-9
1607013300.3678,-2
1607013300.3700,4
1607013300.3718,12
1607013300.3738,19
1607013300.3757,24
1607013300.3778,26
1607013300.3798,31
1607013300.3818,33
1607013300.3825,36
1607013300.3838,38
1607013300.3858,38
1607013300.3878,33
1607013300.3898,31
1607013300.3918,26
1607013300.3937,19
1607013300.3957,16
1607013300.3978,14
1607013300.3998,12
1607013300.4018,12
1607013300.4038,14
1607013300.4057,12
1607013300.4077,12
1607013300.4097,12
1607013300.8120,12
1607013300.8130,12
1607013300.8154,14
1607013300.8180,14
1607013300.8200,14
1607013300.8220,14
1607013300.8241,12
1607013300.8260,7
1607013300.8280,2
1607013300.8300,0
1607013300.8319,4
1607013300.8339,7
1607013300.8359,4
1607013300.8379,4
1607013300.8399,9
1607013300.8421,12
1607013300.8427,9
1607013300.8450,9
1607013300.8469,14
1607013300.8489,14
1607013300.8509,14
1607013300.8529,16
1607013300.8549,19
1607013300.8569,19
1607013300.8589,19
1607013300.8609,21
1607013300.8630,21
1607013300.8649,16
1607013300.8669,16
1607013300.8690,19
1607013300.8710,19
1607013300.8729,26
1607013300.8735,46
1607013300.8749,58
1607013300.8768,43
1607013300.8788,46
1607013300.8809,58
1607013300.8828,33
1607013300.8848,4
1607013300.8868,4
1607013300.8888,9
1607013300.8909,7
1607013300.8928,12
1607013300.8949,14
1607013300.8968,-7
1607013300.8988,-31
1607013300.9008,82
1607013300.9028,440
1607013300.9035,794
1607013300.9048,719
1607013300.9068,92
1607013300.9088,-542
1607013300.9109,-479
1607013300.9128,-89
1607013300.9148,-43
1607013300.9168,-89
1607013300.9189,-9
1607013300.9209,2
1607013300.9228,-26
1607013300.9248,-4
1607013300.9268,9
1607013300.9288,2
1607013300.9308,9
1607013300.9328,16
1607013300.9348,16
1607013300.9368,21
1607013300.9387,26
1607013300.9408,29
1607013300.9427,33
1607013300.9447,38
1607013300.9467,38
1607013300.9487,46
1607013300.9508,53
1607013301.3812,62
1607013301.3822,72
1607013301.3846,82
1607013301.3874,96
1607013301.3892,106
1607013301.3912,111
1607013301.3933,118
1607013301.3955,133
1607013301.3973,145
1607013301.3994,157
1607013301.4012,164
1607013301.4032,169
1607013301.4052,164
1607013301.4072,152
1607013301.4092,133
1607013301.4112,106
1607013301.4132,77
1607013301.4152,48
1607013301.4172,19
1607013301.4191,0
1607013301.4211,-12
1607013301.4231,-21
1607013301.4251,-24
1607013301.4272,-19
1607013301.4291,-12
1607013301.4311,-7
1607013301.4332,0
1607013301.4351,7
1607013301.4371,12
1607013301.4391,12
1607013301.4411,16
1607013301.4431,24
1607013301.4452,24
1607013301.4471,24
1607013301.4491,24
1607013301.4511,24
1607013301.4531,19
1607013301.4550,16
1607013301.4571,12
1607013301.4592,7
1607013301.4610,2
1607013301.4630,0
1607013301.4650,0
1607013301.4670,2
1607013301.4690,0
1607013301.4710,-4
1607013301.4730,0
1607013301.4750,0
1607013301.4770,-7
1607013301.4791,-9
1607013301.4810,-2
1607013301.4830,2
1607013301.4851,0
1607013301.4870,-2
1607013301.4890,2
1607013301.4910,4
1607013301.4930,0
1607013301.4950,2
1607013301.4972,7
1607013301.4991,7
1607013301.5010,4
1607013301.5030,7
1607013301.5050,9
1607013301.5070,9
1607013301.5090,9
1607013301.5110,9
1607013301.5130,14
1607013301.5150,16
1607013301.5170,14
1607013301.5190,19
1607013301.5210,24
1607013301.5230,24
1607013301.5250,24
1607013301.9209,26
1607013301.9219,29
1607013301.9243,26
1607013301.9270,24
1607013301.9290,24
1607013301.9310,24
1607013301.9331,16
1607013301.9351,12
1607013301.9370,14
1607013301.9390,14
1607013301.9410,12
1607013301.9429,14
1607013301.9449,16
1607013301.9469,21
1607013301.9490,24
1607013301.9509,31
1607013301.9529,43
1607013301.9549,62
1607013301.9569,58
1607013301.9589,43
1607013301.9609,53
1607013301.9629,53
1607013301.9649,21
1607013301.9669,9
1607013301.9689,14
1607013301.9709,14
1607013301.9729,14
1607013301.9749,16
1607013301.9769,9
1607013301.9789,-16
1607013301.9810,26
1607013301.9829,292
1607013301.9849,675
1607013301.9868,791
1607013301.9889,368
1607013301.9908,-346
1607013301.9930,-578
1607013301.9948,-227
1607013301.9968,-29
1607013301.9989,-84
1607013302.0008,-41
1607013302.0028,7
1607013302.0048,-24
1607013302.0068,-19
1607013302.0088,7
1607013302.0108,0
1607013302.0127,-2
1607013302.0147,9
1607013302.0167,14
1607013302.0189,4
1607013302.0207,9
1607013302.0227,19
1607013302.0247,24
1607013302.0268,21
1607013302.0288,26
1607013302.0308,33
1607013302.0327,41
1607013302.0347,48
1607013302.0367,50
1607013302.0388,60
1607013302.0408,75
1607013302.0427,87
1607013302.0447,99
1607013302.0467,116
1607013302.0487,128
1607013302.0507,135
1607013302.0528,140
1607013302.0547,150
1607013302.0567,162
1607013302.0588,167
1607013302.0607,164
1607013302.0627,150
1607013302.0647,125
1607013302.5201,96
1607013302.5211,65
1607013302.5235,36
1607013302.5261,7
1607013302.5282,-16
1607013302.5302,-29
1607013302.5322,-31
1607013302.5341,-29
1607013302.5361,-26
1607013302.5382,-21
1607013302.5401,-19
1607013302.5421,-19
1607013302.5441,-14
1607013302.5461,-2
1607013302.5484,7
1607013302.5501,7
1607013302.5520,7
1607013302.5540,9
1607013302.5560,12
1607013302.5582,7
1607013302.5600,2
1607013302.5620,2
1607013302.5641,2
1607013302.5660,-2
1607013302.5681,-12
1607013302.5700,-12
1607013302.5720,-12
1607013302.5740,-12
1607013302.5760,-14
1607013302.5780,-12
1607013302.5800,-7
1607013302.5820,-7
1607013302.5840,-12
1607013302.5860,-21
1607013302.5880,-31
1607013302.5899,-29
1607013302.5919,-16
1607013302.5939,-12
1607013302.5959,-16
1607013302.5980,-21
1607013302.5999,-16
1607013302.6019,-12
1607013302.6039,-12
1607013302.6059,-16
1607013302.6080,-19
1607013302.6099,-9
1607013302.6119,-7
1607013302.6139,-9
1607013302.6159,-7
1607013302.6179,-4
1607013302.6199,-7
1607013302.6220,-7
1607013302.6239,-4
1607013302.6259,-9
1607013302.6279,-12
1607013302.6299,-7
1607013302.6319,0
1607013302.6339,0
1607013302.6359,-7
1607013302.6380,-9
1607013302.6399,-4
1607013302.6419,0
1607013302.6439,0
1607013302.6446,16
1607013302.6460,36
1607013302.6481,29
1607013302.6499,29
1607013302.6519,43
1607013302.6538,29
1607013302.6559,-2
1607013302.6579,-9
1607013302.6598,-7
1607013302.6618,-4
1607013303.0894,2
1607013303.0904,4
1607013303.0917,-7
1607013303.0937,-16
1607013303.0944,82
1607013303.0957,416
1607013303.0977,798
1607013303.0996,794
1607013303.1016,205
1607013303.1036,-525
1607013303.1056,-622
1607013303.1077,-237
1607013303.1096,-96
1607013303.1116,-123
1607013303.1136,-38
1607013303.1156,0
1607013303.1177,-36
1607013303.1196,-24
1607013303.1216,0
1607013303.1236,-4
1607013303.1243,-4
1607013303.1256,2
1607013303.1277,0
1607013303.1295,4
1607013303.1315,12
1607013303.1335,16
1607013303.1355,14
1607013303.1376,9
1607013303.1395,16
1607013303.1415,26
1607013303.1435,31
1607013303.1455,38
1607013303.1475,48
1607013303.1495,53
1607013303.1515,62
1607013303.1535,82
1607013303.1542,94
1607013303.1556,101
1607013303.1575,108
1607013303.1595,116
1607013303.1615,123
1607013303.1635,133
1607013303.1655,145
1607013303.1677,145
1607013303.1695,133
1607013303.1715,116
1607013303.1736,96
1607013303.1755,75
1607013303.1775,50
1607013303.1795,26
1607013303.1815,9
1607013303.1821,-7
1607013303.1835,-19
1607013303.1855,-19
1607013303.1875,-12
1607013303.1895,-4
1607013303.1914,2
1607013303.1934,9
1607013303.1955,9
1607013303.1975,9
1607013303.1994,12
1607013303.2014,19
1607013303.2036,19
1607013303.2055,19
1607013303.2075,26
1607013303.2095,29
1607013303.2114,19
1607013303.2121,7
1607013303.2135,2
1607013303.2155,2
1607013303.2175,4
1607013303.2196,4
1607013303.2214,2
1607013303.6588,2
1607013303.6599,-2
1607013303.6623,-7
1607013303.6650,-7
1607013303.6670,-2
1607013303.6689,0
1607013303.6710,-4
1607013303.6729,-4
1607013303.6749,-2
1607013303.6769,-4
1607013303.6774,-14
1607013303.6788,-16
1607013303.6808,-9
1607013303.6828,-7
1607013303.6848,-12
1607013303.6869,-9
1607013303.6888,-7
1607013303.6908,-9
1607013303.6928,-12
1607013303.6948,-12
1607013303.6968,-9
1607013303.6989,-9
1607013303.7008,-9
1607013303.7028,-9
1607013303.7048,-7
1607013303.7068,-4
1607013303.7074,-2
1607013303.7087,9
1607013303.7108,31
1607013303.7127,41
1607013303.7148,29
1607013303.7167,38
1607013303.7188,46
1607013303.7207,16
1607013303.7228,-4
1607013303.7247,2
1607013303.7268,9
1607013303.7287,7
1607013303.7307,12
1607013303.7327,12
1607013303.7347,-12
1607013303.7368,-26
1607013303.7374,142
1607013303.7388,547
1607013303.7407,861
1607013303.7427,668
1607013303.7448,-46
1607013303.7467,-600
1607013303.7487,-426
1607013303.7508,-79
1607013303.7527,-67
1607013303.7547,-72
1607013303.7568,12
1607013303.7587,4
1607013303.7607,-19
1607013303.7627,9
1607013303.7647,16
1607013303.7667,4
1607013303.7675,14
1607013303.7687,24
1607013303.7707,21
1607013303.7727,21
1607013303.7747,29
1607013303.7767,36
1607013303.7787,38
1607013303.7807,41
1607013303.7827,46
1607013303.7847,55
1607013303.7867,60
1607013303.7886,67
1607013303.7907,79
1607013303.7927,89
1607013303.7948,101
1607013304.1981,113
1607013304.1991,128
1607013304.2015,140
1607013304.2042,147
1607013304.2062,154
1607013304.2081,164
1607013304.2101,169
1607013304.2121,162
1607013304.2141,150
1607013304.2161,135
1607013304.2181,106
1607013304.2200,62
1607013304.2221,26
1607013304.2241,9
1607013304.2248,-7
1607013304.2261,-26
1607013304.2280,-41
1607013304.2300,-46
1607013304.2320,-46
1607013304.2341,-43
1607013304.2361,-36
1607013304.2380,-24
1607013304.2400,-16
1607013304.2421,-9
1607013304.2441,-2
1607013304.2461,4
1607013304.2480,7
1607013304.2500,12
1607013304.2520,19
1607013304.2540,21
1607013304.2547,19
1607013304.2560,19
1607013304.2580,16
1607013304.2600,14
1607013304.2620,14
1607013304.2640,12
1607013304.2660,9
1607013304.2680,9
1607013304.2701,9
1607013304.2720,4
1607013304.2740,2
1607013304.2760,4
1607013304.2779,4
1607013304.2799,0
1607013304.2819,0
1607013304.2840,2
1607013304.2846,4
1607013304.2860,2
1607013304.2879,-2
1607013304.2899,0
1607013304.2921,2
1607013304.2940,2
1607013304.2960,2
1607013304.2979,4
1607013304.2999,7
1607013304.3019,7
1607013304.3039,7
1607013304.3060,7
1607013304.3080,9
1607013304.3099,12
1607013304.3119,12
1607013304.3139,14
1607013304.3146,16
1607013304.3160,14
1607013304.3179,24
1607013304.3200,26
1607013304.3219,9
1607013304.3239,19
1607013304.3260,62
1607013304.3279,75
1607013304.3299,48
1607013304.3319,53
1607013304.3339,60
1607013304.7373,24
1607013304.7384,19
1607013304.7408,67
1607013304.7435,70
1607013304.7455,55
1607013304.7460,92
1607013304.7484,94
1607013304.7504,62
1607013304.7524,72
1607013304.7543,111
1607013304.7564,106
1607013304.7584,53
1607013304.7603,43
1607013304.7623,55
1607013304.7643,70
1607013304.7664,92
1607013304.7683,60
1607013304.7703,26
1607013304.7723,43
1607013304.7743,154
1607013304.7763,416
1607013304.7770,726
1607013304.7783,806
1607013304.7803,343
1607013304.7823,-353
1607013304.7842,-481
1607013304.7863,-154
1607013304.7883,-38
1607013304.7905,-29
1607013304.7923,65
1607013304.7943,82
1607013304.7963,70
1607013304.7983,75
1607013304.8002,33
1607013304.8022,67
1607013304.8042,167
1607013304.8064,116
1607013304.8070,46
1607013304.8083,164
1607013304.8103,217
1607013304.8122,106
1607013304.8142,116
1607013304.8163,239
1607013304.8182,179
1607013304.8202,79
1607013304.8222,188
1607013304.8242,266
1607013304.8263,244
1607013304.8282,280
1607013304.8302,244
1607013304.8322,162
1607013304.8342,230
1607013304.8362,273
1607013304.8369,203
1607013304.8382,205
1607013304.8402,268
1607013304.8422,317
1607013304.8442,314
1607013304.8462,273
1607013304.8482,268
1607013304.8502,271
1607013304.8522,249
1607013304.8542,234
1607013304.8562,213
1607013304.8582,176
1607013304.8602,145
1607013304.8622,121
1607013304.8642,101
1607013304.8662,106
1607013304.8668,111
1607013304.8682,96
1607013304.8702,79
1607013304.8722,79
1607013305.2765,96
1607013305.2774,87
1607013305.2799,70
1607013305.2826,92
1607013305.2846,106
1607013305.2864,75
1607013305.2887,38
1607013305.2905,41
1607013305.2924,38
1607013305.2931,4
1607013305.2944,-9
1607013305.2964,-4
1607013305.2984,-21
1607013305.3004,-38
1607013305.3024,-41
1607013305.3044,-48
1607013305.3064,-58
1607013305.3083,-67
1607013305.3103,-92
1607013305.3123,-96
1607013305.3143,-77
1607013305.3164,-75
1607013305.3184,-87
1607013305.3203,-82
1607013305.3223,-84
1607013305.3230,-94
1607013305.3243,-94
1607013305.3263,-87
1607013305.3283,-87
1607013305.3303,-89
1607013305.3323,-92
1607013305.3343,-89
1607013305.3363,-82
1607013305.3384,-82
1607013305.3404,-87
1607013305.3424,-87
1607013305.3444,-82
1607013305.3464,-79
1607013305.3483,-77
1607013305.3503,-72
1607013305.3523,-65
1607013305.3530,-60
1607013305.3543,-65
1607013305.3563,-70
1607013305.3583,-65
1607013305.3603,-58
1607013305.3624,-62
1607013305.3643,-65
1607013305.3663,-65
1607013305.3683,-70
1607013305.3703,-67
1607013305.3723,-58
1607013305.3743,-60
1607013305.3763,-67
1607013305.3783,-58
1607013305.3803,-48
1607013305.3823,-36
1607013305.3831,-21
1607013305.3843,-24
1607013305.3863,-24
1607013305.3883,-9
1607013305.3902,-21
1607013305.3923,-58
1607013305.3942,-75
1607013305.3964,-72
1607013305.3983,-62
1607013305.4004,-50
1607013305.4023,-46
1607013305.4042,-60
1607013305.4063,-87
1607013305.4082,-7
1607013305.4102,309
1607013305.4122,694
1607013305.8763,752
1607013305.8790,242
1607013305.8809,-498
1607013305.8828,-665
1607013305.8848,-292
1607013305.8867,-125
1607013305.8887,-162
1607013305.8907,-94
1607013305.8927,-53
1607013305.8947,-89
1607013305.8966,-75
1607013305.8986,-43
1607013305.9008,-48
1607013305.9027,-53
1607013305.9047,-41
1607013305.9053,-36
1607013305.9067,-38
1607013305.9086,-33
1607013305.9106,-24
1607013305.9126,-19
1607013305.9146,-16
1607013305.9165,-7
1607013305.9185,2
1607013305.9205,4
1607013305.9225,7
1607013305.9246,19
1607013305.9265,36
1607013305.9285,46
1607013305.9305,55
1607013305.9326,70
1607013305.9345,82
1607013305.9351,96
1607013305.9365,113
1607013305.9385,123
1607013305.9405,128
1607013305.9426,135
1607013305.9445,138
1607013305.9465,135
1607013305.9485,121
1607013305.9505,87
1607013305.9526,55
1607013305.9545,38
1607013305.9565,16
1607013305.9585,-9
1607013305.9605,-31
1607013305.9625,-41
1607013305.9645,-41
1607013305.9651,-38
1607013305.9665,-36
1607013305.9685,-31
1607013305.9705,-26
1607013305.9725,-19
1607013305.9745,-14
1607013305.9765,-12
1607013305.9784,-7
1607013305.9805,-2
1607013305.9825,-7
1607013305.9845,-9
1607013305.9865,-2
1607013305.9884,-2
1607013305.9904,-7
1607013305.9924,-2
1607013305.9945,0
1607013305.9951,-9
1607013305.9964,-12
1607013305.9985,-12
1607013306.0004,-16
1607013306.0024,-16
1607013306.0045,-9
1607013306.0064,-12
1607013306.0084,-12
1607013306.0104,-7
1607013306.0124,-7
1607013306.4459,-14
1607013306.4471,-14
1607013306.4496,-12
1607013306.4523,-12
1607013306.4532,-12
1607013306.4552,-4
1607013306.4572,-2
1607013306.4593,-7
1607013306.4612,-16
1607013306.4632,-16
1607013306.4651,-12
1607013306.4671,-4
1607013306.4691,-2
1607013306.4713,-4
1607013306.4731,4
1607013306.4751,29
1607013306.4771,38
1607013306.4791,31
1607013306.4810,36
1607013306.4831,41
1607013306.4838,14
1607013306.4850,-7
1607013306.4870,-4
1607013306.4890,-9
1607013306.4911,-9
1607013306.4930,-2
1607013306.4950,0
1607013306.4970,-12
1607013306.4990,-21
1607013306.5010,92
1607013306.5030,445
1607013306.5050,798
1607013306.5071,740
1607013306.5090,130
1607013306.5110,-535
1607013306.5130,-561
1607013306.5138,-196
1607013306.5150,-87
1607013306.5171,-104
1607013306.5191,-31
1607013306.5210,-4
1607013306.5230,-31
1607013306.5250,-16
1607013306.5270,-4
1607013306.5290,-14
1607013306.5310,-9
1607013306.5330,4
1607013306.5350,4
1607013306.5370,0
1607013306.5390,2
1607013306.5410,4
1607013306.5430,7
1607013306.5437,12
1607013306.5450,24
1607013306.5470,33
1607013306.5490,36
1607013306.5510,41
1607013306.5529,53
1607013306.5550,60
1607013306.5570,72
1607013306.5589,89
1607013306.5609,101
1607013306.5629,108
1607013306.5649,121
1607013306.5671,133
1607013306.5690,145
1607013306.5709,154
1607013306.5729,159
1607013306.5736,154
1607013306.5749,140
1607013306.5770,118
1607013306.5790,94
1607013306.5809,65
1607013306.9853,36
1607013306.9866,12
1607013306.9890,-4
1607013306.9917,-14
1607013306.9937,-19
1607013306.9957,-26
1607013306.9977,-29
1607013306.9997,-21
1607013307.0019,-14
1607013307.0036,-12
1607013307.0056,-12
1607013307.0063,-2
1607013307.0076,0
1607013307.0096,0
1607013307.0116,4
1607013307.0136,16
1607013307.0156,21
1607013307.0175,19
1607013307.0195,16
1607013307.0216,12
1607013307.0236,7
1607013307.0255,7
1607013307.0275,7
1607013307.0295,7
1607013307.0315,7
1607013307.0336,4
1607013307.0355,2
1607013307.0362,2
1607013307.0375,2
1607013307.0395,4
1607013307.0416,7
1607013307.0435,7
1607013307.0455,4
1607013307.0475,4
1607013307.0495,7
1607013307.0515,4
1607013307.0535,0
1607013307.0556,2
1607013307.0575,4
1607013307.0594,9
1607013307.0615,7
1607013307.0635,4
1607013307.0644,2
1607013307.0655,4
1607013307.0675,9
1607013307.0695,14
1607013307.0715,29
1607013307.0735,43
1607013307.0755,38
1607013307.0774,41
1607013307.0794,58
1607013307.0814,43
1607013307.0835,16
1607013307.0855,16
1607013307.0874,21
1607013307.0894,19
1607013307.0914,21
1607013307.0935,26
1607013307.0941,21
1607013307.0954,-12
1607013307.0974,-19
1607013307.0994,186
1607013307.1014,619
1607013307.1035,900
1607013307.1054,629
1607013307.1074,-130
1607013307.1095,-622
1607013307.1114,-377
1607013307.1134,-55
1607013307.1155,-77
1607013307.1174,-70
1607013307.1194,12
1607013307.1214,-2
1607013307.5549,-16
1607013307.5560,14
1607013307.5583,16
1607013307.5610,7
1607013307.5631,14
1607013307.5650,21
1607013307.5670,14
1607013307.5689,9
1607013307.5709,19
1607013307.5730,29
1607013307.5751,31
1607013307.5769,36
1607013307.5789,43
1607013307.5809,48
1607013307.5817,55
1607013307.5830,67
1607013307.5849,82
1607013307.5869,94
1607013307.5889,104
1607013307.5909,118
1607013307.5931,138
1607013307.5949,152
1607013307.5969,162
1607013307.5989,169
1607013307.6009,181
1607013307.6029,186
1607013307.6049,181
1607013307.6069,167
1607013307.6088,140
1607013307.6108,108
1607013307.6115,72
1607013307.6122,41
1607013307.6138,16
1607013307.6158,-4
1607013307.6179,-26
1607013307.6198,-41
1607013307.6218,-46
1607013307.6238,-48
1607013307.6258,-41
1607013307.6278,-33
1607013307.6298,-26
1607013307.6318,-24
1607013307.6338,-16
1607013307.6358,-4
1607013307.6378,4
1607013307.6384,7
1607013307.6398,12
1607013307.6418,14
1607013307.6438,12
1607013307.6458,12
1607013307.6478,14
1607013307.6498,12
1607013307.6518,4
1607013307.6538,-2
1607013307.6558,-4
1607013307.6578,-4
1607013307.6598,-4
1607013307.6618,-7
1607013307.6638,-14
1607013307.6658,-19
1607013307.6678,-19
1607013307.6684,-14
1607013307.6698,-12
1607013307.6718,-9
1607013307.6738,-9
1607013307.6758,-12
1607013307.6778,-14
1607013307.6798,-12
1607013307.6818,-12
1607013307.6838,-9
1607013307.6858,-7
1607013307.6880,-4
1607013307.6898,-4
1607013308.0940,-4
1607013308.0949,0
1607013308.0955,7
1607013308.0975,9
1607013308.0995,7
1607013308.1015,7
1607013308.1035,9
1607013308.1055,7
1607013308.1075,0
1607013308.1095,-2
1607013308.1114,0
1607013308.1135,2
1607013308.1154,2
1607013308.1174,4
1607013308.1195,9
1607013308.1214,12
1607013308.1234,21
1607013308.1254,43
1607013308.1260,41
1607013308.1274,33
1607013308.1294,43
1607013308.1315,36
1607013308.1335,12
1607013308.1354,7
1607013308.1374,9
1607013308.1395,9
1607013308.1414,16
1607013308.1434,14
1607013308.1454,0
1607013308.1474,-29
1607013308.1494,2
1607013308.1514,268
1607013308.1534,702
1607013308.1554,883
1607013308.1560,474
1607013308.1574,-302
1607013308.1594,-612
1607013308.1614,-261
1607013308.1634,-33
1607013308.1654,-92
1607013308.1674,-53
1607013308.1693,4
1607013308.1714,-29
1607013308.1734,-26
1607013308.1754,14
1607013308.1773,19
1607013308.1794,14
1607013308.1813,26
1607013308.1834,33
1607013308.1855,31
1607013308.1860,36
1607013308.1874,46
1607013308.1893,50
1607013308.1914,55
1607013308.1934,60
1607013308.1954,67
1607013308.1974,72
1607013308.1994,82
1607013308.2014,92
1607013308.2033,101
1607013308.2053,116
1607013308.2073,130
1607013308.2093,145
1607013308.2113,157
1607013308.2133,167
1607013308.2154,179
1607013308.2159,196
1607013308.2173,208
1607013308.2193,213
1607013308.2213,220
1607013308.2234,220
1607013308.2253,203
1607013308.2273,181
1607013308.6637,157
1607013308.6647,128
1607013308.6671,101
1607013308.6698,79
1607013308.6718,62
1607013308.6737,48
1607013308.6758,43
1607013308.6777,48
1607013308.6797,50
1607013308.6804,53
1607013308.6819,62
1607013308.6837,75
1607013308.6857,79
1607013308.6877,84
1607013308.6897,94
1607013308.6917,96
1607013308.6937,92
1607013308.6957,92
1607013308.6977,92
1607013308.6997,87
1607013308.7017,77
1607013308.7037,72
1607013308.7057,70
1607013308.7076,65
1607013308.7097,60
1607013308.7105,58
1607013308.7117,58
1607013308.7138,55
1607013308.7157,50
1607013308.7176,48
1607013308.7196,48
1607013308.7216,46
1607013308.7238,46
1607013308.7256,46
1607013308.7277,43
1607013308.7296,43
1607013308.7317,43
1607013308.7336,38
1607013308.7356,38
1607013308.7376,38
1607013308.7396,36
1607013308.7402,33
1607013308.7416,33
1607013308.7436,33
1607013308.7456,31
1607013308.7476,26
1607013308.7496,31
1607013308.7516,29
1607013308.7536,21
1607013308.7556,21
1607013308.7576,24
1607013308.7596,26
1607013308.7618,24
1607013308.7635,24
1607013308.7656,24
1607013308.7675,26
1607013308.7696,19
1607013308.7702,16
1607013308.7716,19
1607013308.7735,19
1607013308.7755,19
1607013308.7776,19
1607013308.7796,21
1607013308.7816,19
1607013308.7835,16
1607013308.7855,14
1607013308.7875,14
1607013308.7895,12
1607013308.7916,12
1607013308.7935,12
1607013308.7955,9
1607013308.7975,7
1607013308.7995,4
1607013309.2933,4
1607013309.2942,9
1607013309.2966,19
1607013309.2984,33
1607013309.3003,31
1607013309.3026,19
1607013309.3043,14
1607013309.3064,2
1607013309.3083,-26
1607013309.3103,-41
1607013309.3122,-38
1607013309.3142,-36
1607013309.3162,-41
1607013309.3168,-46
1607013309.3182,-58
1607013309.3202,-87
1607013309.3223,-50
1607013309.3242,210
1607013309.3262,595
1607013309.3282,728
1607013309.3303,322
1607013309.3322,-401
1607013309.3342,-648
1607013309.3361,-295
1607013309.3381,-94
1607013309.3402,-157
1607013309.3422,-113
1607013309.3441,-58
1607013309.3461,-87
1607013309.3468,-87
1607013309.3481,-60
1607013309.3501,-62
1607013309.3522,-67
1607013309.3542,-60
1607013309.3561,-55
1607013309.3581,-53
1607013309.3601,-48
1607013309.3622,-43
1607013309.3642,-43
1607013309.3662,-36
1607013309.3681,-24
1607013309.3701,-21
1607013309.3721,-19
1607013309.3741,-9
1607013309.3761,0
1607013309.3767,2
1607013309.3781,12
1607013309.3801,31
1607013309.3821,48
1607013309.3841,58
1607013309.3861,70
1607013309.3881,79
1607013309.3901,94
1607013309.3921,108
1607013309.3942,118
1607013309.3961,123
1607013309.3984,125
1607013309.4002,113
1607013309.4021,92
1607013309.4041,67
1607013309.4061,41
1607013309.4067,9
1607013309.4081,-19
1607013309.4101,-38
1607013309.4121,-50
1607013309.4141,-55
1607013309.4161,-53
1607013309.4182,-48
1607013309.4201,-46
1607013309.4221,-41
1607013309.4241,-31
1607013309.4261,-24
1607013309.4281,-21
1607013309.8024,-14
1607013309.8034,-9
1607013309.8058,-7
1607013309.8085,-4
1607013309.8091,-7
1607013309.8104,-16
1607013309.8123,-19
1607013309.8144,-19
1607013309.8164,-24
1607013309.8185,-31
1607013309.8204,-33
1607013309.8224,-36
1607013309.8244,-46
1607013309.8264,-46
1607013309.8284,-46
1607013309.8304,-55
1607013309.8323,-62
1607013309.8343,-55
1607013309.8363,-46
1607013309.8383,-48
1607013309.8390,-46
1607013309.8403,-41
1607013309.8424,-46
1607013309.8443,-46
1607013309.8463,-36
1607013309.8483,-41
1607013309.8503,-46
1607013309.8523,-41
1607013309.8543,-33
1607013309.8563,-31
1607013309.8583,-26
1607013309.8603,-26
1607013309.8623,-29
1607013309.8643,-33
1607013309.8665,-29
1607013309.8683,-26
1607013309.8690,-19
1607013309.8703,-16
1607013309.8723,-21
1607013309.8743,-19
1607013309.8763,-12
1607013309.8783,-12
1607013309.8803,-14
1607013309.8823,-9
1607013309.8843,-7
1607013309.8863,-12
1607013309.8883,-21
1607013309.8903,-19
1607013309.8924,-12
1607013309.8943,-2
1607013309.8963,16
1607013309.8983,24
1607013309.8989,14
1607013309.9002,21
1607013309.9022,26
1607013309.9042,-2
1607013309.9062,-24
1607013309.9083,-19
1607013309.9103,-14
1607013309.9122,-12
1607013309.9142,-7
1607013309.9162,-12
1607013309.9183,-31
1607013309.9202,-7
1607013309.9223,210
1607013309.9242,624
1607013309.9263,861
1607013309.9282,552
1607013309.9288,-200
1607013309.9302,-658
1607013309.9322,-416
1607013309.9342,-108
1607013309.9362,-106
1607013310.3727,-82
1607013310.3737,-9
1607013310.3751,-21
1607013310.3771,-33
1607013310.3791,-9
1607013310.3812,-7
1607013310.3831,-7
1607013310.3838,2
1607013310.3851,-2
1607013310.3871,-12
1607013310.3891,-2
1607013310.3911,9
1607013310.3932,9
1607013310.3951,7
1607013310.3970,12
1607013310.3990,19
1607013310.4010,26
1607013310.4030,36
1607013310.4050,46
1607013310.4071,53
1607013310.4090,60
1607013310.4110,72
1607013310.4116,84
1607013310.4130,94
1607013310.4150,101
1607013310.4170,113
1607013310.4190,125
1607013310.4210,135
1607013310.4230,145
1607013310.4250,157
1607013310.4270,157
1607013310.4291,140
1607013310.4309,118
1607013310.4330,96
1607013310.4349,70
1607013310.4369,46
1607013310.4389,21
1607013310.4410,4
1607013310.4416,-4
1607013310.4429,-9
1607013310.4449,-12
1607013310.4469,-9
1607013310.4490,-4
1607013310.4510,2
1607013310.4529,7
1607013310.4549,12
1607013310.4569,12
1607013310.4589,14
1607013310.4610,19
1607013310.4629,21
1607013310.4649,21
1607013310.4669,24
1607013310.4689,26
1607013310.4710,24
1607013310.4715,21
1607013310.4729,16
1607013310.4749,9
1607013310.4769,7
1607013310.4790,2
1607013310.4810,0
1607013310.4829,0
1607013310.4849,0
1607013310.4869,0
1607013310.4891,-2
1607013310.4910,-7
1607013310.4929,-4
1607013310.4949,0
1607013310.4969,-2
1607013310.4989,0
1607013310.5010,4
1607013310.5015,4
1607013310.5029,4
1607013310.5049,4
1607013310.9118,7
1607013310.9127,7
1607013310.9152,9
1607013310.9179,12
1607013310.9199,9
1607013310.9218,2
1607013310.9239,0
1607013310.9259,2
1607013310.9278,2
1607013310.9299,-2
1607013310.9304,-9
1607013310.9317,-4
1607013310.9339,-2
1607013310.9359,-2
1607013310.9378,-4
1607013310.9399,0
1607013310.9419,4
1607013310.9437,2
1607013310.9458,2
1607013310.9477,4
1607013310.9498,7
1607013310.9517,7
1607013310.9537,9
1607013310.9558,16
1607013310.9577,19
1607013310.9598,29
1607013310.9603,53
1607013310.9617,58
1607013310.9637,46
1607013310.9657,55
1607013310.9677,53
1607013310.9698,24
1607013310.9718,7
1607013310.9737,14
1607013310.9757,16
1607013310.9777,19
1607013310.9797,16
1607013310.9817,7
1607013310.9837,-19
1607013310.9858,7
1607013310.9876,254
1607013310.9900,660
1607013310.9904,842
1607013310.9917,464
1607013310.9936,-280
1607013310.9957,-600
1607013310.9977,-266
1607013310.9998,-26
1607013311.0016,-82
1607013311.0036,-46
1607013311.0057,24
1607013311.0077,-2
1607013311.0098,-7
1607013311.0121,19
1607013311.0137,16
1607013311.0166,7
1607013311.0177,12
1607013311.0197,16
1607013311.0206,16
1607013311.0227,24
1607013311.0247,26
1607013311.0267,26
1607013311.0286,31
1607013311.0308,38
1607013311.0327,43
1607013311.0347,48
1607013311.0366,55
1607013311.0387,65
1607013311.0406,72
1607013311.0427,79
1607013311.0446,92
1607013311.0466,104
1607013311.0486,113
1607013311.4515,125
1607013311.4525,140
1607013311.4550,150
1607013311.4576,157
1607013311.4596,164
1607013311.4616,167
1607013311.4636,159
1607013311.4655,138
1607013311.4675,111
1607013311.4695,87
1607013311.4716,60
1607013311.4735,29
1607013311.4756,7
1607013311.4775,-9
1607013311.4796,-21
1607013311.4800,-29
1607013311.4815,-31
1607013311.4834,-29
1607013311.4854,-21
1607013311.4877,-16
1607013311.4897,-9
1607013311.4914,0
1607013311.4934,7
1607013311.4954,9
1607013311.4974,12
1607013311.4995,16
1607013311.5014,14
1607013311.5034,12
1607013311.5055,9
1607013311.5074,4
1607013311.5094,0
1607013311.5100,-2
1607013311.5114,-4
1607013311.5134,-7
1607013311.5155,-14
1607013311.5174,-16
1607013311.5194,-16
1607013311.5215,-16
1607013311.5234,-19
1607013311.5254,-16
1607013311.5275,-14
1607013311.5294,-16
1607013311.5314,-19
1607013311.5334,-16
1607013311.5354,-12
1607013311.5374,-9
1607013311.5394,-14
1607013311.5400,-19
1607013311.5414,-19
1607013311.5434,-24
1607013311.5454,-26
1607013311.5474,-21
1607013311.5494,-21
1607013311.5513,-24
1607013311.5533,-24
1607013311.5555,-19
1607013311.5574,-16
1607013311.5594,-16
1607013311.5613,-16
1607013311.5633,-16
1607013311.5653,-19
1607013311.5674,-19
1607013311.5694,-14
1607013311.5699,-12
1607013311.5713,-12
1607013311.5734,-14
1607013311.5754,-14
1607013311.5773,-12
1607013311.5795,-4
1607013311.5813,-2
1607013311.5835,-4
1607013311.5854,-4
1607013311.5873,0
1607013312.0211,2
1607013312.0220,2
1607013312.0245,4
1607013312.0271,0
1607013312.0291,-7
1607013312.0311,-2
1607013312.0317,21
1607013312.0331,36
1607013312.0352,24
1607013312.0371,24
1607013312.0392,41
1607013312.0411,24
1607013312.0431,-7
1607013312.0451,-14
1607013312.0472,-7
1607013312.0492,-4
1607013312.0511,-2
1607013312.0531,2
1607013312.0552,-12
1607013312.0571,-43
1607013312.0592,48
1607013312.0612,387
1607013312.0617,752
1607013312.0630,736
1607013312.0651,162
1607013312.0671,-510
1607013312.0691,-542
1607013312.0710,-154
1607013312.0730,-55
1607013312.0750,-101
1607013312.0770,-29
1607013312.0791,-2
1607013312.0810,-33
1607013312.0830,-16
1607013312.0850,0
1607013312.0870,-7
1607013312.0891,-2
1607013312.0910,2
1607013312.0916,2
1607013312.0930,9
1607013312.0949,14
1607013312.0970,9
1607013312.0990,4
1607013312.1010,12
1607013312.1029,21
1607013312.1050,24
1607013312.1069,29
1607013312.1090,38
1607013312.1111,48
1607013312.1130,58
1607013312.1149,67
1607013312.1169,79
1607013312.1190,92
1607013312.1210,101
1607013312.1216,113
1607013312.1229,128
1607013312.1249,142
1607013312.1269,152
1607013312.1290,154
1607013312.1309,162
1607013312.1329,159
1607013312.1349,140
1607013312.1371,108
1607013312.1390,82
1607013312.1409,55
1607013312.1429,31
1607013312.1449,4
1607013312.1469,-16
1607013312.1490,-24
1607013312.1509,-29
1607013312.1515,-36
1607013312.1529,-31
1607013312.1550,-19
1607013312.6211,-16
1607013312.6225,-12
1607013312.6250,-4
1607013312.6276,2
1607013312.6296,4
1607013312.6316,0
1607013312.6336,-2
1607013312.6356,0
1607013312.6376,0
1607013312.6396,-4
1607013312.6403,-7
1607013312.6416,-12
1607013312.6436,-16
1607013312.6456,-21
1607013312.6476,-29
1607013312.6496,-33
1607013312.6515,-31
1607013312.6535,-29
1607013312.6556,-29
1607013312.6575,-26
1607013312.6596,-24
1607013312.6615,-26
1607013312.6635,-29
1607013312.6655,-26
1607013312.6676,-21
1607013312.6695,-21
1607013312.6703,-24
1607013312.6716,-24
1607013312.6735,-24
1607013312.6755,-16
1607013312.6775,-12
1607013312.6794,-14
1607013312.6815,-19
1607013312.6835,-24
1607013312.6855,-21
1607013312.6874,-21
1607013312.6895,-24
1607013312.6914,-26
1607013312.6935,-24
1607013312.6954,-21
1607013312.6975,-19
1607013312.6995,-16
1607013312.7000,-19
1607013312.7014,-19
1607013312.7035,-16
1607013312.7055,-14
1607013312.7075,-14
1607013312.7095,-9
1607013312.7114,0
1607013312.7135,-2
1607013312.7154,7
1607013312.7174,33
1607013312.7195,38
1607013312.7214,29
1607013312.7235,41
1607013312.7254,31
1607013312.7274,2
1607013312.7294,-4
1607013312.7301,4
1607013312.7315,7
1607013312.7334,7
1607013312.7354,7
1607013312.7374,-2
1607013312.7394,-24
1607013312.7414,53
1607013312.7434,363
1607013312.7454,750
1607013312.7474,798
1607013312.7495,271
1607013312.7514,-452
1607013312.7534,-590
1607013312.7554,-227
1607013312.7574,-67
1607013313.1605,-94
1607013313.1614,-29
1607013313.1638,4
1607013313.1665,-26
1607013313.1688,-9
1607013313.1705,12
1607013313.1726,4
1607013313.1745,4
1607013313.1765,14
1607013313.1785,16
1607013313.1804,12
1607013313.1824,9
1607013313.1844,16
1607013313.1864,21
1607013313.1885,21
1607013313.1890,26
1607013313.1904,36
1607013313.1924,43
1607013313.1944,48
1607013313.1965,55
1607013313.1985,62
1607013313.2004,77
1607013313.2024,89
1607013313.2044,101
1607013313.2064,113
1607013313.2084,125
1607013313.2103,130
1607013313.2123,138
1607013313.2144,150
1607013313.2164,157
1607013313.2183,159
1607013313.2189,157
1607013313.2204,140
1607013313.2225,118
1607013313.2244,92
1607013313.2263,70
1607013313.2284,46
1607013313.2303,21
1607013313.2323,2
1607013313.2343,-4
1607013313.2364,-4
1607013313.2385,-4
1607013313.2403,-2
1607013313.2423,2
1607013313.2444,9
1607013313.2463,19
1607013313.2484,24
1607013313.2490,29
1607013313.2503,33
1607013313.2523,36
1607013313.2543,33
1607013313.2563,38
1607013313.2584,43
1607013313.2603,38
1607013313.2623,33
1607013313.2645,33
1607013313.2664,31
1607013313.2684,26
1607013313.2703,24
1607013313.2723,19
1607013313.2743,14
1607013313.2763,12
1607013313.2783,12
1607013313.2789,14
1607013313.2803,14
1607013313.2823,12
1607013313.2843,9
1607013313.2863,9
1607013313.2884,9
1607013313.2903,9
1607013313.2924,9
1607013313.2943,9
1607013313.2963,9
1607013313.7297,7
1607013313.7307,4
1607013313.7331,12
1607013313.7348,21
1607013313.7368,19
1607013313.7389,21
1607013313.7396,19
1607013313.7409,7
1607013313.7428,-2
1607013313.7448,4
1607013313.7468,9
1607013313.7488,16
1607013313.7507,14
1607013313.7527,12
1607013313.7547,26
1607013313.7567,26
1607013313.7588,16
1607013313.7608,21
1607013313.7627,33
1607013313.7647,36
1607013313.7667,36
1607013313.7688,43
1607013313.7693,72
1607013313.7707,89
1607013313.7727,75
1607013313.7747,72
1607013313.7767,84
1607013313.7787,60
1607013313.7807,29
1607013313.7827,26
1607013313.7847,31
1607013313.7866,41
1607013313.7887,62
1607013313.7909,65
1607013313.7928,26
1607013313.7946,21
1607013313.7966,217
1607013313.7987,610
1607013313.7993,849
1607013313.8006,583
1607013313.8027,-99
1607013313.8046,-518
1607013313.8066,-300
1607013313.8087,-26
1607013313.8106,-24
1607013313.8128,-4
1607013313.8146,50
1607013313.8166,36
1607013313.8187,36
1607013313.8207,82
1607013313.8226,94
1607013313.8247,67
1607013313.8266,60
1607013313.8287,53
1607013313.8292,62
1607013313.8306,84
1607013313.8326,87
1607013313.8346,99
1607013313.8366,77
1607013313.8386,60
1607013313.8406,118
1607013313.8427,113
1607013313.8447,70
1607013313.8466,147
1607013313.8487,174
1607013313.8506,94
1607013313.8526,104
1607013313.8547,162
1607013313.8566,181
1607013313.8587,130
1607013313.8592,79
1607013313.8606,145
1607013313.8626,239
1607013314.2994,256
1607013314.3004,246
1607013314.3029,246
1607013314.3055,242
1607013314.3061,215
1607013314.3066,186
1607013314.3085,191
1607013314.3104,193
1607013314.3124,186
1607013314.3206,125
1607013314.3224,41
1607013314.3246,79
1607013314.3264,171
1607013314.3284,157
1607013314.3304,101
1607013314.3323,99
1607013314.3343,152
1607013314.3364,171
1607013314.3384,79
1607013314.3405,82
1607013314.3424,174
1607013314.3443,152
1607013314.3463,150
1607013314.3484,167
1607013314.3490,106
1607013314.3503,121
1607013314.3523,203
1607013314.3543,179
1607013314.3563,113
1607013314.3584,106
1607013314.3603,121
1607013314.3623,125
1607013314.3643,133
1607013314.3663,150
1607013314.3683,138
1607013314.3703,104
1607013314.3723,92
1607013314.3743,96
1607013314.3763,108
1607013314.3783,118
1607013314.3789,96
1607013314.3803,87
1607013314.3823,92
1607013314.3844,87
1607013314.3863,77
1607013314.3883,70
1607013314.3903,75
1607013314.3923,75
1607013314.3943,62
1607013314.3963,60
1607013314.3983,60
1607013314.4002,33
1607013314.4022,9
1607013314.4043,4
1607013314.4064,-2
1607013314.4083,-9
1607013314.4089,-14
1607013314.4102,-21
1607013314.4122,-36
1607013314.4142,-55
1607013314.4162,-67
1607013314.4183,-70
1607013314.4204,-70
1607013314.4223,-53
1607013314.4242,-43
1607013314.4262,-48
1607013314.4283,-48
1607013314.4302,-41
1607013314.4322,-38
1607013314.4342,-38
1607013314.4362,-60
1607013314.4383,-87
1607013314.4389,-89
1607013314.8394,-82
1607013314.8404,-77
1607013314.8429,-72
1607013314.8446,-67
1607013314.8466,-87
1607013314.8485,-106
1607013314.8504,19
1607013314.8524,375
1607013314.8544,699
1607013314.8564,590
1607013314.8585,-50
1607013314.8604,-644
1607013314.8624,-552
1607013314.8644,-191
1607013314.8664,-145
1607013314.8672,-164
1607013314.8684,-84
1607013314.8704,-75
1607013314.8724,-99
1607013314.8744,-72
1607013314.8764,-53
1607013314.8784,-55
1607013314.8803,-55
1607013314.8823,-50
1607013314.8843,-48
1607013314.8864,-38
1607013314.8884,-33
1607013314.8903,-31
1607013314.8923,-24
1607013314.8943,-19
1607013314.8963,-14
1607013314.8970,-9
1607013314.8983,-4
1607013314.9003,9
1607013314.9025,21
1607013314.9044,29
1607013314.9063,33
1607013314.9084,50
1607013314.9103,65
1607013314.9123,72
1607013314.9145,82
1607013314.9164,99
1607013314.9184,108
1607013314.9203,116
1607013314.9223,128
1607013314.9243,135
1607013314.9263,128
1607013314.9270,111
1607013314.9283,82
1607013314.9303,48
1607013314.9323,24
1607013314.9343,4
1607013314.9363,-24
1607013314.9383,-46
1607013314.9403,-48
1607013314.9423,-48
1607013314.9443,-50
1607013314.9463,-46
1607013314.9483,-36
1607013314.9503,-36
1607013314.9523,-26
1607013314.9543,-12
1607013314.9563,-4
1607013314.9571,-7
1607013314.9583,-12
1607013314.9603,-9
1607013314.9623,-2
1607013314.9643,0
1607013314.9663,-4
1607013314.9683,-12
1607013314.9703,-16
1607013314.9723,-21
1607013314.9744,-21
1607013315.3787,-24
1607013315.3796,-31
1607013315.3820,-33
1607013315.3847,-36
1607013315.3854,-33
1607013315.3877,-29
1607013315.3897,-31
1607013315.3917,-43
1607013315.3937,-46
1607013315.3957,-38
1607013315.3976,-36
1607013315.3996,-38
1607013315.4016,-36
1607013315.4036,-33
1607013315.4056,-31
1607013315.4077,-33
1607013315.4096,-33
1607013315.4116,-31
1607013315.4138,-31
1607013315.4157,-36
1607013315.4162,-31
1607013315.4176,-21
1607013315.4196,-14
1607013315.4216,-12
1607013315.4236,4
1607013315.4255,16
1607013315.4276,9
1607013315.4296,12
1607013315.4316,26
1607013315.4336,9
1607013315.4355,-24
1607013315.4376,-31
1607013315.4389,-24
1607013315.4406,-24
1607013315.4425,-19
1607013315.4445,-16
1607013315.4451,-29
1607013315.4465,-50
1607013315.4485,-12
1607013315.4505,242
1607013315.4526,648
1607013315.4546,818
1607013315.4565,416
1607013315.4585,-346
1607013315.4605,-673
1607013315.4626,-360
1607013315.4645,-111
1607013315.4665,-128
1607013315.4685,-77
1607013315.4705,-16
1607013315.4725,-43
1607013315.4745,-46
1607013315.4751,-19
1607013315.4765,-21
1607013315.4785,-21
1607013315.4805,-9
1607013315.4825,-7
1607013315.4845,-7
1607013315.4865,-4
1607013315.4885,-2
1607013315.4905,2
1607013315.4925,9
1607013315.4945,12
1607013315.4965,12
1607013315.4985,12
1607013315.5005,19
1607013315.5025,29
1607013315.5045,41
1607013315.5051,53
1607013315.5067,62
1607013315.5085,72
1607013315.5105,84
1607013315.5125,96
1607013315.9792,111
1607013315.9805,121
1607013315.9830,133
1607013315.9856,138
1607013315.9876,133
1607013315.9896,121
1607013315.9916,108
1607013315.9936,92
1607013315.9956,62
1607013315.9977,31
1607013315.9983,7
1607013315.9995,-14
1607013316.0016,-29
1607013316.0036,-36
1607013316.0056,-41
1607013316.0076,-41
1607013316.0095,-36
1607013316.0115,-26
1607013316.0135,-21
1607013316.0155,-14
1607013316.0176,-9
1607013316.0195,-7
1607013316.0215,-4
1607013316.0235,0
1607013316.0255,2
1607013316.0275,4
1607013316.0281,9
1607013316.0295,7
1607013316.0315,0
1607013316.0335,2
1607013316.0355,2
1607013316.0375,-2
1607013316.0395,-4
1607013316.0415,-7
1607013316.0435,-7
1607013316.0455,-7
1607013316.0475,-7
1607013316.0495,-7
1607013316.0515,-7
1607013316.0535,-7
1607013316.0555,-4
1607013316.0576,-2
1607013316.0581,-4
1607013316.0594,-4
1607013316.0614,-2
1607013316.0634,0
1607013316.0655,2
1607013316.0676,2
1607013316.0695,2
1607013316.0714,2
1607013316.0734,4
1607013316.0754,4
1607013316.0775,4
1607013316.0794,4
1607013316.0814,7
1607013316.0835,7
1607013316.0855,2
1607013316.0874,0
1607013316.0880,7
1607013316.0894,12
1607013316.0914,24
1607013316.0934,38
1607013316.0954,31
1607013316.0975,29
1607013316.0994,43
1607013316.1014,29
1607013316.1034,-2
1607013316.1054,-7
1607013316.1074,-4
1607013316.1094,-2
1607013316.1114,0
1607013316.1134,4
1607013316.1154,-7
1607013316.5486,-36
1607013316.5495,2
1607013316.5513,278
1607013316.5532,687
1607013316.5552,813
1607013316.5572,360
1607013316.5591,-389
1607013316.5612,-617
1607013316.5631,-242
1607013316.5651,-53
1607013316.5672,-121
1607013316.5691,-70
1607013316.5711,-14
1607013316.5717,-50
1607013316.5731,-46
1607013316.5751,-16
1607013316.5771,-21
1607013316.5791,-26
1607013316.5811,-14
1607013316.5831,-9
1607013316.5851,-9
1607013316.5871,-7
1607013316.5891,-2
1607013316.5912,2
1607013316.5931,9
1607013316.5952,16
1607013316.5972,19
1607013316.5991,26
1607013316.6010,36
1607013316.6017,41
1607013316.6031,50
1607013316.6050,65
1607013316.6071,77
1607013316.6090,87
1607013316.6110,104
1607013316.6130,116
1607013316.6150,128
1607013316.6170,138
1607013316.6190,147
1607013316.6210,154
1607013316.6230,159
1607013316.6250,152
1607013316.6270,133
1607013316.6290,108
1607013316.6310,75
1607013316.6316,41
1607013316.6330,16
1607013316.6350,-4
1607013316.6370,-24
1607013316.6391,-36
1607013316.6410,-41
1607013316.6430,-36
1607013316.6450,-31
1607013316.6470,-26
1607013316.6490,-19
1607013316.6510,-12
1607013316.6530,-7
1607013316.6550,-4
1607013316.6570,2
1607013316.6590,12
1607013316.6610,14
1607013316.6616,12
1607013316.6630,14
1607013316.6650,12
1607013316.6670,9
1607013316.6690,7
1607013316.6710,4
1607013316.6730,0
1607013316.6750,-2
1607013316.6770,-2
1607013316.6790,-4
1607013316.6810,-9
1607013316.6830,-7
1607013317.0877,-4
1607013317.0887,-7
1607013317.0892,-4
1607013317.0909,-4
1607013317.0927,-4
1607013317.0947,-2
1607013317.0966,-2
1607013317.0985,-4
1607013317.1007,-2
1607013317.1026,2
1607013317.1045,-2
1607013317.1066,-7
1607013317.1085,-2
1607013317.1105,2
1607013317.1126,0
1607013317.1145,2
1607013317.1165,7
1607013317.1185,7
1607013317.1191,7
1607013317.1205,9
1607013317.1225,14
1607013317.1246,14
1607013317.1266,14
1607013317.1286,14
1607013317.1305,19
1607013317.1325,21
1607013317.1346,19
1607013317.1366,19
1607013317.1385,24
1607013317.1405,26
1607013317.1425,21
1607013317.1445,21
1607013317.1465,21
1607013317.1485,24
1607013317.1492,24
1607013317.1505,19
1607013317.1525,16
1607013317.1545,21
1607013317.1566,21
1607013317.1585,21
1607013317.1605,19
1607013317.1625,19
1607013317.1645,12
1607013317.1666,14
1607013317.1685,24
1607013317.1705,31
1607013317.1725,46
1607013317.1745,60
1607013317.1765,53
1607013317.1785,50
1607013317.1791,58
1607013317.1804,36
1607013317.1825,9
1607013317.1845,7
1607013317.1867,7
1607013317.1885,4
1607013317.1904,7
1607013317.1924,7
1607013317.1944,-12
1607013317.1965,-24
1607013317.1984,101
1607013317.2005,440
1607013317.2025,750
1607013317.2044,648
1607013317.2064,31
1607013317.2084,-554
1607013317.2090,-467
1607013317.2106,-111
1607013317.2125,-72
1607013317.2144,-101
1607013317.2165,-24
1607013317.2184,-14
1607013317.2205,-41
1607013317.6276,-21
1607013317.6285,-4
1607013317.6309,-14
1607013317.6336,-14
1607013317.6356,-7
1607013317.6377,-7
1607013317.6397,-4
1607013317.6416,-4
1607013317.6423,-14
1607013317.6436,-14
1607013317.6456,-2
1607013317.6475,4
1607013317.6495,4
1607013317.6516,9
1607013317.6535,14
1607013317.6557,24
1607013317.6576,36
1607013317.6595,48
1607013317.6616,58
1607013317.6635,67
1607013317.6655,82
1607013317.6675,96
1607013317.6695,108
1607013317.6715,113
1607013317.6721,121
1607013317.6735,135
1607013317.6755,142
1607013317.6775,138
1607013317.6795,125
1607013317.6815,108
1607013317.6835,84
1607013317.6855,53
1607013317.6877,24
1607013317.6895,-2
1607013317.6915,-24
1607013317.6935,-38
1607013317.6955,-46
1607013317.6975,-46
1607013317.6995,-38
1607013317.7015,-31
1607013317.7021,-26
1607013317.7035,-21
1607013317.7056,-14
1607013317.7075,-14
1607013317.7095,-7
1607013317.7115,2
1607013317.7135,7
1607013317.7155,2
1607013317.7175,-2
1607013317.7195,0
1607013317.7215,4
1607013317.7235,-4
1607013317.7255,-9
1607013317.7275,-7
1607013317.7294,-14
1607013317.7315,-19
1607013317.7321,-16
1607013317.7335,-16
1607013317.7355,-21
1607013317.7375,-26
1607013317.7395,-21
1607013317.7415,-14
1607013317.7435,-14
1607013317.7454,-16
1607013317.7475,-12
1607013317.7494,-9
1607013317.7515,-19
1607013317.7534,-24
1607013317.7555,-16
1607013317.7575,-7
1607013317.7596,-7
1607013317.7601,-9
1607013317.7614,-14
1607013318.1973,-19
1607013318.1983,-14
1607013318.2008,-7
1607013318.2034,-4
1607013318.2054,-9
1607013318.2074,-16
1607013318.2096,-24
1607013318.2114,-19
1607013318.2133,-16
1607013318.2154,-16
1607013318.2175,-14
1607013318.2194,-9
1607013318.2201,-12
1607013318.2213,-14
1607013318.2233,-12
1607013318.2253,-2
1607013318.2273,2
1607013318.2293,-4
1607013318.2314,-12
1607013318.2333,-7
1607013318.2353,-2
1607013318.2373,-2
1607013318.2393,0
1607013318.2413,19
1607013318.2434,33
1607013318.2454,19
1607013318.2473,19
1607013318.2492,33
1607013318.2499,9
1607013318.2512,-24
1607013318.2533,-24
1607013318.2553,-14
1607013318.2573,-14
1607013318.2593,-16
1607013318.2612,-14
1607013318.2632,-16
1607013318.2654,-26
1607013318.2673,79
1607013318.2693,426
1607013318.2713,791
1607013318.2732,743
1607013318.2752,130
1607013318.2772,-549
1607013318.2792,-581
1607013318.2798,-210
1607013318.2812,-99
1607013318.2832,-118
1607013318.2852,-36
1607013318.2872,-12
1607013318.2892,-46
1607013318.2912,-26
1607013318.2932,-4
1607013318.2952,-14
1607013318.2972,-14
1607013318.2992,-2
1607013318.3012,0
1607013318.3032,-4
1607013318.3052,0
1607013318.3072,9
1607013318.3092,9
1607013318.3098,12
1607013318.3114,19
1607013318.3133,26
1607013318.3152,33
1607013318.3172,43
1607013318.3192,53
1607013318.3212,53
1607013318.3232,55
1607013318.3252,75
1607013318.3272,92
1607013318.3292,99
1607013318.3312,101
1607013318.3332,111
1607013318.7374,118
1607013318.7384,128
1607013318.7407,135
1607013318.7419,140
1607013318.7436,140
1607013318.7454,128
1607013318.7474,104
1607013318.7495,72
1607013318.7514,43
1607013318.7534,14
1607013318.7555,-4
1607013318.7574,-16
1607013318.7594,-29
1607013318.7614,-31
1607013318.7634,-29
1607013318.7654,-24
1607013318.7673,-16
1607013318.7694,-12
1607013318.7714,-9
1607013318.7720,-9
1607013318.7734,-7
1607013318.7754,-4
1607013318.7773,-2
1607013318.7793,2
1607013318.7814,2
1607013318.7833,-2
1607013318.7855,-2
1607013318.7873,0
1607013318.7893,0
1607013318.7913,-7
1607013318.7933,-9
1607013318.7954,-9
1607013318.7973,-9
1607013318.7993,-14
1607013318.8013,-16
1607013318.8020,-14
1607013318.8033,-14
1607013318.8053,-19
1607013318.8073,-16
1607013318.8095,-14
1607013318.8113,-19
1607013318.8133,-24
1607013318.8154,-19
1607013318.8173,-14
1607013318.8193,-12
1607013318.8213,-14
1607013318.8233,-12
1607013318.8253,-9
1607013318.8273,-7
1607013318.8293,-9
1607013318.8313,-7
1607013318.8319,-2
1607013318.8333,-2
1607013318.8354,0
1607013318.8373,0
1607013318.8393,-4
1607013318.8413,-9
1607013318.8433,-4
1607013318.8454,-2
1607013318.8473,-2
1607013318.8493,-4
1607013318.8513,-4
1607013318.8533,0
1607013318.8553,7
1607013318.8573,9
1607013318.8594,26
1607013318.8613,43
1607013318.8619,38
1607013318.8633,38
1607013318.8653,46
1607013318.8672,24
1607013318.8693,-2
1607013318.8713,-4
1607013319.3374,0
1607013319.3384,2
1607013319.3407,7
1607013319.3434,2
1607013319.3455,-24
1607013319.3474,-41
1607013319.3495,79
1607013319.3502,443
1607013319.3514,801
1607013319.3534,728
1607013319.3555,94
1607013319.3574,-556
1607013319.3594,-525
1607013319.3614,-147
1607013319.3635,-77
1607013319.3655,-108
1607013319.3674,-21
1607013319.3697,-2
1607013319.3714,-36
1607013319.3734,-16
1607013319.3754,0
1607013319.3773,-7
1607013319.3793,0
1607013319.3800,9
1607013319.3814,9
1607013319.3833,12
1607013319.3854,19
1607013319.3874,21
1607013319.3894,24
1607013319.3913,33
1607013319.3933,36
1607013319.3954,38
1607013319.3973,43
1607013319.3993,50
1607013319.4013,55
1607013319.4033,65
1607013319.4054,79
1607013319.4073,92
1607013319.4093,101
1607013319.4099,111
1607013319.4113,123
1607013319.4133,138
1607013319.4153,145
1607013319.4173,150
1607013319.4193,157
1607013319.4213,159
1607013319.4233,152
1607013319.4253,133
1607013319.4273,108
1607013319.4293,82
1607013319.4313,48
1607013319.4333,16
1607013319.4353,-2
1607013319.4373,-14
1607013319.4393,-26
1607013319.4399,-29
1607013319.4413,-26
1607013319.4433,-24
1607013319.4453,-21
1607013319.4473,-14
1607013319.4493,-7
1607013319.4513,0
1607013319.4533,0
1607013319.4553,2
1607013319.4573,4
1607013319.4593,12
1607013319.4613,12
1607013319.4633,12
1607013319.4655,12
1607013319.4673,7
1607013319.4693,0
1607013319.4699,-4
1607013319.4713,-4
1607013319.9071,-9
1607013319.9083,-14
1607013319.9108,-16
1607013319.9134,-16
1607013319.9154,-19
1607013319.9173,-21
1607013319.9194,-26
1607013319.9214,-31
1607013319.9234,-36
1607013319.9254,-41
1607013319.9274,-36
1607013319.9294,-33
1607013319.9314,-36
1607013319.9334,-33
1607013319.9340,-31
1607013319.9354,-26
1607013319.9374,-26
1607013319.9394,-29
1607013319.9414,-26
1607013319.9434,-26
1607013319.9454,-31
1607013319.9473,-29
1607013319.9493,-24
1607013319.9513,-26
1607013319.9533,-29
1607013319.9554,-24
1607013319.9573,-21
1607013319.9593,-19
1607013319.9613,-19
1607013319.9634,-16
1607013319.9639,-16
1607013319.9653,-14
1607013319.9673,-14
1607013319.9693,-12
1607013319.9713,-7
1607013319.9732,-7
1607013319.9753,-7
1607013319.9773,-7
1607013319.9793,-4
1607013319.9813,-2
1607013319.9834,-2
1607013319.9853,0
1607013319.9872,4
1607013319.9892,7
1607013319.9913,12
1607013319.9932,29
1607013319.9940,46
1607013319.9953,38
1607013319.9972,33
1607013319.9992,46
1607013320.0012,29
1607013320.0032,0
1607013320.0053,-4
1607013320.0072,0
1607013320.0092,-2
1607013320.0112,-2
1607013320.0132,0
1607013320.0152,-9
1607013320.0172,-38
1607013320.0192,38
1607013320.0212,360
1607013320.0232,738
1607013320.0238,757
1607013320.0253,215
1607013320.0273,-472
1607013320.0292,-542
1607013320.0313,-152
1607013320.0334,-41
1607013320.0353,-99
1607013320.0372,-24
1607013320.0392,7
1607013320.0412,-31
1607013320.0432,-19
1607013320.4469,4
1607013320.4478,-4
1607013320.4502,-4
1607013320.4513,7
1607013320.4530,9
1607013320.4550,12
1607013320.4570,16
1607013320.4590,21
1607013320.4609,24
1607013320.4629,24
1607013320.4650,24
1607013320.4669,29
1607013320.4688,36
1607013320.4709,41
1607013320.4728,48
1607013320.4749,62
1607013320.4769,75
1607013320.4788,87
1607013320.4809,99
1607013320.4815,111
1607013320.4829,125
1607013320.4849,138
1607013320.4868,154
1607013320.4888,167
1607013320.4910,171
1607013320.4928,174
1607013320.4949,176
1607013320.4968,169
1607013320.4988,145
1607013320.5008,116
1607013320.5028,92
1607013320.5049,67
1607013320.5068,38
1607013320.5088,16
1607013320.5108,14
1607013320.5114,12
1607013320.5128,0
1607013320.5148,4
1607013320.5168,21
1607013320.5188,21
1607013320.5208,7
1607013320.5228,16
1607013320.5249,46
1607013320.5268,55
1607013320.5288,46
1607013320.5308,38
1607013320.5328,38
1607013320.5341,33
1607013320.5358,36
1607013320.5378,33
1607013320.5384,14
1607013320.5398,9
1607013320.5419,12
1607013320.5438,-7
1607013320.5458,-7
1607013320.5478,-2
1607013320.5498,-14
1607013320.5518,-12
1607013320.5538,-9
1607013320.5558,-26
1607013320.5578,-21
1607013320.5598,-9
1607013320.5618,-19
1607013320.5638,-19
1607013320.5658,-31
1607013320.5678,-41
1607013320.5684,-36
1607013320.5698,-43
1607013320.5718,-43
1607013320.5738,-33
1607013320.5758,-36
1607013320.5778,-33
1607013320.5798,-21
1607013321.0164,-24
1607013321.0173,-33
1607013321.0200,-36
1607013321.0224,-29
1607013321.0246,-24
1607013321.0264,-31
1607013321.0285,-43
1607013321.0304,-46
1607013321.0310,-48
1607013321.0324,-48
1607013321.0345,-38
1607013321.0365,-36
1607013321.0384,-41
1607013321.0404,-36
1607013321.0424,-33
1607013321.0444,-36
1607013321.0463,-31
1607013321.0483,-29
1607013321.0503,-31
1607013321.0523,-26
1607013321.0544,-14
1607013321.0563,-16
1607013321.0584,-24
1607013321.0604,-21
1607013321.0609,-14
1607013321.0625,-16
1607013321.0644,-16
1607013321.0663,-12
1607013321.0683,-14
1607013321.0703,-16
1607013321.0723,-14
1607013321.0744,-12
1607013321.0763,-14
1607013321.0783,-9
1607013321.0803,-9
1607013321.0823,-9
1607013321.0843,-7
1607013321.0863,-2
1607013321.0883,14
1607013321.0902,38
1607013321.0909,38
1607013321.0923,26
1607013321.0943,36
1607013321.0963,36
1607013321.0982,4
1607013321.1003,-7
1607013321.1022,2
1607013321.1043,0
1607013321.1063,0
1607013321.1082,9
1607013321.1103,4
1607013321.1122,-9
1607013321.1142,48
1607013321.1165,300
1607013321.1183,639
1607013321.1202,728
1607013321.1209,309
1607013321.1223,-363
1607013321.1243,-566
1607013321.1262,-244
1607013321.1282,-67
1607013321.1302,-101
1607013321.1322,-48
1607013321.1343,0
1607013321.1363,-29
1607013321.1382,-26
1607013321.1402,0
1607013321.1422,-2
1607013321.1443,-7
1607013321.1462,-7
1607013321.1483,-7
1607013321.1502,0
1607013321.1509,7
1607013321.5559,9
1607013321.5568,14
1607013321.5592,24
1607013321.5620,26
1607013321.5639,26
1607013321.5659,31
1607013321.5681,41
1607013321.5699,43
1607013321.5718,38
1607013321.5740,46
1607013321.5758,60
1607013321.5778,67
1607013321.5798,77
1607013321.5805,92
1607013321.5818,104
1607013321.5838,108
1607013321.5858,121
1607013321.5878,135
1607013321.5898,147
1607013321.5918,154
1607013321.5938,147
1607013321.5958,128
1607013321.5978,104
1607013321.5998,77
1607013321.6017,46
1607013321.6038,16
1607013321.6057,0
1607013321.6078,-19
1607013321.6097,-36
1607013321.6104,-36
1607013321.6119,-24
1607013321.6142,-24
1607013321.6158,-29
1607013321.6179,-24
1607013321.6198,-14
1607013321.6217,-14
1607013321.6237,-12
1607013321.6257,-4
1607013321.6277,-2
1607013321.6297,0
1607013321.6317,2
1607013321.6338,4
1607013321.6357,-2
1607013321.6377,-14
1607013321.6384,-12
1607013321.6397,-7
1607013321.6417,-14
1607013321.6437,-24
1607013321.6457,-31
1607013321.6477,-29
1607013321.6498,-21
1607013321.6518,-19
1607013321.6537,-26
1607013321.6557,-31
1607013321.6577,-36
1607013321.6597,-36
1607013321.6617,-31
1607013321.6637,-29
1607013321.6657,-31
1607013321.6677,-38
1607013321.6683,-43
1607013321.6697,-33
1607013321.6718,-29
1607013321.6737,-33
1607013321.6757,-36
1607013321.6777,-26
1607013321.6797,-26
1607013321.6817,-31
1607013321.6837,-29
1607013321.6857,-21
1607013321.6877,-24
1607013321.6898,-31
1607013321.6917,-26
1607013322.1256,-19
1607013322.1265,-19
1607013322.1289,-21
1607013322.1316,-19
1607013322.1335,-19
1607013322.1357,-26
1607013322.1376,-36
1607013322.1395,-31
1607013322.1415,-21
1607013322.1438,-26
1607013322.1456,-33
1607013322.1475,-29
1607013322.1496,-21
1607013322.1515,-19
1607013322.1535,-4
1607013322.1555,14
1607013322.1575,9
1607013322.1581,4
1607013322.1595,21
1607013322.1615,9
1607013322.1635,-24
1607013322.1655,-31
1607013322.1675,-21
1607013322.1695,-16
1607013322.1715,-12
1607013322.1735,-4
1607013322.1756,-4
1607013322.1774,-19
1607013322.1795,77
1607013322.1814,430
1607013322.1834,803
1607013322.1854,762
1607013322.1874,157
1607013322.1880,-542
1607013322.1894,-588
1607013322.1914,-196
1607013322.1934,-77
1607013322.1954,-108
1607013322.1974,-24
1607013322.1994,7
1607013322.2014,-26
1607013322.2034,-14
1607013322.2054,0
1607013322.2074,-7
1607013322.2094,-2
1607013322.2114,9
1607013322.2134,9
1607013322.2154,9
1607013322.2175,12
1607013322.2180,14
1607013322.2194,21
1607013322.2214,26
1607013322.2234,26
1607013322.2254,29
1607013322.2274,36
1607013322.2295,46
1607013322.2314,55
1607013322.2335,65
1607013322.2355,77
1607013322.2374,87
1607013322.2395,96
1607013322.2414,108
1607013322.2434,125
1607013322.2454,135
1607013322.2474,140
1607013322.2480,150
1607013322.2494,154
1607013322.2514,154
1607013322.2534,150
1607013322.2554,138
1607013322.2574,116
1607013322.2594,92
1607013322.2614,65
1607013322.7256,36
1607013322.7262,9
1607013322.7290,-14
1607013322.7313,-26
1607013322.7332,-29
1607013322.7353,-24
1607013322.7373,-31
1607013322.7392,-38
1607013322.7412,-31
1607013322.7432,-21
1607013322.7452,-16
1607013322.7472,-12
1607013322.7492,-7
1607013322.7512,-2
1607013322.7532,4
1607013322.7552,9
1607013322.7558,7
1607013322.7572,9
1607013322.7592,9
1607013322.7612,4
1607013322.7633,2
1607013322.7652,2
1607013322.7672,-2
1607013322.7692,-9
1607013322.7712,-9
